,Unnamed: 0,time,MARKER,pid,L_O_DSI,L_D_DSI,L_O_DSphi,L_D_DSphi,R_O_DSI,R_D_DSI,R_O_DSphi,R_D_DSphi,trial_id,dateTimestamps,floatTimestamps,timestamps,episode,actions,rewards,discounted_rewards,chosen_actions,optimal_actions,states,continuous_optimal,binary_optimal,discrete_optimal
1,1,2024-09-25 22:19:10.182415104,TASK_BEGIN,18,-0.9214655983657268,0.5099808939885028,0.0718266878592819,0.427550938243698,-0.8378817233276569,0.3329904482110889,2.058547289346611,-0.9886868252130324,0,2024-09-25 22:19:16.509485107,1727302756.5094857,2024-09-25 22:19:16.509485824,0,1.0,0.1,0.8648275251635908,[0.33314379 0.66685621],[0.33314379 0.66685621],"[ 0.875       0.25390625  0.44921875  1.          0.          1.
  1.          0.          1.          0.3359375  -0.8         0.5       ]",0.051272256918236225,0,0
2,2,2024-09-25 22:19:10.248030976,TASK_BEGIN,18,-1.0866637255717009,0.5129080123041672,0.4510059854500765,0.4920004516969694,-0.762422546586847,0.3457090774463022,1.8506377686890665,-0.8969864816675681,0,2024-09-25 22:19:16.560489014,1727302756.5604892,2024-09-25 22:19:16.560489216,0,1.0,0.1,0.9561792499119549,[0.31712838 0.68287162],[0.31712838 0.68287162],"[ 0.86111111  0.25390625  0.44921875  1.          0.          1.
  1.          0.          1.          0.3203125  -0.8         0.5       ]",0.06121724387616445,0,0
3,3,2024-09-25 22:19:10.306906880,TASK_BEGIN,18,-1.245456602279468,0.5169606879870429,0.7991388707608589,0.554631559439546,-0.6959371775815302,0.3596252322786046,1.670095770477868,-0.8139221840421145,0,2024-09-25 22:19:16.611500977,1727302756.611502,2024-09-25 22:19:16.611501824,0,1.0,0.1,1.0466174574128353,[0.30364509 0.69635491],[0.30364509 0.69635491],"[ 0.84722222  0.25390625  0.44921875  1.          0.          1.
  1.          0.          1.          0.3046875  -0.8         0.5       ]",0.07070707648944315,0,0
4,4,2024-09-25 22:19:10.390266880,TASK_BEGIN,18,-1.395125580087094,0.5225682370530178,1.1042047559149577,0.6148096383122371,-0.6422931959768078,0.3753474533038183,1.5279275424086332,-0.742168191621146,0,2024-09-25 22:19:16.713488037,1727302756.7134888,2024-09-25 22:19:16.713488896,0,1.0,0.1,1.22478977001032,[0.29901363 0.70098637],[0.29901363 0.70098637],"[ 0.81944444  0.25390625  0.44921875  1.          0.          1.
  1.          0.          1.          0.2734375  -0.8         0.5       ]",0.07384099684014485,0,0
5,5,2024-09-25 22:19:10.458105856,TASK_BEGIN,18,-1.5333772906999996,0.5300326493830695,1.3581571702441255,0.6715234722729164,-0.6046444809734258,0.3934355887854261,1.432244051964411,-0.6832255013068105,0,2024-09-25 22:19:16.713488037,1727302756.7134888,2024-09-25 22:19:16.713488896,0,1.0,0.1,1.22478977001032,[0.29901363 0.70098637],[0.29901363 0.70098637],"[ 0.81944444  0.25390625  0.44921875  1.          0.          1.
  1.          0.          1.          0.2734375  -0.8         0.5       ]",0.07384099684014485,0,0
6,6,2024-09-25 22:19:10.525978880,TASK_BEGIN,18,-1.6583972498610735,0.5395166333313735,1.557309777847904,0.7234194573163966,-0.5852472197401534,0.4143642322692685,1.387451583945318,-0.6373639459229103,0,2024-09-25 22:19:16.713488037,1727302756.7134888,2024-09-25 22:19:16.713488896,0,1.0,0.1,1.22478977001032,[0.29901363 0.70098637],[0.29901363 0.70098637],"[ 0.81944444  0.25390625  0.44921875  1.          0.          1.
  1.          0.          1.          0.2734375  -0.8         0.5       ]",0.07384099684014485,0,0
7,7,2024-09-25 22:19:11.468229120,TASK_BEGIN,18,-1.7688943123651628,0.5510452210335592,1.7020789737672612,0.7689477573134956,-0.5853520830048037,0.4384858429291014,1.393910929701435,-0.6037514411507188,0,2024-09-25 22:19:17.783697998,1727302757.783698,2024-09-25 22:19:17.783698176,0,0.0,0.1,2.894467727277078,[9.99998507e-01 1.49258581e-06],[9.99998507e-01 1.49258581e-06],"[ 0.52777778  0.25390625  0.44921875  1.          0.          1.
  1.          0.          1.          0.27929688  1.         -0.1       ]",0.4041116297403848,0,0
8,8,2024-09-25 22:19:11.535182848,TASK_BEGIN,18,-1.8641264165675075,0.5645178080107212,1.7962636696405951,0.8065589582719777,-0.6051772022802283,0.4660017276214028,1.4481945070223583,-0.580746587896002,0,2024-09-25 22:19:17.835016846,1727302757.8350174,2024-09-25 22:19:17.835017472,0,0.0,0.1,2.965523050004307,[9.99990460e-01 9.54005876e-06],[9.99990460e-01 9.54005876e-06],"[ 0.51388889  0.25390625  0.44921875  1.          0.          1.
  1.          0.          1.          0.29882812  1.         -0.13333333]",0.4272567299413042,0,0
9,9,2024-09-25 22:19:11.597409024,TASK_BEGIN,18,-1.9438796981129964,0.579725603943645,1.846102775658293,0.8349007050508767,-0.6439415618244899,0.496943033062596,1.5437186481201743,-0.5662559465317127,0,2024-09-25 22:19:17.835016846,1727302757.8350174,2024-09-25 22:19:17.835017472,0,0.0,0.1,2.965523050004307,[9.99990460e-01 9.54005876e-06],[9.99990460e-01 9.54005876e-06],"[ 0.51388889  0.25390625  0.44921875  1.          0.          1.
  1.          0.          1.          0.29882812  1.         -0.13333333]",0.4272567299413042,0,0
10,10,2024-09-25 22:19:11.659075840,TASK_BEGIN,18,-2.008397895930157,0.5963681528185115,1.8592171333543563,0.8530086767011315,-0.6999315117026131,0.5311587218969597,1.6714407076732454,-0.5580425796871108,0,2024-09-25 22:19:17.987665771,1727302757.9876666,2024-09-25 22:19:17.987666688,0,0.0,0.1,3.17445404989613,[0.99756167 0.00243833],[0.99756167 0.00243833],"[ 0.47222222  0.25390625  0.44921875  0.97222222  0.1953125   0.390625
  1.          0.          1.          0.35742188  1.         -0.23333333]",0.5027753993802346,0,0
11,11,2024-09-25 22:19:11.739630848,TASK_BEGIN,18,-2.058297266396588,0.6140668903099473,1.8434893877736864,0.8604949847200528,-0.7705976355267038,0.5683097379814995,1.8204858069254977,-0.5539302617829657,0,2024-09-25 22:19:17.987665771,1727302757.9876666,2024-09-25 22:19:17.987666688,0,0.0,0.1,3.17445404989613,[0.99756167 0.00243833],[0.99756167 0.00243833],"[ 0.47222222  0.25390625  0.44921875  0.97222222  0.1953125   0.390625
  1.          0.          1.          0.35742188  1.         -0.23333333]",0.5027753993802346,0,0
12,12,2024-09-25 22:19:11.797969920,TASK_BEGIN,18,-2.094507080733672,0.63238122110697,1.806082439817608,0.857697920804664,-0.8527151669041882,0.6078767348713653,1.9787642372431336,-0.5519169337373037,0,2024-09-25 22:19:17.987665771,1727302757.9876666,2024-09-25 22:19:17.987666688,0,0.0,0.1,3.17445404989613,[0.99756167 0.00243833],[0.99756167 0.00243833],"[ 0.47222222  0.25390625  0.44921875  0.97222222  0.1953125   0.390625
  1.          0.          1.          0.35742188  1.         -0.23333333]",0.5027753993802346,0,0
13,13,2024-09-25 22:19:11.875267072,TASK_BEGIN,18,-2.118240938360566,0.6508327668863587,1.752893958797286,0.8457354334215594,-0.9426322841490232,0.6491900334011873,2.1337540802868675,-0.5502491670762164,0,2024-09-25 22:19:17.987665771,1727302757.9876666,2024-09-25 22:19:17.987666688,0,0.0,0.1,3.17445404989613,[0.99756167 0.00243833],[0.99756167 0.00243833],"[ 0.47222222  0.25390625  0.44921875  0.97222222  0.1953125   0.390625
  1.          0.          1.          0.35742188  1.         -0.23333333]",0.5027753993802346,0,0
14,14,2024-09-25 22:19:12.818333952,TASK_BEGIN,18,-2.130970292422401,0.6689348788271309,1.6885741969588406,0.8264383785258776,-1.0365536167044065,0.6914765912747947,2.273491289104392,-0.5474927749401325,0,2024-09-25 22:19:18.799676025,1727302758.7996764,2024-09-25 22:19:18.799676416,0,0.0,0.1,4.1883358588189035,[0.97250845 0.02749155],[0.97250845 0.02749155],"[0.25       0.25390625 0.44921875 0.75       0.1953125  0.390625
 1.         0.         1.         0.35546875 0.5        0.06666667]",0.6363141267611369,0,0
15,15,2024-09-25 22:19:12.880260096,TASK_BEGIN,18,-2.134369972194043,0.686218159558796,1.616913008555641,0.8021908228021085,-1.1307494412517456,0.7339038413459132,2.387577622001856,-0.5425907856669614,0,2024-09-25 22:19:18.799676025,1727302758.7996764,2024-09-25 22:19:18.799676416,0,0.0,0.1,4.1883358588189035,[0.97250845 0.02749155],[0.97250845 0.02749155],"[0.25       0.25390625 0.44921875 0.75       0.1953125  0.390625
 1.         0.         1.         0.35546875 0.5        0.06666667]",0.6363141267611369,0,0
16,16,2024-09-25 22:19:12.941382912,TASK_BEGIN,18,-2.1302234975525014,0.7022453174437816,1.5412211129014677,0.775724339853865,-1.2216354454263678,0.7756034467126345,2.4680296987614825,-0.5348861648477294,0,2024-09-25 22:19:18.799676025,1727302758.7996764,2024-09-25 22:19:18.799676416,0,0.0,0.1,4.1883358588189035,[0.97250845 0.02749155],[0.97250845 0.02749155],"[0.25       0.25390625 0.44921875 0.75       0.1953125  0.390625
 1.         0.         1.         0.35546875 0.5        0.06666667]",0.6363141267611369,0,0
17,17,2024-09-25 22:19:13.019066112,TASK_BEGIN,18,-2.1202919017222595,0.7166158716969606,1.46444989520096,0.7498972467037603,-1.30576939338841,0.815675184244158,2.5098797153857983,-0.5240982793183365,0,2024-09-25 22:19:18.799676025,1727302758.7996764,2024-09-25 22:19:18.799676416,0,0.0,0.1,4.1883358588189035,[0.97250845 0.02749155],[0.97250845 0.02749155],"[0.25       0.25390625 0.44921875 0.75       0.1953125  0.390625
 1.         0.         1.         0.35546875 0.5        0.06666667]",0.6363141267611369,0,0
18,18,2024-09-25 22:19:13.089560064,TASK_BEGIN,18,-2.1061642712668336,0.7289668086935667,1.3890997025915808,0.7274636676000641,-1.3798491529684649,0.8531854434991099,2.51136138292216,-0.510246661215213,0,2024-09-25 22:19:18.901642090,1727302758.9016426,2024-09-25 22:19:18.901642496,0,1.0,0.1,4.303987975228407,[0.07806018 0.92193982],[0.07806018 0.92193982],"[ 0.22222222  0.25390625  0.44921875  0.72222222  0.1953125   0.390625
  1.          0.          1.          0.3515625  -0.8         0.5       ]",0.5469639477726007,0,0
19,19,2024-09-25 22:19:13.157383936,TASK_BEGIN,18,-2.0891225290670263,0.7389760926087175,1.3171718305339786,0.710825752591838,-1.4407684787554933,0.8871780683135926,2.473543930586632,-0.4935273298161955,0,2024-09-25 22:19:18.901642090,1727302758.9016426,2024-09-25 22:19:18.901642496,0,1.0,0.1,4.303987975228407,[0.07806018 0.92193982],[0.07806018 0.92193982],"[ 0.22222222  0.25390625  0.44921875  0.72222222  0.1953125   0.390625
  1.          0.          1.          0.3515625  -0.8         0.5       ]",0.5469639477726007,0,0
20,20,2024-09-25 22:19:13.225071104,TASK_BEGIN,18,-2.070054757006944,0.7463713413319841,1.2503325247055035,0.701780123181257,-1.485737411685798,0.9167066564147364,2.399569860740688,-0.4741779383351884,0,2024-09-25 22:19:19.561145996,1727302759.5611467,2024-09-25 22:19:19.561146624,0,0.0,0.1,5.832099925993132,[9.99986664e-01 1.33364214e-05],[9.99986664e-01 1.33364214e-05],"[0.04166667 0.25390625 0.44921875 0.54166667 0.1953125  0.390625
 1.         0.         1.         0.32617188 0.5        0.06666667]",0.39051175957008194,0,0
21,21,2024-09-25 22:19:14.169133824,TASK_BEGIN,18,-2.049434238366602,0.7509409247041904,1.190192752486627,0.7013052090373432,-1.5124394171484945,0.940883971977111,2.293871759812193,-0.4523860041268613,0,2024-09-25 22:19:20.113249023,1727302760.1132498,2024-09-25 22:19:20.113249792,0,1.0,0.1,6.2683196238139125,[0.03235807 0.96764193],[0.03235807 0.96764193],"[-0.11111111  0.25390625  0.44921875  0.38888889  0.1953125   0.390625
  0.88888889  0.2734375   0.46875     0.31054688 -0.8         0.5       ]",0.792795568614851,0,0
22,22,2024-09-25 22:19:14.237034240,TASK_BEGIN,18,-2.0273536015737057,0.752544394283882,1.1384761787001878,0.7094501325258884,-1.5192029856295175,0.9589381576296993,2.1616326707795195,-0.4282740601688048,0,2024-09-25 22:19:20.113249023,1727302760.1132498,2024-09-25 22:19:20.113249792,0,1.0,0.1,6.2683196238139125,[0.03235807 0.96764193],[0.03235807 0.96764193],"[-0.11111111  0.25390625  0.44921875  0.38888889  0.1953125   0.390625
  0.88888889  0.2734375   0.46875     0.31054688 -0.8         0.5       ]",0.792795568614851,0,0
23,23,2024-09-25 22:19:14.295627264,TASK_BEGIN,18,-2.003586297963936,0.7511207011113197,1.0969817134991229,0.725358519165035,-1.5051741415964055,0.9702665943831856,2.0084984736309317,-0.4019515532217935,0,2024-09-25 22:19:20.113249023,1727302760.1132498,2024-09-25 22:19:20.113249792,0,1.0,0.1,6.2683196238139125,[0.03235807 0.96764193],[0.03235807 0.96764193],"[-0.11111111  0.25390625  0.44921875  0.38888889  0.1953125   0.390625
  0.88888889  0.2734375   0.46875     0.31054688 -0.8         0.5       ]",0.792795568614851,0,0
24,24,2024-09-25 22:19:14.372560128,TASK_BEGIN,18,-1.9776580258230727,0.7466926182038447,1.0674424018929831,0.7474168617820371,-1.4704373256291214,0.9744764546669245,1.8404271009662907,-0.3735896788367385,0,2024-09-25 22:19:20.163244873,1727302760.163246,2024-09-25 22:19:20.163245824,0,1.0,0.1,6.305636427575773,[0.14185116 0.85814884],[0.14185116 0.85814884],"[-0.125       0.25390625  0.44921875  0.375       0.1953125   0.390625
  0.875       0.2734375   0.46875     0.29492188 -0.8         0.5       ]",0.5565918540684885,0,0
25,25,2024-09-25 22:19:14.440444160,TASK_BEGIN,18,-1.948934042072161,0.7393660584759726,1.0513970502452308,0.7734858069769563,-1.416004455354586,0.9714010152707344,1.66356684622147,-0.3434715637030521,0,2024-09-25 22:19:20.768040039,1727302760.7680402,2024-09-25 22:19:20.768040192,0,0.0,0.1,6.725372018784006,[9.99999976e-01 2.44166428e-08],[9.99999976e-01 2.44166428e-08],"[0.20833333 0.1953125  0.390625   0.70833333 0.2734375  0.46875
 1.         0.         1.         0.25976562 0.4        0.1       ]",0.3351171993525,0,0
26,26,2024-09-25 22:19:14.508220928,TASK_BEGIN,18,-1.916731435066665,0.7293236450109244,1.0500610119722824,0.8011603343377307,-1.3436600079332262,0.961093621409972,1.4840762003321215,-0.3119986804442329,0,2024-09-25 22:19:20.818998047,1727302760.8189983,2024-09-25 22:19:20.818998272,0,0.0,0.1,6.758118298596165,[9.99999114e-01 8.86486621e-07],[9.99999114e-01 8.86486621e-07],"[0.19444444 0.1953125  0.390625   0.69444444 0.2734375  0.46875
 1.         0.         1.         0.26953125 0.5        0.06666667]",0.36307241398232776,0,0
27,27,2024-09-25 22:19:14.573295872,TASK_BEGIN,18,-1.8804369958085485,0.7168109680550344,1.0641349760232133,0.8280114399246123,-1.2557410590851854,0.943813151359844,1.307848953069182,-0.2796850932110905,0,2024-09-25 22:19:20.869959229,1727302760.8699596,2024-09-25 22:19:20.869959680,0,0.0,0.1,6.790537115610203,[9.99932883e-01 6.71174578e-05],[9.99932883e-01 6.71174578e-05],"[0.18055556 0.1953125  0.390625   0.68055556 0.2734375  0.46875
 1.         0.         1.         0.28125    0.6        0.03333333]",0.4420734504253782,0,0
28,28,2024-09-25 22:19:15.494607872,TASK_BEGIN,18,-1.8395876016092996,0.7021145440351761,1.0935856605082206,0.8517860707721276,-1.154924839224748,0.920008281420177,1.1402027291304648,-0.2471857844948063,0,2024-09-25 22:19:21.786958008,1727302761.7869587,2024-09-25 22:19:21.786958592,0,0.0,0.1,8.087971050098806,[9.99999980e-01 1.99108821e-08],[9.99999980e-01 1.99108821e-08],"[-0.06944444  0.1953125   0.390625    0.43055556  0.2734375   0.46875
  1.          0.          1.          0.29492188  0.7         0.        ]",0.43133737933784083,0,0
29,29,2024-09-25 22:19:15.562474240,TASK_BEGIN,18,-1.7938931622355485,0.6855347246801655,1.137493377229119,0.870561689103005,-1.0440421251510474,0.8902971356370275,0.9856432846602088,-0.2153450284875795,0,2024-09-25 22:19:21.786958008,1727302761.7869587,2024-09-25 22:19:21.786958592,0,0.0,0.1,8.087971050098806,[9.99999980e-01 1.99108821e-08],[9.99999980e-01 1.99108821e-08],"[-0.06944444  0.1953125   0.390625    0.43055556  0.2734375   0.46875
  1.          0.          1.          0.29492188  0.7         0.        ]",0.43133737933784083,0,0
30,30,2024-09-25 22:19:15.623723264,TASK_BEGIN,18,-1.7432248882828512,0.6673593982219534,1.194013113988948,0.8828448670270842,-0.9259356326634364,0.8554418242169148,0.8477943393867379,-0.1852055287199862,0,2024-09-25 22:19:21.939987793,1727302761.9399881,2024-09-25 22:19:21.939988224,0,0.0,0.1,8.144760221939821,[9.99999960e-01 4.01357161e-08],[9.99999960e-01 4.01357161e-08],"[-0.11111111  0.1953125   0.390625    0.38888889  0.2734375   0.46875
  0.96388889  0.33203125  0.52734375  0.34765625  1.         -0.1       ]",0.45483644066738543,0,0
31,31,2024-09-25 22:19:15.684818176,TASK_BEGIN,18,-1.6876002144507651,0.6478436961607393,1.2604438863879155,0.8875980314527597,-0.8034019217451517,0.8163242805877572,0.7294920936394576,-0.15796613241839,0,2024-09-25 22:19:21.990959961,1727302761.9909601,2024-09-25 22:19:21.990960128,0,0.0,0.1,8.163312619720422,[9.99998626e-01 1.37370297e-06],[9.99998626e-01 1.37370297e-06],"[-0.125       0.1953125   0.390625    0.375       0.2734375   0.46875
  0.95        0.33203125  0.52734375  0.3671875   1.         -0.13333333]",0.5752895996573336,0,0
32,32,2024-09-25 22:19:15.765971968,TASK_BEGIN,18,-1.6271798857385396,0.6272003542827386,1.3333729083864103,0.8842126337078653,-0.679216440664186,0.7739258193842288,0.6329518102291724,-0.1349294835414935,0,2024-09-25 22:19:22.041956787,1727302762.0419579,2024-09-25 22:19:22.041957888,0,0.0,0.1,8.181679493523218,[9.99748797e-01 2.51202595e-04],[9.99748797e-01 2.51202595e-04],"[-0.13888889  0.1953125   0.390625    0.36111111  0.2734375   0.46875
  0.93611111  0.33203125  0.52734375  0.38671875  1.         -0.16666667]",0.7147130942616534,0,0
33,33,2024-09-25 22:19:15.823159040,TASK_BEGIN,18,-1.5622839804312034,0.6056015887891791,1.4088398871835366,0.8724800730374564,-0.5561728400353035,0.7293018795887353,0.5599364518458134,-0.117453744763986,0,2024-09-25 22:19:22.041956787,1727302762.0419579,2024-09-25 22:19:22.041957888,0,0.0,0.1,8.181679493523218,[9.99748797e-01 2.51202595e-04],[9.99748797e-01 2.51202595e-04],"[-0.13888889  0.1953125   0.390625    0.36111111  0.2734375   0.46875
  0.93611111  0.33203125  0.52734375  0.38671875  1.         -0.16666667]",0.7147130942616534,0,0
34,34,2024-09-25 22:19:15.901545216,TASK_BEGIN,18,-1.4934262305876076,0.5831867393032318,1.4825156593927988,0.8525828329750322,-0.4370574497298871,0.6835424427403499,0.5119298980874987,-0.1068731531166689,0,2024-09-25 22:19:22.041956787,1727302762.0419579,2024-09-25 22:19:22.041957888,0,0.0,0.1,8.181679493523218,[9.99748797e-01 2.51202595e-04],[9.99748797e-01 2.51202595e-04],"[-0.13888889  0.1953125   0.390625    0.36111111  0.2734375   0.46875
  0.93611111  0.33203125  0.52734375  0.38671875  1.         -0.16666667]",0.7147130942616534,0,0
35,35,2024-09-25 22:19:16.837191168,TASK_BEGIN,18,-1.4213509240104831,0.5600699802054847,1.5499733778760425,0.8250729957627698,-0.3245417305609439,0.6377203266329005,0.490284087579309,-0.104363069621606,0,2024-09-25 22:19:22.856513916,1727302762.8565142,2024-09-25 22:19:22.856514304,0,0.0,0.1,9.342776874419167,[0.99729245 0.00270755],[0.99729245 0.00270755],"[0.13888889 0.2734375  0.46875    0.71388889 0.33203125 0.52734375
 1.         0.         1.         0.37695312 0.6        0.03333333]",0.6145274328030189,0,0
36,36,2024-09-25 22:19:16.899696128,TASK_BEGIN,18,-1.3470444971135436,0.5363481192310684,1.607112863468029,0.7908021288659696,-0.2210306750553768,0.5928367233652111,0.496226045191862,-0.1107735062659302,0,2024-09-25 22:19:22.856513916,1727302762.8565142,2024-09-25 22:19:22.856514304,0,0.0,0.1,9.342776874419167,[0.99729245 0.00270755],[0.99729245 0.00270755],"[0.13888889 0.2734375  0.46875    0.71388889 0.33203125 0.52734375
 1.         0.         1.         0.37695312 0.6        0.03333333]",0.6145274328030189,0,0
37,37,2024-09-25 22:19:16.978874112,TASK_BEGIN,18,-1.2717012130809673,0.5121105188787839,1.6506955953561415,0.75081191023161,-0.1285134492757819,0.5497711895787513,0.5306066314603695,-0.1264748343272794,0,2024-09-25 22:19:22.856513916,1727302762.8565142,2024-09-25 22:19:22.856514304,0,0.0,0.1,9.342776874419167,[0.99729245 0.00270755],[0.99729245 0.00270755],"[0.13888889 0.2734375  0.46875    0.71388889 0.33203125 0.52734375
 1.         0.         1.         0.37695312 0.6        0.03333333]",0.6145274328030189,0,0
38,38,2024-09-25 22:19:17.038474240,TASK_BEGIN,18,-1.1966523597507497,0.4874515593642409,1.6788942739529995,0.7062213384702758,-0.0484587243887706,0.5092433919612653,0.5933778911822052,-0.151249644009566,0,2024-09-25 22:19:22.856513916,1727302762.8565142,2024-09-25 22:19:22.856514304,0,0.0,0.1,9.342776874419167,[0.99729245 0.00270755],[0.99729245 0.00270755],"[0.13888889 0.2734375  0.46875    0.71388889 0.33203125 0.52734375
 1.         0.         1.         0.37695312 0.6        0.03333333]",0.6145274328030189,0,0
39,39,2024-09-25 22:19:17.101059840,TASK_BEGIN,18,-1.1232875143572554,0.4624845988933082,1.69175397698191,0.6581338058824409,0.0182134895220109,0.4717955852814263,0.6830092882799289,-0.1842638971593257,0,2024-09-25 22:19:22.856513916,1727302762.8565142,2024-09-25 22:19:22.856514304,0,0.0,0.1,9.342776874419167,[0.99729245 0.00270755],[0.99729245 0.00270755],"[0.13888889 0.2734375  0.46875    0.71388889 0.33203125 0.52734375
 1.         0.         1.         0.37695312 0.6        0.03333333]",0.6145274328030189,0,0
40,40,2024-09-25 22:19:17.182353920,TASK_BEGIN,18,-1.0529755159896843,0.4373537822247295,1.6914254300008718,0.6075756901842504,0.0710942427902242,0.4377982534481224,0.7962533968854111,-0.2241458797165043,0,2024-09-25 22:19:23.058221191,1727302763.0582218,2024-09-25 22:19:23.058221824,0,0.0,0.1,9.368674087887321,[0.9980981 0.0019019],[0.9980981 0.0019019],"[ 0.08333333  0.2734375   0.46875     0.65833333  0.33203125  0.52734375
  1.          0.          1.          0.34960938 -0.6         0.43333333]",0.34029489115299333,0,0
41,41,2024-09-25 22:19:17.250206976,TASK_BEGIN,18,-0.9869694864195132,0.412236904729865,1.6820584561860688,0.5554754150036824,0.1102422094928497,0.4074692252724535,0.9285545462065704,-0.269157055745587,0,2024-09-25 22:19:23.058221191,1727302763.0582218,2024-09-25 22:19:23.058221824,0,0.0,0.1,9.368674087887321,[0.9980981 0.0019019],[0.9980981 0.0019019],"[ 0.08333333  0.2734375   0.46875     0.65833333  0.33203125  0.52734375
  1.          0.          1.          0.34960938 -0.6         0.43333333]",0.34029489115299333,0,0
42,42,2024-09-25 22:19:18.193277952,TASK_BEGIN,18,-0.9262981190345916,0.3873346310689665,1.6694046869879413,0.5026718308131617,0.1361833359909786,0.3808924780408446,1.074957591786928,-0.317383039287158,0,2024-09-25 22:19:23.959305908,1727302763.9593065,2024-09-25 22:19:23.959306496,0,0.0,0.1,9.473149838381932,[0.91068264 0.08931736],[0.91068264 0.08931736],"[-0.16666667  0.2734375   0.46875     0.40833333  0.33203125  0.52734375
  0.90833333  0.3125      0.5078125   0.46679688  1.         -0.16666667]",0.5462855698250155,0,0
43,43,2024-09-25 22:19:18.261128960,TASK_BEGIN,18,-0.8716751426989632,0.3628502612851728,1.6602908371991505,0.4499228127795578,0.1499231393148869,0.3580326498198787,1.231008741443339,-0.3668680988190135,0,2024-09-25 22:19:24.159796875,1727302764.1597974,2024-09-25 22:19:24.159797504,0,0.0,0.1,9.493909836881826,[9.99384832e-01 6.15168092e-04],[9.99384832e-01 6.15168092e-04],"[ 0.35277778  0.33203125  0.52734375  0.85277778  0.3125      0.5078125
  1.          0.          1.          0.41015625 -0.6         0.43333333]",0.33571348621318264,0,0
44,44,2024-09-25 22:19:18.328969984,TASK_BEGIN,18,-0.823457361597953,0.33897189111264,1.6620485803465783,0.397904594863667,0.1529005574166488,0.3387506778283439,1.3931957765237168,-0.415674454922288,0,2024-09-25 22:19:24.660260986,1727302764.6602616,2024-09-25 22:19:24.660261632,0,0.0,0.1,9.542301128137636,[9.99999697e-01 3.02555551e-07],[9.99999697e-01 3.02555551e-07],"[0.21388889 0.33203125 0.52734375 0.71388889 0.3125     0.5078125
 1.         0.         1.         0.40039062 0.4        0.1       ]",0.34260255801107764,0,0
45,45,2024-09-25 22:19:18.392542976,TASK_BEGIN,18,-0.781655469431556,0.3158659966146133,1.6818442077887263,0.3472234814250165,0.1468812220947567,0.3228207225983461,1.558908560848573,-0.4619186793583753,0,2024-09-25 22:19:24.710260986,1727302764.7102616,2024-09-25 22:19:24.710261504,0,0.0,0.1,9.54687811685626,[9.99985625e-01 1.43750859e-05],[9.99985625e-01 1.43750859e-05],"[0.2        0.33203125 0.52734375 0.7        0.3125     0.5078125
 1.         0.         1.         0.41015625 0.5        0.06666667]",0.3980665710415448,0,0
46,46,2024-09-25 22:19:18.454091008,TASK_BEGIN,18,-0.7459755889693961,0.2936791935337635,1.7258441714988733,0.2984543858269832,0.1338494741140088,0.3099429489642638,1.7262662637570962,-0.5038560829401029,0,2024-09-25 22:19:24.760293945,1727302764.760295,2024-09-25 22:19:24.760294912,0,0.0,0.1,9.551409335687696,[9.99184587e-01 8.15413015e-04],[9.99184587e-01 8.15413015e-04],"[0.18611111 0.33203125 0.52734375 0.68611111 0.3125     0.5078125
 1.         0.         1.         0.421875   0.6        0.03333333]",0.5332967891099943,0,0
47,47,2024-09-25 22:19:18.531255040,TASK_BEGIN,18,-0.715863184329827,0.2725369420917475,1.798313011448286,0.2521865021603333,0.1159092263554766,0.2997566017122048,1.8940387721929488,-0.54002679982224,0,2024-09-25 22:19:24.810260986,1727302764.8102612,2024-09-25 22:19:24.810261248,0,0.0,0.1,9.555895242330818,[0.96401484 0.03598516],[0.96401484 0.03598516],"[0.17222222 0.33203125 0.52734375 0.67222222 0.3125     0.5078125
 1.         0.         1.         0.43554688 0.7        0.        ]",0.6709979305365675,0,0
48,48,2024-09-25 22:19:18.593314048,TASK_BEGIN,18,-0.690539918844678,0.252535278919439,1.900843694977297,0.2090478691581283,0.0951587367129952,0.291864100242179,2.061468932902809,-0.5693959108591079,0,2024-09-25 22:19:24.810260986,1727302764.8102612,2024-09-25 22:19:24.810261248,0,0.0,0.1,9.555895242330818,[0.96401484 0.03598516],[0.96401484 0.03598516],"[0.17222222 0.33203125 0.52734375 0.67222222 0.3125     0.5078125
 1.         0.         1.         0.43554688 0.7        0.        ]",0.6709979305365675,0,0
49,49,2024-09-25 22:19:19.543371776,TASK_BEGIN,18,-0.6690447990183181,0.2337343351788589,2.0318463336936805,0.1697029865599995,0.0735621158267769,0.2858629302240667,2.227720654247772,-0.5913996478549385,0,2024-09-25 22:19:25.868623047,1727302765.8686237,2024-09-25 22:19:25.868623616,0,1.0,0.1,10.383947762757634,[0.02073455 0.97926545],[0.02073455 0.97926545],"[-0.11944444  0.33203125  0.52734375  0.38055556  0.3125      0.5078125
  0.88055556  0.3125      0.5078125   0.40625    -0.8         0.5       ]",0.7751035974010806,0,0
50,50,2024-09-25 22:19:19.611244800,TASK_BEGIN,18,-0.6502923273426046,0.2161628758449589,2.1863755789410533,0.1348321651630924,0.0528830564903383,0.2813698683602703,2.391127653407072,-0.6058790698728781,0,2024-09-25 22:19:25.868623047,1727302765.8686237,2024-09-25 22:19:25.868623616,0,1.0,0.1,10.383947762757634,[0.02073455 0.97926545],[0.02073455 0.97926545],"[-0.11944444  0.33203125  0.52734375  0.38055556  0.3125      0.5078125
  0.88055556  0.3125      0.5078125   0.40625    -0.8         0.5       ]",0.7751035974010806,0,0
51,51,2024-09-25 22:19:19.679127040,TASK_BEGIN,18,-0.6331498337146515,0.1998323634053803,2.3564269538036404,0.1050977516523986,0.0346783225056702,0.2780310726120651,2.548778143162426,-0.6129646065945568,0,2024-09-25 22:19:25.868623047,1727302765.8686237,2024-09-25 22:19:25.868623616,0,1.0,0.1,10.383947762757634,[0.02073455 0.97926545],[0.02073455 0.97926545],"[-0.11944444  0.33203125  0.52734375  0.38055556  0.3125      0.5078125
  0.88055556  0.3125      0.5078125   0.40625    -0.8         0.5       ]",0.7751035974010806,0,0
52,52,2024-09-25 22:19:19.746967040,TASK_BEGIN,18,-0.6165262660471663,0.1847512161581548,2.531748529195875,0.081099849841308,0.0202838246056618,0.2755252903199193,2.6967224136909804,-0.6129730411442422,0,2024-09-25 22:19:25.868623047,1727302765.8686237,2024-09-25 22:19:25.868623616,0,1.0,0.1,10.383947762757634,[0.02073455 0.97926545],[0.02073455 0.97926545],"[-0.11944444  0.33203125  0.52734375  0.38055556  0.3125      0.5078125
  0.88055556  0.3125      0.5078125   0.40625    -0.8         0.5       ]",0.7751035974010806,0,0
53,53,2024-09-25 22:19:19.808339968,TASK_BEGIN,18,-0.5994537233019605,0.1709300663526346,2.7009872806841453,0.0633231793036844,0.0107709928273302,0.2735664542054255,2.830602219245572,-0.6063233674853074,0,2024-09-25 22:19:25.868623047,1727302765.8686237,2024-09-25 22:19:25.868623616,0,1.0,0.1,10.383947762757634,[0.02073455 0.97926545],[0.02073455 0.97926545],"[-0.11944444  0.33203125  0.52734375  0.38055556  0.3125      0.5078125
  0.88055556  0.3125      0.5078125   0.40625    -0.8         0.5       ]",0.7751035974010806,0,0
54,54,2024-09-25 22:19:19.871179264,TASK_BEGIN,18,-0.5811383421747015,0.1583738009342989,2.852891467022387,0.0520713151555622,0.0069155609361097,0.2719045177072901,2.946391257703012,-0.5934767141835157,0,2024-09-25 22:19:25.868623047,1727302765.8686237,2024-09-25 22:19:25.868623616,0,1.0,0.1,10.383947762757634,[0.02073455 0.97926545],[0.02073455 0.97926545],"[-0.11944444  0.33203125  0.52734375  0.38055556  0.3125      0.5078125
  0.88055556  0.3125      0.5078125   0.40625    -0.8         0.5       ]",0.7751035974010806,0,0
55,55,2024-09-25 22:19:19.950437120,TASK_BEGIN,18,-0.5609748553919349,0.1470650710534342,2.9773808073543164,0.0473972465217318,0.0091993102247713,0.2703238506170256,3.0411302626579864,-0.5749412275891252,0,2024-09-25 22:19:25.868623047,1727302765.8686237,2024-09-25 22:19:25.868623616,0,1.0,0.1,10.383947762757634,[0.02073455 0.97926545],[0.02073455 0.97926545],"[-0.11944444  0.33203125  0.52734375  0.38055556  0.3125      0.5078125
  0.88055556  0.3125      0.5078125   0.40625    -0.8         0.5       ]",0.7751035974010806,0,0
56,56,2024-09-25 22:19:20.861778944,TASK_BEGIN,18,-0.5385396208647595,0.1369507153279413,3.066355741515746,0.0490797000729465,0.0178145978419416,0.268642040176415,3.113596164032125,-0.5513576181809196,0,2024-09-25 22:19:26.732654053,1727302766.7326543,2024-09-25 22:19:26.732654336,0,0.0,1.0,11.223646153231526,[0.998671 0.001329],[0.998671 0.001329],"[ 0.14444444  0.3125      0.5078125   0.64444444  0.3125      0.5078125
  1.          0.          1.          0.40625     0.8        -0.03333333]",0.6156426545620672,0,0
57,57,2024-09-25 22:19:20.936360192,TASK_BEGIN,18,-0.5135749565856057,0.1279380315225448,3.114103251671985,0.0567042502026482,0.03264720567354,0.2667090641752966,3.1647687790998305,-0.523620360762928,0,2024-09-25 22:19:26.732654053,1727302766.7326543,2024-09-25 22:19:26.732654336,0,0.0,1.0,11.223646153231526,[0.998671 0.001329],[0.998671 0.001329],"[ 0.14444444  0.3125      0.5078125   0.64444444  0.3125      0.5078125
  1.          0.          1.          0.40625     0.8        -0.03333333]",0.6156426545620672,0,0
58,58,2024-09-25 22:19:20.999625984,TASK_BEGIN,18,-0.485972158228564,0.1198984345264861,3.1172769322976697,0.0698339790309082,0.0532609353636153,0.2644009669631022,3.1979867999187617,-0.4929747505721852,0,2024-09-25 22:19:26.783659912,1727302766.7836602,2024-09-25 22:19:26.783660288,0,0.0,0.1,11.21140969169921,[0.88513675 0.11486325],[0.88513675 0.11486325],"[ 0.13055556  0.3125      0.5078125   0.63055556  0.3125      0.5078125
  1.          0.          1.          0.42382812  0.9        -0.06666667]",0.542543001854053,0,0
59,59,2024-09-25 22:19:21.060755200,TASK_BEGIN,18,-0.4557653150038688,0.1126748815633731,3.0746521834622897,0.0881640821949453,0.078939887388687,0.2616023225591814,3.218726077680171,-0.4610431396036015,0,2024-09-25 22:19:26.987656006,1727302766.9876564,2024-09-25 22:19:26.987656448,0,0.0,0.1,11.163675316321589,[9.99913303e-01 8.66973411e-05],[9.99913303e-01 8.66973411e-05],"[ 0.075       0.3125      0.5078125   0.575       0.3125      0.5078125
  1.          0.          1.          0.37304688 -0.5         0.4       ]",0.3415344416290487,0,0
60,60,2024-09-25 22:19:21.138030080,TASK_BEGIN,18,-0.423142523153491,0.1060946236420278,2.9868990766315484,0.1115592977112043,0.1088153416964004,0.2581820868418577,3.233891744654726,-0.4297457235611869,0,2024-09-25 22:19:26.987656006,1727302766.9876564,2024-09-25 22:19:26.987656448,0,0.0,0.1,11.163675316321589,[9.99913303e-01 8.66973411e-05],[9.99913303e-01 8.66973411e-05],"[ 0.075       0.3125      0.5078125   0.575       0.3125      0.5078125
  1.          0.          1.          0.37304688 -0.5         0.4       ]",0.3415344416290487,0,0
61,61,2024-09-25 22:19:21.207568128,TASK_BEGIN,18,-0.3884556447236546,0.0999895114069897,2.8564636110361734,0.1399620160364707,0.1420245716557957,0.2539798217441262,3.2506236023561605,-0.4011227983597684,0,2024-09-25 22:19:27.548228027,1727302767.548228,2024-09-25 22:19:27.548228096,0,0.0,0.1,11.041883026239326,[9.99999103e-01 8.97187754e-07],[9.99999103e-01 8.97187754e-07],"[-0.07777778  0.3125      0.5078125   0.42222222  0.3125      0.5078125
  0.99166667  0.3125      0.5078125   0.39453125  0.6         0.03333333]",0.42895441406404017,0,0
62,62,2024-09-25 22:19:21.261658880,TASK_BEGIN,18,-0.3521927965222613,0.0942194412348772,2.687530989333756,0.1732351936358361,0.1778069903717157,0.248816974097095,3.274921808198596,-0.377117998554715,0,2024-09-25 22:19:27.598227051,1727302767.598227,2024-09-25 22:19:27.598226944,0,0.0,0.1,11.031464195976932,[0.99529306 0.00470694],[0.99529306 0.00470694],"[-0.09166667  0.3125      0.5078125   0.40833333  0.3125      0.5078125
  0.97777778  0.3125      0.5078125   0.40820312  0.7         0.        ]",0.4599008493538546,0,0
63,63,2024-09-25 22:19:22.212295936,TASK_BEGIN,18,-0.3149028761356554,0.0886883040625533,2.485993935938952,0.2110218293457911,0.2154904182912402,0.242530174349218,3.3105150125169533,-0.3593790114988818,0,2024-09-25 22:19:28.554367920,1727302768.5543685,2024-09-25 22:19:28.554368512,0,0.0,1.0,11.752163355325933,[9.9999981e-01 1.9042620e-07],[9.9999981e-01 1.9042620e-07],"[0.14444444 0.3125     0.5078125  0.71388889 0.3125     0.5078125
 1.         0.         1.         0.38085938 0.6        0.03333333]",0.3464914333547828,0,0
64,64,2024-09-25 22:19:22.274964224,TASK_BEGIN,18,-0.2771062872994805,0.0833443087845444,2.259313650553925,0.2526685109813548,0.2544022765062214,0.2350097997321606,3.3581303109177827,-0.3490887785993949,0,2024-09-25 22:19:28.604395996,1727302768.6043963,2024-09-25 22:19:28.604396288,0,0.0,0.1,11.734641721772674,[9.99979682e-01 2.03176770e-05],[9.99979682e-01 2.03176770e-05],"[0.13055556 0.3125     0.5078125  0.7        0.3125     0.5078125
 1.         0.         1.         0.39453125 0.7        0.        ]",0.42802286272129647,0,0
65,65,2024-09-25 22:19:22.353599232,TASK_BEGIN,18,-0.2392365290701139,0.0781670564368372,2.0162298389168467,0.2971988430436696,0.2937835526527807,0.2262286347265341,3.415085659285248,-0.3468271659414367,0,2024-09-25 22:19:28.654367920,1727302768.6543684,2024-09-25 22:19:28.654368512,0,0.0,0.1,11.717295304554947,[0.99798074 0.00201926],[0.99798074 0.00201926],"[ 0.11666667  0.3125      0.5078125   0.68611111  0.3125      0.5078125
  1.          0.          1.          0.41015625  0.8        -0.03333333]",0.6318657350199616,0,0
66,66,2024-09-25 22:19:22.413199872,TASK_BEGIN,18,-0.2016286657156968,0.0731521378687278,1.7663831301298938,0.3432998684438129,0.332764403459626,0.2162543969057611,3.4752635748343925,-0.3524842032224466,0,2024-09-25 22:19:28.654367920,1727302768.6543684,2024-09-25 22:19:28.654368512,0,0.0,0.1,11.717295304554947,[0.99798074 0.00201926],[0.99798074 0.00201926],"[ 0.11666667  0.3125      0.5078125   0.68611111  0.3125      0.5078125
  1.          0.          1.          0.41015625  0.8        -0.03333333]",0.6318657350199616,0,0
67,67,2024-09-25 22:19:22.489308160,TASK_BEGIN,18,-0.1645435252226005,0.068301908226795,1.519883529023461,0.3893305658885013,0.3704040634219002,0.2052466030225885,3.529747848133579,-0.3652581011389582,0,2024-09-25 22:19:28.654367920,1727302768.6543684,2024-09-25 22:19:28.654368512,0,0.0,0.1,11.717295304554947,[0.99798074 0.00201926],[0.99798074 0.00201926],"[ 0.11666667  0.3125      0.5078125   0.68611111  0.3125      0.5078125
  1.          0.          1.          0.41015625  0.8        -0.03333333]",0.6318657350199616,0,0
68,68,2024-09-25 22:19:22.557179904,TASK_BEGIN,18,-0.1282112553195676,0.0636226220339668,1.2868192712062971,0.4333915621383032,0.4057584304906824,0.1934427207254749,3.568245717951076,-0.3837582063940032,0,2024-09-25 22:19:28.654367920,1727302768.6543684,2024-09-25 22:19:28.654368512,0,0.0,0.1,11.717295304554947,[0.99798074 0.00201926],[0.99798074 0.00201926],"[ 0.11666667  0.3125      0.5078125   0.68611111  0.3125      0.5078125
  1.          0.          1.          0.41015625  0.8        -0.03333333]",0.6318657350199616,0,0
69,69,2024-09-25 22:19:22.625030144,TASK_BEGIN,18,-0.0928719726134483,0.0591227574517163,1.07677056955522,0.4734558858493194,0.4379525263230291,0.1811397655561403,3.580988797357063,-0.4061999355568624,0,2024-09-25 22:19:28.654367920,1727302768.6543684,2024-09-25 22:19:28.654368512,0,0.0,0.1,11.717295304554947,[0.99798074 0.00201926],[0.99798074 0.00201926],"[ 0.11666667  0.3125      0.5078125   0.68611111  0.3125      0.5078125
  1.          0.          1.          0.41015625  0.8        -0.03333333]",0.6318657350199616,0,0
70,70,2024-09-25 22:19:23.568029952,TASK_BEGIN,18,-0.0587802629429222,0.0548081489516439,0.8983747113148812,0.5075265110550595,0.4662649098692247,0.1686722206600789,3.5605732894698545,-0.4306429255674376,0,2024-09-25 22:19:29.508183105,1727302769.5081832,2024-09-25 22:19:29.508183296,0,0.0,0.1,11.447582388004761,[0.99633041 0.00366959],[0.99633041 0.00366959],"[-0.11944444  0.3125      0.5078125   0.45        0.3125      0.5078125
  0.95        0.1953125   0.390625    0.41210938  0.7         0.        ]",0.47498529789604277,0,0
71,71,2024-09-25 22:19:23.625617920,TASK_BEGIN,18,-0.0261670741489877,0.0506750438825245,0.7588547682296881,0.5338043562154768,0.4902186668965906,0.1563832241793348,3.5032734389966453,-0.4552118883425106,0,2024-09-25 22:19:29.508183105,1727302769.5081832,2024-09-25 22:19:29.508183296,0,0.0,0.1,11.447582388004761,[0.99633041 0.00366959],[0.99633041 0.00366959],"[-0.11944444  0.3125      0.5078125   0.45        0.3125      0.5078125
  0.95        0.1953125   0.390625    0.41210938  0.7         0.        ]",0.47498529789604277,0,0
72,72,2024-09-25 22:19:23.703252992,TASK_BEGIN,18,0.0047928361396903,0.046708041920487,0.6634336075340224,0.5508660330062567,0.5096453713026341,0.1445914461704807,3.4095510900057486,-0.478261094557836,0,2024-09-25 22:19:29.508183105,1727302769.5081832,2024-09-25 22:19:29.508183296,0,0.0,0.1,11.447582388004761,[0.99633041 0.00366959],[0.99633041 0.00366959],"[-0.11944444  0.3125      0.5078125   0.45        0.3125      0.5078125
  0.95        0.1953125   0.390625    0.41210938  0.7         0.        ]",0.47498529789604277,0,0
73,73,2024-09-25 22:19:23.771559168,TASK_BEGIN,18,0.0339568092733521,0.0428886419102903,0.614734103920728,0.5578361567344562,0.5246954825679044,0.1335634607051149,3.2837625255666536,-0.4984819547822724,0,2024-09-25 22:19:29.558233887,1727302769.5582347,2024-09-25 22:19:29.558234624,0,0.0,0.1,11.433106564124714,[0.94848535 0.05151465],[0.94848535 0.05151465],"[-0.13333333  0.3125      0.5078125   0.43611111  0.3125      0.5078125
  0.93611111  0.1953125   0.390625    0.42773438  0.8        -0.03333333]",0.432589175012075,0,0
74,74,2024-09-25 22:19:23.827426048,TASK_BEGIN,18,0.0611399597546925,0.0392113256334204,0.612392048853132,0.5545209514278189,0.5357954425937288,0.1235001710546445,3.133360110466226,-0.5149715995610011,0,2024-09-25 22:19:29.808186035,1727302769.8081868,2024-09-25 22:19:29.808186880,0,0.0,0.1,11.362870082928978,[0.99888301 0.00111699],[0.99888301 0.00111699],"[ 0.36666667  0.3125      0.5078125   0.86666667  0.1953125   0.390625
  1.          0.          1.          0.39453125 -0.5         0.4       ]",0.3592323901878876,0,0
75,75,2024-09-25 22:19:23.905075968,TASK_BEGIN,18,0.0860389845368529,0.0356978396748173,0.6530805096724641,0.541458475739026,0.5435754640998826,0.1145362887115271,2.967860611192874,-0.5272533671671242,0,2024-09-25 22:19:30.213565186,1727302770.213565,2024-09-25 22:19:30.213565184,0,0.0,0.1,11.25758113821725,[9.99999118e-01 8.82064313e-07],[9.99999118e-01 8.82064313e-07],"[0.25555556 0.3125     0.5078125  0.75555556 0.1953125  0.390625
 1.         0.         1.         0.38671875 0.3        0.13333333]",0.36277061554057505,0,0
76,76,2024-09-25 22:19:23.975048192,TASK_BEGIN,18,0.1081950902735244,0.0324025787541696,0.7309986224855709,0.5198509740450584,0.5487984890804993,0.1067444377297112,2.7975751200765218,-0.5352183197556266,0,2024-09-25 22:19:30.313477051,1727302770.3134773,2024-09-25 22:19:30.313477376,0,0.0,0.1,11.232555273566726,[0.99850779 0.00149221],[0.99850779 0.00149221],"[0.22777778 0.3125     0.5078125  0.72777778 0.1953125  0.390625
 1.         0.         1.         0.40429688 0.5        0.06666667]",0.5750456559110972,0,0
77,77,2024-09-25 22:19:24.918086912,TASK_BEGIN,18,0.127013421215532,0.0294071118777317,0.838699856860452,0.4913917513008857,0.5522931217576762,0.1001389397759809,2.632137116773276,-0.5390038290331922,0,2024-09-25 22:19:31.180494141,1727302771.1804943,2024-09-25 22:19:31.180494336,0,0.0,0.1,11.84477850715537,[0.99780855 0.00219145],[0.99780855 0.00219145],"[-0.00833333  0.3125      0.5078125   0.49166667  0.1953125   0.390625
  0.99166667  0.25390625  0.44921875  0.40039062  0.7         0.        ]",0.7086008005084717,0,0
78,78,2024-09-25 22:19:24.970527744,TASK_BEGIN,18,0.1418404680613371,0.0268056817654633,0.9680594604809653,0.4580408334834548,0.5548707020128251,0.0946822338032914,2.479230258017885,-0.5388867287831847,0,2024-09-25 22:19:31.180494141,1727302771.1804943,2024-09-25 22:19:31.180494336,0,0.0,0.1,11.84477850715537,[0.99780855 0.00219145],[0.99780855 0.00219145],"[-0.00833333  0.3125      0.5078125   0.49166667  0.1953125   0.390625
  0.99166667  0.25390625  0.44921875  0.40039062  0.7         0.        ]",0.7086008005084717,0,0
79,79,2024-09-25 22:19:25.052951808,TASK_BEGIN,18,0.1520788833786881,0.0246883896354732,1.1112250681059572,0.4218044202758963,0.5572291339171545,0.0902976941793827,2.343985074589944,-0.5352501147681206,0,2024-09-25 22:19:31.180494141,1727302771.1804943,2024-09-25 22:19:31.180494336,0,0.0,0.1,11.84477850715537,[0.99780855 0.00219145],[0.99780855 0.00219145],"[-0.00833333  0.3125      0.5078125   0.49166667  0.1953125   0.390625
  0.99166667  0.25390625  0.44921875  0.40039062  0.7         0.        ]",0.7086008005084717,0,0
80,80,2024-09-25 22:19:25.121594880,TASK_BEGIN,18,0.1572904623884313,0.023132556005153,1.2613973136500107,0.3845616577580528,0.5598711070160939,0.0868874491522326,2.2290710998340857,-0.5286028317248894,0,2024-09-25 22:19:31.180494141,1727302771.1804943,2024-09-25 22:19:31.180494336,0,0.0,0.1,11.84477850715537,[0.99780855 0.00219145],[0.99780855 0.00219145],"[-0.00833333  0.3125      0.5078125   0.49166667  0.1953125   0.390625
  0.99166667  0.25390625  0.44921875  0.40039062  0.7         0.        ]",0.7086008005084717,0,0
81,81,2024-09-25 22:19:25.189427968,TASK_BEGIN,18,0.1572380655779644,0.0222095644699391,1.4132220482050364,0.3479737989300889,0.5630534647452189,0.0843497842834661,2.135084564715692,-0.5195861825934277,0,2024-09-25 22:19:31.180494141,1727302771.1804943,2024-09-25 22:19:31.180494336,0,0.0,0.1,11.84477850715537,[0.99780855 0.00219145],[0.99780855 0.00219145],"[-0.00833333  0.3125      0.5078125   0.49166667  0.1953125   0.390625
  0.99166667  0.25390625  0.44921875  0.40039062  0.7         0.        ]",0.7086008005084717,0,0
82,82,2024-09-25 22:19:25.247739904,TASK_BEGIN,18,0.1518595107443353,0.022004863091266,1.5626966639205782,0.3134727981402475,0.5667680519079638,0.0825908650609469,2.060987258035507,-0.5089418779872654,0,2024-09-25 22:19:31.180494141,1727302771.1804943,2024-09-25 22:19:31.180494336,0,0.0,0.1,11.84477850715537,[0.99780855 0.00219145],[0.99780855 0.00219145],"[-0.00833333  0.3125      0.5078125   0.49166667  0.1953125   0.390625
  0.99166667  0.25390625  0.44921875  0.40039062  0.7         0.        ]",0.7086008005084717,0,0
83,83,2024-09-25 22:19:25.325144064,TASK_BEGIN,18,0.1412125623031234,0.0226381154764152,1.7068479203257256,0.2822662432160218,0.5707549234184399,0.0815295740685892,2.0047666893899656,-0.4974761622154226,0,2024-09-25 22:19:31.180494141,1727302771.1804943,2024-09-25 22:19:31.180494336,0,0.0,0.1,11.84477850715537,[0.99780855 0.00219145],[0.99780855 0.00219145],"[-0.00833333  0.3125      0.5078125   0.49166667  0.1953125   0.390625
  0.99166667  0.25390625  0.44921875  0.40039062  0.7         0.        ]",0.7086008005084717,0,0
84,84,2024-09-25 22:19:26.237335040,TASK_BEGIN,18,0.1254374691970754,0.0242670169110876,1.8435788286321035,0.2552917575217899,0.5745502375151174,0.0810983804773963,1.9643598456465696,-0.4860485458340992,0,2024-09-25 22:19:32.200520996,1727302772.2005217,2024-09-25 22:19:32.200521728,0,0.0,0.1,11.508857139332633,[0.98859237 0.01140763],[0.98859237 0.01140763],"[0.21388889 0.1953125  0.390625   0.71388889 0.25390625 0.44921875
 1.         0.         1.         0.296875   0.5        0.06666667]",0.5748169050983221,0,0
85,85,2024-09-25 22:19:26.299822080,TASK_BEGIN,18,0.1047570094477506,0.0270676469675016,1.9717509815941887,0.2331297009034502,0.5775653635866724,0.0812434499117762,1.938384366939892,-0.475559148148719,0,2024-09-25 22:19:32.200520996,1727302772.2005217,2024-09-25 22:19:32.200521728,0,0.0,0.1,11.508857139332633,[0.98859237 0.01140763],[0.98859237 0.01140763],"[0.21388889 0.1953125  0.390625   0.71388889 0.25390625 0.44921875
 1.         0.         1.         0.296875   0.5        0.06666667]",0.5748169050983221,0,0
86,86,2024-09-25 22:19:26.379435008,TASK_BEGIN,18,0.0795077963257844,0.0311994461112555,2.0912108619365632,0.215942503379876,0.5791834856657951,0.0819248126705625,1.9262168919934195,-0.4668914100425875,0,2024-09-25 22:19:32.200520996,1727302772.2005217,2024-09-25 22:19:32.200521728,0,0.0,0.1,11.508857139332633,[0.98859237 0.01140763],[0.98859237 0.01140763],"[0.21388889 0.1953125  0.390625   0.71388889 0.25390625 0.44921875
 1.         0.         1.         0.296875   0.5        0.06666667]",0.5748169050983221,0,0
87,87,2024-09-25 22:19:26.443224064,TASK_BEGIN,18,0.0501802821212599,0.0367712658039212,2.2025347126977977,0.2034897524288776,0.578856375039176,0.0831135908176248,1.927500190816404,-0.4608075756627618,0,2024-09-25 22:19:32.200520996,1727302772.2005217,2024-09-25 22:19:32.200521728,0,0.0,0.1,11.508857139332633,[0.98859237 0.01140763],[0.98859237 0.01140763],"[0.21388889 0.1953125  0.390625   0.71388889 0.25390625 0.44921875
 1.         0.         1.         0.296875   0.5        0.06666667]",0.5748169050983221,0,0
88,88,2024-09-25 22:19:26.515085824,TASK_BEGIN,18,0.0174343256975501,0.0438209109963221,2.3065772866675838,0.1952163894727622,0.5761990099609832,0.0847801656185045,1.941587011113367,-0.4578483289293911,0,2024-09-25 22:19:32.403687012,1727302772.4036877,2024-09-25 22:19:32.403687680,0,0.0,0.1,11.44940214770294,[0.99859596 0.00140404],[0.99859596 0.00140404],"[ 0.15833333  0.1953125   0.390625    0.65833333  0.25390625  0.44921875
  1.          0.          1.          0.26757812 -0.6         0.43333333]",0.3426377676799762,0,0
89,89,2024-09-25 22:19:26.582958080,TASK_BEGIN,18,-0.0179343755071359,0.052310020514495,2.4040680903440004,0.1903732539961832,0.5710813719962182,0.0868727264419506,1.9673812187642887,-0.4583015935642142,0,2024-09-25 22:19:32.403687012,1727302772.4036877,2024-09-25 22:19:32.403687680,0,0.0,0.1,11.44940214770294,[0.99859596 0.00140404],[0.99859596 0.00140404],"[ 0.15833333  0.1953125   0.390625    0.65833333  0.25390625  0.44921875
  1.          0.          1.          0.26757812 -0.6         0.43333333]",0.3426377676799762,0,0
90,90,2024-09-25 22:19:26.640666880,TASK_BEGIN,18,-0.055069108365415,0.0621302129065121,2.4954038397070115,0.1881194822632637,0.56368421468979,0.0892976741631126,2.003649235684289,-0.4622527237755228,0,2024-09-25 22:19:32.960024170,1727302772.9600246,2024-09-25 22:19:32.960024576,0,0.0,0.1,12.111649056151107,[9.99999900e-01 1.00410458e-07],[9.99999900e-01 1.00410458e-07],"[0.00555556 0.1953125  0.390625   0.50555556 0.25390625 0.44921875
 1.         0.         1.         0.26757812 0.5        0.06666667]",0.35228886887577476,0,0
91,91,2024-09-25 22:19:27.593388800,TASK_BEGIN,18,-0.0931267555855275,0.0731156912963087,2.580620760556097,0.1875804763840525,0.5544823913261062,0.0919137967448786,2.049512147550944,-0.469658205358634,0,2024-09-25 22:19:33.415918945,1727302773.415919,2024-09-25 22:19:33.415919104,0,1.0,0.1,11.929027833426584,[0.07043674 0.92956326],[0.07043674 0.92956326],"[-0.11944444  0.1953125   0.390625    0.38055556  0.25390625  0.44921875
  0.95        0.33203125  0.52734375  0.38867188 -0.8         0.5       ]",0.4793985731364986,0,0
92,92,2024-09-25 22:19:27.646759936,TASK_BEGIN,18,-0.1313066661839488,0.0850545539483611,2.6594959192443333,0.1878607960220323,0.5441741512501932,0.0945387158161021,2.1048060414201406,-0.4803843129648782,0,2024-09-25 22:19:33.415918945,1727302773.415919,2024-09-25 22:19:33.415919104,0,1.0,0.1,11.929027833426584,[0.07043674 0.92956326],[0.07043674 0.92956326],"[-0.11944444  0.1953125   0.390625    0.38055556  0.25390625  0.44921875
  0.95        0.33203125  0.52734375  0.38867188 -0.8         0.5       ]",0.4793985731364986,0,0
93,93,2024-09-25 22:19:27.723812864,TASK_BEGIN,18,-0.1688238830626549,0.0976902334123133,2.731774245133938,0.1880166148967527,0.5336099039413962,0.0969592865730377,2.170216768315121,-0.4942116754290953,0,2024-09-25 22:19:33.466917969,1727302773.466919,2024-09-25 22:19:33.466918912,0,1.0,0.1,11.909737555092319,[0.11344754 0.88655246],[0.11344754 0.88655246],"[-0.13333333  0.1953125   0.390625    0.36666667  0.25390625  0.44921875
  0.93611111  0.33203125  0.52734375  0.37304688 -0.8         0.5       ]",0.42806927787947713,0,0
94,94,2024-09-25 22:19:27.786200064,TASK_BEGIN,18,-0.2048636370645206,0.1107140859919803,2.7974760580904694,0.1870137800091394,0.5237507630557033,0.0989434985529961,2.247166316452509,-0.5108291655976773,0,2024-09-25 22:19:34.128176025,1727302774.1281762,2024-09-25 22:19:34.128176128,0,0.0,0.1,11.675834853004156,[9.99999969e-01 3.10086220e-08],[9.99999969e-01 3.10086220e-08],"[0.18611111 0.25390625 0.44921875 0.75555556 0.33203125 0.52734375
 1.         0.         1.         0.32226562 0.4        0.1       ]",0.3343730521778256,0,0
95,95,2024-09-25 22:19:27.863974144,TASK_BEGIN,18,-0.2385612809889283,0.123761027164896,2.8571665296626647,0.1837342652084076,0.5156483738380342,0.100256110896958,2.3373522493939896,-0.5298143124569102,0,2024-09-25 22:19:34.178976074,1727302774.1789763,2024-09-25 22:19:34.178976256,0,0.0,0.1,11.659076504474115,[9.99998460e-01 1.53958076e-06],[9.99998460e-01 1.53958076e-06],"[0.17222222 0.25390625 0.44921875 0.74166667 0.33203125 0.52734375
 1.         0.         1.         0.33203125 0.5        0.06666667]",0.3701126419052366,0,0
96,96,2024-09-25 22:19:27.933019904,TASK_BEGIN,18,-0.2690144779049468,0.1364182519739823,2.912084696295081,0.1770805594798108,0.5104092005126081,0.1006799844588028,2.441932044888508,-0.5505953954016768,0,2024-09-25 22:19:34.229588867,1727302774.2295892,2024-09-25 22:19:34.229589248,0,0.0,0.1,11.642485739429373,[9.99948145e-01 5.18553505e-05],[9.99948145e-01 5.18553505e-05],"[0.15833333 0.25390625 0.44921875 0.72777778 0.33203125 0.52734375
 1.         0.         1.         0.34375    0.6        0.03333333]",0.4620078339061892,0,0
97,97,2024-09-25 22:19:27.988540160,TASK_BEGIN,18,-0.295315572341863,0.1482485424743765,2.9640415481577107,0.1661609848810372,0.509108597597564,0.1000443693767367,2.5605423717220472,-0.5724124377578836,0,2024-09-25 22:19:34.280610107,1727302774.2806106,2024-09-25 22:19:34.280610560,0,0.0,1.0,12.526060882035079,[0.99796252 0.00203748],[0.99796252 0.00203748],"[0.14444444 0.25390625 0.44921875 0.71388889 0.33203125 0.52734375
 1.         0.         1.         0.35742188 0.7        0.        ]",0.627819757500176,0,0
98,98,2024-09-25 22:19:28.938646016,TASK_BEGIN,18,-0.3166161340017959,0.1588271026326272,3.0149999660904045,0.1504906776396934,0.5126673390576741,0.0982572925948456,2.6904567973059743,-0.5942973325047683,0,2024-09-25 22:19:35.248969971,1727302775.2489705,2024-09-25 22:19:35.248970496,0,0.0,0.1,12.086952242635821,[9.99999982e-01 1.76770288e-08],[9.99999982e-01 1.76770288e-08],"[-0.11944444  0.25390625  0.44921875  0.45        0.33203125  0.52734375
  0.95        0.33203125  0.52734375  0.390625    0.9        -0.06666667]",0.3949840929420828,0,0
99,99,2024-09-25 22:19:29.001288704,TASK_BEGIN,18,-0.3322411274829442,0.167789777867274,3.066407180024873,0.1301411785858442,0.5217348782892436,0.0953342443621463,2.8262353166892598,-0.6150869766421396,0,2024-09-25 22:19:35.299972168,1727302775.299972,2024-09-25 22:19:35.299972096,0,0.0,0.1,12.066082720209462,[9.99999652e-01 3.47673507e-07],[9.99999652e-01 3.47673507e-07],"[-0.13333333  0.25390625  0.44921875  0.43611111  0.33203125  0.52734375
  0.93611111  0.33203125  0.52734375  0.41015625  1.         -0.1       ]",0.478304257439512,0,0
100,100,2024-09-25 22:19:29.079496960,TASK_BEGIN,18,-0.3418333246384974,0.1748839981875919,3.1185636902462064,0.1057904764008444,0.5365917374213083,0.0914183756463167,2.960056542070877,-0.6334730285361095,0,2024-09-25 22:19:35.401972900,1727302775.4019737,2024-09-25 22:19:35.401973760,0,0.0,0.1,12.024967674077292,[0.99813755 0.00186245],[0.99813755 0.00186245],"[-0.16111111  0.25390625  0.44921875  0.40833333  0.33203125  0.52734375
  0.90833333  0.33203125  0.52734375  0.44921875  1.         -0.16666667]",0.6944996469260468,0,0
101,101,2024-09-25 22:19:29.147282944,TASK_BEGIN,18,-0.345480996936656,0.180009235943515,3.170330194575657,0.0786531652695078,0.5570615093059158,0.0867922108123657,3.082495838465634,-0.6480649018570377,0,2024-09-25 22:19:35.401972900,1727302775.4019737,2024-09-25 22:19:35.401973760,0,0.0,0.1,12.024967674077292,[0.99813755 0.00186245],[0.99813755 0.00186245],"[-0.16111111  0.25390625  0.44921875  0.40833333  0.33203125  0.52734375
  0.90833333  0.33203125  0.52734375  0.44921875  1.         -0.16666667]",0.6944996469260468,0,0
102,102,2024-09-25 22:19:29.202568192,TASK_BEGIN,18,-0.3437867282074344,0.1832371112352446,3.2192774986680237,0.0503139260024532,0.582458230525403,0.0818778312674733,3.183399974778065,-0.6574446290801377,0,2024-09-25 22:19:35.401972900,1727302775.4019737,2024-09-25 22:19:35.401973760,0,0.0,0.1,12.024967674077292,[0.99813755 0.00186245],[0.99813755 0.00186245],"[-0.16111111  0.25390625  0.44921875  0.40833333  0.33203125  0.52734375
  0.90833333  0.33203125  0.52734375  0.44921875  1.         -0.16666667]",0.6944996469260468,0,0
103,103,2024-09-25 22:19:29.282954752,TASK_BEGIN,18,-0.3378514550254478,0.1848071194491678,3.262118265887526,0.022530854085491,0.6116066906184419,0.0772203809292733,3.2529119696350217,-0.6602437185583436,0,2024-09-25 22:19:35.401972900,1727302775.4019737,2024-09-25 22:19:35.401973760,0,0.0,0.1,12.024967674077292,[0.99813755 0.00186245],[0.99813755 0.00186245],"[-0.16111111  0.25390625  0.44921875  0.40833333  0.33203125  0.52734375
  0.90833333  0.33203125  0.52734375  0.44921875  1.         -0.16666667]",0.6944996469260468,0,0
104,104,2024-09-25 22:19:29.350700032,TASK_BEGIN,18,-0.3291715984094415,0.1850988708131112,3.295139103217784,-0.0029260458139129,0.6429265827111853,0.0734566909030335,3.282772456648352,-0.6552724895633544,0,2024-09-25 22:19:35.401972900,1727302775.4019737,2024-09-25 22:19:35.401973760,0,0.0,0.1,12.024967674077292,[0.99813755 0.00186245],[0.99813755 0.00186245],"[-0.16111111  0.25390625  0.44921875  0.40833333  0.33203125  0.52734375
  0.90833333  0.33203125  0.52734375  0.44921875  1.         -0.16666667]",0.6944996469260468,0,0
105,105,2024-09-25 22:19:30.283449856,TASK_BEGIN,18,-0.3194811009296269,0.1845879134418096,3.31451162657786,-0.0243857460905581,0.6745439156563444,0.071275984786921,3.2675303934084807,-0.641656114625373,0,2024-09-25 22:19:36.216972168,1727302776.216972,2024-09-25 22:19:36.216972032,0,0.0,0.1,11.724174462309023,[0.93655301 0.06344699],[0.93655301 0.06344699],"[0.18611111 0.33203125 0.52734375 0.68611111 0.33203125 0.52734375
 1.         0.         1.         0.43945312 0.6        0.03333333]",0.6083371338346274,0,0
106,106,2024-09-25 22:19:30.361556224,TASK_BEGIN,18,-0.3105807471450365,0.1837963792797864,3.316597385371365,-0.0403630957471174,0.7044175758815786,0.0713752805931244,3.205158370618354,-0.6189134145211006,0,2024-09-25 22:19:36.216972168,1727302776.216972,2024-09-25 22:19:36.216972032,0,0.0,0.1,11.724174462309023,[0.93655301 0.06344699],[0.93655301 0.06344699],"[0.18611111 0.33203125 0.52734375 0.68611111 0.33203125 0.52734375
 1.         0.         1.         0.43945312 0.6        0.03333333]",0.6083371338346274,0,0
107,107,2024-09-25 22:19:30.429725952,TASK_BEGIN,18,-0.3041671440220906,0.1832465578144081,3.298377280621736,-0.0496486721177938,0.7304906936421766,0.0744086978783217,3.097006949670759,-0.5869800162585102,0,2024-09-25 22:19:36.216972168,1727302776.216972,2024-09-25 22:19:36.216972032,0,0.0,0.1,11.724174462309023,[0.93655301 0.06344699],[0.93655301 0.06344699],"[0.18611111 0.33203125 0.52734375 0.68611111 0.33203125 0.52734375
 1.         0.         1.         0.43945312 0.6        0.03333333]",0.6083371338346274,0,0
108,108,2024-09-25 22:19:30.484837888,TASK_BEGIN,18,-0.3016587682051674,0.1834198993561229,3.257961507713903,-0.0514058621958978,0.750855978820433,0.0809357639771498,2.947316075559133,-0.5462067015665716,0,2024-09-25 22:19:36.370008057,1727302776.3700082,2024-09-25 22:19:36.370008320,0,0.0,1.0,12.572964756603982,[9.99182955e-01 8.17044799e-04],[9.99182955e-01 8.17044799e-04],"[ 0.14444444  0.33203125  0.52734375  0.64444444  0.33203125  0.52734375
  1.          0.          1.          0.3984375  -0.6         0.43333333]",0.338026515439282,0,0
109,109,2024-09-25 22:19:30.564557056,TASK_BEGIN,18,-0.304045796541003,0.1847225660635956,3.195010553914082,-0.0452579004782718,0.7638893400926215,0.0913805537430772,2.7624389934023665,-0.4973437957486903,0,2024-09-25 22:19:36.370008057,1727302776.3700082,2024-09-25 22:19:36.370008320,0,0.0,1.0,12.572964756603982,[9.99182955e-01 8.17044799e-04],[9.99182955e-01 8.17044799e-04],"[ 0.14444444  0.33203125  0.52734375  0.64444444  0.33203125  0.52734375
  1.          0.          1.          0.3984375  -0.6         0.43333333]",0.338026515439282,0,0
110,110,2024-09-25 22:19:30.625044224,TASK_BEGIN,18,-0.31180572779147,0.1874592017595971,3.1109301993532026,-0.0313384455945066,0.7683110570505227,0.1060102283851854,2.5499528625720944,-0.4415312074761423,0,2024-09-25 22:19:36.929972900,1727302776.9299734,2024-09-25 22:19:36.929973248,0,0.0,0.1,12.303673773447008,[9.99999766e-01 2.33752905e-07],[9.99999766e-01 2.33752905e-07],"[-0.00833333  0.33203125  0.52734375  0.49166667  0.33203125  0.52734375
  0.99166667  0.25390625  0.44921875  0.3984375   0.5         0.06666667]",0.3875213036572586,0,0
111,111,2024-09-25 22:19:30.701078784,TASK_BEGIN,18,-0.3248989194560108,0.1918169055936067,3.0088133731774818,-0.0102896973587241,0.7631807463137721,0.1249317812640934,2.3179776981060844,-0.3803295384033769,0,2024-09-25 22:19:37.031555908,1727302777.0315568,2024-09-25 22:19:37.031556864,0,0.0,0.1,12.257830665355412,[0.99871665 0.00128335],[0.99871665 0.00128335],"[-0.03611111  0.33203125  0.52734375  0.46388889  0.33203125  0.52734375
  0.96388889  0.25390625  0.44921875  0.42382812  0.7         0.        ]",0.4665729644702002,0,0
112,112,2024-09-25 22:19:31.614610176,TASK_BEGIN,18,-0.3428277455806686,0.1978619954534909,2.893168397625269,0.0167877086571685,0.7478679407051734,0.1480997626471549,2.074925569826397,-0.3157797440735106,0,2024-09-25 22:19:37.385855957,1727302777.3858566,2024-09-25 22:19:37.385856512,0,1.0,0.1,12.10444572461956,[0.09867806 0.90132194],[0.09867806 0.90132194],"[-0.13333333  0.33203125  0.52734375  0.36666667  0.33203125  0.52734375
  0.86666667  0.25390625  0.44921875  0.4140625  -0.8         0.5       ]",0.5755809412334683,0,0
113,113,2024-09-25 22:19:31.676115968,TASK_BEGIN,18,-0.3647352274300508,0.2055491413098667,2.7694782726219773,0.0484184958199871,0.7220311249614483,0.1753272565399267,1.8295625342760853,-0.2504100353435258,0,2024-09-25 22:19:37.536809814,1727302777.53681,2024-09-25 22:19:37.536809984,0,0.0,0.1,12.041941582152631,[0.99795641 0.00204359],[0.99795641 0.00204359],"[-0.175       0.33203125  0.52734375  0.325       0.33203125  0.52734375
  0.825       0.25390625  0.44921875  0.37890625 -0.5         0.4       ]",0.3453788975783296,0,0
114,114,2024-09-25 22:19:31.754759936,TASK_BEGIN,18,-0.3895271058545092,0.2147365739642862,2.6436494183911905,0.0828561613022795,0.6856038208825779,0.2062953339153438,1.591128115017971,-0.1871234876480541,0,2024-09-25 22:19:38.093473877,1727302778.0934744,2024-09-25 22:19:38.093474304,0,0.0,0.1,11.828228411462813,[9.99998647e-01 1.35325205e-06],[9.99998647e-01 1.35325205e-06],"[0.17222222 0.33203125 0.52734375 0.67222222 0.25390625 0.44921875
 1.         0.         1.         0.40039062 0.6        0.03333333]",0.3651589066994601,0,0
115,115,2024-09-25 22:19:31.814599168,TASK_BEGIN,18,-0.4160045072827342,0.2251997004460595,2.5214389774738257,0.1181986714512813,0.6387731801650222,0.2405612390712303,1.3694023753270108,-0.1289875331221398,0,2024-09-25 22:19:38.144469971,1727302778.1444702,2024-09-25 22:19:38.144470272,0,0.0,0.1,11.809946127348185,[9.99698368e-01 3.01632075e-04],[9.99698368e-01 3.01632075e-04],"[0.15833333 0.33203125 0.52734375 0.65833333 0.25390625 0.44921875
 1.         0.         1.         0.4140625  0.7        0.        ]",0.48993149390430996,0,0
116,116,2024-09-25 22:19:31.890385920,TASK_BEGIN,18,-0.4429765065234962,0.2366379343583219,2.4079301587936057,0.1525202231277242,0.5819661595730778,0.277567625882345,1.1746724120566647,-0.0789954787222682,0,2024-09-25 22:19:38.195470947,1727302778.1954713,2024-09-25 22:19:38.195471360,0,0.0,1.0,12.691846666074703,[0.97558881 0.02441119],[0.97558881 0.02441119],"[ 0.14444444  0.33203125  0.52734375  0.64444444  0.25390625  0.44921875
  1.          0.          1.          0.4296875   0.8        -0.03333333]",0.6745112326966384,0,0
117,117,2024-09-25 22:19:31.953761024,TASK_BEGIN,18,-0.4693203174669363,0.2486727384691346,2.3070757670346964,0.1840210222559001,0.5158818748579592,0.3166526769902276,1.017438287067132,-0.0398437987013372,0,2024-09-25 22:19:38.195470947,1727302778.1954713,2024-09-25 22:19:38.195471360,0,0.0,1.0,12.691846666074703,[0.97558881 0.02441119],[0.97558881 0.02441119],"[ 0.14444444  0.33203125  0.52734375  0.64444444  0.25390625  0.44921875
  1.          0.          1.          0.4296875   0.8        -0.03333333]",0.6745112326966384,0,0
118,118,2024-09-25 22:19:32.021812992,TASK_BEGIN,18,-0.4940047688377616,0.2608420779929735,2.221350284464459,0.2111744690872503,0.4415742722683632,0.3570594690849695,0.9077142796802132,-0.0137360681223463,0,2024-09-25 22:19:38.195470947,1727302778.1954713,2024-09-25 22:19:38.195471360,0,0.0,1.0,12.691846666074703,[0.97558881 0.02441119],[0.97558881 0.02441119],"[ 0.14444444  0.33203125  0.52734375  0.64444444  0.25390625  0.44921875
  1.          0.          1.          0.4296875   0.8        -0.03333333]",0.6745112326966384,0,0
119,119,2024-09-25 22:19:32.962228992,TASK_BEGIN,18,-0.5161323967476928,0.2726040376056689,2.151601198127615,0.2328364057056774,0.3605315758488062,0.3979460045341279,0.8540067019496983,-0.0022232701154026,0,2024-09-25 22:19:39.113479004,1727302779.1134796,2024-09-25 22:19:39.113479680,0,1.0,0.1,12.246383086552873,[0.01455727 0.98544273],[0.01455727 0.98544273],"[-0.10555556  0.33203125  0.52734375  0.39444444  0.25390625  0.44921875
  0.96388889  0.3125      0.5078125   0.3828125  -0.8         0.5       ]",0.80839948316335,0,0
120,120,2024-09-25 22:19:33.024572928,TASK_BEGIN,18,-0.5350257417705147,0.2833590901154654,2.0971699127562635,0.2482952289391372,0.2746806884411537,0.4384031396249088,0.8622587354430408,-0.0060949046372553,0,2024-09-25 22:19:39.113479004,1727302779.1134796,2024-09-25 22:19:39.113479680,0,1.0,0.1,12.246383086552873,[0.01455727 0.98544273],[0.01455727 0.98544273],"[-0.10555556  0.33203125  0.52734375  0.39444444  0.25390625  0.44921875
  0.96388889  0.3125      0.5078125   0.3828125  -0.8         0.5       ]",0.80839948316335,0,0
121,121,2024-09-25 22:19:33.102208000,TASK_BEGIN,18,-0.5503247758075972,0.2924880174880394,2.056300658673757,0.2572613117330748,0.1862794776510444,0.4774890511498995,0.9351284356701154,-0.025334771593977,0,2024-09-25 22:19:39.113479004,1727302779.1134796,2024-09-25 22:19:39.113479680,0,1.0,0.1,12.246383086552873,[0.01455727 0.98544273],[0.01455727 0.98544273],"[-0.10555556  0.33203125  0.52734375  0.39444444  0.25390625  0.44921875
  0.96388889  0.3125      0.5078125   0.3828125  -0.8         0.5       ]",0.80839948316335,0,0
122,122,2024-09-25 22:19:33.164699904,TASK_BEGIN,18,-0.5620531008582559,0.299396377221345,2.026777858511376,0.2598000343586645,0.0977272244818738,0.5142787603829931,1.0718422430281755,-0.0591458973979562,0,2024-09-25 22:19:39.113479004,1727302779.1134796,2024-09-25 22:19:39.113479680,0,1.0,0.1,12.246383086552873,[0.01455727 0.98544273],[0.01455727 0.98544273],"[-0.10555556  0.33203125  0.52734375  0.39444444  0.25390625  0.44921875
  0.96388889  0.3125      0.5078125   0.3828125  -0.8         0.5       ]",0.80839948316335,0,0
123,123,2024-09-25 22:19:33.240541952,TASK_BEGIN,18,-0.5706496164767881,0.303562241781724,2.006616184771666,0.2562173774511262,0.0113749685043504,0.5479147419744625,1.2684904414593778,-0.1060141455581302,0,2024-09-25 22:19:39.113479004,1727302779.1134796,2024-09-25 22:19:39.113479680,0,1.0,0.1,12.246383086552873,[0.01455727 0.98544273],[0.01455727 0.98544273],"[-0.10555556  0.33203125  0.52734375  0.39444444  0.25390625  0.44921875
  0.96388889  0.3125      0.5078125   0.3828125  -0.8         0.5       ]",0.80839948316335,0,0
124,124,2024-09-25 22:19:33.307928064,TASK_BEGIN,18,-0.5769774063139652,0.3045878064124774,1.994607033480844,0.2469189012805939,-0.0706036148194791,0.5776475148931717,1.5183411382680183,-0.1637585720206172,0,2024-09-25 22:19:39.113479004,1727302779.1134796,2024-09-25 22:19:39.113479680,0,1.0,0.1,12.246383086552873,[0.01455727 0.98544273],[0.01455727 0.98544273],"[-0.10555556  0.33203125  0.52734375  0.39444444  0.25390625  0.44921875
  0.96388889  0.3125      0.5078125   0.3828125  -0.8         0.5       ]",0.80839948316335,0,0
125,125,2024-09-25 22:19:33.376181760,TASK_BEGIN,18,-0.5822919396063924,0.3022482314690713,1.990584964982492,0.2322834700385497,-0.1462875529011958,0.6028669731175803,1.811952792867833,-0.2295651359378464,0,2024-09-25 22:19:39.164470947,1727302779.1644719,2024-09-25 22:19:39.164471808,0,1.0,0.1,12.223919255687344,[0.05330237 0.94669763],[0.05330237 0.94669763],"[-0.11944444  0.33203125  0.52734375  0.38055556  0.25390625  0.44921875
  0.95        0.3125      0.5078125   0.3671875  -0.8         0.5       ]",0.7408364206800869,0,0
126,126,2024-09-25 22:19:34.317948928,TASK_BEGIN,18,-0.5881385066909719,0.2965253885016038,1.9952930960945028,0.2126090415238085,-0.2140587093594438,0.6231265293816057,2.1372794298881312,-0.3000630555872744,0,2024-09-25 22:19:40.536016846,1727302780.5360177,2024-09-25 22:19:40.536017664,0,1.0,0.1,12.509332509377394,[0.65871171 0.34128829],[0.82877922 0.17122078],"[ 0.00555556  0.25390625  0.44921875  0.575       0.3125      0.5078125
  1.          0.          1.          0.2421875  -0.8         0.5       ]",0.09416057413980027,0,0
127,127,2024-09-25 22:19:34.385746176,TASK_BEGIN,18,-0.5961852023727156,0.2876216398367089,2.009831050223424,0.1881607460318978,-0.2726262337829402,0.6381574898145635,2.4799983881404857,-0.3714881966464669,0,2024-09-25 22:19:40.536016846,1727302780.5360177,2024-09-25 22:19:40.536017664,0,1.0,0.1,12.509332509377394,[0.65871171 0.34128829],[0.82877922 0.17122078],"[ 0.00555556  0.25390625  0.44921875  0.575       0.3125      0.5078125
  1.          0.          1.          0.2421875  -0.8         0.5       ]",0.09416057413980027,0,0
128,128,2024-09-25 22:19:34.441440256,TASK_BEGIN,18,-0.6080349637184888,0.2759583956194161,2.034910289865678,0.1592945529541272,-0.3210189085971232,0.6478722690212295,2.824001810175841,-0.4399139034798619,0,2024-09-25 22:19:40.536016846,1727302780.5360177,2024-09-25 22:19:40.536017664,0,1.0,0.1,12.509332509377394,[0.65871171 0.34128829],[0.82877922 0.17122078],"[ 0.00555556  0.25390625  0.44921875  0.575       0.3125      0.5078125
  1.          0.          1.          0.2421875  -0.8         0.5       ]",0.09416057413980027,0,0
129,129,2024-09-25 22:19:34.521414144,TASK_BEGIN,18,-0.6250553704664307,0.2621623216831762,2.07022259992152,0.1266098703118308,-0.3585641841526056,0.6523568689672281,3.1518834151137987,-0.5014971921118906,0,2024-09-25 22:19:40.839991211,1727302780.8399913,2024-09-25 22:19:40.839991296,0,1.0,0.1,12.362486745825413,[0.26976529 0.73023471],[0.00209313 0.99790687],"[-0.07777778  0.25390625  0.44921875  0.49166667  0.3125      0.5078125
  0.99166667  0.21484375  0.41015625  0.15039062 -0.8         0.5       ]",0.15659532247334468,0,0
130,130,2024-09-25 22:19:34.580571136,TASK_BEGIN,18,-0.6482386015838961,0.2470367580137553,2.114046523045046,0.091098219655148,-0.3848720185635496,0.6518523661275226,3.4454841741123605,-0.5527063234547085,0,2024-09-25 22:19:40.839991211,1727302780.8399913,2024-09-25 22:19:40.839991296,0,1.0,0.1,12.362486745825413,[0.26976529 0.73023471],[0.00209313 0.99790687],"[-0.07777778  0.25390625  0.44921875  0.49166667  0.3125      0.5078125
  0.99166667  0.21484375  0.41015625  0.15039062 -0.8         0.5       ]",0.15659532247334468,0,0
131,131,2024-09-25 22:19:34.657102080,TASK_BEGIN,18,-0.6780925177456013,0.2315188145441704,2.163069126488013,0.0542506529350462,-0.3998039581461436,0.6467259963523185,3.686807029754999,-0.5905331161936118,0,2024-09-25 22:19:40.839991211,1727302780.8399913,2024-09-25 22:19:40.839991296,0,1.0,0.1,12.362486745825413,[0.26976529 0.73023471],[0.00209313 0.99790687],"[-0.07777778  0.25390625  0.44921875  0.49166667  0.3125      0.5078125
  0.99166667  0.21484375  0.41015625  0.15039062 -0.8         0.5       ]",0.15659532247334468,0,0
132,132,2024-09-25 22:19:34.724939264,TASK_BEGIN,18,-0.7145636254845925,0.2166257699966769,2.2124692260233307,0.0180685315311532,-0.403396309096473,0.6374352751848774,3.859446012075247,-0.6126976456246668,0,2024-09-25 22:19:40.839991211,1727302780.8399913,2024-09-25 22:19:40.839991296,0,1.0,0.1,12.362486745825413,[0.26976529 0.73023471],[0.00209313 0.99790687],"[-0.07777778  0.25390625  0.44921875  0.49166667  0.3125      0.5078125
  0.99166667  0.21484375  0.41015625  0.15039062 -0.8         0.5       ]",0.15659532247334468,0,0
133,133,2024-09-25 22:19:35.664251904,TASK_BEGIN,18,-0.7569925791376713,0.2033898631335607,2.256402153751888,-0.0150747820148369,-0.3957617367376967,0.624494492972031,3.9502084414252496,-0.617817250418849,0,2024-09-25 22:19:41.448021973,1727302781.4480226,2024-09-25 22:19:41.448022528,0,0.0,-0.5,10.900072511129512,[0.54042619 0.45957381],[0.58102926 0.41897074],"[ 0.325       0.3125      0.5078125   0.825       0.21484375  0.41015625
  1.          0.          1.         -0.02929688 -0.7         0.46666667]",0.018549471668462818,0,0
134,134,2024-09-25 22:19:35.726036992,TASK_BEGIN,18,-0.8041132728830538,0.1927780376162112,2.2889204257134024,-0.0427300732652878,-0.3770441495407692,0.6084563645806267,3.950421632420336,-0.6054933095747048,0,2024-09-25 22:19:41.498990967,1727302781.498991,2024-09-25 22:19:41.498991104,0,1.0,-1.0,9.791071786018216,[0.46833903 0.53166097],[0.43659322 0.56340678],"[ 0.31111111  0.3125      0.5078125   0.81111111  0.21484375  0.41015625
  1.          0.          1.         -0.04492188 -0.8         0.5       ]",0.011823820791072569,0,0
135,140,2024-09-25 22:19:36.990844928,TASK_BEGIN,18,-1.06966622304473,0.2105076466691158,2.132275142867205,-0.0289226590695096,-0.0660537983106361,0.4831077784003605,2.181130276988358,-0.23709128531832,0,2024-09-25 22:19:43.100981934,1727302783.1009827,2024-09-25 22:19:43.100982784,1,1.0,0.1,0.199,[0.25692739 0.74307261],[0.25692739 0.74307261],"[ 0.97222222  0.1953125   0.390625    1.          0.          1.
  1.          0.          1.          0.4453125  -0.8         0.5       ]",0.12171393338766126,0,0
136,141,2024-09-25 22:19:37.059408896,TASK_BEGIN,18,-1.0925766485202106,0.2256021640067144,2.073451774683888,-0.0028424179505016,0.0043289844936371,0.4638738268334972,1.689890177941958,-0.1453854441804466,0,2024-09-25 22:19:43.100981934,1727302783.1009827,2024-09-25 22:19:43.100982784,1,1.0,0.1,0.199,[0.25692739 0.74307261],[0.25692739 0.74307261],"[ 0.97222222  0.1953125   0.390625    1.          0.          1.
  1.          0.          1.          0.4453125  -0.8         0.5       ]",0.12171393338766126,0,0
137,142,2024-09-25 22:19:37.121441792,TASK_BEGIN,18,-1.1061158646755798,0.2424965752995079,2.019026847881685,0.0248386366015092,0.0730803331699093,0.4468631244436435,1.183036874086402,-0.0508331289486515,0,2024-09-25 22:19:43.100981934,1727302783.1009827,2024-09-25 22:19:43.100982784,1,1.0,0.1,0.199,[0.25692739 0.74307261],[0.25692739 0.74307261],"[ 0.97222222  0.1953125   0.390625    1.          0.          1.
  1.          0.          1.          0.4453125  -0.8         0.5       ]",0.12171393338766126,0,0
138,143,2024-09-25 22:19:37.183927040,TASK_BEGIN,18,-1.1100279274990688,0.26036944559182,1.9732590129309864,0.0519291095882156,0.1371153702356997,0.432554469380964,0.6771579017036098,0.0441231640159299,0,2024-09-25 22:19:43.100981934,1727302783.1009827,2024-09-25 22:19:43.100982784,1,1.0,0.1,0.199,[0.25692739 0.74307261],[0.25692739 0.74307261],"[ 0.97222222  0.1953125   0.390625    1.          0.          1.
  1.          0.          1.          0.4453125  -0.8         0.5       ]",0.12171393338766126,0,0
139,144,2024-09-25 22:19:37.262089984,TASK_BEGIN,18,-1.10450511126468,0.2784337409987722,1.9389194238571132,0.0765963820479036,0.193562836793024,0.4212958406247878,0.188318288200687,0.1367506053801933,0,2024-09-25 22:19:43.100981934,1727302783.1009827,2024-09-25 22:19:43.100982784,1,1.0,0.1,0.199,[0.25692739 0.74307261],[0.25692739 0.74307261],"[ 0.97222222  0.1953125   0.390625    1.          0.          1.
  1.          0.          1.          0.4453125  -0.8         0.5       ]",0.12171393338766126,0,0
140,145,2024-09-25 22:19:37.332592128,TASK_BEGIN,18,-1.0902028850391652,0.2959875856280182,1.917207704290216,0.0974998179597363,0.239981172135436,0.4132906024417435,-0.2684443096308812,0.2240603886044511,0,2024-09-25 22:19:43.100981934,1727302783.1009827,2024-09-25 22:19:43.100982784,1,1.0,0.1,0.199,[0.25692739 0.74307261],[0.25692739 0.74307261],"[ 0.97222222  0.1953125   0.390625    1.          0.          1.
  1.          0.          1.          0.4453125  -0.8         0.5       ]",0.12171393338766126,0,0
141,146,2024-09-25 22:19:37.400475136,TASK_BEGIN,18,-1.0682159269117222,0.3124466780464136,1.90792768862602,0.1138425644062411,0.2745389514109439,0.4085872942779928,-0.6797697444918966,0.3029890335075995,0,2024-09-25 22:19:43.355572021,1727302783.3555727,2024-09-25 22:19:43.355572736,1,1.0,0.1,0.6793465209301,[0.30153475 0.69846525],[0.30153475 0.69846525],"[ 0.90277778  0.1953125   0.390625    1.          0.          1.
  1.          0.          1.          0.3671875  -0.8         0.5       ]",0.08037696609877057,0,0
142,147,2024-09-25 22:19:38.338654976,TASK_BEGIN,18,-1.0400070226386906,0.3273576851148259,1.9097505443860328,0.1253689502530479,0.2961123609091268,0.4070780955397417,-1.0346966703564902,0.370680897849501,0,2024-09-25 22:19:44.676408936,1727302784.67641,2024-09-25 22:19:44.676409856,1,0.0,0.1,2.8226946740172503,[9.99873609e-01 1.26391271e-04],[9.99873609e-01 1.26391271e-04],"[ 0.54166667  0.1953125   0.390625    1.          0.          1.
  1.          0.          1.          0.2265625   0.8        -0.03333333]",0.4036819080125869,0,0
143,148,2024-09-25 22:19:38.400166912,TASK_BEGIN,18,-1.0073123703969271,0.3404037894176902,1.9204246119127235,0.1323325978413667,0.3042801651154007,0.4085118747301272,-1.325307604272186,0.4248001309774499,0,2024-09-25 22:19:44.727408936,1727302784.7274096,2024-09-25 22:19:44.727409664,1,0.0,0.1,2.894467727277078,[9.99776528e-01 2.23472178e-04],[9.99776528e-01 2.23472178e-04],"[ 0.52777778  0.1953125   0.390625    1.          0.          1.
  1.          0.          1.          0.24414062  0.9        -0.06666667]",0.4187794830923682,0,0
144,149,2024-09-25 22:19:38.479244800,TASK_BEGIN,18,-0.9720237147985604,0.3514071799509679,1.936924990074113,0.1354343213625629,0.2992476934460621,0.4125225321935984,-1.547110077889707,0.4637878897427836,0,2024-09-25 22:19:44.777440186,1727302784.777441,2024-09-25 22:19:44.777441024,1,0.0,0.1,2.965523050004307,[9.99423523e-01 5.76477113e-04],[9.99423523e-01 5.76477113e-04],"[ 0.51388889  0.1953125   0.390625    1.          0.          1.
  1.          0.          1.          0.26367188  1.         -0.1       ]",0.4292087049078058,0,0
145,150,2024-09-25 22:19:38.537942784,TASK_BEGIN,18,-0.9360318156563944,0.3603213547725211,1.9556207348036252,0.135724611471095,0.2817490192109761,0.4186672990128596,-1.6988990373648465,0.4869866783703958,0,2024-09-25 22:19:44.879411865,1727302784.8794122,2024-09-25 22:19:44.879412224,1,0.0,0.1,3.1055091413092217,[0.98948103 0.01051897],[0.98948103 0.01051897],"[ 0.48611111  0.1953125   0.390625    0.98611111  0.29296875  0.48828125
  1.          0.          1.          0.30273438  1.         -0.16666667]",0.4412532807955075,0,0
146,151,2024-09-25 22:19:38.614204928,TASK_BEGIN,18,-0.9010588395014744,0.3672097509813841,1.9725168894824727,0.1344856996986407,0.2529478844308473,0.4264665649219004,-1.7820566125420716,0.4946194208188115,0,2024-09-25 22:19:44.879411865,1727302784.8794122,2024-09-25 22:19:44.879412224,1,0.0,0.1,3.1055091413092217,[0.98948103 0.01051897],[0.98948103 0.01051897],"[ 0.48611111  0.1953125   0.390625    0.98611111  0.29296875  0.48828125
  1.          0.          1.          0.30273438  1.         -0.16666667]",0.4412532807955075,0,0
147,152,2024-09-25 22:19:38.676691968,TASK_BEGIN,18,-0.8685451367688309,0.3722202261744746,1.9836225006018693,0.1331002487418752,0.2143265317222942,0.435439973437844,-1.7995984134072025,0.4876761349851899,0,2024-09-25 22:19:44.879411865,1727302784.8794122,2024-09-25 22:19:44.879412224,1,0.0,0.1,3.1055091413092217,[0.98948103 0.01051897],[0.98948103 0.01051897],"[ 0.48611111  0.1953125   0.390625    0.98611111  0.29296875  0.48828125
  1.          0.          1.          0.30273438  1.         -0.16666667]",0.4412532807955075,0,0
148,153,2024-09-25 22:19:38.750595328,TASK_BEGIN,18,-0.8396206382078337,0.375565791572015,1.985489681129463,0.1328921039849459,0.1675571183264055,0.4451390357727657,-1.7553343770332608,0.4677612486746413,0,2024-09-25 22:19:44.879411865,1727302784.8794122,2024-09-25 22:19:44.879412224,1,0.0,0.1,3.1055091413092217,[0.98948103 0.01051897],[0.98948103 0.01051897],"[ 0.48611111  0.1953125   0.390625    0.98611111  0.29296875  0.48828125
  1.          0.          1.          0.30273438  1.         -0.16666667]",0.4412532807955075,0,0
149,154,2024-09-25 22:19:39.679940864,TASK_BEGIN,18,-0.8151196868754279,0.3775088395929506,1.975832173110984,0.1349494116342018,0.1143720431665645,0.4551759450083868,-1.6533826842850967,0.4369380439642943,0,2024-09-25 22:19:45.948438965,1727302785.9484398,2024-09-25 22:19:45.948439808,1,0.0,0.1,4.417338614521361,[0.92407173 0.07592827],[0.92407173 0.07592827],"[ 0.19444444  0.1953125   0.390625    0.69444444  0.29296875  0.48828125
  1.          0.          1.          0.31054688  0.8        -0.03333333]",0.642100815439355,0,0
150,155,2024-09-25 22:19:39.758050048,TASK_BEGIN,18,-0.7955762445927193,0.3783384802651248,1.9539513825733632,0.139990443775824,0.0564604180371261,0.4652421429096541,-1.4981860165598868,0.3976045801552371,0,2024-09-25 22:19:45.948438965,1727302785.9484398,2024-09-25 22:19:45.948439808,1,0.0,0.1,4.417338614521361,[0.92407173 0.07592827],[0.92407173 0.07592827],"[ 0.19444444  0.1953125   0.390625    0.69444444  0.29296875  0.48828125
  1.          0.          1.          0.31054688  0.8        -0.03333333]",0.642100815439355,0,0
151,156,2024-09-25 22:19:39.829220864,TASK_BEGIN,18,-0.7811809911773114,0.3783382263607084,1.920707981140941,0.1483300341959033,-0.0045852816864655,0.4751103686459709,-1.2950546827739864,0.3524198615865517,0,2024-09-25 22:19:45.948438965,1727302785.9484398,2024-09-25 22:19:45.948439808,1,0.0,0.1,4.417338614521361,[0.92407173 0.07592827],[0.92407173 0.07592827],"[ 0.19444444  0.1953125   0.390625    0.69444444  0.29296875  0.48828125
  1.          0.          1.          0.31054688  0.8        -0.03333333]",0.642100815439355,0,0
152,157,2024-09-25 22:19:39.882074880,TASK_BEGIN,18,-0.771733829906551,0.3777523871312089,1.878020905831192,0.1599432820393055,-0.0672643410311611,0.4846238427850747,-1.0511054736699803,0.3042796267515825,0,2024-09-25 22:19:45.948438965,1727302785.9484398,2024-09-25 22:19:45.948439808,1,0.0,0.1,4.417338614521361,[0.92407173 0.07592827],[0.92407173 0.07592827],"[ 0.19444444  0.1953125   0.390625    0.69444444  0.29296875  0.48828125
  1.          0.          1.          0.31054688  0.8        -0.03333333]",0.642100815439355,0,0
153,158,2024-09-25 22:19:39.960181760,TASK_BEGIN,18,-0.7666411511132999,0.3767626104419871,1.828131537032401,0.1745763051686664,-0.1301148965379936,0.4936825887396267,-0.7762640424764699,0.256322437120266,0,2024-09-25 22:19:45.948438965,1727302785.9484398,2024-09-25 22:19:45.948439808,1,0.0,0.1,4.417338614521361,[0.92407173 0.07592827],[0.92407173 0.07592827],"[ 0.19444444  0.1953125   0.390625    0.69444444  0.29296875  0.48828125
  1.          0.          1.          0.31054688  0.8        -0.03333333]",0.642100815439355,0,0
154,159,2024-09-25 22:19:40.022226176,TASK_BEGIN,18,-0.7649883269000136,0.3754824375839848,1.77292719888012,0.1918583813315532,-0.1916423766965732,0.5022324397136705,-0.4837821425173738,0.211910626007916,0,2024-09-25 22:19:45.948438965,1727302785.9484398,2024-09-25 22:19:45.948439808,1,0.0,0.1,4.417338614521361,[0.92407173 0.07592827],[0.92407173 0.07592827],"[ 0.19444444  0.1953125   0.390625    0.69444444  0.29296875  0.48828125
  1.          0.          1.          0.31054688  0.8        -0.03333333]",0.642100815439355,0,0
155,160,2024-09-25 22:19:40.100587776,TASK_BEGIN,18,-0.765677361272511,0.3739708876596071,1.7134849957464355,0.211394277044493,-0.2502721353165846,0.5102551051187996,-0.1898197641345867,0.1745104225916248,0,2024-09-25 22:19:45.948438965,1727302785.9484398,2024-09-25 22:19:45.948439808,1,0.0,0.1,4.417338614521361,[0.92407173 0.07592827],[0.92407173 0.07592827],"[ 0.19444444  0.1953125   0.390625    0.69444444  0.29296875  0.48828125
  1.          0.          1.          0.31054688  0.8        -0.03333333]",0.642100815439355,0,0
156,161,2024-09-25 22:19:41.043575040,TASK_BEGIN,18,-0.7675837359395958,0.3722568450858169,1.6498456846689915,0.2328312114600088,-0.3043485927695269,0.5177544416231493,0.0879111887707971,0.1474297490833626,0,2024-09-25 22:19:47.065066162,1727302787.0650668,2024-09-25 22:19:47.065066752,1,0.0,0.1,6.2683196238139125,[0.99642781 0.00357219],[0.99642781 0.00357219],"[-0.11111111  0.1953125   0.390625    0.38888889  0.29296875  0.48828125
  0.88888889  0.2734375   0.46875     0.40625     1.         -0.2       ]",0.7763967802939394,1,1
157,162,2024-09-25 22:19:41.105560064,TASK_BEGIN,18,-0.7696904184983804,0.3703609967430604,1.5810195927675843,0.2558972980152311,-0.3521723640406105,0.5247377513908771,0.3320670510771094,0.1334384071217986,0,2024-09-25 22:19:47.065066162,1727302787.0650668,2024-09-25 22:19:47.065066752,1,0.0,0.1,6.2683196238139125,[0.99642781 0.00357219],[0.99642781 0.00357219],"[-0.11111111  0.1953125   0.390625    0.38888889  0.29296875  0.48828125
  0.88888889  0.2734375   0.46875     0.40625     1.         -0.2       ]",0.7763967802939394,1,1
158,163,2024-09-25 22:19:41.167092992,TASK_BEGIN,18,-0.7711926051134823,0.3683082600371491,1.505299865824112,0.2804020262833913,-0.3920780641788985,0.5312013369413494,0.5276796638807179,0.1343548254359569,0,2024-09-25 22:19:47.065066162,1727302787.0650668,2024-09-25 22:19:47.065066752,1,0.0,0.1,6.2683196238139125,[0.99642781 0.00357219],[0.99642781 0.00357219],"[-0.11111111  0.1953125   0.390625    0.38888889  0.29296875  0.48828125
  0.88888889  0.2734375   0.46875     0.40625     1.         -0.2       ]",0.7763967802939394,1,1
159,164,2024-09-25 22:19:41.244389120,TASK_BEGIN,18,-0.7715774629131444,0.3661332466768466,1.420858770798781,0.3061985437407445,-0.4225694071291171,0.53713265340593,0.6638130314427684,0.1507210888984004,0,2024-09-25 22:19:47.065066162,1727302787.0650668,2024-09-25 22:19:47.065066752,1,0.0,0.1,6.2683196238139125,[0.99642781 0.00357219],[0.99642781 0.00357219],"[-0.11111111  0.1953125   0.390625    0.38888889  0.29296875  0.48828125
  0.88888889  0.2734375   0.46875     0.40625     1.         -0.2       ]",0.7763967802939394,1,1
160,165,2024-09-25 22:19:41.306461184,TASK_BEGIN,18,-0.7706563525127794,0.3638813660267431,1.3263467438731076,0.3331358232413058,-0.442488696045398,0.5425276537251321,0.7345096171999204,0.1816803832731817,0,2024-09-25 22:19:47.065066162,1727302787.0650668,2024-09-25 22:19:47.065066752,1,0.0,0.1,6.2683196238139125,[0.99642781 0.00357219],[0.99642781 0.00357219],"[-0.11111111  0.1953125   0.390625    0.38888889  0.29296875  0.48828125
  0.88888889  0.2734375   0.46875     0.40625     1.         -0.2       ]",0.7763967802939394,1,1
161,166,2024-09-25 22:19:41.368500992,TASK_BEGIN,18,-0.7685254028361553,0.3616031479179046,1.221187889285834,0.3610262830660032,-0.4511606863653646,0.5474088913811324,0.7388806681868311,0.2250955202826131,0,2024-09-25 22:19:47.116022217,1727302787.116022,2024-09-25 22:19:47.116022016,1,0.0,0.1,6.305636427575773,[0.87974311 0.12025689],[0.87974311 0.12025689],"[-0.125       0.1953125   0.390625    0.375       0.29296875  0.48828125
  0.875       0.2734375   0.46875     0.42578125  1.         -0.23333333]",0.5219051337035674,1,1
162,167,2024-09-25 22:19:41.446181888,TASK_BEGIN,18,-0.7654733176763914,0.3593412497309354,1.1055881611875131,0.3896144129212913,-0.448473388319982,0.5518344835745772,0.6804925435448933,0.2778546276309059,0,2024-09-25 22:19:47.320024902,1727302787.3200257,2024-09-25 22:19:47.320025600,1,0.0,0.1,6.45120909283994,[0.99870894 0.00129106],[0.99870894 0.00129106],"[-0.18055556  0.1953125   0.390625    0.31944444  0.29296875  0.48828125
  0.81944444  0.2734375   0.46875     0.375      -0.5         0.4       ]",0.45286220456503623,1,1
163,168,2024-09-25 22:19:42.385562112,TASK_BEGIN,18,-0.7618768106667171,0.3571147804955503,0.9805199960179736,0.418524505712177,-0.4348987189356467,0.5558995670939042,0.5663036548654208,0.3362738376084093,0,2024-09-25 22:19:48.691708008,1727302788.691708,2024-09-25 22:19:48.691708160,1,0.0,0.1,8.06865762636243,[9.99994970e-01 5.03043606e-06],[9.99994970e-01 5.03043606e-06],"[-0.05555556  0.29296875  0.48828125  0.44444444  0.2734375   0.46875
  1.          0.          1.          0.38085938  0.7         0.        ]",0.4446364565577959,1,1
164,169,2024-09-25 22:19:42.461478144,TASK_BEGIN,18,-0.758097621072141,0.3549046907586161,0.8478305127750484,0.4472021075369715,-0.4114729378293581,0.5597345405848199,0.4053932388431318,0.3965087377504467,0,2024-09-25 22:19:48.793708008,1727302788.7937083,2024-09-25 22:19:48.793708288,1,0.0,0.1,8.107091339597819,[9.99517478e-01 4.82521912e-04],[9.99517478e-01 4.82521912e-04],"[-0.08333333  0.29296875  0.48828125  0.41666667  0.2734375   0.46875
  0.99166667  0.21484375  0.41015625  0.4140625   0.9        -0.06666667]",0.7538313468956922,1,1
165,170,2024-09-25 22:19:42.529305856,TASK_BEGIN,18,-0.7543808760913105,0.3526419231525833,0.7104158632591753,0.4748757257337648,-0.3797577325718238,0.5634999306590925,0.2078638200566556,0.4548874252990869,0,2024-09-25 22:19:48.793708008,1727302788.7937083,2024-09-25 22:19:48.793708288,1,0.0,0.1,8.107091339597819,[9.99517478e-01 4.82521912e-04],[9.99517478e-01 4.82521912e-04],"[-0.08333333  0.29296875  0.48828125  0.41666667  0.2734375   0.46875
  0.99166667  0.21484375  0.41015625  0.4140625   0.9        -0.06666667]",0.7538313468956922,1,1
166,171,2024-09-25 22:19:42.585882880,TASK_BEGIN,18,-0.7507829980353885,0.3502042896989825,0.5723795295021818,0.5005435665115674,-0.3417936699339258,0.5673768465597461,-0.0156642149117534,0.5081102515473838,0,2024-09-25 22:19:48.793708008,1727302788.7937083,2024-09-25 22:19:48.793708288,1,0.0,0.1,8.107091339597819,[9.99517478e-01 4.82521912e-04],[9.99517478e-01 4.82521912e-04],"[-0.08333333  0.29296875  0.48828125  0.41666667  0.2734375   0.46875
  0.99166667  0.21484375  0.41015625  0.4140625   0.9        -0.06666667]",0.7538313468956922,1,1
167,172,2024-09-25 22:19:42.662642944,TASK_BEGIN,18,-0.7471710138765281,0.3474305059357922,0.4391199312809803,0.5229857350418838,-0.3000397148140732,0.5715556631039992,-0.2539595962042087,0.5533370740596378,0,2024-09-25 22:19:48.793708008,1727302788.7937083,2024-09-25 22:19:48.793708288,1,0.0,0.1,8.107091339597819,[9.99517478e-01 4.82521912e-04],[9.99517478e-01 4.82521912e-04],"[-0.08333333  0.29296875  0.48828125  0.41666667  0.2734375   0.46875
  0.99166667  0.21484375  0.41015625  0.4140625   0.9        -0.06666667]",0.7538313468956922,1,1
168,173,2024-09-25 22:19:42.724709888,TASK_BEGIN,18,-0.7432969722626166,0.3441511601412285,0.3172458211410624,0.5408142488372816,-0.2572743719872546,0.576225775114734,-0.4950218003913355,0.588244376153234,0,2024-09-25 22:19:48.793708008,1727302788.7937083,2024-09-25 22:19:48.793708288,1,0.0,0.1,8.107091339597819,[9.99517478e-01 4.82521912e-04],[9.99517478e-01 4.82521912e-04],"[-0.08333333  0.29296875  0.48828125  0.41666667  0.2734375   0.46875
  0.99166667  0.21484375  0.41015625  0.4140625   0.9        -0.06666667]",0.7538313468956922,1,1
169,174,2024-09-25 22:19:42.787559936,TASK_BEGIN,18,-0.7389116746102387,0.3402253181232429,0.2141644646466699,0.5525745891086792,-0.216433065493921,0.5815662472069439,-0.7264702231133618,0.6111314952094492,0,2024-09-25 22:19:48.793708008,1727302788.7937083,2024-09-25 22:19:48.793708288,1,0.0,0.1,8.107091339597819,[9.99517478e-01 4.82521912e-04],[9.99517478e-01 4.82521912e-04],"[-0.08333333  0.29296875  0.48828125  0.41666667  0.2734375   0.46875
  0.99166667  0.21484375  0.41015625  0.4140625   0.9        -0.06666667]",0.7538313468956922,1,1
170,175,2024-09-25 22:19:43.718714880,TASK_BEGIN,18,-0.7338829430179538,0.3355711721033084,0.1372412847911205,0.5569085307155474,-0.180382677705739,0.587736763981125,-0.9365836608053688,0.6210755567666563,0,2024-09-25 22:19:49.503473145,1727302789.5034735,2024-09-25 22:19:49.503473408,1,0.0,-1.0,7.255543527321464,[0.27873459 0.72126541],[0.02462644 0.97537356],"[ 0.22222222  0.2734375   0.46875     0.79722222  0.21484375  0.41015625
  1.          0.          1.          0.26367188 -0.7         0.46666667]",0.20793724762456986,1,1
171,182,2024-09-25 22:19:45.068247040,TASK_BEGIN,18,-0.7133333659413829,0.293709080243717,0.4941808847179396,0.3761494195326057,-0.1882298307388057,0.6572337720622525,-1.322692667327093,0.4035330453766272,0,2024-09-25 22:19:51.106947998,1727302791.1069486,2024-09-25 22:19:51.106948608,2,1.0,0.1,0.199,[0.29338511 0.70661489],[0.29338511 0.70661489],"[ 0.97222222  0.21484375  0.41015625  1.          0.          1.
  1.          0.          1.          0.4453125  -0.8         0.5       ]",0.08773584792964072,0,0
172,183,2024-09-25 22:19:45.122558208,TASK_BEGIN,18,-0.7188896505412158,0.2899040110405569,0.6125686269250461,0.3394792120413854,-0.22247434154103,0.669007931891091,-1.2223841378555231,0.3514902841042785,0,2024-09-25 22:19:51.106947998,1727302791.1069486,2024-09-25 22:19:51.106948608,2,1.0,0.1,0.199,[0.29338511 0.70661489],[0.29338511 0.70661489],"[ 0.97222222  0.21484375  0.41015625  1.          0.          1.
  1.          0.          1.          0.4453125  -0.8         0.5       ]",0.08773584792964072,0,0
173,184,2024-09-25 22:19:45.203934720,TASK_BEGIN,18,-0.7269907312548565,0.2875748305385972,0.7198892028925061,0.3076224744284327,-0.2597092672918905,0.6802438936791014,-1.092286555494651,0.2986469311059862,0,2024-09-25 22:19:51.106947998,1727302791.1069486,2024-09-25 22:19:51.106948608,2,1.0,0.1,0.199,[0.29338511 0.70661489],[0.29338511 0.70661489],"[ 0.97222222  0.21484375  0.41015625  1.          0.          1.
  1.          0.          1.          0.4453125  -0.8         0.5       ]",0.08773584792964072,0,0
174,185,2024-09-25 22:19:45.271804160,TASK_BEGIN,18,-0.7372277589645829,0.2869285188518573,0.807497225874574,0.2826221750681654,-0.2976466610045596,0.6905601753828974,-0.936515208215448,0.2461210090525331,0,2024-09-25 22:19:51.106947998,1727302791.1069486,2024-09-25 22:19:51.106948608,2,1.0,0.1,0.199,[0.29338511 0.70661489],[0.29338511 0.70661489],"[ 0.97222222  0.21484375  0.41015625  1.          0.          1.
  1.          0.          1.          0.4453125  -0.8         0.5       ]",0.08773584792964072,0,0
175,186,2024-09-25 22:19:45.338777088,TASK_BEGIN,18,-0.7491054485477586,0.2881142628613884,0.8690244660965528,0.2658450297117575,-0.3341484662604771,0.6996290010881003,-0.7595653427354979,0.1950349393575349,0,2024-09-25 22:19:51.106947998,1727302791.1069486,2024-09-25 22:19:51.106948608,2,1.0,0.1,0.199,[0.29338511 0.70661489],[0.29338511 0.70661489],"[ 0.97222222  0.21484375  0.41015625  1.          0.          1.
  1.          0.          1.          0.4453125  -0.8         0.5       ]",0.08773584792964072,0,0
176,187,2024-09-25 22:19:45.399844864,TASK_BEGIN,18,-0.7621259858115618,0.291224418730018,0.9008916463926208,0.2578968867518822,-0.3673042619632138,0.7072014258780462,-0.5666031545955672,0.1465490983396501,0,2024-09-25 22:19:51.713541992,1727302791.7135425,2024-09-25 22:19:51.713542400,2,1.0,0.1,1.312541872310217,[0.28251929 0.71748071],[0.28251929 0.71748071],"[ 0.80555556  0.21484375  0.41015625  1.          0.          1.
  1.          0.          1.          0.2578125  -0.8         0.5       ]",0.089198842176095,0,0
177,188,2024-09-25 22:19:45.462686976,TASK_BEGIN,18,-0.7758519888004712,0.2962929994847408,0.9023119088170596,0.2586106033856809,-0.3954806603759725,0.7131175962980083,-0.3638107687233021,0.1018656252177156,0,2024-09-25 22:19:51.764541016,1727302791.7645416,2024-09-25 22:19:51.764541696,2,1.0,0.1,1.3994164535871148,[0.2428714 0.7571286],[0.2428714 0.7571286],"[ 0.79166667  0.21484375  0.41015625  1.          0.          1.
  1.          0.          1.          0.2421875  -0.8         0.5       ]",0.13303685049242214,0,0
178,189,2024-09-25 22:19:46.414938880,TASK_BEGIN,18,-0.7899573175285849,0.3032932058215472,0.8748766081331996,0.2670763751168442,-0.4173620173750451,0.7172997294770694,-0.1584586380844417,0.0621940363942345,0,2024-09-25 22:19:52.723717041,1727302792.7237172,2024-09-25 22:19:52.723717120,2,0.0,0.1,2.894467727277078,[9.99420637e-01 5.79363452e-04],[9.99420637e-01 5.79363452e-04],"[ 0.52777778  0.21484375  0.41015625  1.          0.          1.
  1.          0.          1.          0.27929688  1.         -0.1       ]",0.43156603381202785,0,0
179,190,2024-09-25 22:19:46.486152192,TASK_BEGIN,18,-0.80426435421544,0.3121352015749286,0.8219879078161932,0.281701202790914,-0.4319512336742946,0.7197239754011522,0.0414657553876159,0.028679330699701,0,2024-09-25 22:19:52.774718994,1727302792.7747197,2024-09-25 22:19:52.774719744,2,0.0,0.1,2.965523050004307,[0.99745481 0.00254519],[0.99745481 0.00254519],"[ 0.51388889  0.21484375  0.41015625  1.          0.          1.
  1.          0.          1.          0.29882812  1.         -0.13333333]",0.4366772004443981,0,0
180,191,2024-09-25 22:19:46.553899264,TASK_BEGIN,18,-0.8187502054661157,0.3226637578256389,0.7483320609550959,0.300315735344317,-0.4384983280902439,0.7203726995387503,0.227934351908577,0.0023207133717595,0,2024-09-25 22:19:52.774718994,1727302792.7747197,2024-09-25 22:19:52.774719744,2,0.0,0.1,2.965523050004307,[0.99745481 0.00254519],[0.99745481 0.00254519],"[ 0.51388889  0.21484375  0.41015625  1.          0.          1.
  1.          0.          1.          0.29882812  1.         -0.13333333]",0.4366772004443981,0,0
181,192,2024-09-25 22:19:46.621835008,TASK_BEGIN,18,-0.8335192817636387,0.334658016346838,0.659443463512096,0.3203506513534402,-0.436397275666142,0.7191826336188092,0.3935616328915191,-0.0160905010849179,0,2024-09-25 22:19:52.774718994,1727302792.7747197,2024-09-25 22:19:52.774719744,2,0.0,0.1,2.965523050004307,[0.99745481 0.00254519],[0.99745481 0.00254519],"[ 0.51388889  0.21484375  0.41015625  1.          0.          1.
  1.          0.          1.          0.29882812  1.         -0.13333333]",0.4366772004443981,0,0
182,193,2024-09-25 22:19:46.677576192,TASK_BEGIN,18,-0.8487670977527364,0.3478393688141581,0.5613758569048196,0.3390712358092076,-0.425142045665639,0.7160135142686074,0.5321288770864963,-0.0260078848657172,0,2024-09-25 22:19:52.774718994,1727302792.7747197,2024-09-25 22:19:52.774719744,2,0.0,0.1,2.965523050004307,[0.99745481 0.00254519],[0.99745481 0.00254519],"[ 0.51388889  0.21484375  0.41015625  1.          0.          1.
  1.          0.          1.          0.29882812  1.         -0.13333333]",0.4366772004443981,0,0
183,194,2024-09-25 22:19:46.754183168,TASK_BEGIN,18,-0.8647495028252855,0.3618892154935258,0.4605483665866436,0.3538245747697099,-0.4043827021323181,0.7106535355947271,0.6390120869596614,-0.02714802465101,0,2024-09-25 22:19:52.774718994,1727302792.7747197,2024-09-25 22:19:52.774719744,2,0.0,0.1,2.965523050004307,[0.99745481 0.00254519],[0.99745481 0.00254519],"[ 0.51388889  0.21484375  0.41015625  1.          0.          1.
  1.          0.          1.          0.29882812  1.         -0.13333333]",0.4366772004443981,0,0
184,195,2024-09-25 22:19:46.825345024,TASK_BEGIN,18,-0.8817372257868104,0.3764670898464948,0.3638021089327228,0.3622516131196746,-0.374031198015341,0.7028576514809395,0.7115490206978665,-0.0194939224530929,0,2024-09-25 22:19:52.774718994,1727302792.7747197,2024-09-25 22:19:52.774719744,2,0.0,0.1,2.965523050004307,[0.99745481 0.00254519],[0.99745481 0.00254519],"[ 0.51388889  0.21484375  0.41015625  1.          0.          1.
  1.          0.          1.          0.29882812  1.         -0.13333333]",0.4366772004443981,0,0
185,196,2024-09-25 22:19:47.738745856,TASK_BEGIN,18,-0.8999467825150158,0.3912178006762516,0.2785303078587866,0.3624430317273091,-0.3343379015162691,0.6924004974315361,0.7492224947303651,-0.0032942790961828,0,2024-09-25 22:19:53.789558838,1727302793.7895594,2024-09-25 22:19:53.789559296,2,0.0,0.1,4.246452500230714,[0.95568059 0.04431941],[0.95568059 0.04431941],"[0.23611111 0.21484375 0.41015625 0.73611111 0.3125     0.5078125
 1.         0.         1.         0.32617188 0.7        0.        ]",0.6861414657358814,0,0
186,197,2024-09-25 22:19:47.801677056,TASK_BEGIN,18,-0.919490570230458,0.4057707688108588,0.2126308824742665,0.3530491907545598,-0.2859044103376472,0.6791266318376216,0.7536044397016115,0.0209189443135307,0,2024-09-25 22:19:53.789558838,1727302793.7895594,2024-09-25 22:19:53.789559296,2,0.0,0.1,4.246452500230714,[0.95568059 0.04431941],[0.95568059 0.04431941],"[0.23611111 0.21484375 0.41015625 0.73611111 0.3125     0.5078125
 1.         0.         1.         0.32617188 0.7        0.        ]",0.6861414657358814,0,0
187,198,2024-09-25 22:19:47.879698944,TASK_BEGIN,18,-0.9403917464325688,0.4197454706186744,0.1741367742814267,0.3333568667964995,-0.2296479621465079,0.6629890239545779,0.7281319946373629,0.0522916388905922,0,2024-09-25 22:19:53.789558838,1727302793.7895594,2024-09-25 22:19:53.789559296,2,0.0,0.1,4.246452500230714,[0.95568059 0.04431941],[0.95568059 0.04431941],"[0.23611111 0.21484375 0.41015625 0.73611111 0.3125     0.5078125
 1.         0.         1.         0.32617188 0.7        0.        ]",0.6861414657358814,0,0
188,199,2024-09-25 22:19:47.940861184,TASK_BEGIN,18,-0.9626419719180472,0.4327668697457886,0.1705569298313652,0.3033167699036906,-0.1667493220543319,0.6440725713613364,0.677685836511914,0.0896288707585285,0,2024-09-25 22:19:53.789558838,1727302793.7895594,2024-09-25 22:19:53.789559296,2,0.0,0.1,4.246452500230714,[0.95568059 0.04431941],[0.95568059 0.04431941],"[0.23611111 0.21484375 0.41015625 0.73611111 0.3125     0.5078125
 1.         0.         1.         0.32617188 0.7        0.        ]",0.6861414657358814,0,0
189,200,2024-09-25 22:19:48.015302912,TASK_BEGIN,18,-0.986232854485322,0.4444792677606943,0.208042802762369,0.2634984985208439,-0.0986087774578491,0.6226015962159707,0.6078711158787838,0.1314445585113051,0,2024-09-25 22:19:53.789558838,1727302793.7895594,2024-09-25 22:19:53.789559296,2,0.0,0.1,4.246452500230714,[0.95568059 0.04431941],[0.95568059 0.04431941],"[0.23611111 0.21484375 0.41015625 0.73611111 0.3125     0.5078125
 1.         0.         1.         0.32617188 0.7        0.        ]",0.6861414657358814,0,0
190,201,2024-09-25 22:19:48.083149824,TASK_BEGIN,18,-1.011126368131668,0.4545484928193589,0.2905171969439634,0.2149912822901243,-0.0268072579871868,0.5989302464637772,0.5241210301521979,0.1760791827576565,0,2024-09-25 22:19:53.941639893,1727302793.9416406,2024-09-25 22:19:53.941640704,2,0.0,0.1,4.417338614521361,[9.99745257e-01 2.54743247e-04],[9.99745257e-01 2.54743247e-04],"[ 0.19444444  0.21484375  0.41015625  0.69444444  0.3125      0.5078125
  1.          0.          1.          0.28515625 -0.6         0.43333333]",0.33821270324878966,0,0
191,202,2024-09-25 22:19:48.142828800,TASK_BEGIN,18,-1.0371942199658866,0.4626560224093419,0.4189077045573121,0.1593021640822087,0.0469584882919875,0.573515808656257,0.4309362249013835,0.2218461005500411,0,2024-09-25 22:19:53.941639893,1727302793.9416406,2024-09-25 22:19:53.941640704,2,0.0,0.1,4.417338614521361,[9.99745257e-01 2.54743247e-04],[9.99745257e-01 2.54743247e-04],"[ 0.19444444  0.21484375  0.41015625  0.69444444  0.3125      0.5078125
  1.          0.          1.          0.28515625 -0.6         0.43333333]",0.33821270324878966,0,0
192,203,2024-09-25 22:19:49.087127808,TASK_BEGIN,18,-1.064170433099821,0.4684947709266382,0.5906136980009987,0.0982756063919222,0.1209847600940191,0.5468787185038487,0.3314542969264238,0.2671799310835061,0,2024-09-25 22:19:54.905787842,1727302794.9057882,2024-09-25 22:19:54.905788160,2,0.0,0.1,6.154092319804425,[0.99332044 0.00667956],[0.99332044 0.00667956],"[-0.06944444  0.21484375  0.41015625  0.43055556  0.3125      0.5078125
  0.93055556  0.21484375  0.41015625  0.421875    1.         -0.2       ]",0.8019396969239369,1,1
193,204,2024-09-25 22:19:49.149006080,TASK_BEGIN,18,-1.0916222201336754,0.471769615696138,0.7993138660972553,0.0340163015263543,0.1936907523718928,0.5195557668277357,0.2274235466776601,0.3107691625431256,0,2024-09-25 22:19:54.905787842,1727302794.9057882,2024-09-25 22:19:54.905788160,2,0.0,0.1,6.154092319804425,[0.99332044 0.00667956],[0.99332044 0.00667956],"[-0.06944444  0.21484375  0.41015625  0.43055556  0.3125      0.5078125
  0.93055556  0.21484375  0.41015625  0.421875    1.         -0.2       ]",0.8019396969239369,1,1
194,205,2024-09-25 22:19:49.226429952,TASK_BEGIN,18,-1.118917154192279,0.4721991387395386,1.0352109418198092,-0.0312067488796335,0.2637255942478214,0.4920549916813317,0.119735024123551,0.3516198912993843,0,2024-09-25 22:19:55.313827881,1727302795.313828,2024-09-25 22:19:55.313828096,2,0.0,0.1,6.45120909283994,[9.99637818e-01 3.62182408e-04],[9.99637818e-01 3.62182408e-04],"[-0.18055556  0.21484375  0.41015625  0.31944444  0.3125      0.5078125
  0.81944444  0.21484375  0.41015625  0.39648438 -0.3         0.33333333]",0.48557484661868466,1,1
195,206,2024-09-25 22:19:49.288545792,TASK_BEGIN,18,-1.145184638185285,0.4695192696239836,1.2858124469580323,-0.0950897024402603,0.3300222135709608,0.4648229989567142,0.0095068034790054,0.3890071161241937,0,2024-09-25 22:19:55.619780029,1727302795.6197805,2024-09-25 22:19:55.619780608,2,0.0,0.1,6.658883806534034,[9.99453266e-01 5.46733832e-04],[9.99453266e-01 5.46733832e-04],"[0.23611111 0.3125     0.5078125  0.73611111 0.21484375 0.41015625
 1.         0.         1.         0.40234375 0.3        0.13333333]",0.49350355157551073,1,1
196,207,2024-09-25 22:19:49.350587904,TASK_BEGIN,18,-1.1693014297426787,0.4634966931612528,1.537225514881169,-0.155455879168906,0.3918060233758012,0.4382290486418348,-0.1007488939601938,0.4223555666751921,0,2024-09-25 22:19:55.670778076,1727302795.670778,2024-09-25 22:19:55.670778112,2,0.0,0.1,6.692294968468693,[0.98472283 0.01527717],[0.98472283 0.01527717],"[0.22222222 0.3125     0.5078125  0.72222222 0.21484375 0.41015625
 1.         0.         1.         0.41015625 0.4        0.1       ]",0.5804445968260369,1,1
197,208,2024-09-25 22:19:49.427840000,TASK_BEGIN,18,-1.1899387930123388,0.4539577425594204,1.7756620910815404,-0.2104010089228608,0.4485950193686345,0.4125563077773151,-0.2064300381314986,0.4511278514599012,0,2024-09-25 22:19:55.670778076,1727302795.670778,2024-09-25 22:19:55.670778112,2,0.0,0.1,6.692294968468693,[0.98472283 0.01527717],[0.98472283 0.01527717],"[0.22222222 0.3125     0.5078125  0.72222222 0.21484375 0.41015625
 1.         0.         1.         0.41015625 0.4        0.1       ]",0.5804445968260369,1,1
198,209,2024-09-25 22:19:49.501059072,TASK_BEGIN,18,-1.205693197846471,0.4408303483614202,1.988734983696164,-0.2583582381423077,0.5002004811139463,0.3879902158785119,-0.3007667009609376,0.474746396137798,0,2024-09-25 22:19:55.670778076,1727302795.670778,2024-09-25 22:19:55.670778112,2,0.0,0.1,6.692294968468693,[0.98472283 0.01527717],[0.98472283 0.01527717],"[0.22222222 0.3125     0.5078125  0.72222222 0.21484375 0.41015625
 1.         0.         1.         0.41015625 0.4        0.1       ]",0.5804445968260369,1,1
199,210,2024-09-25 22:19:50.435054080,TASK_BEGIN,18,-1.2152837954535542,0.4241899721519088,2.1663479474764484,-0.2980830282053916,0.5466929322847308,0.3646101566613749,-0.3752333730174034,0.4925425773416648,0,2024-09-25 22:19:56.226634033,1727302796.2266347,2024-09-25 22:19:56.226634752,2,0.0,-1.0,6.785817285926882,[0.72545382 0.27454618],[0.98583898 0.01416102],"[ 0.06944444  0.3125      0.5078125   0.56944444  0.21484375  0.41015625
  1.          0.          1.          0.31054688 -0.6         0.43333333]",0.0045993830054923395,1,1
200,217,2024-09-25 22:19:51.793241088,TASK_BEGIN,18,-1.081303683632652,0.2515587191307986,2.187075182646628,-0.3027698903395532,0.7671048577901421,0.2254165494776572,0.156188603929641,0.4245864835812769,0,2024-09-25 22:19:58.085041992,1727302798.0850425,2024-09-25 22:19:58.085042432,3,1.0,0.1,0.6793465209301,[0.30789061 0.69210939],[0.30789061 0.69210939],"[ 0.90277778  0.33203125  0.52734375  1.          0.          1.
  1.          0.          1.          0.3671875  -0.8         0.5       ]",0.06516720946973356,0,0
201,218,2024-09-25 22:19:51.861109248,TASK_BEGIN,18,-1.0384210384853123,0.2275315782029446,2.064617465278135,-0.2700045496822869,0.7939665114679177,0.206854821705246,0.3293640608431808,0.3990602131629665,0,2024-09-25 22:19:58.136042236,1727302798.1360424,2024-09-25 22:19:58.136042240,3,1.0,0.1,0.7725530557207989,[0.29880418 0.70119582],[0.29880418 0.70119582],"[ 0.88888889  0.33203125  0.52734375  1.          0.          1.
  1.          0.          1.          0.3515625  -0.8         0.5       ]",0.06905623367687098,0,0
202,219,2024-09-25 22:19:51.928924928,TASK_BEGIN,18,-0.991491558179239,0.2053944751787917,1.936553760548444,-0.2341923355251575,0.8232723251211483,0.1881337596697889,0.4784027106351828,0.376487413442856,0,2024-09-25 22:19:58.136042236,1727302798.1360424,2024-09-25 22:19:58.136042240,3,1.0,0.1,0.7725530557207989,[0.29880418 0.70119582],[0.29880418 0.70119582],"[ 0.88888889  0.33203125  0.52734375  1.          0.          1.
  1.          0.          1.          0.3515625  -0.8         0.5       ]",0.06905623367687098,0,0
203,220,2024-09-25 22:19:51.996709120,TASK_BEGIN,18,-0.941092874735787,0.1852889936790251,1.8122819373906236,-0.1982647132201194,0.8560533496474542,0.1692012895084995,0.5821907830251403,0.35914276876887,0,2024-09-25 22:19:58.136042236,1727302798.1360424,2024-09-25 22:19:58.136042240,3,1.0,0.1,0.7725530557207989,[0.29880418 0.70119582],[0.29880418 0.70119582],"[ 0.88888889  0.33203125  0.52734375  1.          0.          1.
  1.          0.          1.          0.3515625  -0.8         0.5       ]",0.06905623367687098,0,0
204,221,2024-09-25 22:19:52.064521984,TASK_BEGIN,18,-0.8878195305334852,0.1671806912791404,1.7002708420678794,-0.1652644897961494,0.8929849139375068,0.1500849896304465,0.6219684118129342,0.3486987569391173,0,2024-09-25 22:19:58.136042236,1727302798.1360424,2024-09-25 22:19:58.136042240,3,1.0,0.1,0.7725530557207989,[0.29880418 0.70119582],[0.29880418 0.70119582],"[ 0.88888889  0.33203125  0.52734375  1.          0.          1.
  1.          0.          1.          0.3515625  -0.8         0.5       ]",0.06905623367687098,0,0
205,222,2024-09-25 22:19:52.132366080,TASK_BEGIN,18,-0.8322788917931533,0.1508997396268997,1.607828120980365,-0.1381151520478204,0.9342936456213476,0.1308970480303323,0.5833463093565994,0.3460766244794262,0,2024-09-25 22:19:58.136042236,1727302798.1360424,2024-09-25 22:19:58.136042240,3,1.0,0.1,0.7725530557207989,[0.29880418 0.70119582],[0.29880418 0.70119582],"[ 0.88888889  0.33203125  0.52734375  1.          0.          1.
  1.          0.          1.          0.3515625  -0.8         0.5       ]",0.06905623367687098,0,0
206,223,2024-09-25 22:19:52.189171200,TASK_BEGIN,18,-0.7750796848640845,0.1361835057300341,1.5410360325889056,-0.1194144570283364,0.9796674189246152,0.1118338850325244,0.4580440440673436,0.3513443732205438,0,2024-09-25 22:19:58.136042236,1727302798.1360424,2024-09-25 22:19:58.136042240,3,1.0,0.1,0.7725530557207989,[0.29880418 0.70119582],[0.29880418 0.70119582],"[ 0.88888889  0.33203125  0.52734375  1.          0.          1.
  1.          0.          1.          0.3515625  -0.8         0.5       ]",0.06905623367687098,0,0
207,224,2024-09-25 22:19:53.142168832,TASK_BEGIN,18,-0.716831161230673,0.1227204754819918,1.5048233602378578,-0.1112612392253172,1.0281650602229964,0.0931740250640139,0.245053064995352,0.3636990795923364,0,2024-09-25 22:19:59.457488037,1727302799.457488,2024-09-25 22:19:59.457488128,3,0.0,0.1,2.894467727277078,[9.99999683e-01 3.17115106e-07],[9.99999683e-01 3.17115106e-07],"[ 0.52777778  0.33203125  0.52734375  1.          0.          1.
  1.          0.          1.          0.34960938  1.         -0.16666667]",0.41261289045268695,0,0
208,225,2024-09-25 22:19:53.197546752,TASK_BEGIN,18,-0.6581508014981233,0.1101915737434536,1.502939828436262,-0.1150842334335902,1.0781706707608012,0.0752710959749659,-0.0490566961817457,0.3815777084822395,0,2024-09-25 22:19:59.508485107,1727302799.508485,2024-09-25 22:19:59.508485120,3,0.0,0.1,2.965523050004307,[9.99997129e-01 2.87056251e-06],[9.99997129e-01 2.87056251e-06],"[ 0.51388889  0.33203125  0.52734375  1.          0.          1.
  1.          0.          1.          0.36914062  1.         -0.2       ]",0.4310438559840018,0,0
209,226,2024-09-25 22:19:53.275654144,TASK_BEGIN,18,-0.5996717655250104,0.0983015276215674,1.537553110597975,-0.1314499042066791,1.127437013912668,0.0585379788971177,-0.4107466350641233,0.4028876750916502,0,2024-09-25 22:19:59.508485107,1727302799.508485,2024-09-25 22:19:59.508485120,3,0.0,0.1,2.965523050004307,[9.99997129e-01 2.87056251e-06],[9.99997129e-01 2.87056251e-06],"[ 0.51388889  0.33203125  0.52734375  1.          0.          1.
  1.          0.          1.          0.36914062  1.         -0.2       ]",0.4310438559840018,0,0
210,227,2024-09-25 22:19:53.337201152,TASK_BEGIN,18,-0.5420418074249977,0.0867983080441233,1.60855193008123,-0.1598914785377349,1.1732203323103512,0.0434231456561105,-0.8207818546254865,0.4252771463243797,0,2024-09-25 22:19:59.661520020,1727302799.6615205,2024-09-25 22:19:59.661520384,3,0.0,0.1,3.17445404989613,[9.99490719e-01 5.09281248e-04],[9.99490719e-01 5.09281248e-04],"[ 0.47222222  0.33203125  0.52734375  0.97222222  0.21484375  0.41015625
  1.          0.          1.          0.42773438  1.         -0.3       ]",0.5070752478075191,0,0
211,228,2024-09-25 22:19:53.399226880,TASK_BEGIN,18,-0.4859049760284656,0.0754854197873645,1.7130126934560972,-0.1988455394976103,1.2124942213939456,0.0303810937450575,-1.255873771279934,0.4463597782161218,0,2024-09-25 22:19:59.712488770,1727302799.7124891,2024-09-25 22:19:59.712489216,3,0.0,0.1,3.2427095093971685,[0.98552855 0.01447145],[0.98552855 0.01447145],"[ 0.45833333  0.33203125  0.52734375  0.95833333  0.21484375  0.41015625
  1.          0.          1.          0.44726562  1.         -0.33333333]",0.5446430747194481,0,0
212,229,2024-09-25 22:19:53.476441856,TASK_BEGIN,18,-0.4318696088076083,0.0642315475925768,1.8451892014163316,-0.245751885392366,1.2422426879435928,0.0198361346036718,-1.6905863743012086,0.4638778233742571,0,2024-09-25 22:19:59.712488770,1727302799.7124891,2024-09-25 22:19:59.712489216,3,0.0,0.1,3.2427095093971685,[0.98552855 0.01447145],[0.98552855 0.01447145],"[ 0.45833333  0.33203125  0.52734375  0.95833333  0.21484375  0.41015625
  1.          0.          1.          0.44726562  1.         -0.33333333]",0.5446430747194481,0,0
213,230,2024-09-25 22:19:53.550342144,TASK_BEGIN,18,-0.3804818253132106,0.0529761672691152,1.9969921892479097,-0.2972998536889344,1.2598076398686204,0.0121422727953044,-2.0993526828199087,0.4758378855215587,0,2024-09-25 22:19:59.712488770,1727302799.7124891,2024-09-25 22:19:59.712489216,3,0.0,0.1,3.2427095093971685,[0.98552855 0.01447145],[0.98552855 0.01447145],"[ 0.45833333  0.33203125  0.52734375  0.95833333  0.21484375  0.41015625
  1.          0.          1.          0.44726562  1.         -0.33333333]",0.5446430747194481,0,0
214,231,2024-09-25 22:19:54.461369088,TASK_BEGIN,18,-0.3322163359428563,0.0417252553546168,2.1587088846834512,-0.3497550581800167,1.2632196565686795,0.0075486379193593,-2.4582429340438883,0.4806410934188724,0,2024-09-25 22:20:00.476484131,1727302800.4764845,2024-09-25 22:20:00.476484608,3,0.0,0.1,4.1883358588189035,[0.99874329 0.00125671],[0.99874329 0.00125671],"[0.25       0.33203125 0.52734375 0.75       0.21484375 0.41015625
 1.         0.         1.         0.42578125 0.5        0.06666667]",0.5875894913906304,0,0
215,232,2024-09-25 22:19:54.523418880,TASK_BEGIN,18,-0.287475372841477,0.03053547351728,2.3197768874347324,-0.3992996096192868,1.251441639784321,0.0061793197131509,-2.7462588967972583,0.4772069241014884,0,2024-09-25 22:20:00.476484131,1727302800.4764845,2024-09-25 22:20:00.476484608,3,0.0,0.1,4.1883358588189035,[0.99874329 0.00125671],[0.99874329 0.00125671],"[0.25       0.33203125 0.52734375 0.75       0.21484375 0.41015625
 1.         0.         1.         0.42578125 0.5        0.06666667]",0.5875894913906304,0,0
216,233,2024-09-25 22:19:54.600604928,TASK_BEGIN,18,-0.2465784665823945,0.0194938247520994,2.4695984959679254,-0.4423472503742708,1.2244813916575772,0.0080319135728325,-2.9462933421470425,0.4650780506501427,0,2024-09-25 22:20:00.476484131,1727302800.4764845,2024-09-25 22:20:00.476484608,3,0.0,0.1,4.1883358588189035,[0.99874329 0.00125671],[0.99874329 0.00125671],"[0.25       0.33203125 0.52734375 0.75       0.21484375 0.41015625
 1.         0.         1.         0.42578125 0.5        0.06666667]",0.5875894913906304,0,0
217,234,2024-09-25 22:19:54.662641152,TASK_BEGIN,18,-0.2097350928100468,0.0086998320619975,2.598477911534991,-0.475824739579423,1.1833391142464322,0.012996798609937,-3.045984970193496,0.4444806598021708,0,2024-09-25 22:20:00.476484131,1727302800.4764845,2024-09-25 22:20:00.476484608,3,0.0,0.1,4.1883358588189035,[0.99874329 0.00125671],[0.99874329 0.00125671],"[0.25       0.33203125 0.52734375 0.75       0.21484375 0.41015625
 1.         0.         1.         0.42578125 0.5        0.06666667]",0.5875894913906304,0,0
218,235,2024-09-25 22:19:54.739352064,TASK_BEGIN,18,-0.1770127077701153,-0.0017493439733097,2.698652424734549,-0.4974227227395165,1.1297964932009923,0.0208920892443198,-3.038543115999995,0.416330340412115,0,2024-09-25 22:20:00.527486084,1727302800.5274863,2024-09-25 22:20:00.527486208,3,0.0,0.1,4.246452500230714,[0.86223751 0.13776249],[0.86223751 0.13776249],"[0.23611111 0.33203125 0.52734375 0.73611111 0.21484375 0.41015625
 1.         0.         1.         0.4375     0.6        0.03333333]",0.4683304277553639,0,0
219,236,2024-09-25 22:19:54.806110976,TASK_BEGIN,18,-0.1483278165377152,-0.011771006854899,2.765178404970881,-0.5058051685706215,1.0661349531955129,0.03149804919738,-2.923478347995524,0.3822035711626939,0,2024-09-25 22:20:00.578484131,1727302800.5784845,2024-09-25 22:20:00.578484480,3,1.0,0.1,4.303987975228407,[0.21115142 0.78884858],[0.21115142 0.78884858],"[ 0.22222222  0.33203125  0.52734375  0.72222222  0.21484375  0.41015625
  1.          0.          1.          0.421875   -0.8         0.5       ]",0.3452919210015664,0,0
220,237,2024-09-25 22:19:54.863496960,TASK_BEGIN,18,-0.1234736888184138,-0.0213024944614908,2.796401807906142,-0.5007392683976317,0.9948979104017194,0.0445757279914281,-2.706996289953929,0.344271833560448,0,2024-09-25 22:20:01.187287109,1727302801.1872878,2024-09-25 22:20:01.187287808,3,0.0,0.1,5.7899999252455885,[9.99998364e-01 1.63641679e-06],[9.99998364e-01 1.63641679e-06],"[0.05555556 0.33203125 0.52734375 0.55555556 0.21484375 0.41015625
 1.         0.         1.         0.38671875 0.4        0.1       ]",0.3392068252011359,0,0
221,238,2024-09-25 22:19:55.810285824,TASK_BEGIN,18,-0.102165102993157,-0.0302991156057399,2.7939365251716604,-0.4831040124863386,0.9187602827933692,0.0598667543593725,-2.4017009635231767,0.3051492927878826,0,2024-09-25 22:20:01.637290039,1727302801.6372907,2024-09-25 22:20:01.637290752,3,1.0,0.1,6.154092319804425,[0.01542838 0.98457162],[0.01542838 0.98457162],"[-0.06944444  0.33203125  0.52734375  0.43055556  0.21484375  0.41015625
  0.93055556  0.33203125  0.52734375  0.359375   -0.8         0.5       ]",0.7196568026189912,1,2
222,239,2024-09-25 22:19:55.872319744,TASK_BEGIN,18,-0.0840708281007586,-0.0387307164339074,2.7622382661067197,-0.4547679526954181,0.8405059430775179,0.07707803192684,-2.025469917143958,0.2676186859393391,0,2024-09-25 22:20:01.637290039,1727302801.6372907,2024-09-25 22:20:01.637290752,3,1.0,0.1,6.154092319804425,[0.01542838 0.98457162],[0.01542838 0.98457162],"[-0.06944444  0.33203125  0.52734375  0.43055556  0.21484375  0.41015625
  0.93055556  0.33203125  0.52734375  0.359375   -0.8         0.5       ]",0.7196568026189912,1,2
223,240,2024-09-25 22:19:55.954100992,TASK_BEGIN,18,-0.0688307972062625,-0.0465831642963674,2.70781565643271,-0.4183511431310271,0.7630541345078657,0.0958594000500901,-1.5996679341964075,0.2342583498856323,0,2024-09-25 22:20:01.737287109,1727302801.737288,2024-09-25 22:20:01.737287936,3,1.0,0.1,6.230625882640316,[0.2197712 0.7802288],[0.2197712 0.7802288],"[-0.09722222  0.33203125  0.52734375  0.40277778  0.21484375  0.41015625
  0.90277778  0.33203125  0.52734375  0.328125   -0.8         0.5       ]",0.3460925628110362,1,2
224,241,2024-09-25 22:19:56.011048192,TASK_BEGIN,18,-0.0560835202366952,-0.0538618776826024,2.6380918780883067,-0.3768919937276374,0.6894284189759831,0.1157908044540304,-1.1469899961379382,0.2070488021521054,0,2024-09-25 22:20:01.887288086,1727302801.8872886,2024-09-25 22:20:01.887288576,3,0.0,0.1,6.342580063300015,[0.99899724 0.00100276],[0.99899724 0.00100276],"[-0.13888889  0.33203125  0.52734375  0.36111111  0.21484375  0.41015625
  0.86111111  0.33203125  0.52734375  0.29296875 -0.5         0.4       ]",0.33289806109326875,1,2
225,242,2024-09-25 22:19:56.088218880,TASK_BEGIN,18,-0.045527599391355,-0.0605883531245831,2.5601593220504038,-0.3334730514403498,0.6225973219776794,0.1363944124557885,-0.6893471890909035,0.187081818160507,0,2024-09-25 22:20:01.887288086,1727302801.8872886,2024-09-25 22:20:01.887288576,3,0.0,0.1,6.342580063300015,[0.99899724 0.00100276],[0.99899724 0.00100276],"[-0.13888889  0.33203125  0.52734375  0.36111111  0.21484375  0.41015625
  0.86111111  0.33203125  0.52734375  0.29296875 -0.5         0.4       ]",0.33289806109326875,1,2
