,Unnamed: 0,time,MARKER,pid,L_O_DSI,L_D_DSI,L_O_DSphi,L_D_DSphi,R_O_DSI,R_D_DSI,R_O_DSphi,R_D_DSphi,trial_id,dateTimestamps,floatTimestamps,timestamps,episode,actions,rewards,discounted_rewards,chosen_actions,optimal_actions,states,continuous_optimal,binary_optimal,discrete_optimal
1,1,2024-09-26 21:12:42.868092160,TASK_BEGIN,19,-0.8532420262959366,0.1317185025398172,4.118284521253804,-0.4039987801208702,2.559613672811453,0.1045086953379307,-2.7712484895663843,-0.3243870809025577,0,2024-09-26 21:12:44.265389893,1727385164.2653902,2024-09-26 21:12:44.265390080,0,1.0,0.1,0.7725530557207989,[0.30449147 0.69550853],[0.30449147 0.69550853],"[ 0.88888889  0.29296875  0.48828125  1.          0.          1.
  1.          0.          1.          0.3515625  -0.8         0.5       ]",0.07030200785845474,0,0
2,2,2024-09-26 21:12:42.930582016,TASK_BEGIN,19,-0.6721130884494138,0.0912527209507901,4.583906435460549,-0.1538697058035423,2.674097406277142,0.1165247168633833,-0.3090593759417578,-0.6623203836473078,0,2024-09-26 21:12:44.367387939,1727385164.3673887,2024-09-26 21:12:44.367388672,0,1.0,0.1,0.9561792499119549,[0.28822894 0.71177106],[0.28822894 0.71177106],"[ 0.86111111  0.29296875  0.48828125  1.          0.          1.
  1.          0.          1.          0.3203125  -0.8         0.5       ]",0.07828799271495378,0,0
3,3,2024-09-26 21:12:43.012258048,TASK_BEGIN,19,-0.5065847999513654,0.0546469229421759,5.034299733014366,0.0841055698993207,2.784838919505204,0.1285900576481653,2.025687132184482,-0.9837865369104016,0,2024-09-26 21:12:44.367387939,1727385164.3673887,2024-09-26 21:12:44.367388672,0,1.0,0.1,0.9561792499119549,[0.28822894 0.71177106],[0.28822894 0.71177106],"[ 0.86111111  0.29296875  0.48828125  1.          0.          1.
  1.          0.          1.          0.3203125  -0.8         0.5       ]",0.07828799271495378,0,0
4,4,2024-09-26 21:12:43.079090944,TASK_BEGIN,19,-0.362061254282826,0.0231599812426224,5.464682739358972,0.3047835628990983,2.8894835147556326,0.1407304884344447,4.180827064273969,-1.2820606505277503,0,2024-09-26 21:12:44.367387939,1727385164.3673887,2024-09-26 21:12:44.367388672,0,1.0,0.1,0.9561792499119549,[0.28822894 0.71177106],[0.28822894 0.71177106],"[ 0.86111111  0.29296875  0.48828125  1.          0.          1.
  1.          0.          1.          0.3203125  -0.8         0.5       ]",0.07828799271495378,0,0
5,5,2024-09-26 21:12:43.130547200,TASK_BEGIN,19,-0.2421175214452665,-0.0023817296490953,5.870392864304952,0.5046835531653848,2.986724486769213,0.152803351520197,6.112755820977095,-1.5515018489376466,0,2024-09-26 21:12:44.367387939,1727385164.3673887,2024-09-26 21:12:44.367388672,0,1.0,0.1,0.9561792499119549,[0.28822894 0.71177106],[0.28822894 0.71177106],"[ 0.86111111  0.29296875  0.48828125  1.          0.          1.
  1.          0.          1.          0.3203125  -0.8         0.5       ]",0.07828799271495378,0,0
6,6,2024-09-26 21:12:43.208218112,TASK_BEGIN,19,-0.148337954158626,-0.0216033349352873,6.2466531271791865,0.6821220496566147,3.0764076911211355,0.1644834395911637,7.787688643512892,-1.787702296894644,0,2024-09-26 21:12:44.367387939,1727385164.3673887,2024-09-26 21:12:44.367388672,0,1.0,0.1,0.9561792499119549,[0.28822894 0.71177106],[0.28822894 0.71177106],"[ 0.86111111  0.29296875  0.48828125  1.          0.          1.
  1.          0.          1.          0.3203125  -0.8         0.5       ]",0.07828799271495378,0,0
7,7,2024-09-26 21:12:44.120030976,TASK_BEGIN,19,-0.0803995685583413,-0.0345487835395728,6.5884231364105785,0.8370878115232335,3.1594095405673874,0.1752894793491098,9.182482055677458,-1.987609903710169,0,2024-09-26 21:12:45.026700928,1727385165.026701,2024-09-26 21:12:45.026701056,0,0.0,0.1,2.0638571635634455,[9.99211035e-01 7.88965175e-04],[9.99211035e-01 7.88965175e-04],"[ 0.68055556  0.29296875  0.48828125  1.          0.          1.
  1.          0.          1.          0.15820312 -0.2         0.3       ]",0.3284626083907495,0,0
8,8,2024-09-26 21:12:44.190822912,TASK_BEGIN,19,-0.0364164052365532,-0.0416079462144643,6.890663202256414,0.9708618302721588,3.237315107569173,0.1846405681188707,10.285242249771883,-2.149626906447728,0,2024-09-26 21:12:45.077202148,1727385165.077202,2024-09-26 21:12:45.077202176,0,0.0,0.1,2.1432185919278113,[9.99889789e-01 1.10211304e-04],[9.99889789e-01 1.10211304e-04],"[ 0.66666667  0.29296875  0.48828125  1.          0.          1.
  1.          0.          1.          0.15625    -0.1         0.26666667]",0.3264715545455558,0,0
9,9,2024-09-26 21:12:44.257618944,TASK_BEGIN,19,-0.0134560099057593,-0.0434208161324486,7.148907607414879,1.085484071283122,3.3119794487076777,0.1919277508781126,11.09594853370236,-2.2736857763381337,0,2024-09-26 21:12:45.636199951,1727385165.6362002,2024-09-26 21:12:45.636200192,0,0.0,0.1,2.965523050004307,[1.00000000e+00 4.05459193e-10],[1.00000000e+00 4.05459193e-10],"[ 0.51388889  0.29296875  0.48828125  1.          0.          1.
  1.          0.          1.          0.26367188  1.         -0.1       ]",0.33148191292773305,0,0
10,10,2024-09-26 21:12:44.321323008,TASK_BEGIN,19,-0.008054265720242,-0.0407854961056414,7.359765858662371,1.1832328047238905,3.3850962656791794,0.1965835073866272,11.627107458851969,-2.3613051835005896,0,2024-09-26 21:12:45.636199951,1727385165.6362002,2024-09-26 21:12:45.636200192,0,0.0,0.1,2.965523050004307,[1.00000000e+00 4.05459193e-10],[1.00000000e+00 4.05459193e-10],"[ 0.51388889  0.29296875  0.48828125  1.          0.          1.
  1.          0.          1.          0.26367188  1.         -0.1       ]",0.33148191292773305,0,0
11,11,2024-09-26 21:12:44.391201024,TASK_BEGIN,19,-0.0165929978613109,-0.0345920694199823,7.521186679168382,1.266241874290227,3.457911806409502,0.1981284482880449,11.90378990440668,-2.4155600027584625,0,2024-09-26 21:12:45.636199951,1727385165.6362002,2024-09-26 21:12:45.636200192,0,0.0,0.1,2.965523050004307,[1.00000000e+00 4.05459193e-10],[1.00000000e+00 4.05459193e-10],"[ 0.51388889  0.29296875  0.48828125  1.          0.          1.
  1.          0.          1.          0.26367188  1.         -0.1       ]",0.33148191292773305,0,0
12,12,2024-09-26 21:12:44.457988096,TASK_BEGIN,19,-0.0355131791419312,-0.0257848422402401,7.63279925351241,1.3362418123065891,3.531167006721175,0.1961839584775493,11.962053193640996,-2.4408551696966296,0,2024-09-26 21:12:45.891200928,1727385165.8912013,2024-09-26 21:12:45.891201280,0,0.0,0.1,3.310282414303197,[9.99999836e-01 1.63737686e-07],[9.99999836e-01 1.63737686e-07],"[ 0.44444444  0.29296875  0.48828125  0.94444444  0.1953125   0.390625
  1.          0.          1.          0.36132812  1.         -0.26666667]",0.3842155160822761,0,0
13,13,2024-09-26 21:12:44.524763136,TASK_BEGIN,19,-0.0614085017162993,-0.0153429661363603,7.696704763845649,1.3943325705240923,3.605212338047288,0.1904623805548417,11.845657277047698,-2.442500642605784,0,2024-09-26 21:12:45.942200928,1727385165.9422014,2024-09-26 21:12:45.942201344,0,0.0,0.1,3.377179590160165,[9.99984629e-01 1.53711904e-05],[9.99984629e-01 1.53711904e-05],"[ 0.43055556  0.29296875  0.48828125  0.93055556  0.1953125   0.390625
  1.          0.          1.          0.38085938  1.         -0.3       ]",0.49282953023976334,0,0
14,14,2024-09-26 21:12:45.486087936,TASK_BEGIN,19,-0.0910689459624633,-0.0042664508689951,7.718440995737952,1.4407992171255708,3.680142197387573,0.1807593038191258,11.602283583570166,-2.4262409462320726,0,2024-09-26 21:12:46.804188965,1727385166.8041892,2024-09-26 21:12:46.804189184,0,0.0,0.1,4.417338614521361,[0.97666067 0.02333933],[0.97666067 0.02333933],"[0.19444444 0.29296875 0.48828125 0.69444444 0.1953125  0.390625
 1.         0.         1.         0.390625   0.6        0.03333333]",0.6418332868651037,0,0
15,15,2024-09-26 21:12:45.546961920,TASK_BEGIN,19,-0.1215475875592783,0.0064496364952916,7.70736744195363,1.4750898757453248,3.7558571553772016,0.1669608822391816,11.280350063399109,-2.3978736537886856,0,2024-09-26 21:12:46.804188965,1727385166.8041892,2024-09-26 21:12:46.804189184,0,0.0,0.1,4.417338614521361,[0.97666067 0.02333933],[0.97666067 0.02333933],"[0.19444444 0.29296875 0.48828125 0.69444444 0.1953125  0.390625
 1.         0.         1.         0.390625   0.6        0.03333333]",0.6418332868651037,0,0
16,16,2024-09-26 21:12:45.604875008,TASK_BEGIN,19,-0.1502842044562373,0.015864639967435,7.676090332779725,1.4960155443705547,3.832071885826928,0.1490586438701682,10.926283383379635,-2.362923667583765,0,2024-09-26 21:12:46.804188965,1727385166.8041892,2024-09-26 21:12:46.804189184,0,0.0,0.1,4.417338614521361,[0.97666067 0.02333933],[0.97666067 0.02333933],"[0.19444444 0.29296875 0.48828125 0.69444444 0.1953125  0.390625
 1.         0.         1.         0.390625   0.6        0.03333333]",0.6418332868651037,0,0
17,17,2024-09-26 21:12:45.685565952,TASK_BEGIN,19,-0.1752498622483769,0.0231592235519928,7.639188057325302,1.502111153622485,3.9082851638658265,0.127161011154377,10.581686423286865,-2.326275728620032,0,2024-09-26 21:12:46.804188965,1727385166.8041892,2024-09-26 21:12:46.804189184,0,0.0,0.1,4.417338614521361,[0.97666067 0.02333933],[0.97666067 0.02333933],"[0.19444444 0.29296875 0.48828125 0.69444444 0.1953125  0.390625
 1.         0.         1.         0.390625   0.6        0.03333333]",0.6418332868651037,0,0
18,18,2024-09-26 21:12:45.752973056,TASK_BEGIN,19,-0.1950546617835226,0.0277036090969087,7.611736255922151,1.49203872126628,3.983703014296219,0.1015001437066612,10.280584400242155,-2.2917829092780964,0,2024-09-26 21:12:46.804188965,1727385166.8041892,2024-09-26 21:12:46.804189184,0,0.0,0.1,4.417338614521361,[0.97666067 0.02333933],[0.97666067 0.02333933],"[0.19444444 0.29296875 0.48828125 0.69444444 0.1953125  0.390625
 1.         0.         1.         0.390625   0.6        0.03333333]",0.6418332868651037,0,0
19,19,2024-09-26 21:12:45.819952896,TASK_BEGIN,19,-0.2089966969086887,0.0291131647757993,7.60797142121926,1.4649116305799528,4.057174631357359,0.0724321330077404,10.047442599211916,-2.261973912552808,0,2024-09-26 21:12:46.804188965,1727385166.8041892,2024-09-26 21:12:46.804189184,0,0.0,0.1,4.417338614521361,[0.97666067 0.02333933],[0.97666067 0.02333933],"[0.19444444 0.29296875 0.48828125 0.69444444 0.1953125  0.390625
 1.         0.         1.         0.390625   0.6        0.03333333]",0.6418332868651037,0,0
20,20,2024-09-26 21:12:45.884002048,TASK_BEGIN,19,-0.2170492164211383,0.0272782408351748,7.64019902402844,1.4204763579157145,4.127250703249422,0.040422321907823,9.896313692353663,-2.2379484356928145,0,2024-09-26 21:12:46.804188965,1727385166.8041892,2024-09-26 21:12:46.804189184,0,0.0,0.1,4.417338614521361,[0.97666067 0.02333933],[0.97666067 0.02333933],"[0.19444444 0.29296875 0.48828125 0.69444444 0.1953125  0.390625
 1.         0.         1.         0.390625   0.6        0.03333333]",0.6418332868651037,0,0
21,21,2024-09-26 21:12:46.835807232,TASK_BEGIN,19,-0.2197692373340347,0.0223581992885767,7.717989351260702,1.3591778949168682,4.19239608695975,0.0060152986120969,9.831059110131978,-2.219472667001936,0,2024-09-26 21:12:47.824191162,1727385167.8241916,2024-09-26 21:12:47.824191488,0,1.0,0.1,6.1925513966063805,[0.01532238 0.98467762],[0.01532238 0.98467762],"[-0.08333333  0.29296875  0.48828125  0.41666667  0.1953125   0.390625
  0.91666667  0.29296875  0.48828125  0.34375    -0.8         0.5       ]",0.7345531591000524,0,0
22,22,2024-09-26 21:12:46.903659264,TASK_BEGIN,19,-0.2181157048735159,0.0147398989605314,7.847696667239699,1.2821641821692884,4.251257835395542,-0.0301912605718216,9.846484711828946,-2.205254265441858,0,2024-09-26 21:12:47.824191162,1727385167.8241916,2024-09-26 21:12:47.824191488,0,1.0,0.1,6.1925513966063805,[0.01532238 0.98467762],[0.01532238 0.98467762],"[-0.08333333  0.29296875  0.48828125  0.41666667  0.1953125   0.390625
  0.91666667  0.29296875  0.48828125  0.34375    -0.8         0.5       ]",0.7345531591000524,0,0
23,23,2024-09-26 21:12:46.970437888,TASK_BEGIN,19,-0.2132047966645126,0.0049706803991276,8.03216447054436,1.1912529727062418,4.302830562141974,-0.0675440183126931,9.930087679248878,-2.193345994661702,0,2024-09-26 21:12:47.824191162,1727385167.8241916,2024-09-26 21:12:47.824191488,0,1.0,0.1,6.1925513966063805,[0.01532238 0.98467762],[0.01532238 0.98467762],"[-0.08333333  0.29296875  0.48828125  0.41666667  0.1953125   0.390625
  0.91666667  0.29296875  0.48828125  0.34375    -0.8         0.5       ]",0.7345531591000524,0,0
24,24,2024-09-26 21:12:47.036845056,TASK_BEGIN,19,-0.2060753319168988,-0.006317007977946,8.270306135354854,1.0888755838866335,4.346426524276294,-0.1052998755328191,10.064059500446882,-2.181594738820352,0,2024-09-26 21:12:47.926218018,1727385167.926218,2024-09-26 21:12:47.926217984,0,1.0,0.1,6.2683196238139125,[0.12954354 0.87045646],[0.12954354 0.87045646],"[-0.11111111  0.29296875  0.48828125  0.38888889  0.1953125   0.390625
  0.88888889  0.29296875  0.48828125  0.3125     -0.8         0.5       ]",0.5274957824937336,0,0
25,25,2024-09-26 21:12:47.104086016,TASK_BEGIN,19,-0.1975319207005621,-0.018472064971181,8.556477993680222,0.9780175273791576,4.381486524420518,-0.1425851049142052,10.227545476148094,-2.1680721912746157,0,2024-09-26 21:12:48.079191895,1727385168.0791926,2024-09-26 21:12:48.079192576,0,0.0,0.1,6.379154262667014,[0.99806169 0.00193831],[0.99806169 0.00193831],"[-0.15277778  0.29296875  0.48828125  0.34722222  0.1953125   0.390625
  0.84722222  0.29296875  0.48828125  0.27148438 -0.6         0.43333333]",0.3371893884939534,0,0
26,26,2024-09-26 21:12:47.159532032,TASK_BEGIN,19,-0.1880691039085527,-0.0308784869947003,8.8801100564759,0.862152026957472,4.407353349044917,-0.1783800794368753,10.399321624196553,-2.1514488941350343,0,2024-09-26 21:12:48.585063964,1727385168.585065,2024-09-26 21:12:48.585064960,0,0.0,0.1,6.725372018784006,[9.99999944e-01 5.59951918e-08],[9.99999944e-01 5.59951918e-08],"[0.20833333 0.1953125  0.390625   0.70833333 0.29296875 0.48828125
 1.         0.         1.         0.26171875 0.4        0.1       ]",0.3393719540056856,0,0
27,27,2024-09-26 21:12:47.222217984,TASK_BEGIN,19,-0.1778473713428929,-0.0430028959645539,9.226236890886584,0.7451423132655529,4.423134158239798,-0.2115512401032364,10.56048802462802,-2.1312294976584494,0,2024-09-26 21:12:48.634905029,1727385168.6349056,2024-09-26 21:12:48.634905600,0,0.0,0.1,6.758118298596165,[9.99998252e-01 1.74806225e-06],[9.99998252e-01 1.74806225e-06],"[0.19444444 0.1953125  0.390625   0.69444444 0.29296875 0.48828125
 1.         0.         1.         0.27148438 0.5        0.06666667]",0.37137805947666575,0,0
28,28,2024-09-26 21:12:48.181732864,TASK_BEGIN,19,-0.1667244161550733,-0.0544334785748949,9.577054849302511,0.6310946061085813,4.427732797730984,-0.2409351900968388,10.696315780611371,-2.107737220956144,0,2024-09-26 21:12:49.586540039,1727385169.58654,2024-09-26 21:12:49.586540032,0,0.0,0.1,8.087971050098806,[9.99999984e-01 1.58673769e-08],[9.99999984e-01 1.58673769e-08],"[-0.06944444  0.1953125   0.390625    0.43055556  0.29296875  0.48828125
  1.          0.          1.          0.296875    0.7         0.        ]",0.42971717342178556,0,0
29,29,2024-09-26 21:12:48.253741824,TASK_BEGIN,19,-0.154358866241628,-0.0648980258528618,9.913924090241087,0.524161180641255,4.420067850982386,-0.2654638068715181,10.796812625079673,-2.081827892520313,0,2024-09-26 21:12:49.586540039,1727385169.58654,2024-09-26 21:12:49.586540032,0,0.0,0.1,8.087971050098806,[9.99999984e-01 1.58673769e-08],[9.99999984e-01 1.58673769e-08],"[-0.06944444  0.1953125   0.390625    0.43055556  0.29296875  0.48828125
  1.          0.          1.          0.296875    0.7         0.        ]",0.42971717342178556,0,0
30,30,2024-09-26 21:12:48.320549120,TASK_BEGIN,19,-0.1403673985337763,-0.0742555089830276,10.218967506404024,0.4283270279342751,4.39941333607741,-0.284304003630035,10.856290198419762,-2.054449989777687,0,2024-09-26 21:12:49.586540039,1727385169.58654,2024-09-26 21:12:49.586540032,0,0.0,0.1,8.087971050098806,[9.99999984e-01 1.58673769e-08],[9.99999984e-01 1.58673769e-08],"[-0.06944444  0.1953125   0.390625    0.43055556  0.29296875  0.48828125
  1.          0.          1.          0.296875    0.7         0.        ]",0.42971717342178556,0,0
31,31,2024-09-26 21:12:48.387311104,TASK_BEGIN,19,-0.1244811317926151,-0.0824686214444414,10.4758731446069,0.3472310352978637,4.36573285731159,-0.2969734697748093,10.872413847264616,-2.0262157502848663,0,2024-09-26 21:12:49.786598877,1727385169.7865992,2024-09-26 21:12:49.786599168,0,0.0,0.1,8.163312619720422,[9.99999982e-01 1.81789952e-08],[9.99999982e-01 1.81789952e-08],"[-0.125       0.1953125   0.390625    0.375       0.29296875  0.48828125
  0.95        0.33203125  0.52734375  0.36914062  1.         -0.13333333]",0.5096462172727343,0,0
32,32,2024-09-26 21:12:48.454006784,TASK_BEGIN,19,-0.1066469630688659,-0.0895708534552618,10.670345433607045,0.2840229498417673,4.319868830692504,-0.3033952796582365,10.845032044570749,-1.997112059873717,0,2024-09-26 21:12:49.886310059,1727385169.8863108,2024-09-26 21:12:49.886310912,0,0.0,0.1,8.199862698587985,[9.99390949e-01 6.09050656e-04],[9.99390949e-01 6.09050656e-04],"[-0.15277778  0.1953125   0.390625    0.34722222  0.29296875  0.48828125
  0.92222222  0.33203125  0.52734375  0.40820312  1.         -0.2       ]",0.7452077918776384,0,0
33,33,2024-09-26 21:12:48.512392192,TASK_BEGIN,19,-0.0870582225427705,-0.0956391697344693,10.79095411659205,0.2412068300483131,4.263504826531426,-0.3038752136178467,10.774989570024804,-1.9664151649260284,0,2024-09-26 21:12:49.886310059,1727385169.8863108,2024-09-26 21:12:49.886310912,0,0.0,0.1,8.199862698587985,[9.99390949e-01 6.09050656e-04],[9.99390949e-01 6.09050656e-04],"[-0.15277778  0.1953125   0.390625    0.34722222  0.29296875  0.48828125
  0.92222222  0.33203125  0.52734375  0.40820312  1.         -0.2       ]",0.7452077918776384,0,0
34,34,2024-09-26 21:12:48.587701248,TASK_BEGIN,19,-0.0661507173031846,-0.100773710469306,10.830522428008823,0.2204597888894349,4.19892831524295,-0.2990167404510308,10.663112595796294,-1.9328030785907488,0,2024-09-26 21:12:49.886310059,1727385169.8863108,2024-09-26 21:12:49.886310912,0,0.0,0.1,8.199862698587985,[9.99390949e-01 6.09050656e-04],[9.99390949e-01 6.09050656e-04],"[-0.15277778  0.1953125   0.390625    0.34722222  0.29296875  0.48828125
  0.92222222  0.33203125  0.52734375  0.40820312  1.         -0.2       ]",0.7452077918776384,0,0
35,35,2024-09-26 21:12:49.537835008,TASK_BEGIN,19,-0.0446043416832504,-0.105078666413527,10.787467673333072,0.2224764195649128,4.128727448831413,-0.2896108519628274,10.509367409524614,-1.894602049404964,0,2024-09-26 21:12:50.701174072,1727385170.7011745,2024-09-26 21:12:50.701174528,0,0.0,0.1,9.349349105674975,[0.99137988 0.00862012],[0.99137988 0.00862012],"[0.125      0.29296875 0.48828125 0.7        0.33203125 0.52734375
 1.         0.         1.         0.3984375  0.6        0.03333333]",0.6246625627931569,0,0
36,36,2024-09-26 21:12:49.593604864,TASK_BEGIN,19,-0.0233427795404529,-0.1086429306981585,10.666409074731527,0.2468848596088109,4.05555967153304,-0.276537443241833,10.31203483155497,-1.8500742172362743,0,2024-09-26 21:12:50.701174072,1727385170.7011745,2024-09-26 21:12:50.701174528,0,0.0,0.1,9.349349105674975,[0.99137988 0.00862012],[0.99137988 0.00862012],"[0.125      0.29296875 0.48828125 0.7        0.33203125 0.52734375
 1.         0.         1.         0.3984375  0.6        0.03333333]",0.6246625627931569,0,0
37,37,2024-09-26 21:12:49.670885888,TASK_BEGIN,19,-0.0034984505460865,-0.1115253738684016,10.477687796210825,0.2922567921458054,3.982036986513889,-0.2606991074949027,10.067037044222923,-1.7976666840013835,0,2024-09-26 21:12:50.701174072,1727385170.7011745,2024-09-26 21:12:50.701174528,0,0.0,0.1,9.349349105674975,[0.99137988 0.00862012],[0.99137988 0.00862012],"[0.125      0.29296875 0.48828125 0.7        0.33203125 0.52734375
 1.         0.         1.         0.3984375  0.6        0.03333333]",0.6246625627931569,0,0
38,38,2024-09-26 21:12:49.737565952,TASK_BEGIN,19,0.0136616182421703,-0.1137464513268119,10.235818572925735,0.3562303900269357,3.910696033000081,-0.2429922362945968,9.767992832906042,-1.736198851223597,0,2024-09-26 21:12:50.701174072,1727385170.7011745,2024-09-26 21:12:50.701174528,0,0.0,0.1,9.349349105674975,[0.99137988 0.00862012],[0.99137988 0.00862012],"[0.125      0.29296875 0.48828125 0.7        0.33203125 0.52734375
 1.         0.         1.         0.3984375  0.6        0.03333333]",0.6246625627931569,0,0
39,39,2024-09-26 21:12:49.804977664,TASK_BEGIN,19,0.0268113070762708,-0.1152823641394926,9.95732397533629,0.4357296869239522,3.844003481519907,-0.2243071413203987,9.407427138229624,-1.6650206598437312,0,2024-09-26 21:12:50.701174072,1727385170.7011745,2024-09-26 21:12:50.701174528,0,0.0,0.1,9.349349105674975,[0.99137988 0.00862012],[0.99137988 0.00862012],"[0.125      0.29296875 0.48828125 0.7        0.33203125 0.52734375
 1.         0.         1.         0.3984375  0.6        0.03333333]",0.6246625627931569,0,0
40,40,2024-09-26 21:12:49.871781888,TASK_BEGIN,19,0.0345899179257156,-0.116056858090184,9.658693466446516,0.5272183076539403,3.784341722498211,-0.2055365539561459,8.979024995148011,-1.5841966671620091,0,2024-09-26 21:12:50.752173828,1727385170.7521746,2024-09-26 21:12:50.752174592,0,0.0,0.1,9.355855614618225,[0.81275327 0.18724673],[0.81275327 0.18724673],"[0.11111111 0.29296875 0.48828125 0.68611111 0.33203125 0.52734375
 1.         0.         1.         0.41210938 0.7        0.        ]",0.356999523169835,0,0
41,41,2024-09-26 21:12:49.935408128,TASK_BEGIN,19,0.0355604583518153,-0.1159283697751541,9.354929847885687,0.6269575260909462,3.733908209012347,-0.1875657451853778,8.480513591560761,-1.4947524871848206,0,2024-09-26 21:12:50.955950928,1727385170.9559515,2024-09-26 21:12:50.955951360,0,0.0,0.1,9.381237473538363,[9.99886773e-01 1.13227252e-04],[9.99886773e-01 1.13227252e-04],"[ 0.05555556  0.29296875  0.48828125  0.63055556  0.33203125  0.52734375
  1.          0.          1.          0.36132812 -0.5         0.4       ]",0.3397089315795614,0,0
42,42,2024-09-26 21:12:50.858081024,TASK_BEGIN,19,0.028158136621656,-0.1146779783156906,9.058598277451154,0.7312856723432773,3.694507034398215,-0.1712320361200916,7.916505599725593,-1.3989385156334275,0,2024-09-26 21:12:51.709711182,1727385171.7097116,2024-09-26 21:12:51.709711616,0,0.0,0.1,9.46782811957771,[0.96098454 0.03901546],[0.96098454 0.03901546],"[-0.15277778  0.29296875  0.48828125  0.42222222  0.33203125  0.52734375
  0.92222222  0.1953125   0.390625    0.44921875  1.         -0.1       ]",0.5939293388280776,0,0
43,43,2024-09-26 21:12:50.925287168,TASK_BEGIN,19,0.0107117982126245,-0.112010749660424,8.77927069675606,0.8368741800534328,3.6673305486694896,-0.1572730700679215,7.300349881179323,-1.3003682279994375,0,2024-09-26 21:12:51.811709961,1727385171.8117104,2024-09-26 21:12:51.811710464,0,1.0,0.1,9.478418339998113,[0.10056144 0.89943856],[0.10056144 0.89943856],"[-0.18055556  0.29296875  0.48828125  0.39444444  0.33203125  0.52734375
  0.89444444  0.1953125   0.390625    0.453125   -0.8         0.5       ]",0.5772141442255244,0,0
44,44,2024-09-26 21:12:50.995891968,TASK_BEGIN,19,-0.0184273092132757,-0.1075798244887852,8.523628186302085,0.9408315465796024,3.6528630363577,-0.1462910192131135,6.654263041578281,-1.2038909334840897,0,2024-09-26 21:12:52.413674072,1727385172.4136744,2024-09-26 21:12:52.413674240,0,0.0,0.1,9.537677907209734,[9.99821902e-01 1.78097833e-04],[9.99821902e-01 1.78097833e-04],"[0.22777778 0.33203125 0.52734375 0.72777778 0.1953125  0.390625
 1.         0.         1.         0.41796875 0.4        0.1       ]",0.4878865003668108,0,0
45,45,2024-09-26 21:12:51.062701824,TASK_BEGIN,19,-0.0606623311653838,-0.1010352306554176,8.29639663375775,1.0405999266230896,3.650914594675453,-0.1387316146202371,6.007753688724753,-1.11517159851705,0,2024-09-26 21:12:52.463676025,1727385172.4636767,2024-09-26 21:12:52.463676672,0,0.0,0.1,9.542301128137636,[0.98929203 0.01070797],[0.98929203 0.01070797],"[0.21388889 0.33203125 0.52734375 0.71388889 0.1953125  0.390625
 1.         0.         1.         0.42773438 0.5        0.06666667]",0.6321193936495716,0,0
46,46,2024-09-26 21:12:51.129491968,TASK_BEGIN,19,-0.1168586447679129,-0.0920966797304395,8.101680167622723,1.1337748093945876,3.660713711116896,-0.1348640245920659,5.3948648783034185,-1.040067172232462,0,2024-09-26 21:12:52.463676025,1727385172.4636767,2024-09-26 21:12:52.463676672,0,0.0,0.1,9.542301128137636,[0.98929203 0.01070797],[0.98929203 0.01070797],"[0.21388889 0.33203125 0.52734375 0.71388889 0.1953125  0.390625
 1.         0.         1.         0.42773438 0.5        0.06666667]",0.6321193936495716,0,0
47,47,2024-09-26 21:12:51.183314944,TASK_BEGIN,19,-0.1870326516549586,-0.0806418818243186,7.9438305925897215,1.2180535354071336,3.681038797146156,-0.1347678536079678,4.850772869589887,-0.9839477554594978,0,2024-09-26 21:12:52.463676025,1727385172.4636767,2024-09-26 21:12:52.463676672,0,0.0,0.1,9.542301128137636,[0.98929203 0.01070797],[0.98929203 0.01070797],"[0.21388889 0.33203125 0.52734375 0.71388889 0.1953125  0.390625
 1.         0.         1.         0.42773438 0.5        0.06666667]",0.6321193936495716,0,0
48,48,2024-09-26 21:12:51.260081152,TASK_BEGIN,19,-0.2701016371465858,-0.0667864973494433,7.827219200589589,1.2913959346486794,3.710379083235533,-0.1383406974257934,4.408157177201648,-0.9511140594482091,0,2024-09-26 21:12:52.463676025,1727385172.4636767,2024-09-26 21:12:52.463676672,0,0.0,0.1,9.542301128137636,[0.98929203 0.01070797],[0.98929203 0.01070797],"[0.21388889 0.33203125 0.52734375 0.71388889 0.1953125  0.390625
 1.         0.         1.         0.42773438 0.5        0.06666667]",0.6321193936495716,0,0
49,49,2024-09-26 21:12:52.211905024,TASK_BEGIN,19,-0.3637650726326903,-0.0509283000587979,7.755009677009887,1.3523026688642332,3.747058248650141,-0.1453236849768245,4.093814395804255,-0.9444184956338136,0,2024-09-26 21:12:53.521509766,1727385173.5215104,2024-09-26 21:12:53.521510400,0,1.0,0.1,10.395700462184992,[0.00729678 0.99270322],[0.00729678 0.99270322],"[-0.07777778  0.33203125  0.52734375  0.42222222  0.1953125   0.390625
  0.92222222  0.33203125  0.52734375  0.36132812 -0.8         0.5       ]",0.7374149203033963,0,0
50,50,2024-09-26 21:12:52.279266048,TASK_BEGIN,19,-0.4645490396423092,-0.0337436276811703,7.727585365805675,1.4000558828199818,3.789289476172724,-0.1553370534872187,3.926167057914741,-0.9651286393398892,0,2024-09-26 21:12:53.521509766,1727385173.5215104,2024-09-26 21:12:53.521510400,0,1.0,0.1,10.395700462184992,[0.00729678 0.99270322],[0.00729678 0.99270322],"[-0.07777778  0.33203125  0.52734375  0.42222222  0.1953125   0.390625
  0.92222222  0.33203125  0.52734375  0.36132812 -0.8         0.5       ]",0.7374149203033963,0,0
51,51,2024-09-26 21:12:52.343738112,TASK_BEGIN,19,-0.56801327632943,-0.0161408282385501,7.741208897329015,1.434831365635112,3.8352355568111194,-0.1679225982238699,3.914165300365711,-1.0129879788939082,0,2024-09-26 21:12:53.521509766,1727385173.5215104,2024-09-26 21:12:53.521510400,0,1.0,0.1,10.395700462184992,[0.00729678 0.99270322],[0.00729678 0.99270322],"[-0.07777778  0.33203125  0.52734375  0.42222222  0.1953125   0.390625
  0.92222222  0.33203125  0.52734375  0.36132812 -0.8         0.5       ]",0.7374149203033963,0,0
52,52,2024-09-26 21:12:52.412856832,TASK_BEGIN,19,-0.6691057309274524,0.0008206638122257,7.787227875458439,1.4576707850189243,3.88315416036821,-0.1825878801432375,4.057490715379287,-1.086360741436564,0,2024-09-26 21:12:53.521509766,1727385173.5215104,2024-09-26 21:12:53.521510400,0,1.0,0.1,10.395700462184992,[0.00729678 0.99270322],[0.00729678 0.99270322],"[-0.07777778  0.33203125  0.52734375  0.42222222  0.1953125   0.390625
  0.92222222  0.33203125  0.52734375  0.36132812 -0.8         0.5       ]",0.7374149203033963,0,0
53,53,2024-09-26 21:12:52.479646976,TASK_BEGIN,19,-0.7626403018478739,0.0160391604104486,7.852141299035154,1.4703293785607172,3.931603417700768,-0.1988465055413077,4.347639674714959,-1.182383848091067,0,2024-09-26 21:12:53.521509766,1727385173.5215104,2024-09-26 21:12:53.521510400,0,1.0,0.1,10.395700462184992,[0.00729678 0.99270322],[0.00729678 0.99270322],"[-0.07777778  0.33203125  0.52734375  0.42222222  0.1953125   0.390625
  0.92222222  0.33203125  0.52734375  0.36132812 -0.8         0.5       ]",0.7374149203033963,0,0
54,54,2024-09-26 21:12:52.546451968,TASK_BEGIN,19,-0.8438418316763652,0.0284960753784865,7.91878740915507,1.47501070382086,3.979584528988521,-0.2162481711819344,4.769639779666917,-1.2971579045348478,0,2024-09-26 21:12:53.521509766,1727385173.5215104,2024-09-26 21:12:53.521510400,0,1.0,0.1,10.395700462184992,[0.00729678 0.99270322],[0.00729678 0.99270322],"[-0.07777778  0.33203125  0.52734375  0.42222222  0.1953125   0.390625
  0.92222222  0.33203125  0.52734375  0.36132812 -0.8         0.5       ]",0.7374149203033963,0,0
55,55,2024-09-26 21:12:52.605138944,TASK_BEGIN,19,-0.9088501706505164,0.0373743036457828,7.968489004128987,1.4740226029022776,4.0265109242978125,-0.2343865497619998,5.3042786026338815,-1.4260407635373469,0,2024-09-26 21:12:53.521509766,1727385173.5215104,2024-09-26 21:12:53.521510400,0,1.0,0.1,10.395700462184992,[0.00729678 0.99270322],[0.00729678 0.99270322],"[-0.07777778  0.33203125  0.52734375  0.42222222  0.1953125   0.390625
  0.92222222  0.33203125  0.52734375  0.36132812 -0.8         0.5       ]",0.7374149203033963,0,0
56,56,2024-09-26 21:12:53.562546944,TASK_BEGIN,19,-0.9550610371465628,0.0421409457971439,7.983551594323602,1.4694466336998353,4.072018121609489,-0.2528810832289434,5.930597189957505,-1.564048092177702,0,2024-09-26 21:12:54.423537109,1727385174.423538,2024-09-26 21:12:54.423537920,0,0.0,0.1,10.330217481105526,[0.95087438 0.04912562],[0.95087438 0.04912562],"[0.17222222 0.1953125  0.390625   0.67222222 0.33203125 0.52734375
 1.         0.         1.         0.31445312 0.7        0.        ]",0.6456610631236002,0,0
57,57,2024-09-26 21:12:53.629328896,TASK_BEGIN,19,-0.9812472250202736,0.0425790722160871,7.94948522917664,1.4629273392944024,4.1157205224922295,-0.2713472652508565,6.628273260139629,-1.706304800792868,0,2024-09-26 21:12:54.573540039,1727385174.5735402,2024-09-26 21:12:54.573540096,0,0.0,0.1,11.21140969169921,[0.99604575 0.00395425],[0.99604575 0.00395425],"[ 0.13055556  0.1953125   0.390625    0.63055556  0.33203125  0.52734375
  1.          0.          1.          0.30078125 -0.7         0.46666667]",0.4272109687270146,0,0
58,58,2024-09-26 21:12:53.696141056,TASK_BEGIN,19,-0.9874964344049426,0.0387766841688486,7.856586381353487,1.4556064123415025,4.1570086497490495,-0.2893750279048461,7.379435043732972,-1.848445995081214,0,2024-09-26 21:12:54.573540039,1727385174.5735402,2024-09-26 21:12:54.573540096,0,0.0,0.1,11.21140969169921,[0.99604575 0.00395425],[0.99604575 0.00395425],"[ 0.13055556  0.1953125   0.390625    0.63055556  0.33203125  0.52734375
  1.          0.          1.          0.30078125 -0.7         0.46666667]",0.4272109687270146,0,0
59,59,2024-09-26 21:12:53.762949888,TASK_BEGIN,19,-0.975042926642896,0.0310932923917023,7.700730803671317,1.448137916779719,4.194945744584443,-0.3065276715852963,8.169353172616901,-1.986837027259116,0,2024-09-26 21:12:54.623539062,1727385174.6235397,2024-09-26 21:12:54.623539712,0,0.0,0.1,11.199295594782217,[9.99835099e-01 1.64900894e-04],[9.99835099e-01 1.64900894e-04],"[ 0.11666667  0.1953125   0.390625    0.61666667  0.33203125  0.52734375
  1.          0.          1.          0.2890625  -0.6         0.43333333]",0.40019034518585755,0,0
60,60,2024-09-26 21:12:53.829731072,TASK_BEGIN,19,-0.9460579285729804,0.0201196334800752,7.483370747025784,1.4407235196027346,4.228290482457261,-0.3223626217400737,8.985650564362253,-2.1185293323533414,0,2024-09-26 21:12:55.227655029,1727385175.2276554,2024-09-26 21:12:55.227655424,0,0.0,0.1,11.063037471930748,[9.99999979e-01 2.12906041e-08],[9.99999979e-01 2.12906041e-08],"[-0.05        0.1953125   0.390625    0.45        0.33203125  0.52734375
  1.          0.          1.          0.30078125  0.6         0.03333333]",0.4360974363626209,0,0
61,61,2024-09-26 21:12:53.896530944,TASK_BEGIN,19,-0.9034321208235832,0.0066356385205772,7.210959527437629,1.4331544696081464,4.255626618234832,-0.3364639533786481,9.816362160667204,-2.2409992875681763,0,2024-09-26 21:12:55.277654053,1727385175.277655,2024-09-26 21:12:55.277654784,0,0.0,0.1,11.052407097211441,[9.99999990e-01 1.03012483e-08],[9.99999990e-01 1.03012483e-08],"[-0.06388889  0.1953125   0.390625    0.43611111  0.33203125  0.52734375
  1.          0.          1.          0.31445312  0.7         0.        ]",0.5133547556501118,0,0
62,62,2024-09-26 21:12:53.963322880,TASK_BEGIN,19,-0.8505494363487601,-0.0084350720135414,6.894208262395123,1.42486524595839,4.275551079564969,-0.3484760096143351,10.647782177579977,-2.3518181545912515,0,2024-09-26 21:12:55.277654053,1727385175.277655,2024-09-26 21:12:55.277654784,0,0.0,0.1,11.052407097211441,[9.99999990e-01 1.03012483e-08],[9.99999990e-01 1.03012483e-08],"[-0.06388889  0.1953125   0.390625    0.43611111  0.33203125  0.52734375
  1.          0.          1.          0.31445312  0.7         0.        ]",0.5133547556501118,0,0
63,63,2024-09-26 21:12:54.876946944,TASK_BEGIN,19,-0.7910356852909883,-0.0240780755444541,6.547366947845045,1.4150144206841624,4.286853463571398,-0.3581336273352463,11.462993166231584,-2.4484059943605527,0,2024-09-26 21:12:56.285564941,1727385176.2855651,2024-09-26 21:12:56.285565184,0,0.0,0.1,10.86077106598579,[9.99992111e-01 7.88926259e-06],[9.99992111e-01 7.88926259e-06],"[0.15833333 0.33203125 0.52734375 0.72777778 0.25390625 0.44921875
 1.         0.         1.         0.40625    0.3        0.13333333]",0.3576557682349236,0,0
64,64,2024-09-26 21:12:54.954116864,TASK_BEGIN,19,-0.7284769770110263,-0.0392514873469951,6.187247059523394,1.4026225962264212,4.288620628164012,-0.3652840149862058,12.241561837589684,-2.527981123934294,0,2024-09-26 21:12:56.385591064,1727385176.3855917,2024-09-26 21:12:56.385591808,0,0.0,0.1,11.734641721772674,[0.99726531 0.00273469],[0.99726531 0.00273469],"[0.13055556 0.33203125 0.52734375 0.7        0.25390625 0.44921875
 1.         0.         1.         0.42382812 0.5        0.06666667]",0.5247696130406838,0,0
65,65,2024-09-26 21:12:55.020899840,TASK_BEGIN,19,-0.6661291907990919,-0.0529602934044827,5.831628384076684,1.38677252761331,4.280268013067698,-0.3698949899490115,12.960479561645418,-2.58775070263682,0,2024-09-26 21:12:56.385591064,1727385176.3855917,2024-09-26 21:12:56.385591808,0,0.0,0.1,11.734641721772674,[0.99726531 0.00273469],[0.99726531 0.00273469],"[0.13055556 0.33203125 0.52734375 0.7        0.25390625 0.44921875
 1.         0.         1.         0.42382812 0.5        0.06666667]",0.5247696130406838,0,0
66,66,2024-09-26 21:12:55.087702016,TASK_BEGIN,19,-0.606672095277614,-0.064338507172299,5.4972686800392,1.3668086750792638,4.261569208698172,-0.3720505934791555,13.596096960531614,-2.625294543552633,0,2024-09-26 21:12:56.385591064,1727385176.3855917,2024-09-26 21:12:56.385591808,0,0.0,0.1,11.734641721772674,[0.99726531 0.00273469],[0.99726531 0.00273469],"[0.13055556 0.33203125 0.52734375 0.7        0.25390625 0.44921875
 1.         0.         1.         0.42382812 0.5        0.06666667]",0.5247696130406838,0,0
67,67,2024-09-26 21:12:55.154496768,TASK_BEGIN,19,-0.5520722879397616,-0.0727301130307357,5.1982674719842645,1.3424403375010343,4.232712951905726,-0.371935576048498,14.12658813921822,-2.6390180315665144,0,2024-09-26 21:12:56.385591064,1727385176.3855917,2024-09-26 21:12:56.385591808,0,0.0,0.1,11.734641721772674,[0.99726531 0.00273469],[0.99726531 0.00273469],"[0.13055556 0.33203125 0.52734375 0.7        0.25390625 0.44921875
 1.         0.         1.         0.42382812 0.5        0.06666667]",0.5247696130406838,0,0
68,68,2024-09-26 21:12:55.215738112,TASK_BEGIN,19,-0.503570473413938,-0.0777527060445995,4.9453249068347365,1.3137287160094615,4.194322517618714,-0.3698061458270501,14.534322603806393,-2.628520704633437,0,2024-09-26 21:12:56.385591064,1727385176.3855917,2024-09-26 21:12:56.385591808,0,0.0,0.1,11.734641721772674,[0.99726531 0.00273469],[0.99726531 0.00273469],"[0.13055556 0.33203125 0.52734375 0.7        0.25390625 0.44921875
 1.         0.         1.         0.42382812 0.5        0.06666667]",0.5247696130406838,0,0
69,69,2024-09-26 21:12:55.278646016,TASK_BEGIN,19,-0.4617362302366663,-0.0793277370920494,4.745814700028742,1.281049953754966,4.147376474528936,-0.3659521342406479,14.80751335473267,-2.5947585623685594,0,2024-09-26 21:12:56.385591064,1727385176.3855917,2024-09-26 21:12:56.385591808,0,0.0,0.1,11.734641721772674,[0.99726531 0.00273469],[0.99726531 0.00273469],"[0.13055556 0.33203125 0.52734375 0.7        0.25390625 0.44921875
 1.         0.         1.         0.42382812 0.5        0.06666667]",0.5247696130406838,0,0
70,70,2024-09-26 21:12:56.236389888,TASK_BEGIN,19,-0.4265220758609424,-0.0776726801719022,4.604258536785195,1.2451216440106336,4.093068356693841,-0.3606678329168049,14.940908366023251,-2.5399842040565046,0,2024-09-26 21:12:57.348281982,1727385177.3482826,2024-09-26 21:12:57.348282624,0,1.0,0.1,11.433106564124714,[0.06667036 0.93332964],[0.06667036 0.93332964],"[-0.13333333  0.33203125  0.52734375  0.43611111  0.25390625  0.44921875
  0.93611111  0.25390625  0.44921875  0.38867188 -0.8         0.5       ]",0.6583183356021163,0,0
71,71,2024-09-26 21:12:56.292921088,TASK_BEGIN,19,-0.3973016644745354,-0.0732625719324946,4.522858987777766,1.2070653695358118,4.032696904083926,-0.3542441842080034,14.93583989924023,-2.467549361338064,0,2024-09-26 21:12:57.348281982,1727385177.3482826,2024-09-26 21:12:57.348282624,0,1.0,0.1,11.433106564124714,[0.06667036 0.93332964],[0.06667036 0.93332964],"[-0.13333333  0.33203125  0.52734375  0.43611111  0.25390625  0.44921875
  0.93611111  0.25390625  0.44921875  0.38867188 -0.8         0.5       ]",0.6583183356021163,0,0
72,72,2024-09-26 21:12:56.355407104,TASK_BEGIN,19,-0.3729163034462213,-0.0667708659374273,4.5019469951114495,1.1684152257995883,3.9676134034549055,-0.3469761054328663,14.799956429246334,-2.3816431269420835,0,2024-09-26 21:12:57.348281982,1727385177.3482826,2024-09-26 21:12:57.348282624,0,1.0,0.1,11.433106564124714,[0.06667036 0.93332964],[0.06667036 0.93332964],"[-0.13333333  0.33203125  0.52734375  0.43611111  0.25390625  0.44921875
  0.93611111  0.25390625  0.44921875  0.38867188 -0.8         0.5       ]",0.6583183356021163,0,0
73,73,2024-09-26 21:12:56.436752896,TASK_BEGIN,19,-0.3517514394665867,-0.0589967766610893,4.540287547988221,1.1310395389323886,3.899169984661962,-0.339168182376436,14.54657314382153,-2.286980919297722,0,2024-09-26 21:12:57.348281982,1727385177.3482826,2024-09-26 21:12:57.348282624,0,1.0,0.1,11.433106564124714,[0.06667036 0.93332964],[0.06667036 0.93332964],"[-0.13333333  0.33203125  0.52734375  0.43611111  0.25390625  0.44921875
  0.93611111  0.25390625  0.44921875  0.38867188 -0.8         0.5       ]",0.6583183356021163,0,0
74,74,2024-09-26 21:12:56.503535872,TASK_BEGIN,19,-0.3318607044472618,-0.0507865355206754,4.635189755993869,1.0970078689223617,3.8286502498308304,-0.3311331956950925,14.193595661422696,-2.188474618664235,0,2024-09-26 21:12:57.348281982,1727385177.3482826,2024-09-26 21:12:57.348282624,0,1.0,0.1,11.433106564124714,[0.06667036 0.93332964],[0.06667036 0.93332964],"[-0.13333333  0.33203125  0.52734375  0.43611111  0.25390625  0.44921875
  0.93611111  0.25390625  0.44921875  0.38867188 -0.8         0.5       ]",0.6583183356021163,0,0
75,75,2024-09-26 21:12:56.570336256,TASK_BEGIN,19,-0.3111605983665518,-0.042958342753947,4.782485918051359,1.0684334707711418,3.757243428786923,-0.323193517361421,13.76226500534513,-2.0909464370480606,0,2024-09-26 21:12:57.603279053,1727385177.6032794,2024-09-26 21:12:57.603279360,0,0.0,0.1,11.362870082928978,[9.99986730e-01 1.32698798e-05],[9.99986730e-01 1.32698798e-05],"[ 0.36666667  0.25390625  0.44921875  0.86666667  0.25390625  0.44921875
  1.          0.          1.          0.32226562 -0.5         0.4       ]",0.3253527113779939,0,0
76,76,2024-09-26 21:12:56.637114880,TASK_BEGIN,19,-0.2877050871510004,-0.036238567955681,4.976534179745577,1.0473074594168463,3.686083260911151,-0.3156901297103521,13.275959808663536,-1.998915981083599,0,2024-09-26 21:12:58.059494873,1727385178.0594957,2024-09-26 21:12:58.059495680,0,0.0,0.1,11.245005326835077,[9.99999919e-01 8.13910566e-08],[9.99999919e-01 8.13910566e-08],"[0.24166667 0.25390625 0.44921875 0.74166667 0.25390625 0.44921875
 1.         0.         1.         0.32226562 0.4        0.1       ]",0.3364776174442321,0,0
77,77,2024-09-26 21:12:57.586295040,TASK_BEGIN,19,-0.2600006555600127,-0.0312100787553131,5.210208145625152,1.0353453463826985,3.61628912856322,-0.3089881999114544,12.759181284947,-1.9164523151714643,0,2024-09-26 21:12:59.014483887,1727385179.0144842,2024-09-26 21:12:59.014484224,0,0.0,0.1,11.826330722083815,[9.99625670e-01 3.74329628e-04],[9.99625670e-01 3.74329628e-04],"[-0.02222222  0.25390625  0.44921875  0.47777778  0.25390625  0.44921875
  0.97777778  0.33203125  0.52734375  0.34179688  0.7         0.        ]",0.45488435374097624,0,0
78,78,2024-09-26 21:12:57.642955008,TASK_BEGIN,19,-0.2272683027027466,-0.0282723288908503,5.474725848038341,1.0338586240592404,3.5489713807398693,-0.3034700653346207,12.236773199966676,-1.847078167225024,0,2024-09-26 21:12:59.064488037,1727385179.0644886,2024-09-26 21:12:59.064488704,0,0.0,0.1,11.808067414862977,[0.99557918 0.00442082],[0.99557918 0.00442082],"[-0.03611111  0.25390625  0.44921875  0.46388889  0.25390625  0.44921875
  0.96388889  0.33203125  0.52734375  0.35742188  0.8        -0.03333333]",0.49774399259389634,0,0
79,79,2024-09-26 21:12:57.720071936,TASK_BEGIN,19,-0.1895669089421127,-0.02761869049051,5.759520779245538,1.0436339255275795,3.4852382956109422,-0.299521482084489,11.733157620828765,-1.793700218124875,0,2024-09-26 21:12:59.114489014,1727385179.114489,2024-09-26 21:12:59.114489088,0,0.0,0.1,11.789986740714347,[0.98403088 0.01596912],[0.98403088 0.01596912],"[-0.05        0.25390625  0.44921875  0.45        0.25390625  0.44921875
  0.95        0.33203125  0.52734375  0.375       0.9        -0.06666667]",0.5266115509095953,0,0
80,80,2024-09-26 21:12:57.782316800,TASK_BEGIN,19,-0.1477681278591376,-0.0292352611346631,6.052639110406111,1.0647832284561043,3.4262457834983886,-0.2975178016423982,11.271192808662828,-1.7585250119249571,0,2024-09-26 21:12:59.114489014,1727385179.114489,2024-09-26 21:12:59.114489088,0,0.0,0.1,11.789986740714347,[0.98403088 0.01596912],[0.98403088 0.01596912],"[-0.05        0.25390625  0.44921875  0.45        0.25390625  0.44921875
  0.95        0.33203125  0.52734375  0.375       0.9        -0.06666667]",0.5266115509095953,0,0
81,81,2024-09-26 21:12:57.844080128,TASK_BEGIN,19,-0.1034353563885061,-0.0329146150184115,6.341791753107511,1.0965663719575698,3.3732659969343803,-0.2978045938413085,10.870615170848348,-1.7429473605903132,0,2024-09-26 21:12:59.114489014,1727385179.114489,2024-09-26 21:12:59.114489088,0,0.0,0.1,11.789986740714347,[0.98403088 0.01596912],[0.98403088 0.01596912],"[-0.05        0.25390625  0.44921875  0.45        0.25390625  0.44921875
  0.95        0.33203125  0.52734375  0.375       0.9        -0.06666667]",0.5266115509095953,0,0
82,82,2024-09-26 21:12:57.920376832,TASK_BEGIN,19,-0.0586573264683072,-0.03827694290615,6.615660016488447,1.1372642966043858,3.327703915267595,-0.3006668278631385,10.546527972156586,-1.7474418744036049,0,2024-09-26 21:12:59.364489990,1727385179.3644907,2024-09-26 21:12:59.364490752,0,1.0,0.1,11.702259579872274,[0.0126421 0.9873579],[0.0126421 0.9873579],"[-0.11944444  0.25390625  0.44921875  0.38055556  0.25390625  0.44921875
  0.88055556  0.33203125  0.52734375  0.3671875  -0.8         0.5       ]",0.7607561493979922,0,0
83,83,2024-09-26 21:12:57.984054272,TASK_BEGIN,19,-0.0158481895141225,-0.0448028314346413,6.865026232698999,1.1842026124686378,3.291001150514229,-0.3062896286633924,10.308353473706031,-1.771481056012491,0,2024-09-26 21:12:59.414494141,1727385179.4144943,2024-09-26 21:12:59.414494208,0,1.0,0.1,11.685236984073551,[0.00841742 0.99158258],[0.00841742 0.99158258],"[-0.13333333  0.25390625  0.44921875  0.36666667  0.25390625  0.44921875
  0.86666667  0.33203125  0.52734375  0.3515625  -0.8         0.5       ]",0.8385504392922183,0,0
84,84,2024-09-26 21:12:58.936636928,TASK_BEGIN,19,0.02248966495985,-0.0518855120308061,7.083617533954646,1.2339542253834317,3.2644092207785107,-0.3147152116647971,10.159230217066408,-1.8134644945301044,0,2024-09-26 21:13:00.320244141,1727385180.3202443,2024-09-26 21:13:00.320244224,0,0.0,0.1,12.288443454514017,[0.97240131 0.02759869],[0.97240131 0.02759869],"[ 0.11666667  0.25390625  0.44921875  0.61666667  0.33203125  0.52734375
  1.          0.          1.          0.36914062  0.9        -0.06666667]",0.6990047032645924,0,0
85,85,2024-09-26 21:12:59.003408896,TASK_BEGIN,19,0.0540147094250697,-0.0588987187328666,7.268691629449844,1.2826678576988118,3.2486935375620263,-0.3258070469181752,10.095694351630042,-1.870657933608676,0,2024-09-26 21:13:00.320244141,1727385180.3202443,2024-09-26 21:13:00.320244224,0,0.0,0.1,12.288443454514017,[0.97240131 0.02759869],[0.97240131 0.02759869],"[ 0.11666667  0.25390625  0.44921875  0.61666667  0.33203125  0.52734375
  1.          0.          1.          0.36914062  0.9        -0.06666667]",0.6990047032645924,0,0
86,86,2024-09-26 21:12:59.070203136,TASK_BEGIN,19,0.0767530171482431,-0.0652631053125692,7.421320461913042,1.3264385702901755,3.243902788188368,-0.3392453258161386,10.107730480789844,-1.9392027833532788,0,2024-09-26 21:13:00.320244141,1727385180.3202443,2024-09-26 21:13:00.320244224,0,0.0,0.1,12.288443454514017,[0.97240131 0.02759869],[0.97240131 0.02759869],"[ 0.11666667  0.25390625  0.44921875  0.61666667  0.33203125  0.52734375
  1.          0.          1.          0.36914062  0.9        -0.06666667]",0.6990047032645924,0,0
87,87,2024-09-26 21:12:59.136451840,TASK_BEGIN,19,0.0892276172591775,-0.0704940212671624,7.546243044795855,1.3616489003213657,3.2492973440254724,-0.3545660909248977,10.179405930817309,-2.0142636690899387,0,2024-09-26 21:13:00.320244141,1727385180.3202443,2024-09-26 21:13:00.320244224,0,0.0,0.1,12.288443454514017,[0.97240131 0.02759869],[0.97240131 0.02759869],"[ 0.11666667  0.25390625  0.44921875  0.61666667  0.33203125  0.52734375
  1.          0.          1.          0.36914062  0.9        -0.06666667]",0.6990047032645924,0,0
88,88,2024-09-26 21:12:59.203385088,TASK_BEGIN,19,0.0905337711885839,-0.0742295745614266,7.651106893210532,1.3852486788681275,3.263423762029527,-0.3712260770679668,10.290010768224391,-2.090302884107645,0,2024-09-26 21:13:00.320244141,1727385180.3202443,2024-09-26 21:13:00.320244224,0,0.0,0.1,12.288443454514017,[0.97240131 0.02759869],[0.97240131 0.02759869],"[ 0.11666667  0.25390625  0.44921875  0.61666667  0.33203125  0.52734375
  1.          0.          1.          0.36914062  0.9        -0.06666667]",0.6990047032645924,0,0
89,89,2024-09-26 21:12:59.270540032,TASK_BEGIN,19,0.0804118770821416,-0.0762516473559286,7.745074527548594,1.3949719593921692,3.284298201616585,-0.3886691952183423,10.415416569044586,-2.161425934056749,0,2024-09-26 21:13:00.320244141,1727385180.3202443,2024-09-26 21:13:00.320244224,0,0.0,0.1,12.288443454514017,[0.97240131 0.02759869],[0.97240131 0.02759869],"[ 0.11666667  0.25390625  0.44921875  0.61666667  0.33203125  0.52734375
  1.          0.          1.          0.36914062  0.9        -0.06666667]",0.6990047032645924,0,0
90,90,2024-09-26 21:12:59.333218048,TASK_BEGIN,19,0.0593130799564654,-0.0765035471693519,7.837190888777622,1.3894805332249005,3.3096886536143195,-0.4063861025998961,10.529756556376771,-2.221806733735678,0,2024-09-26 21:13:00.320244141,1727385180.3202443,2024-09-26 21:13:00.320244224,0,0.0,0.1,12.288443454514017,[0.97240131 0.02759869],[0.97240131 0.02759869],"[ 0.11666667  0.25390625  0.44921875  0.61666667  0.33203125  0.52734375
  1.          0.          1.          0.36914062  0.9        -0.06666667]",0.6990047032645924,0,0
91,91,2024-09-26 21:13:00.284499968,TASK_BEGIN,19,0.0283805880457154,-0.0750912791118536,7.935104680806102,1.3684109249468983,3.3374525049957797,-0.4239620572287849,10.607799875025872,-2.2662296695222297,0,2024-09-26 21:13:01.475523926,1727385181.4755242,2024-09-26 21:13:01.475524096,0,1.0,0.1,11.816141412813147,[3.70605575e-04 9.99629394e-01],[3.70605575e-04 9.99629394e-01],"[ 0.29722222  0.33203125  0.52734375  0.86666667  0.21484375  0.41015625
  1.          0.          1.          0.44921875 -0.8         0.5       ]",0.8527689702125661,0,0
92,92,2024-09-26 21:13:00.353465088,TASK_BEGIN,19,-0.0107021189326194,-0.0722583313993422,8.044407636887646,1.3323315123538784,3.365824211079393,-0.4411019714265983,10.627783248196389,-2.290659252667619,0,2024-09-26 21:13:01.475523926,1727385181.4755242,2024-09-26 21:13:01.475524096,0,1.0,0.1,11.816141412813147,[3.70605575e-04 9.99629394e-01],[3.70605575e-04 9.99629394e-01],"[ 0.29722222  0.33203125  0.52734375  0.86666667  0.21484375  0.41015625
  1.          0.          1.          0.44921875 -0.8         0.5       ]",0.8527689702125661,0,0
93,93,2024-09-26 21:13:00.408651008,TASK_BEGIN,19,-0.05594160888418,-0.0683413049575096,8.168416277751636,1.2826612549681478,3.393568404067181,-0.4576272167084012,10.573753360372669,-2.2926249374798213,0,2024-09-26 21:13:01.475523926,1727385181.4755242,2024-09-26 21:13:01.475524096,0,1.0,0.1,11.816141412813147,[3.70605575e-04 9.99629394e-01],[3.70605575e-04 9.99629394e-01],"[ 0.29722222  0.33203125  0.52734375  0.86666667  0.21484375  0.41015625
  1.          0.          1.          0.44921875 -0.8         0.5       ]",0.8527689702125661,0,0
94,94,2024-09-26 21:13:00.487068928,TASK_BEGIN,19,-0.1052328365352218,-0.0637239304985229,8.308190823327699,1.2215838119365248,3.4200279408710457,-0.4734579861930489,10.436661216540816,-2.2712896217309444,0,2024-09-26 21:13:01.475523926,1727385181.4755242,2024-09-26 21:13:01.475524096,0,1.0,0.1,11.816141412813147,[3.70605575e-04 9.99629394e-01],[3.70605575e-04 9.99629394e-01],"[ 0.29722222  0.33203125  0.52734375  0.86666667  0.21484375  0.41015625
  1.          0.          1.          0.44921875 -0.8         0.5       ]",0.8527689702125661,0,0
95,95,2024-09-26 21:13:00.547404032,TASK_BEGIN,19,-0.1564585914214923,-0.0588027482846747,8.462861794606159,1.151916529603346,3.4451722964153384,-0.4886066409972444,10.214316504950617,-2.2272901550118767,0,2024-09-26 21:13:01.475523926,1727385181.4755242,2024-09-26 21:13:01.475524096,0,1.0,0.1,11.816141412813147,[3.70605575e-04 9.99629394e-01],[3.70605575e-04 9.99629394e-01],"[ 0.29722222  0.33203125  0.52734375  0.86666667  0.21484375  0.41015625
  1.          0.          1.          0.44921875 -0.8         0.5       ]",0.8527689702125661,0,0
96,96,2024-09-26 21:13:00.620600832,TASK_BEGIN,19,-0.2075147536215586,-0.053965123123389,8.630345852731711,1.0768843561374244,3.4696795987415885,-0.5031903879825005,9.910973997224035,-2.1625555615975247,0,2024-09-26 21:13:01.475523926,1727385181.4755242,2024-09-26 21:13:01.475524096,0,1.0,0.1,11.816141412813147,[3.70605575e-04 9.99629394e-01],[3.70605575e-04 9.99629394e-01],"[ 0.29722222  0.33203125  0.52734375  0.86666667  0.21484375  0.41015625
  1.          0.          1.          0.44921875 -0.8         0.5       ]",0.8527689702125661,0,0
97,97,2024-09-26 21:13:00.685069056,TASK_BEGIN,19,-0.2563340870679637,-0.0495724933405019,8.808151846197326,0.9998434252629594,3.494959799667551,-0.5174415728128651,9.53713342428484,-2.0802088272879384,0,2024-09-26 21:13:02.084429932,1727385182.0844307,2024-09-26 21:13:02.084430592,0,0.0,0.1,12.500800273214727,[9.99602135e-01 3.97864757e-04],[9.99602135e-01 3.97864757e-04],"[0.13055556 0.33203125 0.52734375 0.7        0.21484375 0.41015625
 1.         0.         1.         0.4140625  0.4        0.1       ]",0.43066645524211794,0,0
98,98,2024-09-26 21:13:01.611758080,TASK_BEGIN,19,-0.3009388400031591,-0.0459486707372815,8.99382075508357,0.9240522588177016,3.5230108722547246,-0.5316899593028034,9.109267229146496,-1.9844661395304943,0,2024-09-26 21:13:02.945241943,1727385182.945243,2024-09-26 21:13:02.945242880,0,1.0,0.1,12.108032568319011,[0.03546843 0.96453157],[0.03546843 0.96453157],"[-0.10555556  0.33203125  0.52734375  0.46388889  0.21484375  0.41015625
  0.96388889  0.33203125  0.52734375  0.35351562 -0.8         0.5       ]",0.7403652560984689,0,0
99,99,2024-09-26 21:13:01.678545920,TASK_BEGIN,19,-0.339485922761055,-0.0433821243746335,9.184965489329048,0.852499479795596,3.556075124944689,-0.546310909766988,8.648727410592835,-1.8803780912168395,0,2024-09-26 21:13:02.945241943,1727385182.945243,2024-09-26 21:13:02.945242880,0,1.0,0.1,12.108032568319011,[0.03546843 0.96453157],[0.03546843 0.96453157],"[-0.10555556  0.33203125  0.52734375  0.46388889  0.21484375  0.41015625
  0.96388889  0.33203125  0.52734375  0.35351562 -0.8         0.5       ]",0.7403652560984689,0,0
100,100,2024-09-26 21:13:01.745313024,TASK_BEGIN,19,-0.3702826915164138,-0.0421415841480692,9.379236652200913,0.7877132822432374,3.5961288114696828,-0.5616440218822928,8.179708610049847,-1.7733858698763736,0,2024-09-26 21:13:02.945241943,1727385182.945243,2024-09-26 21:13:02.945242880,0,1.0,0.1,12.108032568319011,[0.03546843 0.96453157],[0.03546843 0.96453157],"[-0.10555556  0.33203125  0.52734375  0.46388889  0.21484375  0.41015625
  0.96388889  0.33203125  0.52734375  0.35351562 -0.8         0.5       ]",0.7403652560984689,0,0
101,101,2024-09-26 21:13:01.812127232,TASK_BEGIN,19,-0.3918157810517564,-0.0424879228956242,9.574266335580432,0.731554034867436,3.6443136019608855,-0.5778939021945154,7.726985367898288,-1.6688266387022153,0,2024-09-26 21:13:02.945241943,1727385182.945243,2024-09-26 21:13:02.945242880,0,1.0,0.1,12.108032568319011,[0.03546843 0.96453157],[0.03546843 0.96453157],"[-0.10555556  0.33203125  0.52734375  0.46388889  0.21484375  0.41015625
  0.96388889  0.33203125  0.52734375  0.35351562 -0.8         0.5       ]",0.7403652560984689,0,0
102,102,2024-09-26 21:13:01.878690048,TASK_BEGIN,19,-0.4028307706543138,-0.0446699852551318,9.767300026997464,0.6851022967043219,3.700488883975229,-0.5950431619259203,7.314078472912697,-1.5715180609707042,0,2024-09-26 21:13:02.945241943,1727385182.945243,2024-09-26 21:13:02.945242880,0,1.0,0.1,12.108032568319011,[0.03546843 0.96453157],[0.03546843 0.96453157],"[-0.10555556  0.33203125  0.52734375  0.46388889  0.21484375  0.41015625
  0.96388889  0.33203125  0.52734375  0.35351562 -0.8         0.5       ]",0.7403652560984689,0,0
103,103,2024-09-26 21:13:01.940251904,TASK_BEGIN,19,-0.4024376215737648,-0.0489073494061938,9.954428041957897,0.6487197946509624,3.763032725691593,-0.6128104602264329,6.961851796657193,-1.4854359286794072,0,2024-09-26 21:13:02.945241943,1727385182.945243,2024-09-26 21:13:02.945242880,0,1.0,0.1,12.108032568319011,[0.03546843 0.96453157],[0.03546843 0.96453157],"[-0.10555556  0.33203125  0.52734375  0.46388889  0.21484375  0.41015625
  0.96388889  0.33203125  0.52734375  0.35351562 -0.8         0.5       ]",0.7403652560984689,0,0
104,104,2024-09-26 21:13:02.002304256,TASK_BEGIN,19,-0.390194893687099,-0.0553648920808547,10.12973602117119,0.6222324028866776,3.828893619203971,-0.6306608391563915,6.68723337090456,-1.4134683623253097,0,2024-09-26 21:13:02.945241943,1727385182.945243,2024-09-26 21:13:02.945242880,0,1.0,0.1,12.108032568319011,[0.03546843 0.96453157],[0.03546843 0.96453157],"[-0.10555556  0.33203125  0.52734375  0.46388889  0.21484375  0.41015625
  0.96388889  0.33203125  0.52734375  0.35351562 -0.8         0.5       ]",0.7403652560984689,0,0
105,105,2024-09-26 21:13:02.951646976,TASK_BEGIN,19,-0.3661520950292766,-0.0641223628285232,10.284851500984573,0.6051195818654908,3.893868470322415,-0.6478585954416198,6.501937440014126,-1.3572854789099622,0,2024-09-26 21:13:03.907375977,1727385183.907377,2024-09-26 21:13:03.907376896,0,1.0,0.1,11.74159036596871,[0.04959487 0.95040513],[0.04959487 0.95040513],"[ 0.2         0.21484375  0.41015625  0.7         0.33203125  0.52734375
  1.          0.          1.          0.32226562 -0.8         0.5       ]",0.772254535846946,0,0
106,106,2024-09-26 21:13:03.013680896,TASK_BEGIN,19,-0.3308612410176768,-0.0751470860027138,10.409236575204329,0.5966401733324476,3.953118816807482,-0.6635573341416118,6.411276276179762,-1.3173439723308265,0,2024-09-26 21:13:03.907375977,1727385183.907377,2024-09-26 21:13:03.907376896,0,1.0,0.1,11.74159036596871,[0.04959487 0.95040513],[0.04959487 0.95040513],"[ 0.2         0.21484375  0.41015625  0.7         0.33203125  0.52734375
  1.          0.          1.          0.32226562 -0.8         0.5       ]",0.772254535846946,0,0
107,107,2024-09-26 21:13:03.090369024,TASK_BEGIN,19,-0.2853795403974876,-0.0882770018480867,10.491245612151577,0.5959098488369959,4.001867651025783,-0.6769160333425035,6.413291940511275,-1.292974174459183,0,2024-09-26 21:13:04.008376953,1727385184.0083776,2024-09-26 21:13:04.008377600,0,0.0,0.1,11.706932717685932,[0.99786681 0.00213319],[0.99786681 0.00213319],"[ 0.17222222  0.21484375  0.41015625  0.67222222  0.33203125  0.52734375
  1.          0.          1.          0.296875   -0.6         0.43333333]",0.3457744963810069,0,0
108,108,2024-09-26 21:13:03.151472128,TASK_BEGIN,19,-0.2312593448045633,-0.1032149345005916,10.519606334736244,0.6019875470384756,4.036076636887991,-0.6872112914862987,6.498715867203697,-1.2825259760735104,0,2024-09-26 21:13:04.566375977,1727385184.5663767,2024-09-26 21:13:04.566376704,0,0.0,0.1,12.350447682325282,[9.99999623e-01 3.77384853e-07],[9.99999623e-01 3.77384853e-07],"[0.01944444 0.21484375 0.41015625 0.51944444 0.33203125 0.52734375
 1.         0.         1.         0.296875   0.5        0.06666667]",0.365755963580111,0,0
109,109,2024-09-26 21:13:03.228506112,TASK_BEGIN,19,-0.1704997428684124,-0.1195348658308592,10.484840110199965,0.6140004812828315,4.052884152461251,-0.6939150380348309,6.652278742957038,-1.2836150269796456,0,2024-09-26 21:13:04.616377197,1727385184.616377,2024-09-26 21:13:04.616377088,0,0.0,0.1,12.326943205502028,[9.99999813e-01 1.86842248e-07],[9.99999813e-01 1.86842248e-07],"[0.00555556 0.21484375 0.41015625 0.50555556 0.33203125 0.52734375
 1.         0.         1.         0.30859375 0.6        0.03333333]",0.40349998302183376,0,0
110,110,2024-09-26 21:13:03.290388224,TASK_BEGIN,19,-0.1054612001539688,-0.1367024325253217,10.380256331719991,0.6312868924161128,4.050737499041948,-0.6967258152710982,6.855153261091553,-1.293455171856478,0,2024-09-26 21:13:04.616377197,1727385184.616377,2024-09-26 21:13:04.616377088,0,0.0,0.1,12.326943205502028,[9.99999813e-01 1.86842248e-07],[9.99999813e-01 1.86842248e-07],"[0.00555556 0.21484375 0.41015625 0.50555556 0.33203125 0.52734375
 1.         0.         1.         0.30859375 0.6        0.03333333]",0.40349998302183376,0,0
111,111,2024-09-26 21:13:03.352433920,TASK_BEGIN,19,-0.0387751089796975,-0.1541070023924593,10.20246097970772,0.6535074703539097,4.029314738181389,-0.6955585813686146,7.087507179960695,-1.3091661331146354,0,2024-09-26 21:13:04.616377197,1727385184.616377,2024-09-26 21:13:04.616377088,0,0.0,0.1,12.326943205502028,[9.99999813e-01 1.86842248e-07],[9.99999813e-01 1.86842248e-07],"[0.00555556 0.21484375 0.41015625 0.50555556 0.33203125 0.52734375
 1.         0.         1.         0.30859375 0.6        0.03333333]",0.40349998302183376,0,0
112,112,2024-09-26 21:13:04.301189888,TASK_BEGIN,19,0.0267415143078445,-0.1710988414640614,9.951691529533178,0.6806624174073116,3.989360925562099,-0.6905068301108785,7.330329272813665,-1.327975707472867,0,2024-09-26 21:13:05.726531006,1727385185.7265313,2024-09-26 21:13:05.726531328,0,0.0,0.1,11.865348853650458,[0.9986469 0.0013531],[0.9986469 0.0013531],"[0.2        0.33203125 0.52734375 0.7        0.29296875 0.48828125
 1.         0.         1.         0.421875   0.4        0.1       ]",0.49279550552724316,0,0
113,113,2024-09-26 21:13:04.363677952,TASK_BEGIN,19,0.0881945959042366,-0.1870282428372606,9.63237770341205,0.7129611583756785,3.9325058022331327,-0.6817960558987994,7.566612190039688,-1.3473682933611624,0,2024-09-26 21:13:05.776547852,1727385185.7765486,2024-09-26 21:13:05.776548608,0,0.0,0.1,11.846695365113954,[0.98262166 0.01737834],[0.98262166 0.01737834],"[0.18611111 0.33203125 0.52734375 0.68611111 0.29296875 0.48828125
 1.         0.         1.         0.43164062 0.5        0.06666667]",0.6130620772759894,0,0
114,114,2024-09-26 21:13:04.444903936,TASK_BEGIN,19,0.1427643615525526,-0.2012850768915783,9.253909570934534,0.7505524113025628,3.8611006087281514,-0.6697492652677987,7.782464000294091,-1.3652932002080274,0,2024-09-26 21:13:05.776547852,1727385185.7765486,2024-09-26 21:13:05.776548608,0,0.0,0.1,11.846695365113954,[0.98262166 0.01737834],[0.98262166 0.01737834],"[0.18611111 0.33203125 0.52734375 0.68611111 0.29296875 0.48828125
 1.         0.         1.         0.43164062 0.5        0.06666667]",0.6130620772759894,0,0
115,115,2024-09-26 21:13:04.502843904,TASK_BEGIN,19,0.1878695630284929,-0.2133323409532313,8.830984067491913,0.793221451439986,3.778096776089946,-0.6547777299743169,7.96848773794413,-1.3804693057722472,0,2024-09-26 21:13:05.776547852,1727385185.7765486,2024-09-26 21:13:05.776548608,0,0.0,0.1,11.846695365113954,[0.98262166 0.01737834],[0.98262166 0.01737834],"[0.18611111 0.33203125 0.52734375 0.68611111 0.29296875 0.48828125
 1.         0.         1.         0.43164062 0.5        0.06666667]",0.6130620772759894,0,0
116,116,2024-09-26 21:13:04.564471040,TASK_BEGIN,19,0.2212901672581568,-0.2227271861070069,8.38274976307736,0.8402188790207832,3.6869337440464354,-0.6373897948365013,8.121429033306514,-1.3927156358004582,0,2024-09-26 21:13:05.776547852,1727385185.7765486,2024-09-26 21:13:05.776548608,0,0.0,0.1,11.846695365113954,[0.98262166 0.01737834],[0.98262166 0.01737834],"[0.18611111 0.33203125 0.52734375 0.68611111 0.29296875 0.48828125
 1.         0.         1.         0.43164062 0.5        0.06666667]",0.6130620772759894,0,0
117,117,2024-09-26 21:13:04.645256192,TASK_BEGIN,19,0.2412363974144385,-0.2291316241384063,7.930635062394304,0.8903001531186717,3.5913791160985595,-0.618192858456987,8.2456088680336,-1.4031634781112954,0,2024-09-26 21:13:05.776547852,1727385185.7765486,2024-09-26 21:13:05.776548608,0,0.0,0.1,11.846695365113954,[0.98262166 0.01737834],[0.98262166 0.01737834],"[0.18611111 0.33203125 0.52734375 0.68611111 0.29296875 0.48828125
 1.         0.         1.         0.43164062 0.5        0.06666667]",0.6130620772759894,0,0
118,118,2024-09-26 21:13:04.712062976,TASK_BEGIN,19,0.2464200706093327,-0.2323218836472723,7.495587570526338,0.94189711646512,3.495323353332536,-0.5978712786197016,8.353062149548556,-1.41417668603094,0,2024-09-26 21:13:05.776547852,1727385185.7765486,2024-09-26 21:13:05.776548608,0,0.0,0.1,11.846695365113954,[0.98262166 0.01737834],[0.98262166 0.01737834],"[0.18611111 0.33203125 0.52734375 0.68611111 0.29296875 0.48828125
 1.         0.         1.         0.43164062 0.5        0.06666667]",0.6130620772759894,0,0
119,119,2024-09-26 21:13:05.631279104,TASK_BEGIN,19,0.2361902441993022,-0.2322040141166397,7.095603930452075,0.9932948420468588,3.4025802894650186,-0.5771476933809574,8.46166449626574,-1.4289155406886984,0,2024-09-26 21:13:06.737237061,1727385186.7372377,2024-09-26 21:13:06.737237760,0,0.0,0.1,12.291993762425134,[0.9933403 0.0066597],[0.9933403 0.0066597],"[-0.07777778  0.33203125  0.52734375  0.42222222  0.29296875  0.48828125
  0.99166667  0.25390625  0.44921875  0.4609375   0.9        -0.06666667]",0.8358972607838446,0,0
120,120,2024-09-26 21:13:05.702522880,TASK_BEGIN,19,0.2107228717213796,-0.2288344699274658,6.744050497193214,1.042762051680777,3.316711393512183,-0.556743794988827,8.591743550122203,-1.450677594063329,0,2024-09-26 21:13:06.737237061,1727385186.7372377,2024-09-26 21:13:06.737237760,0,0.0,0.1,12.291993762425134,[0.9933403 0.0066597],[0.9933403 0.0066597],"[-0.07777778  0.33203125  0.52734375  0.42222222  0.29296875  0.48828125
  0.99166667  0.25390625  0.44921875  0.4609375   0.9        -0.06666667]",0.8358972607838446,0,0
121,121,2024-09-26 21:13:05.754877952,TASK_BEGIN,19,0.1711750722719985,-0.2224323051582099,6.448901777881464,1.0886661384818952,3.240834942630093,-0.5373421683961077,8.762218167017505,-1.482227056894364,0,2024-09-26 21:13:06.737237061,1727385186.7372377,2024-09-26 21:13:06.737237760,0,0.0,0.1,12.291993762425134,[0.9933403 0.0066597],[0.9933403 0.0066597],"[-0.07777778  0.33203125  0.52734375  0.42222222  0.29296875  0.48828125
  0.99166667  0.25390625  0.44921875  0.4609375   0.9        -0.06666667]",0.8358972607838446,0,0
122,122,2024-09-26 21:13:05.832040960,TASK_BEGIN,19,0.1196946098578448,-0.2133665766977568,6.212818806056117,1.1296109623569484,3.1773942943866604,-0.5195433793522506,8.9870625240309,-1.5252612374497336,0,2024-09-26 21:13:06.737237061,1727385186.7372377,2024-09-26 21:13:06.737237760,0,0.0,0.1,12.291993762425134,[0.9933403 0.0066597],[0.9933403 0.0066597],"[-0.07777778  0.33203125  0.52734375  0.42222222  0.29296875  0.48828125
  0.99166667  0.25390625  0.44921875  0.4609375   0.9        -0.06666667]",0.8358972607838446,0,0
123,123,2024-09-26 21:13:05.902861056,TASK_BEGIN,19,0.0592347208660192,-0.2021153038923499,6.034028502539044,1.164549020166989,3.127944166504484,-0.5038253559543387,9.272710115704465,-1.5800858910428004,0,2024-09-26 21:13:06.942239014,1727385186.9422393,2024-09-26 21:13:06.942239232,0,1.0,0.1,12.20168006313047,[0.04945364 0.95054636],[0.04945364 0.95054636],"[-0.13333333  0.33203125  0.52734375  0.36666667  0.29296875  0.48828125
  0.93611111  0.25390625  0.44921875  0.3984375  -0.8         0.5       ]",0.7463522614939269,0,0
124,124,2024-09-26 21:13:05.959512832,TASK_BEGIN,19,-0.0067747032731391,-0.1892090300190158,5.907988107672727,1.1927653582083146,3.093069466927304,-0.4905212814931531,9.616848043973,-1.6455221186302589,0,2024-09-26 21:13:06.942239014,1727385186.9422393,2024-09-26 21:13:06.942239232,0,1.0,0.1,12.20168006313047,[0.04945364 0.95054636],[0.04945364 0.95054636],"[-0.13333333  0.33203125  0.52734375  0.36666667  0.29296875  0.48828125
  0.93611111  0.25390625  0.44921875  0.3984375  -0.8         0.5       ]",0.7463522614939269,0,0
125,125,2024-09-26 21:13:06.036435968,TASK_BEGIN,19,-0.0747984005684853,-0.1751766219921836,5.829388351426496,1.2137485297376032,3.0724888099658902,-0.4798218637781941,10.008634371159284,-1.7190300262100149,0,2024-09-26 21:13:06.942239014,1727385186.9422393,2024-09-26 21:13:06.942239232,0,1.0,0.1,12.20168006313047,[0.04945364 0.95054636],[0.04945364 0.95054636],"[-0.13333333  0.33203125  0.52734375  0.36666667  0.29296875  0.48828125
  0.93611111  0.25390625  0.44921875  0.3984375  -0.8         0.5       ]",0.7463522614939269,0,0
126,126,2024-09-26 21:13:06.977891840,TASK_BEGIN,19,-0.1415464172116094,-0.1605017291373041,5.793543030014008,1.2271213254586486,3.065269527781032,-0.4717928150065236,10.429963927222149,-1.7969927249272388,0,2024-09-26 21:13:07.953031981,1727385187.9530323,2024-09-26 21:13:07.953032192,0,0.0,0.1,12.665305807003913,[0.99847464 0.00152536],[0.99847464 0.00152536],"[ 0.08888889  0.29296875  0.48828125  0.65833333  0.25390625  0.44921875
  1.          0.          1.          0.35742188 -0.6         0.43333333]",0.3354791555679513,0,0
127,127,2024-09-26 21:13:07.039912192,TASK_BEGIN,19,-0.2042896663120643,-0.1455878654127024,5.79648614229118,1.2327540076922257,3.0700312306372264,-0.4663934739786081,10.85738300042509,-1.875077550039109,0,2024-09-26 21:13:07.953031981,1727385187.9530323,2024-09-26 21:13:07.953032192,0,0.0,0.1,12.665305807003913,[0.99847464 0.00152536],[0.99847464 0.00152536],"[ 0.08888889  0.29296875  0.48828125  0.65833333  0.25390625  0.44921875
  1.          0.          1.          0.35742188 -0.6         0.43333333]",0.3354791555679513,0,0
128,128,2024-09-26 21:13:07.119425024,TASK_BEGIN,19,-0.2611125875908656,-0.1307317388167754,5.834049015342788,1.230980549696295,3.085071741601213,-0.4634873705281933,11.264512434052214,-1.9486261855083769,0,2024-09-26 21:13:08.513991211,1727385188.5139916,2024-09-26 21:13:08.513991680,0,0.0,0.1,12.386350248308498,[9.99999632e-01 3.68435029e-07],[9.99999632e-01 3.68435029e-07],"[-0.06388889  0.29296875  0.48828125  0.50555556  0.25390625  0.44921875
  1.          0.          1.          0.35742188  0.5         0.06666667]",0.34963025727184266,0,0
129,129,2024-09-26 21:13:07.179753984,TASK_BEGIN,19,-0.3110347477708535,-0.1161149700941476,5.90078467610871,1.222745739942794,3.1084305943538952,-0.4628469921396691,11.624773906161408,-2.013064313640589,0,2024-09-26 21:13:08.564990967,1727385188.5649917,2024-09-26 21:13:08.564991744,0,0.0,0.1,12.362486745825413,[9.99998431e-01 1.56911399e-06],[9.99998431e-01 1.56911399e-06],"[-0.07777778  0.29296875  0.48828125  0.49166667  0.25390625  0.44921875
  0.99166667  0.2734375   0.46875     0.36914062  0.6         0.03333333]",0.4539377505828271,0,0
130,130,2024-09-26 21:13:07.240781056,TASK_BEGIN,19,-0.3539430861375098,-0.1018245699088885,5.98942219983308,1.2095799558027185,3.1379468310254173,-0.4641651745971359,11.91378372389052,-2.064279536285665,0,2024-09-26 21:13:08.564990967,1727385188.5649917,2024-09-26 21:13:08.564991744,0,0.0,0.1,12.362486745825413,[9.99998431e-01 1.56911399e-06],[9.99998431e-01 1.56911399e-06],"[-0.07777778  0.29296875  0.48828125  0.49166667  0.25390625  0.44921875
  0.99166667  0.2734375   0.46875     0.36914062  0.6         0.03333333]",0.4539377505828271,0,0
131,131,2024-09-26 21:13:07.319806208,TASK_BEGIN,19,-0.3903536940311856,-0.087897903200571,6.091101618936901,1.1934001922121982,3.171367501334968,-0.4670847038697817,12.110808346961322,-2.0988833305861374,0,2024-09-26 21:13:08.564990967,1727385188.5649917,2024-09-26 21:13:08.564991744,0,0.0,0.1,12.362486745825413,[9.99998431e-01 1.56911399e-06],[9.99998431e-01 1.56911399e-06],"[-0.07777778  0.29296875  0.48828125  0.49166667  0.25390625  0.44921875
  0.99166667  0.2734375   0.46875     0.36914062  0.6         0.03333333]",0.4539377505828271,0,0
132,132,2024-09-26 21:13:07.385965056,TASK_BEGIN,19,-0.4211018012928558,-0.0743757637628493,6.196265203682072,1.1762227240124594,3.2065333366106845,-0.4712465821392547,12.199441472165311,-2.114356512223097,0,2024-09-26 21:13:08.820027100,1727385188.8200276,2024-09-26 21:13:08.820027648,0,1.0,0.1,12.246701388300597,[0.08424639 0.91575361],[0.08424639 0.91575361],"[-0.14722222  0.29296875  0.48828125  0.42222222  0.25390625  0.44921875
  0.92222222  0.2734375   0.46875     0.38476562 -0.8         0.5       ]",0.5896117214501511,0,0
133,133,2024-09-26 21:13:08.331058176,TASK_BEGIN,19,-0.4470679826174248,-0.0613463298712871,6.295702447893352,1.1599258539059292,3.241609865785178,-0.476342835683715,12.168360439620336,-2.109185187525071,0,2024-09-26 21:13:09.687020996,1727385189.6870217,2024-09-26 21:13:09.687021824,0,0.0,0.1,11.893841642834198,[0.99514558 0.00485442],[0.99514558 0.00485442],"[0.18611111 0.25390625 0.44921875 0.68611111 0.2734375  0.46875
 1.         0.         1.         0.35351562 0.7        0.        ]",0.6619096143431288,0,0
134,134,2024-09-26 21:13:08.393129216,TASK_BEGIN,19,-0.4689945579512835,-0.0489679506255655,6.381105135128162,1.1461595762981598,3.275275484841552,-0.4821509375632336,12.012790583422476,-2.083069527228405,0,2024-09-26 21:13:09.687020996,1727385189.6870217,2024-09-26 21:13:09.687021824,0,0.0,0.1,11.893841642834198,[0.99514558 0.00485442],[0.99514558 0.00485442],"[0.18611111 0.25390625 0.44921875 0.68611111 0.2734375  0.46875
 1.         0.         1.         0.35351562 0.7        0.        ]",0.6619096143431288,0,0
135,135,2024-09-26 21:13:08.455144704,TASK_BEGIN,19,-0.4874003416339429,-0.0374659656571855,6.444858763084078,1.1363814496040303,3.306755352788917,-0.4885305625380535,11.736125087764336,-2.037111351997128,0,2024-09-26 21:13:09.687020996,1727385189.6870217,2024-09-26 21:13:09.687021824,0,0.0,0.1,11.893841642834198,[0.99514558 0.00485442],[0.99514558 0.00485442],"[0.18611111 0.25390625 0.44921875 0.68611111 0.2734375  0.46875
 1.         0.         1.         0.35351562 0.7        0.        ]",0.6619096143431288,0,0
136,136,2024-09-26 21:13:08.536229888,TASK_BEGIN,19,-0.5025923697629938,-0.0271065869861078,6.479460789531596,1.1319079599201896,3.3356190803507832,-0.4953769424460134,11.350165380154555,-1.9737476601952235,0,2024-09-26 21:13:09.687020996,1727385189.6870217,2024-09-26 21:13:09.687021824,0,0.0,0.1,11.893841642834198,[0.99514558 0.00485442],[0.99514558 0.00485442],"[0.18611111 0.25390625 0.44921875 0.68611111 0.2734375  0.46875
 1.         0.         1.         0.35351562 0.7        0.        ]",0.6619096143431288,0,0
137,137,2024-09-26 21:13:08.602376960,TASK_BEGIN,19,-0.5147552304734605,-0.0181586708968761,6.477310503643994,1.133881856648467,3.3613845578797936,-0.5025450746739476,10.873072350822238,-1.8963331220539297,0,2024-09-26 21:13:09.687020996,1727385189.6870217,2024-09-26 21:13:09.687021824,0,0.0,0.1,11.893841642834198,[0.99514558 0.00485442],[0.99514558 0.00485442],"[0.18611111 0.25390625 0.44921875 0.68611111 0.2734375  0.46875
 1.         0.         1.         0.35351562 0.7        0.        ]",0.6619096143431288,0,0
138,138,2024-09-26 21:13:08.669803008,TASK_BEGIN,19,-0.5240663271232141,-0.0108569461631782,6.43129449863639,1.1431522071524949,3.383139350363632,-0.5097791366721708,10.325868714101686,-1.8085583779606813,0,2024-09-26 21:13:09.687020996,1727385189.6870217,2024-09-26 21:13:09.687021824,0,0.0,0.1,11.893841642834198,[0.99514558 0.00485442],[0.99514558 0.00485442],"[0.18611111 0.25390625 0.44921875 0.68611111 0.2734375  0.46875
 1.         0.         1.         0.35351562 0.7        0.        ]",0.6619096143431288,0,0
139,139,2024-09-26 21:13:08.736379904,TASK_BEGIN,19,-0.5307850697628519,-0.0053741256867362,6.335972687970131,1.1601441499551983,3.399403562981168,-0.5166821319746703,9.729117476959596,-1.7139414743472214,0,2024-09-26 21:13:09.687020996,1727385189.6870217,2024-09-26 21:13:09.687021824,0,0.0,0.1,11.893841642834198,[0.99514558 0.00485442],[0.99514558 0.00485442],"[0.18611111 0.25390625 0.44921875 0.68611111 0.2734375  0.46875
 1.         0.         1.         0.35351562 0.7        0.        ]",0.6619096143431288,0,0
140,140,2024-09-26 21:13:09.686057216,TASK_BEGIN,19,-0.535284177000578,-0.0018031660943044,6.188863692666754,1.1847829041345068,3.4082564871573173,-0.5227328085564844,9.100711571617635,-1.6154617435088396,0,2024-09-26 21:13:10.905797119,1727385190.905797,2024-09-26 21:13:10.905797120,0,1.0,0.1,12.216705062324388,[0.02616038 0.97383962],[0.02616038 0.97383962],"[-0.14722222  0.25390625  0.44921875  0.35277778  0.2734375   0.46875
  0.85277778  0.3125      0.5078125   0.37890625 -0.8         0.5       ]",0.7218739440893088,0,0
141,141,2024-09-26 21:13:09.752820992,TASK_BEGIN,19,-0.5380048233044002,-0.000149464706957,5.991342576925167,1.2164867511048254,3.4075821469480005,-0.5273295701459805,8.45491754118849,-1.5153337827191862,0,2024-09-26 21:13:10.905797119,1727385190.905797,2024-09-26 21:13:10.905797120,0,1.0,0.1,12.216705062324388,[0.02616038 0.97383962],[0.02616038 0.97383962],"[-0.14722222  0.25390625  0.44921875  0.35277778  0.2734375   0.46875
  0.85277778  0.3125      0.5078125   0.37890625 -0.8         0.5       ]",0.7218739440893088,0,0
142,142,2024-09-26 21:13:09.819586816,TASK_BEGIN,19,-0.5393522648367339,-0.0003292668059642,5.748707707766672,1.2542425346499362,3.3953376341433232,-0.5298433380669209,7.802498899171451,-1.4149512484512454,0,2024-09-26 21:13:10.905797119,1727385190.905797,2024-09-26 21:13:10.905797120,0,1.0,0.1,12.216705062324388,[0.02616038 0.97383962],[0.02616038 0.97383962],"[-0.14722222  0.25390625  0.44921875  0.35277778  0.2734375   0.46875
  0.85277778  0.3125      0.5078125   0.37890625 -0.8         0.5       ]",0.7218739440893088,0,0
143,143,2024-09-26 21:13:09.871568128,TASK_BEGIN,19,-0.5396017562791277,-0.0021663654632559,5.469187812279017,1.2967858545164286,3.3698364050761898,-0.5296734538316142,7.151609743814326,-1.3150180513866392,0,2024-09-26 21:13:10.905797119,1727385190.905797,2024-09-26 21:13:10.905797120,0,1.0,0.1,12.216705062324388,[0.02616038 0.97383962],[0.02616038 0.97383962],"[-0.14722222  0.25390625  0.44921875  0.35277778  0.2734375   0.46875
  0.85277778  0.3125      0.5078125   0.37890625 -0.8         0.5       ]",0.7218739440893088,0,0
144,144,2024-09-26 21:13:09.953146880,TASK_BEGIN,19,-0.538889183733532,-0.0053827950313226,5.162229559447479,1.342842843146829,3.32999468541455,-0.526299213850664,6.509198205346437,-1.2158579507481695,0,2024-09-26 21:13:10.905797119,1727385190.905797,2024-09-26 21:13:10.905797120,0,1.0,0.1,12.216705062324388,[0.02616038 0.97383962],[0.02616038 0.97383962],"[-0.14722222  0.25390625  0.44921875  0.35277778  0.2734375   0.46875
  0.85277778  0.3125      0.5078125   0.37890625 -0.8         0.5       ]",0.7218739440893088,0,0
145,145,2024-09-26 21:13:10.010126336,TASK_BEGIN,19,-0.5372902503213178,-0.0095897621633953,4.8369083415965495,1.391307664532701,3.275443599690437,-0.5193196117793023,5.882665270058368,-1.1178544965386878,0,2024-09-26 21:13:10.905797119,1727385190.905797,2024-09-26 21:13:10.905797120,0,1.0,0.1,12.216705062324388,[0.02616038 0.97383962],[0.02616038 0.97383962],"[-0.14722222  0.25390625  0.44921875  0.35277778  0.2734375   0.46875
  0.85277778  0.3125      0.5078125   0.37890625 -0.8         0.5       ]",0.7218739440893088,0,0
146,146,2024-09-26 21:13:10.086716672,TASK_BEGIN,19,-0.5349223584419608,-0.0142918542222351,4.50117603459182,1.4412585286411623,3.206483895899101,-0.5084847795436359,5.28124538250255,-1.0218737668492195,0,2024-09-26 21:13:10.956764893,1727385190.9567657,2024-09-26 21:13:10.956765696,0,1.0,0.1,12.194538011701145,[0.11763706 0.88236294],[0.11763706 0.88236294],"[-0.16111111  0.25390625  0.44921875  0.33888889  0.2734375   0.46875
  0.83888889  0.3125      0.5078125   0.36328125 -0.8         0.5       ]",0.5616088454833578,0,0
147,147,2024-09-26 21:13:11.027311104,TASK_BEGIN,19,-0.5320146962769907,-0.0189143330111781,4.162093410739814,1.491822994285351,3.123969599909829,-0.4937285552603694,4.716536180525576,-0.929478548205842,0,2024-09-26 21:13:11.872266113,1727385191.8722665,2024-09-26 21:13:11.872266496,0,1.0,0.1,12.695908579789911,[0.25692739 0.74307261],[0.25692739 0.74307261],"[ 0.08888889  0.2734375   0.46875     0.58888889  0.3125      0.5078125
  1.          0.          1.          0.38085938 -0.8         0.5       ]",0.23196762594688183,0,0
148,148,2024-09-26 21:13:11.102840832,TASK_BEGIN,19,-0.5289379018563168,-0.0228556530788898,3.8268042697328335,1.5419603452799808,3.029252352359717,-0.4752052105674391,4.20214424345154,-0.8428672866214306,0,2024-09-26 21:13:12.430901123,1727385192.4309015,2024-09-26 21:13:12.430901504,0,1.0,0.1,12.413750081470189,[0.6614114 0.3385886],[0.83479512 0.16520488],"[-0.06388889  0.2734375   0.46875     0.43611111  0.3125      0.5078125
  1.          0.          1.          0.23242188 -0.8         0.5       ]",0.1609892182879003,0,0
149,149,2024-09-26 21:13:11.166003968,TASK_BEGIN,19,-0.5261846283410951,-0.0255605318892852,3.503725349363441,1.590249943819819,2.9242675697368457,-0.453323182946959,3.75281707322988,-0.7646284492901287,0,2024-09-26 21:13:12.430901123,1727385192.4309015,2024-09-26 21:13:12.430901504,0,1.0,0.1,12.413750081470189,[0.6614114 0.3385886],[0.83479512 0.16520488],"[-0.06388889  0.2734375   0.46875     0.43611111  0.3125      0.5078125
  1.          0.          1.          0.23242188 -0.8         0.5       ]",0.1609892182879003,0,0
150,150,2024-09-26 21:13:11.236402176,TASK_BEGIN,19,-0.5242915527546264,-0.0265990665114651,3.2030812736660126,1.6348200765383247,2.811711392074788,-0.4287618328194506,3.383189952543552,-0.6974199083159279,0,2024-09-26 21:13:12.430901123,1727385192.4309015,2024-09-26 21:13:12.430901504,0,1.0,0.1,12.413750081470189,[0.6614114 0.3385886],[0.83479512 0.16520488],"[-0.06388889  0.2734375   0.46875     0.43611111  0.3125      0.5078125
  1.          0.          1.          0.23242188 -0.8         0.5       ]",0.1609892182879003,0,0
151,151,2024-09-26 21:13:11.303180800,TASK_BEGIN,19,-0.52374282973177,-0.0257260254605526,2.9361380529569123,1.6735335030044864,2.6951418651612995,-0.4024533813700084,3.1061019164872743,-0.6436366187802383,0,2024-09-26 21:13:12.430901123,1727385192.4309015,2024-09-26 21:13:12.430901504,0,1.0,0.1,12.413750081470189,[0.6614114 0.3385886],[0.83479512 0.16520488],"[-0.06388889  0.2734375   0.46875     0.43611111  0.3125      0.5078125
  1.          0.          1.          0.23242188 -0.8         0.5       ]",0.1609892182879003,0,0
152,152,2024-09-26 21:13:11.369961984,TASK_BEGIN,19,-0.5249225262379719,-0.0228972758353909,2.7134522732012587,1.704393300496884,2.5788530361676485,-0.3755160459841885,2.930840101974142,-0.6051334179398873,0,2024-09-26 21:13:12.430901123,1727385192.4309015,2024-09-26 21:13:12.430901504,0,1.0,0.1,12.413750081470189,[0.6614114 0.3385886],[0.83479512 0.16520488],"[-0.06388889  0.2734375   0.46875     0.43611111  0.3125      0.5078125
  1.          0.          1.          0.23242188 -0.8         0.5       ]",0.1609892182879003,0,0
153,153,2024-09-26 21:13:11.429336832,TASK_BEGIN,19,-0.5281482539005136,-0.0182421325369502,2.543167502027888,1.7259703736658132,2.467504739727548,-0.3491450037164212,2.8619510150135774,-0.5830634613662131,0,2024-09-26 21:13:12.430901123,1727385192.4309015,2024-09-26 21:13:12.430901504,0,1.0,0.1,12.413750081470189,[0.6614114 0.3385886],[0.83479512 0.16520488],"[-0.06388889  0.2734375   0.46875     0.43611111  0.3125      0.5078125
  1.          0.          1.          0.23242188 -0.8         0.5       ]",0.1609892182879003,0,0
154,161,2024-09-26 21:13:13.711661056,TASK_BEGIN,19,-0.6711348072093299,0.0462540281718291,3.085422233700908,1.616009536089596,2.105569327708316,-0.2562313730760017,5.038713817687075,-0.8748847384541777,0,2024-09-26 21:13:15.141011963,1727385195.141012,2024-09-26 21:13:15.141011968,1,1.0,0.1,1.3994164535871148,[0.25807465 0.74192535],[0.25807465 0.74192535],"[ 0.79166667  0.1953125   0.390625    1.          0.          1.
  1.          0.          1.          0.2421875  -0.8         0.5       ]",0.11716240672345919,0,0
155,162,2024-09-26 21:13:13.778447104,TASK_BEGIN,19,-0.7006436882630735,0.0512374108631125,3.285957862913756,1.5913400333338643,2.1239179380299484,-0.2624585113823972,5.388690394895852,-0.9294551396947772,0,2024-09-26 21:13:15.192011963,1727385195.1920125,2024-09-26 21:13:15.192012544,1,1.0,0.1,1.4854222890512436,[0.24067175 0.75932825],[0.24067175 0.75932825],"[ 0.77777778  0.1953125   0.390625    1.          0.          1.
  1.          0.          1.          0.2265625  -0.8         0.5       ]",0.14503106821308526,0,0
156,163,2024-09-26 21:13:13.840440064,TASK_BEGIN,19,-0.7284658263751801,0.0537255421712207,3.468183749914777,1.5722170755599545,2.1465889317716687,-0.2713924180154811,5.714416071299884,-0.9804133478883468,0,2024-09-26 21:13:15.192011963,1727385195.1920125,2024-09-26 21:13:15.192012544,1,1.0,0.1,1.4854222890512436,[0.24067175 0.75932825],[0.24067175 0.75932825],"[ 0.77777778  0.1953125   0.390625    1.          0.          1.
  1.          0.          1.          0.2265625  -0.8         0.5       ]",0.14503106821308526,0,0
157,164,2024-09-26 21:13:13.912050944,TASK_BEGIN,19,-0.7530516985890713,0.0532800363461748,3.6157998671778775,1.5608398883675263,2.1696745001547617,-0.2823180963157072,6.020328164552747,-1.027966007459323,0,2024-09-26 21:13:15.192011963,1727385195.1920125,2024-09-26 21:13:15.192012544,1,1.0,0.1,1.4854222890512436,[0.24067175 0.75932825],[0.24067175 0.75932825],"[ 0.77777778  0.1953125   0.390625    1.          0.          1.
  1.          0.          1.          0.2265625  -0.8         0.5       ]",0.14503106821308526,0,0
158,165,2024-09-26 21:13:13.978827776,TASK_BEGIN,19,-0.7734253646719881,0.0496540746310753,3.716447328069808,1.558680238232692,2.1896459826208763,-0.2945541267071883,6.316910515334235,-1.0731882906994972,0,2024-09-26 21:13:15.192011963,1727385195.1920125,2024-09-26 21:13:15.192012544,1,1.0,0.1,1.4854222890512436,[0.24067175 0.75932825],[0.24067175 0.75932825],"[ 0.77777778  0.1953125   0.390625    1.          0.          1.
  1.          0.          1.          0.2265625  -0.8         0.5       ]",0.14503106821308526,0,0
159,166,2024-09-26 21:13:14.045598976,TASK_BEGIN,19,-0.7893289799661771,0.0428381856463844,3.763017934460489,1.5662689872753504,2.2034736496377936,-0.3074989118929722,6.618696276509122,-1.117628735297776,0,2024-09-26 21:13:15.192011963,1727385195.1920125,2024-09-26 21:13:15.192012544,1,1.0,0.1,1.4854222890512436,[0.24067175 0.75932825],[0.24067175 0.75932825],"[ 0.77777778  0.1953125   0.390625    1.          0.          1.
  1.          0.          1.          0.2265625  -0.8         0.5       ]",0.14503106821308526,0,0
160,167,2024-09-26 21:13:14.102487040,TASK_BEGIN,19,-0.8011586990150796,0.0330672729038107,3.753913617534371,1.583145894045643,2.2087081400627544,-0.3206434813057999,6.941616605438401,-1.1628520223615533,0,2024-09-26 21:13:15.192011963,1727385195.1920125,2024-09-26 21:13:15.192012544,1,1.0,0.1,1.4854222890512436,[0.24067175 0.75932825],[0.24067175 0.75932825],"[ 0.77777778  0.1953125   0.390625    1.          0.          1.
  1.          0.          1.          0.2265625  -0.8         0.5       ]",0.14503106821308526,0,0
161,168,2024-09-26 21:13:15.060928256,TASK_BEGIN,19,-0.8097543513414798,0.0207859679415756,3.692260795288064,1.608002032149363,2.203591852813433,-0.3335687687877243,7.300044476726685,-1.2100336555979492,0,2024-09-26 21:13:16.262716064,1727385196.262717,2024-09-26 21:13:16.262716928,1,0.0,0.1,3.1055091413092217,[0.98902391 0.01097609],[0.98902391 0.01097609],"[ 0.48611111  0.1953125   0.390625    0.98611111  0.21484375  0.41015625
  1.          0.          1.          0.30273438  1.         -0.16666667]",0.45047113073367484,0,0
162,169,2024-09-26 21:13:15.127707136,TASK_BEGIN,19,-0.8161704174858809,0.0065918338354331,3.584432719724626,1.6389514503994689,2.18718539226573,-0.3459465193865703,7.704010140969085,-1.2596748588133355,0,2024-09-26 21:13:16.262716064,1727385196.262717,2024-09-26 21:13:16.262716928,1,0.0,0.1,3.1055091413092217,[0.98902391 0.01097609],[0.98902391 0.01097609],"[ 0.48611111  0.1953125   0.390625    0.98611111  0.21484375  0.41015625
  1.          0.          1.          0.30273438  1.         -0.16666667]",0.45047113073367484,0,0
163,170,2024-09-26 21:13:15.194488064,TASK_BEGIN,19,-0.821492878105108,-0.0088198762414413,3.4383992752203465,1.6738393965584444,2.1594537828125504,-0.3575493640913719,8.15720912477888,-1.3114950523105342,0,2024-09-26 21:13:16.262716064,1727385196.262717,2024-09-26 21:13:16.262716928,1,0.0,0.1,3.1055091413092217,[0.98902391 0.01097609],[0.98902391 0.01097609],"[ 0.48611111  0.1953125   0.390625    0.98611111  0.21484375  0.41015625
  1.          0.          1.          0.30273438  1.         -0.16666667]",0.45047113073367484,0,0
164,171,2024-09-26 21:13:15.261283072,TASK_BEGIN,19,-0.8266784104883252,-0.0247027562138737,3.26222233235731,1.7105524513435355,2.12131120538556,-0.3682723254367304,8.656211397930266,-1.3645312666011309,0,2024-09-26 21:13:16.262716064,1727385196.262717,2024-09-26 21:13:16.262716928,1,0.0,0.1,3.1055091413092217,[0.98902391 0.01097609],[0.98902391 0.01097609],"[ 0.48611111  0.1953125   0.390625    0.98611111  0.21484375  0.41015625
  1.          0.          1.          0.30273438  1.         -0.16666667]",0.45047113073367484,0,0
165,172,2024-09-26 21:13:15.322263040,TASK_BEGIN,19,-0.8323710782781536,-0.0403040936873191,3.062901795122912,1.7473084961482688,2.0746441187659395,-0.3781612918480445,9.190763641173518,-1.4173647183295326,0,2024-09-26 21:13:16.262716064,1727385196.262717,2024-09-26 21:13:16.262716928,1,0.0,0.1,3.1055091413092217,[0.98902391 0.01097609],[0.98902391 0.01097609],"[ 0.48611111  0.1953125   0.390625    0.98611111  0.21484375  0.41015625
  1.          0.          1.          0.30273438  1.         -0.16666667]",0.45047113073367484,0,0
166,173,2024-09-26 21:13:15.394827776,TASK_BEGIN,19,-0.8386951110682189,-0.054912462343453,2.8458354525050744,1.782849670825328,2.022292777840972,-0.3874304425082168,9.744747469488772,-1.4683073977200625,0,2024-09-26 21:13:16.262716064,1727385196.262717,2024-09-26 21:13:16.262716928,1,0.0,0.1,3.1055091413092217,[0.98902391 0.01097609],[0.98902391 0.01097609],"[ 0.48611111  0.1953125   0.390625    0.98611111  0.21484375  0.41015625
  1.          0.          1.          0.30273438  1.         -0.16666667]",0.45047113073367484,0,0
167,174,2024-09-26 21:13:15.461599232,TASK_BEGIN,19,-0.8450757384067455,-0.0679034167829287,2.615040020062751,1.816460569723204,1.9679605163670395,-0.3964509805377875,10.297320958304727,-1.5154402428222211,0,2024-09-26 21:13:16.515717041,1727385196.5157173,2024-09-26 21:13:16.515717376,1,0.0,0.1,3.4434077942585635,[0.99867365 0.00132635],[0.99867365 0.00132635],"[ 0.41666667  0.1953125   0.390625    0.91666667  0.21484375  0.41015625
  1.          0.          1.          0.27148438 -0.5         0.4       ]",0.3450059267222609,0,0
168,175,2024-09-26 21:13:16.386568192,TASK_BEGIN,19,-0.8501530175252104,-0.0787751468295601,2.3740008288035983,1.8478230468534227,1.916055343912523,-0.4057101757288111,10.824073792773536,-1.5565725629556897,0,2024-09-26 21:13:17.782283936,1727385197.7822843,2024-09-26 21:13:17.782284288,1,0.0,0.1,5.747474671965241,[9.99999814e-01 1.86096603e-07],[9.99999814e-01 1.86096603e-07],"[0.06944444 0.1953125  0.390625   0.56944444 0.21484375 0.41015625
 1.         0.         1.         0.25585938 0.4        0.1       ]",0.3392652542126832,0,0
169,176,2024-09-26 21:13:16.453346816,TASK_BEGIN,19,-0.8518438745135009,-0.0871651202930067,2.126780721958689,1.876806922799543,1.8714952145879336,-0.4157572850932773,11.298529092672435,-1.5892997581785626,0,2024-09-26 21:13:17.882285156,1727385197.8822856,2024-09-26 21:13:17.882285568,1,0.0,0.1,5.832099925993132,[9.99987453e-01 1.25472148e-05],[9.99987453e-01 1.25472148e-05],"[0.04166667 0.1953125  0.390625   0.54166667 0.21484375 0.41015625
 1.         0.         1.         0.27734375 0.6        0.03333333]",0.41984734938289225,0,0
170,177,2024-09-26 21:13:16.512605952,TASK_BEGIN,19,-0.8475963237182742,-0.0928422461481216,1.8789437665354416,1.9032920894789296,1.8394773488779423,-0.4271545915382438,11.694341060996102,-1.6112395537624165,0,2024-09-26 21:13:17.932311035,1727385197.9323113,2024-09-26 21:13:17.932311296,1,0.0,0.1,5.873778926733201,[9.99877833e-01 1.22166901e-04],[9.99877833e-01 1.22166901e-04],"[0.02777778 0.1953125  0.390625   0.52777778 0.21484375 0.41015625
 1.         0.         1.         0.29101562 0.7        0.        ]",0.5113444746709103,0,0
171,178,2024-09-26 21:13:16.586918144,TASK_BEGIN,19,-0.8348203938898382,-0.0956823549400629,1.6379634478464404,1.927058899884868,1.825161185879363,-0.4404351226229298,11.987972320879988,-1.6203665137678986,0,2024-09-26 21:13:17.983313965,1727385197.983314,2024-09-26 21:13:17.983313920,1,0.0,0.1,5.9150411374658685,[9.99342889e-01 6.57111402e-04],[9.99342889e-01 6.57111402e-04],"[ 0.01388889  0.1953125   0.390625    0.51388889  0.21484375  0.41015625
  1.          0.          1.          0.30664062  0.8        -0.03333333]",0.643807022109568,0,0
172,179,2024-09-26 21:13:16.653701120,TASK_BEGIN,19,-0.8113762897209892,-0.0956458618761806,1.412958262947238,1.947777040831289,1.8332302024375695,-0.4560539187542133,12.161290050979227,-1.6153309172879302,0,2024-09-26 21:13:17.983313965,1727385197.983314,2024-09-26 21:13:17.983313920,1,0.0,0.1,5.9150411374658685,[9.99342889e-01 6.57111402e-04],[9.99342889e-01 6.57111402e-04],"[ 0.01388889  0.1953125   0.390625    0.51388889  0.21484375  0.41015625
  1.          0.          1.          0.30664062  0.8        -0.03333333]",0.643807022109568,0,0
173,180,2024-09-26 21:13:16.719759104,TASK_BEGIN,19,-0.7759536318365245,-0.0927719565754664,1.21382197559558,1.9651174871858668,1.867376022265748,-0.4743256175767545,12.203579384807687,-1.5956882882697536,0,2024-09-26 21:13:18.135283936,1727385198.135284,2024-09-26 21:13:18.135283968,1,0.0,0.1,6.036368500641994,[0.97962779 0.02037221],[0.97962779 0.02037221],"[-0.02777778  0.1953125   0.390625    0.47222222  0.21484375  0.41015625
  0.97222222  0.33203125  0.52734375  0.36328125  1.         -0.13333333]",0.6493445924616754,0,0
174,181,2024-09-26 21:13:16.786957056,TASK_BEGIN,19,-0.728229586008761,-0.0871901383037793,1.0501195225793678,1.9789116223563403,1.9298211553376856,-0.4953614699735189,12.11245859172806,-1.561970800763857,0,2024-09-26 21:13:18.135283936,1727385198.135284,2024-09-26 21:13:18.135283968,1,0.0,0.1,6.036368500641994,[0.97962779 0.02037221],[0.97962779 0.02037221],"[-0.02777778  0.1953125   0.390625    0.47222222  0.21484375  0.41015625
  0.97222222  0.33203125  0.52734375  0.36328125  1.         -0.13333333]",0.6493445924616754,0,0
175,182,2024-09-26 21:13:17.734585088,TASK_BEGIN,19,-0.6688015674298664,-0.079137786000249,0.9301710732264344,1.9892139482921136,2.021002276015825,-0.5190278401675015,11.893254067907003,-1.5155445660771658,0,2024-09-26 21:13:18.593282959,1727385198.5932832,2024-09-26 21:13:18.593283072,1,0.0,0.1,6.379154262667014,[0.99787106 0.00212894],[0.99787106 0.00212894],"[-0.15277778  0.1953125   0.390625    0.34722222  0.21484375  0.41015625
  0.84722222  0.33203125  0.52734375  0.26367188 -0.6         0.43333333]",0.34831690919474756,1,1
176,183,2024-09-26 21:13:17.802544128,TASK_BEGIN,19,-0.5990026743615787,-0.0689637051946861,0.8604476879608112,1.9962174442939773,2.139465387621428,-0.5449358723934851,11.556988968538963,-1.458276232239446,0,2024-09-26 21:13:18.694282959,1727385198.6942835,2024-09-26 21:13:18.694283520,1,0.0,0.1,6.45120909283994,[9.99637818e-01 3.62182408e-04],[9.99637818e-01 3.62182408e-04],"[-0.18055556  0.1953125   0.390625    0.31944444  0.21484375  0.41015625
  0.81944444  0.33203125  0.52734375  0.24609375 -0.4         0.36666667]",0.3375641699449548,1,1
177,184,2024-09-26 21:13:17.870172160,TASK_BEGIN,19,-0.5207442035127533,-0.0571009675533466,0.8452023965996266,2.0000959037289627,2.281956972281165,-0.5724616438553632,11.11786666170838,-1.3921320649774291,0,2024-09-26 21:13:19.304423096,1727385199.3044236,2024-09-26 21:13:19.304423680,1,0.0,1.0,7.7544054270095595,[9.99973171e-01 2.68290340e-05],[9.99973171e-01 2.68290340e-05],"[ 0.15277778  0.21484375  0.41015625  0.65277778  0.33203125  0.52734375
  1.          0.          1.          0.3046875   0.8        -0.03333333]",0.4928055770823257,1,1
178,185,2024-09-26 21:13:17.936510976,TASK_BEGIN,19,-0.4364314860973709,-0.044015620011005,0.886302845178085,2.000859823501705,2.4436599918668844,-0.6007946040101328,10.59120345481739,-1.3188566893870908,0,2024-09-26 21:13:19.354423096,1727385199.3544235,2024-09-26 21:13:19.354423552,1,0.0,0.1,7.7768613727394635,[0.9976312 0.0023688],[0.9976312 0.0023688],"[ 0.13888889  0.21484375  0.41015625  0.63888889  0.33203125  0.52734375
  1.          0.          1.          0.32226562  0.9        -0.06666667]",0.688780633688194,1,1
179,186,2024-09-26 21:13:18.002477056,TASK_BEGIN,19,-0.3488734034665062,-0.0301604746980366,0.9832311173744714,1.9982658346862927,2.618473395911184,-0.6289996840732143,9.992167587968147,-1.239803343089581,0,2024-09-26 21:13:19.354423096,1727385199.3544235,2024-09-26 21:13:19.354423552,1,0.0,0.1,7.7768613727394635,[0.9976312 0.0023688],[0.9976312 0.0023688],"[ 0.13888889  0.21484375  0.41015625  0.63888889  0.33203125  0.52734375
  1.          0.          1.          0.32226562  0.9        -0.06666667]",0.688780633688194,1,1
180,187,2024-09-26 21:13:18.070484992,TASK_BEGIN,19,-0.2611068796082439,-0.0159570506918686,1.1331485081392008,1.9918082845783391,2.799242072990642,-0.6560707169010999,9.33518865741925,-1.155908170565201,0,2024-09-26 21:13:19.354423096,1727385199.3544235,2024-09-26 21:13:19.354423552,1,0.0,0.1,7.7768613727394635,[0.9976312 0.0023688],[0.9976312 0.0023688],"[ 0.13888889  0.21484375  0.41015625  0.63888889  0.33203125  0.52734375
  1.          0.          1.          0.32226562  0.9        -0.06666667]",0.688780633688194,1,1
181,188,2024-09-26 21:13:18.136139776,TASK_BEGIN,19,-0.176167212711903,-0.0018004854120565,1.3309678089552708,1.980817207867207,2.9779837839602945,-0.680976733241444,8.633908834702643,-1.0677876545204517,0,2024-09-26 21:13:19.354423096,1727385199.3544235,2024-09-26 21:13:19.354423552,1,0.0,0.1,7.7768613727394635,[0.9976312 0.0023688],[0.9976312 0.0023688],"[ 0.13888889  0.21484375  0.41015625  0.63888889  0.33203125  0.52734375
  1.          0.          1.          0.32226562  0.9        -0.06666667]",0.688780633688194,1,1
182,189,2024-09-26 21:13:19.084144128,TASK_BEGIN,19,-0.0969004664930525,0.0119358638209726,1.5695070166161595,1.964636541419276,3.146272363101685,-0.702727407813933,7.901579445489649,-0.9759250590133434,0,2024-09-26 21:13:20.012562988,1727385200.0125632,2024-09-26 21:13:20.012563200,1,1.0,0.1,8.049149117537809,[0.72736982 0.27263018],[0.9906594 0.0093406],"[-0.04166667  0.21484375  0.41015625  0.45833333  0.33203125  0.52734375
  1.          0.          1.          0.20898438 -0.8         0.5       ]",0.17565886747006357,1,1
183,190,2024-09-26 21:13:19.153511936,TASK_BEGIN,19,-0.0258574579929657,0.0249106387185055,1.8398507144616925,1.942801051810947,3.2958755376130373,-0.7204721620717638,7.151536463457989,-0.8808499991060882,0,2024-09-26 21:13:20.012562988,1727385200.0125632,2024-09-26 21:13:20.012563200,1,1.0,0.1,8.049149117537809,[0.72736982 0.27263018],[0.9906594 0.0093406],"[-0.04166667  0.21484375  0.41015625  0.45833333  0.33203125  0.52734375
  1.          0.          1.          0.20898438 -0.8         0.5       ]",0.17565886747006357,1,1
184,191,2024-09-26 21:13:19.220308992,TASK_BEGIN,19,0.0347768665419606,0.0368342453473487,2.1319246052140306,1.9151498826305604,3.4195787360290524,-0.7336162185096812,6.397302621348208,-0.7832045811297312,0,2024-09-26 21:13:20.162821045,1727385200.162821,2024-09-26 21:13:20.162821120,1,1.0,0.1,8.107091339597819,[0.28350891 0.71649109],[0.03643886 0.96356114],"[-0.08333333  0.21484375  0.41015625  0.41666667  0.33203125  0.52734375
  0.99166667  0.1953125   0.390625    0.16796875 -0.8         0.5       ]",0.10977299911651399,1,1
185,192,2024-09-26 21:13:19.287121152,TASK_BEGIN,19,0.0832625092980802,0.0474863699595835,2.4350979054148247,1.8818956484137737,3.5119722875877053,-0.7419141745204441,5.6524113013274375,-0.6837068064495713,0,2024-09-26 21:13:20.162821045,1727385200.162821,2024-09-26 21:13:20.162821120,1,1.0,0.1,8.107091339597819,[0.28350891 0.71649109],[0.03643886 0.96356114],"[-0.08333333  0.21484375  0.41015625  0.41666667  0.33203125  0.52734375
  0.99166667  0.1953125   0.390625    0.16796875 -0.8         0.5       ]",0.10977299911651399,1,1
186,193,2024-09-26 21:13:19.353868032,TASK_BEGIN,19,0.1183825192451852,0.0567259344573349,2.7385890511173048,1.843703622182652,3.569956977563485,-0.7455028910539354,4.930619178765953,-0.5831391900337952,0,2024-09-26 21:13:20.518821045,1727385200.518822,2024-09-26 21:13:20.518821888,1,0.0,0.1,8.235685430886083,[0.31490316 0.68509684],[0.11135249 0.88864751],"[-0.18055556  0.21484375  0.41015625  0.31944444  0.33203125  0.52734375
  0.89444444  0.1953125   0.390625    0.08007812 -0.4         0.36666667]",0.08404601973746148,1,1
187,194,2024-09-26 21:13:19.420604928,TASK_BEGIN,19,0.139499495633619,0.0644919506166749,3.0315769540800903,1.8017880096004215,3.5928764146567893,-0.744866753590793,4.246765910037577,-0.4824413127782744,0,2024-09-26 21:13:20.518821045,1727385200.518822,2024-09-26 21:13:20.518821888,1,0.0,0.1,8.235685430886083,[0.31490316 0.68509684],[0.11135249 0.88864751],"[-0.18055556  0.21484375  0.41015625  0.31944444  0.33203125  0.52734375
  0.89444444  0.1953125   0.390625    0.08007812 -0.4         0.36666667]",0.08404601973746148,1,1
188,195,2024-09-26 21:13:19.475870208,TASK_BEGIN,19,0.1465799069800659,0.0707945377182702,3.3030826334337062,1.757971321666352,3.582339273226834,-0.7407592719941035,3.617605739248427,-0.3828452367415982,0,2024-09-26 21:13:20.518821045,1727385200.518822,2024-09-26 21:13:20.518821888,1,0.0,0.1,8.235685430886083,[0.31490316 0.68509684],[0.11135249 0.88864751],"[-0.18055556  0.21484375  0.41015625  0.31944444  0.33203125  0.52734375
  0.89444444  0.1953125   0.390625    0.08007812 -0.4         0.36666667]",0.08404601973746148,1,1
189,200,2024-09-26 21:13:20.703960832,TASK_BEGIN,19,0.0024967224077108,0.0847720435355254,3.9824680559737287,1.5949168319298686,3.182640957692384,-0.7010224387022631,1.953643587362883,0.0299968046970895,0,2024-09-26 21:13:22.123013916,1727385202.123014,2024-09-26 21:13:22.123013888,2,1.0,0.1,0.1,[0.39891216 0.60108784],[0.39891216 0.60108784],"[ 0.98611111  0.2734375   0.46875     1.          0.          1.
  1.          0.          1.          0.4609375  -0.8         0.5       ]",0.02002946236009554,0,0
190,201,2024-09-26 21:13:20.770612992,TASK_BEGIN,19,-0.0537576739802007,0.0858992795661774,3.943847815921135,1.5860608994603704,3.071275201419577,-0.695122369387201,2.031964589912367,0.077585741100651,0,2024-09-26 21:13:22.173011963,1727385202.1730123,2024-09-26 21:13:22.173012224,2,1.0,0.1,0.199,[0.37238484 0.62761516],[0.37238484 0.62761516],"[ 0.97222222  0.2734375   0.46875     1.          0.          1.
  1.          0.          1.          0.4453125  -0.8         0.5       ]",0.031928734252951015,0,0
191,202,2024-09-26 21:13:20.837557248,TASK_BEGIN,19,-0.1166211095426714,0.0873991983591231,3.8530535377709016,1.5858841210351295,2.961855347925758,-0.6913386132233718,2.2680647566008174,0.1066857261064147,0,2024-09-26 21:13:22.273010986,1727385202.2730112,2024-09-26 21:13:22.273011200,2,1.0,0.1,0.3940399,[0.36192904 0.63807096],[0.36192904 0.63807096],"[ 0.94444444  0.2734375   0.46875     1.          0.          1.
  1.          0.          1.          0.4140625  -0.8         0.5       ]",0.03645359290749813,0,0
192,203,2024-09-26 21:13:21.783181824,TASK_BEGIN,19,-0.1849251612314218,0.0896958842479949,3.7211877314388286,1.5930910901432531,2.859065468930651,-0.6900475856818786,2.6590300856460045,0.1145621747056656,0,2024-09-26 21:13:23.190012939,1727385203.1900136,2024-09-26 21:13:23.190013696,2,0.0,0.1,1.9836941046095409,[0.98917485 0.01082515],[0.98917485 0.01082515],"[ 0.69444444  0.2734375   0.46875     1.          0.          1.
  1.          0.          1.          0.16210938 -0.3         0.33333333]",0.30027610136788974,0,0
193,204,2024-09-26 21:13:21.844763904,TASK_BEGIN,19,-0.2571710588544279,0.0931334213024722,3.562127682200432,1.6056510270696407,2.767009571184037,-0.6915103036930218,3.195270749241842,0.0990348223258501,0,2024-09-26 21:13:23.240011963,1727385203.2400126,2024-09-26 21:13:23.240012544,2,0.0,0.1,2.0638571635634455,[0.99836586 0.00163414],[0.99836586 0.00163414],"[ 0.68055556  0.2734375   0.46875     1.          0.          1.
  1.          0.          1.          0.15820312 -0.2         0.3       ]",0.32814682163513,0,0
194,205,2024-09-26 21:13:21.920659200,TASK_BEGIN,19,-0.3314773073802879,0.0979314559986645,3.390927187842081,1.6209894536158551,2.6891040156942827,-0.6958718467874327,3.861135916049746,0.0587787785928318,0,2024-09-26 21:13:23.292011963,1727385203.2920127,2024-09-26 21:13:23.292012800,2,0.0,0.1,2.1432185919278113,[9.99733801e-01 2.66199314e-04],[9.99733801e-01 2.66199314e-04],"[ 0.66666667  0.2734375   0.46875     1.          0.          1.
  1.          0.          1.          0.15625    -0.1         0.26666667]",0.32856424714199334,0,0
195,206,2024-09-26 21:13:21.984939264,TASK_BEGIN,19,-0.4055995817668346,0.1041466501376603,3.222163536191806,1.6363511338806749,2.6280454412415186,-0.7031715205109549,4.635411544050751,-0.0063382176567452,0,2024-09-26 21:13:23.292011963,1727385203.2920127,2024-09-26 21:13:23.292012800,2,0.0,0.1,2.1432185919278113,[9.99733801e-01 2.66199314e-04],[9.99733801e-01 2.66199314e-04],"[ 0.66666667  0.2734375   0.46875     1.          0.          1.
  1.          0.          1.          0.15625    -0.1         0.26666667]",0.32856424714199334,0,0
196,207,2024-09-26 21:13:22.054199040,TASK_BEGIN,19,-0.4769836474875618,0.11164166385938,3.0685997215335963,1.6492277572554133,2.5858048236704856,-0.7133615572432049,5.491558335428044,-0.0949620975544029,0,2024-09-26 21:13:23.292011963,1727385203.2920127,2024-09-26 21:13:23.292012800,2,0.0,0.1,2.1432185919278113,[9.99733801e-01 2.66199314e-04],[9.99733801e-01 2.66199314e-04],"[ 0.66666667  0.2734375   0.46875     1.          0.          1.
  1.          0.          1.          0.15625    -0.1         0.26666667]",0.32856424714199334,0,0
197,208,2024-09-26 21:13:22.121040896,TASK_BEGIN,19,-0.5428649905001635,0.1200755131427447,2.94026692807665,1.6577065851565431,2.563597573253849,-0.7263217938966073,6.398307032688234,-0.2041424640364376,0,2024-09-26 21:13:23.292011963,1727385203.2920127,2024-09-26 21:13:23.292012800,2,0.0,0.1,2.1432185919278113,[9.99733801e-01 2.66199314e-04],[9.99733801e-01 2.66199314e-04],"[ 0.66666667  0.2734375   0.46875     1.          0.          1.
  1.          0.          1.          0.15625    -0.1         0.26666667]",0.32856424714199334,0,0
198,209,2024-09-26 21:13:22.187300096,TASK_BEGIN,19,-0.6004380277506387,0.1289290558353879,2.8439799020839667,1.660672685401619,2.561839469786797,-0.7418658726836951,7.321119000564581,-0.3294564812049648,0,2024-09-26 21:13:23.292011963,1727385203.2920127,2024-09-26 21:13:23.292012800,2,0.0,0.1,2.1432185919278113,[9.99733801e-01 2.66199314e-04],[9.99733801e-01 2.66199314e-04],"[ 0.66666667  0.2734375   0.46875     1.          0.          1.
  1.          0.          1.          0.15625    -0.1         0.26666667]",0.32856424714199334,0,0
199,210,2024-09-26 21:13:23.133172992,TASK_BEGIN,19,-0.6470969158993564,0.1375706756614848,2.7833838718549093,1.6578636697104745,2.580129237884715,-0.7597449315886777,8.224206069252928,-0.4652820980364807,0,2024-09-26 21:13:24.156979980,1727385204.1569805,2024-09-26 21:13:24.156980480,2,0.0,0.1,3.377179590160165,[0.99801272 0.00198728],[0.99801272 0.00198728],"[ 0.43055556  0.2734375   0.46875     0.93055556  0.21484375  0.41015625
  1.          0.          1.          0.38085938  1.         -0.3       ]",0.5912115835765546,0,0
200,211,2024-09-26 21:13:23.204323072,TASK_BEGIN,19,-0.6807328445266556,0.1453538502414778,2.759485047652157,1.6497837015721992,2.617265387183775,-0.7796505165213955,9.07247978786216,-0.605115928129771,0,2024-09-26 21:13:24.156979980,1727385204.1569805,2024-09-26 21:13:24.156980480,2,0.0,0.1,3.377179590160165,[0.99801272 0.00198728],[0.99801272 0.00198728],"[ 0.43055556  0.2734375   0.46875     0.93055556  0.21484375  0.41015625
  1.          0.          1.          0.38085938  1.         -0.3       ]",0.5912115835765546,0,0
201,212,2024-09-26 21:13:23.271106048,TASK_BEGIN,19,-0.7000283520341212,0.1517188214207459,2.771260671939582,1.6374938478959005,2.671250626091916,-0.8012091570007812,9.83329365777059,-0.7419201772190236,0,2024-09-26 21:13:24.156979980,1727385204.1569805,2024-09-26 21:13:24.156980480,2,0.0,0.1,3.377179590160165,[0.99801272 0.00198728],[0.99801272 0.00198728],"[ 0.43055556  0.2734375   0.46875     0.93055556  0.21484375  0.41015625
  1.          0.          1.          0.38085938  1.         -0.3       ]",0.5912115835765546,0,0
202,213,2024-09-26 21:13:23.332751872,TASK_BEGIN,19,-0.7046441676743527,0.1562628974476207,2.816002348851414,1.622323637760554,2.7392426704722688,-0.8239636590573802,10.478284894164489,-0.8685491658678508,0,2024-09-26 21:13:24.208982910,1727385204.2089837,2024-09-26 21:13:24.208983552,2,0.0,0.1,3.4434077942585635,[0.94769791 0.05230209],[0.94769791 0.05230209],"[ 0.41666667  0.2734375   0.46875     0.91666667  0.21484375  0.41015625
  1.          0.          1.          0.40039062  1.         -0.33333333]",0.5798158040743194,0,0
203,214,2024-09-26 21:13:23.393922048,TASK_BEGIN,19,-0.6952199333637645,0.1587622283392612,2.889626704774792,1.6055354286721717,2.8175175379592807,-0.8473532293618137,10.985349417986892,-0.9782617067871526,0,2024-09-26 21:13:24.411439941,1727385204.4114404,2024-09-26 21:13:24.411440384,2,0.0,0.1,3.7017636879676767,[9.99946619e-01 5.33811577e-05],[9.99946619e-01 5.33811577e-05],"[ 0.36111111  0.2734375   0.46875     0.86111111  0.21484375  0.41015625
  1.          0.          1.          0.34960938 -0.5         0.4       ]",0.33830124109208126,0,0
204,215,2024-09-26 21:13:23.470753792,TASK_BEGIN,19,-0.6731879691105024,0.1591538377473202,2.9873403923187376,1.5879722200236452,2.901594479895451,-0.870717516290766,11.3401868544641,-1.0652269860181436,0,2024-09-26 21:13:24.915033203,1727385204.9150333,2024-09-26 21:13:24.915033344,2,0.0,0.1,4.303987975228407,[9.99845320e-01 1.54679572e-04],[9.99845320e-01 1.54679572e-04],"[0.22222222 0.2734375  0.46875    0.72222222 0.21484375 0.41015625
 1.         0.         1.         0.359375   0.5        0.06666667]",0.47257930221962957,0,0
205,216,2024-09-26 21:13:23.533740032,TASK_BEGIN,19,-0.640475922408104,0.1575002553054858,3.104533388514987,1.5697882096844171,2.9865905232816514,-0.8933380680623757,11.536815049452937,-1.1249118447146975,0,2024-09-26 21:13:24.966031006,1727385204.9660316,2024-09-26 21:13:24.966031616,2,0.0,0.1,4.360948095476123,[0.9855428 0.0144572],[0.9855428 0.0144572],"[0.20833333 0.2734375  0.46875    0.70833333 0.21484375 0.41015625
 1.         0.         1.         0.37109375 0.6        0.03333333]",0.6375792306715837,1,2
206,217,2024-09-26 21:13:24.459037184,TASK_BEGIN,19,-0.5992143617314817,0.1539572519400103,3.237577604346608,1.5503697675170562,3.0677225448712973,-0.9145035202420894,11.577033384720933,-1.154311805945292,0,2024-09-26 21:13:25.420782959,1727385205.420783,2024-09-26 21:13:25.420783104,2,1.0,0.1,5.7045198706719615,[0.73067035 0.26932965],[9.99013145e-01 9.86854903e-04],"[ 0.08333333  0.2734375   0.46875     0.58333333  0.21484375  0.41015625
  1.          0.          1.          0.28125    -0.8         0.5       ]",0.05537740503646861,1,2
207,218,2024-09-26 21:13:24.518209024,TASK_BEGIN,19,-0.5515273697717274,0.1487504909451255,3.384390346478677,1.528468926822675,3.140804762173365,-0.9335702585901772,11.469159284549738,-1.1520305449870474,0,2024-09-26 21:13:25.420782959,1727385205.420783,2024-09-26 21:13:25.420783104,2,1.0,0.1,5.7045198706719615,[0.73067035 0.26932965],[9.99013145e-01 9.86854903e-04],"[ 0.08333333  0.2734375   0.46875     0.58333333  0.21484375  0.41015625
  1.          0.          1.          0.28125    -0.8         0.5       ]",0.05537740503646861,1,2
208,219,2024-09-26 21:13:24.595628800,TASK_BEGIN,19,-0.4994125630688912,0.1421541794559148,3.544553717682368,1.5025187301920069,3.202601509565417,-0.9499993612008888,11.226214289334834,-1.1181934766364243,0,2024-09-26 21:13:25.471782959,1727385205.4717832,2024-09-26 21:13:25.471783168,2,1.0,-1.0,4.6474746719652416,[0.63663771 0.36336229],[0.78040019 0.21959981],"[ 0.06944444  0.2734375   0.46875     0.56944444  0.21484375  0.41015625
  1.          0.          1.          0.265625   -0.8         0.5       ]",0.04604741180249452,1,2
209,224,2024-09-26 21:13:25.802636032,TASK_BEGIN,19,-0.2302621645754219,0.0982842556891371,4.581154553421595,1.2783768672680398,3.3027745668040147,-0.9819885057716236,8.54719404085734,-0.5601847870897164,0,2024-09-26 21:13:27.176013916,1727385207.1760144,2024-09-26 21:13:27.176014336,3,1.0,0.1,0.3940399,[0.35069191 0.64930809],[0.35069191 0.64930809],"[ 0.94444444  0.234375    0.4296875   1.          0.          1.
  1.          0.          1.          0.4140625  -0.8         0.5       ]",0.04451272614115739,0,0
210,225,2024-09-26 21:13:25.873449984,TASK_BEGIN,19,-0.1839027551569903,0.0888693752368658,4.84046597177012,1.21486021623588,3.2849675595509527,-0.9779564394053804,7.833409002690703,-0.399669373196608,0,2024-09-26 21:13:27.277014893,1727385207.2770152,2024-09-26 21:13:27.277015296,3,1.0,0.1,0.58519850599,[0.32915709 0.67084291],[0.32915709 0.67084291],"[ 0.91666667  0.234375    0.4296875   1.          0.          1.
  1.          0.          1.          0.3828125  -0.8         0.5       ]",0.058054498798995095,0,0
211,226,2024-09-26 21:13:25.945161984,TASK_BEGIN,19,-0.142151763755895,0.0794910894775217,5.114569232859844,1.146935049744111,3.258008807209092,-0.9709087890862564,7.098783547218322,-0.2351815819773347,0,2024-09-26 21:13:27.277014893,1727385207.2770152,2024-09-26 21:13:27.277015296,3,1.0,0.1,0.58519850599,[0.32915709 0.67084291],[0.32915709 0.67084291],"[ 0.91666667  0.234375    0.4296875   1.          0.          1.
  1.          0.          1.          0.3828125  -0.8         0.5       ]",0.058054498798995095,0,0
212,227,2024-09-26 21:13:26.011906048,TASK_BEGIN,19,-0.105433623655608,0.0701385735654008,5.399121609316517,1.0760299515840288,3.223597361111327,-0.9612796045532864,6.358725038542978,-0.0724613735000543,0,2024-09-26 21:13:27.277014893,1727385207.2770152,2024-09-26 21:13:27.277015296,3,1.0,0.1,0.58519850599,[0.32915709 0.67084291],[0.32915709 0.67084291],"[ 0.91666667  0.234375    0.4296875   1.          0.          1.
  1.          0.          1.          0.3828125  -0.8         0.5       ]",0.058054498798995095,0,0
213,228,2024-09-26 21:13:26.066105088,TASK_BEGIN,19,-0.074054429629776,0.060783767385798,5.687508880258448,1.003965314460573,3.183421215746085,-0.9495862448047444,5.627364964727913,0.0828881464817774,0,2024-09-26 21:13:27.277014893,1727385207.2770152,2024-09-26 21:13:27.277015296,3,1.0,0.1,0.58519850599,[0.32915709 0.67084291],[0.32915709 0.67084291],"[ 0.91666667  0.234375    0.4296875   1.          0.          1.
  1.          0.          1.          0.3828125  -0.8         0.5       ]",0.058054498798995095,0,0
214,229,2024-09-26 21:13:26.145473024,TASK_BEGIN,19,-0.0483219504210341,0.0514182008002668,5.970807344375049,0.9328627353622068,3.1392014989914694,-0.9363956988148774,4.918390044359299,0.2254783414332017,0,2024-09-26 21:13:27.277014893,1727385207.2770152,2024-09-26 21:13:27.277015296,3,1.0,0.1,0.58519850599,[0.32915709 0.67084291],[0.32915709 0.67084291],"[ 0.91666667  0.234375    0.4296875   1.          0.          1.
  1.          0.          1.          0.3828125  -0.8         0.5       ]",0.058054498798995095,0,0
215,230,2024-09-26 21:13:26.212261888,TASK_BEGIN,19,-0.0285310641818661,0.0420654315565475,6.238372284618689,0.8648812611182312,3.0927096874819315,-0.9222909079885656,4.246794113625249,0.3501357706289154,0,2024-09-26 21:13:27.628017822,1727385207.6280186,2024-09-26 21:13:27.628018688,3,1.0,0.1,1.22478977001032,[0.30767767 0.69232233],[0.30767767 0.69232233],"[ 0.81944444  0.234375    0.4296875   1.          0.          1.
  1.          0.          1.          0.2734375  -0.8         0.5       ]",0.0658346403346736,0,0
216,231,2024-09-26 21:13:27.137193728,TASK_BEGIN,19,-0.0148283047832222,0.0327707616719758,6.478982426595842,0.8019090631495686,3.045724706612386,-0.9078358746780087,3.6305898242217,0.4519302785905789,0,2024-09-26 21:13:28.537012939,1727385208.5370138,2024-09-26 21:13:28.537013760,3,0.0,0.1,2.6769663034560254,[9.99995657e-01 4.34274264e-06],[9.99995657e-01 4.34274264e-06],"[0.56944444 0.234375   0.4296875  1.         0.         1.
 1.         0.         1.         0.2265625  0.7        0.        ]",0.3702001524018712,0,0
217,232,2024-09-26 21:13:27.203418880,TASK_BEGIN,19,-0.0070805601026832,0.0235900786480585,6.682030166860784,0.7454033002355329,2.9999935838795597,-0.8935412903626987,3.091386286014585,0.5263016442175542,0,2024-09-26 21:13:28.639014893,1727385208.6390152,2024-09-26 21:13:28.639015168,3,0.0,0.1,2.8226946740172503,[9.99988793e-01 1.12065798e-05],[9.99988793e-01 1.12065798e-05],"[ 0.54166667  0.234375    0.4296875   1.          0.          1.
  1.          0.          1.          0.25976562  0.9        -0.06666667]",0.40235969754656514,0,0
218,233,2024-09-26 21:13:27.270755072,TASK_BEGIN,19,-0.0048274725777845,0.0145888304303611,6.838294668626574,0.6964363789427792,2.9572716932329297,-0.8798445892762539,2.653528527688658,0.5692768290267064,0,2024-09-26 21:13:28.689013916,1727385208.6890144,2024-09-26 21:13:28.689014528,3,0.0,0.1,2.894467727277078,[9.99960016e-01 3.99836158e-05],[9.99960016e-01 3.99836158e-05],"[ 0.52777778  0.234375    0.4296875   1.          0.          1.
  1.          0.          1.          0.27929688  1.         -0.1       ]",0.4249458288406462,0,0
219,234,2024-09-26 21:13:27.331345920,TASK_BEGIN,19,-0.0072917775713411,0.0058417040301644,6.940280754259586,0.6558389741776013,2.9193918678455293,-0.8671113496697745,2.342430283994465,0.577721088874983,0,2024-09-26 21:13:28.740015137,1727385208.740015,2024-09-26 21:13:28.740015104,3,0.0,0.1,2.965523050004307,[9.99778972e-01 2.21028066e-04],[9.99778972e-01 2.21028066e-04],"[ 0.51388889  0.234375    0.4296875   1.          0.          1.
  1.          0.          1.          0.29882812  1.         -0.13333333]",0.4421042092454955,0,0
220,235,2024-09-26 21:13:27.404324096,TASK_BEGIN,19,-0.0134020504563402,-0.0025757765935174,6.982380908542909,0.624307546708142,2.8882334791642514,-0.8556441811431968,2.182712726680215,0.5495834156084949,0,2024-09-26 21:13:28.740015137,1727385208.740015,2024-09-26 21:13:28.740015104,3,0.0,0.1,2.965523050004307,[9.99778972e-01 2.21028066e-04],[9.99778972e-01 2.21028066e-04],"[ 0.51388889  0.234375    0.4296875   1.          0.          1.
  1.          0.          1.          0.29882812  1.         -0.13333333]",0.4421042092454955,0,0
221,236,2024-09-26 21:13:27.471122944,TASK_BEGIN,19,-0.0218376719493834,-0.0105984029297047,6.960953245488597,0.602432101909413,2.86556237075725,-0.8456850054242357,2.1959181558862184,0.4841574012201641,0,2024-09-26 21:13:28.740015137,1727385208.740015,2024-09-26 21:13:28.740015104,3,0.0,0.1,2.965523050004307,[9.99778972e-01 2.21028066e-04],[9.99778972e-01 2.21028066e-04],"[ 0.51388889  0.234375    0.4296875   1.          0.          1.
  1.          0.          1.          0.29882812  1.         -0.13333333]",0.4421042092454955,0,0
222,237,2024-09-26 21:13:27.537904128,TASK_BEGIN,19,-0.0311312770773985,-0.0181779130284024,6.874143566884274,0.5906810461375199,2.852830737439106,-0.837413613030001,2.397433059149277,0.382366754466226,0,2024-09-26 21:13:28.740015137,1727385208.740015,2024-09-26 21:13:28.740015104,3,0.0,0.1,2.965523050004307,[9.99778972e-01 2.21028066e-04],[9.99778972e-01 2.21028066e-04],"[ 0.51388889  0.234375    0.4296875   1.          0.          1.
  1.          0.          1.          0.29882812  1.         -0.13333333]",0.4421042092454955,0,0
223,238,2024-09-26 21:13:28.487230976,TASK_BEGIN,19,-0.0398287128390225,-0.0252850279947617,6.721333672693542,0.5893943605941475,2.851015645055097,-0.8309483504004934,2.7933806717683924,0.2469594277162793,0,2024-09-26 21:13:29.906326172,1727385209.9063263,2024-09-26 21:13:29.906326272,3,0.0,0.1,4.417338614521361,[0.97575497 0.02424503],[0.97575497 0.02424503],"[ 0.19444444  0.234375    0.4296875   0.69444444  0.3125      0.5078125
  1.          0.          1.          0.34570312  0.8        -0.03333333]",0.7696378247813521,1,2
224,239,2024-09-26 21:13:28.554031872,TASK_BEGIN,19,-0.0466607910784455,-0.0319077306383005,6.502408008359248,0.59879309458506,2.860515666402521,-0.8263457859195404,3.3789957558791706,0.0824305668595733,0,2024-09-26 21:13:29.906326172,1727385209.9063263,2024-09-26 21:13:29.906326272,3,0.0,0.1,4.417338614521361,[0.97575497 0.02424503],[0.97575497 0.02424503],"[ 0.19444444  0.234375    0.4296875   0.69444444  0.3125      0.5078125
  1.          0.          1.          0.34570312  0.8        -0.03333333]",0.7696378247813521,1,2
225,240,2024-09-26 21:13:28.620802048,TASK_BEGIN,19,-0.0506776015195138,-0.0380439080031245,6.217232829015693,0.6189767707119006,2.8811095853829536,-0.8235963641165456,4.138991568854054,-0.1053460979102665,0,2024-09-26 21:13:29.906326172,1727385209.9063263,2024-09-26 21:13:29.906326272,3,0.0,0.1,4.417338614521361,[0.97575497 0.02424503],[0.97575497 0.02424503],"[ 0.19444444  0.234375    0.4296875   0.69444444  0.3125      0.5078125
  1.          0.          1.          0.34570312  0.8        -0.03333333]",0.7696378247813521,1,2
