,time,MARKER,pid,L_O_DSI,L_D_DSI,L_O_DSphi,L_D_DSphi,R_O_DSI,R_D_DSI,R_O_DSphi,R_D_DSphi,trial_id
0,2024-09-14 18:27:35.115314944,TASK_BEGIN,002,-0.44531776185056654,0.004790208335232306,-4.767056376108169,0.9066481001150453,0.7377180730225089,-2.8462660681804492,3.616373250191366,-17.19656999678117,2
1,2024-09-14 18:27:35.175240960,TASK_BEGIN,002,-0.41230464786055887,-0.012848461533359695,-4.768720545975204,0.9896491660205897,1.029103432535356,-2.1395136214957713,18.324093771880513,-17.63484294289626,2
2,2024-09-14 18:27:35.250919168,TASK_BEGIN,002,-0.37969776646858366,-0.02990685773659263,-4.77115779470917,1.0711123737416115,1.323055671135545,-1.4581620899495948,32.57946554536662,-18.052586257125153,2
3,2024-09-14 18:27:35.314041088,TASK_BEGIN,002,-0.3491078286344416,-0.04558785566716669,-4.768912729616061,1.1477689880707709,1.61516047471743,-0.8264017386798055,45.994386460070096,-18.405754937861182,2
4,2024-09-14 18:27:36.257075968,TASK_BEGIN,002,-0.32195436370361713,-0.05919316881436713,-4.75756125472649,1.2167682451241222,1.9014089546276853,-0.26572206487781824,58.223977606406514,-18.652810001837263,2
5,2024-09-14 18:27:36.319098880,TASK_BEGIN,002,-0.2993734964055991,-0.07015688004886865,-4.734125802093323,1.2758419556724498,2.1784182945463,0.20654993076082326,68.9849529488497,-18.758202360358702,2
6,2024-09-14 18:27:36.397157888,TASK_BEGIN,002,-0.28215959808420776,-0.07806475351268184,-4.697094892787321,1.3233647637338184,2.4434925501053844,0.5786582238887318,78.06849863573015,-18.694773592500603,2
7,2024-09-14 18:27:36.464912128,TASK_BEGIN,002,-0.2707524792281495,-0.08266297095198055,-4.64626398199881,1.3583677851855047,2.6943333001941836,0.8454951077963491,85.3463707644534,-18.4444089103322,2
8,2024-09-14 18:27:36.532692992,TASK_BEGIN,002,-0.26528895744079145,-0.08385489038306168,-4.582651456117139,1.3805495633180558,2.928324839461443,1.009022572241059,90.77053113547447,-17.997489893348448,2
9,2024-09-14 18:27:36.600478976,TASK_BEGIN,002,-0.2657041527878772,-0.08168541273953485,-4.5085235993040325,1.3902863306752402,3.1416920626266607,1.0778900386627497,94.36718191037606,-17.35197944804638,2
10,2024-09-14 18:27:36.668248832,TASK_BEGIN,002,-0.27183718726611744,-0.07631679012335402,-4.427349878278961,1.388611782785331,3.3289154630514157,1.0663775141700451,96.22667612889249,-16.512700835895085,2
11,2024-09-14 18:27:37.599193088,TASK_BEGIN,002,-0.2835073058290759,-0.0680013607169639,-4.343496480959356,1.3771216858412878,3.4826045090345574,0.9928488244968895,96.49147499018416,-15.490873238136716,2
12,2024-09-14 18:27:37.679328768,TASK_BEGIN,002,-0.30055367164967434,-0.057056576823495964,-4.2616690564328925,1.357786416801755,3.59394690738239,0.877796000566204,95.34402508594673,-14.303328064322633,2
13,2024-09-14 18:27:37.735936000,TASK_BEGIN,002,-0.3228430075853902,-0.04384667778108252,-4.186308303986144,1.3327127564262053,3.6537313599918315,0.7416516969389654,92.99608615354641,-12.971089478651287,2
14,2024-09-14 18:27:37.812413696,TASK_BEGIN,002,-0.3502489416804615,-0.028770983030895415,-4.121096723297882,1.3039238480305624,3.653676416859885,0.6027428775369068,89.68096198423696,-11.518034621614936,2
15,2024-09-14 18:27:37.882780928,TASK_BEGIN,002,-0.3826035780741684,-0.012254897964940423,-4.0686002247295585,1.2732101471309585,3.5876753633803444,0.47573702698019876,85.64903711052456,-9.97070663952912,2
16,2024-09-14 18:27:37.939259904,TASK_BEGIN,002,-0.4196218496396591,0.0052583450815629346,-4.030044225740044,1.2420705398530691,3.452657852873097,0.3707831788222911,81.16535666956327,-8.359768436528741,2
17,2024-09-14 18:27:38.018223104,TASK_BEGIN,002,-0.46081780997421595,0.02331515360525047,-4.005234647908546,1.2117254523275975,3.2488971944516147,0.29343353387569054,76.50654176863256,-6.72240792091304,2
18,2024-09-14 18:27:38.961817088,TASK_BEGIN,002,-0.5054550760462344,0.04146083993190125,-3.992659092106031,1.1831689824731157,2.979784372479241,0.24526630661054552,71.95355766753177,-5.1037056926015065,2
19,2024-09-14 18:27:39.029636096,TASK_BEGIN,002,-0.5525610923998625,0.05925320399385424,-3.9898557327572135,1.15724160668861,2.651368474523615,0.22492212005643514,67.77807608403872,-3.5550091751880344,2
20,2024-09-14 18:27:39.097476096,TASK_BEGIN,002,-0.6009897468718082,0.07627747543841422,-3.994056792685229,1.1347092810702029,2.272096756922955,0.229151231141574,64.22342548604126,-2.12931163286386,2
21,2024-09-14 18:27:39.165135104,TASK_BEGIN,002,-0.6494913742032002,0.09215804423507648,-4.002914397449215,1.1163227512407459,1.8529737542223697,0.25354920439957407,61.48424343214839,-0.8755707195604601,2
22,2024-09-14 18:27:39.218930944,TASK_BEGIN,002,-0.6967732948160046,0.10656817571721557,-4.015033706645127,1.1028291869460216,1.407901951474979,0.29293678709135695,59.68980533252877,0.16633202938268546,2
23,2024-09-14 18:27:39.296155904,TASK_BEGIN,002,-0.7415665033353067,0.11924266765075184,-4.030165352153845,1.0949249723074084,0.9537315196200428,0.34159739063227856,58.89414682053505,0.9697889438610506,2
24,2024-09-14 18:27:39.368612096,TASK_BEGIN,002,-0.782698216588858,0.12999262922495744,-4.049115571190743,1.0931710341864698,0.5098384317001081,0.3935826391348414,59.073814304842195,1.5246697339137896,2
25,2024-09-14 18:27:40.278542848,TASK_BEGIN,002,-0.8191378023763298,0.1387146004444919,-4.073483431312002,1.0979048254650585,0.09746212562832654,0.4431114416466729,60.1334439567136,1.8382187987326388,2
26,2024-09-14 18:27:40.340912128,TASK_BEGIN,002,-0.8500054297996352,0.14538972945755663,-4.105256149155821,1.109159394170015,-0.2609651769287456,0.48499205057523004,61.91881738661708,1.9326572683212666,2
27,2024-09-14 18:27:40.422411008,TASK_BEGIN,002,-0.8745801542501599,0.15007667598705487,-4.146355130124627,1.1265965701404965,-0.5426013296891438,0.5150584465849478,64.235363935873,1.8402534155501171,2
28,2024-09-14 18:27:40.490205952,TASK_BEGIN,002,-0.8923405756283609,0.1529030073066595,-4.1983260306622165,1.1494859896809027,-0.7253754058134326,0.5306041289239414,66.86899937487416,1.5975823780191325,2
29,2024-09-14 18:27:40.556049152,TASK_BEGIN,002,-0.9030244471543201,0.15405619909661286,-4.262250298651769,1.1767554829668139,-0.7896185592954098,0.5306521408368864,69.6063537066237,1.2405347610425452,2
30,2024-09-14 18:27:40.617604096,TASK_BEGIN,002,-0.9066699157293224,0.15377247797178734,-4.338807577365716,1.2071025106791478,-0.7198555256583556,0.5159092586448456,72.2520808117128,0.8010668900517885,2
31,2024-09-14 18:27:40.693469952,TASK_BEGIN,002,-0.9036245441737352,0.15232085666460957,-4.428417198489094,1.239131418387382,-0.5063992033743361,0.4884775084059268,74.642108668945,0.3057762037289056,2
32,2024-09-14 18:27:41.636812032,TASK_BEGIN,002,-0.8945401081738632,0.14998268282744143,-4.531368886876842,1.271474040545273,-0.14652888494737426,0.4515249022486689,76.65240844689671,-0.22435611987738477,2
33,2024-09-14 18:27:41.692830976,TASK_BEGIN,002,-0.8803714307855796,0.14703311829284535,-4.6477914478976805,1.3028609047395532,0.35485683675552,0.40902589910926385,78.20246299933565,-0.7738170004752538,2
34,2024-09-14 18:27:41.772408832,TASK_BEGIN,002,-0.8623764868434015,0.1437331235664146,-4.777373365321943,1.332139401014987,0.9851699267052448,0.36555075653060337,79.2534290710694,-1.3326552558826994,2
35,2024-09-14 18:27:41.835931904,TASK_BEGIN,002,-0.8421008572562664,0.14033319980945258,-4.9189309414986315,1.358264122470947,1.7246010011075867,0.3260375515731013,79.80287076992107,-1.8969722082431948,2
36,2024-09-14 18:27:41.908045824,TASK_BEGIN,002,-0.8213260632485138,0.13707958838922277,-5.070049314202363,1.3802921607350624,2.5470264780450886,0.2955024469798146,79.87748419032498,-2.4688720535715425,2
37,2024-09-14 18:27:41.970712832,TASK_BEGIN,002,-0.8019666085192964,0.13421237538295255,-5.226982051897633,1.3974041644136785,3.4213663808547667,0.2787251711959606,79.52377650075451,-3.0547469194596744,2
38,2024-09-14 18:27:42.032715008,TASK_BEGIN,002,-0.7859200761887101,0.13195415378106076,-5.384834790552206,1.4089535657511565,4.313386868382382,0.2800483055253737,78.79794320627441,-3.6623030351929424,2
39,2024-09-14 18:27:42.978497024,TASK_BEGIN,002,-0.7748973619726627,0.13049567330538145,-5.537939849182475,1.4145333053557219,5.187750443443693,0.3033628085095632,77.75852324763348,-4.2980392161770204,2
40,2024-09-14 18:27:43.040983808,TASK_BEGIN,002,-0.7702644088173329,0.12998354966156164,-5.680324968613746,1.414044997291825,6.010229288721236,0.35208384042906943,76.46462346449026,-4.966329429195623,2
41,2024-09-14 18:27:43.122467072,TASK_BEGIN,002,-0.7729191948998707,0.1305109740510584,-5.8062465392483,1.4077551509744286,6.750265165179493,0.42880973702998093,74.97830338558806,-5.669700279595889,2
42,2024-09-14 18:27:43.190278144,TASK_BEGIN,002,-0.7832268971855312,0.13211370521667676,-5.9107784202532425,1.3963192400331788,7.383802121478067,0.5346407310436573,73.36630892015218,-6.408893137810749,2
43,2024-09-14 18:27:43.258002944,TASK_BEGIN,002,-0.8010262512584503,0.13477557500116288,-5.990324677381923,1.3807476110788117,7.895699083021279,0.6684922641880322,71.69766458928989,-7.181619200484653,2
44,2024-09-14 18:27:43.325778944,TASK_BEGIN,002,-0.8256892083041268,0.1384425166396222,-6.042823166011142,1.3622962841604338,8.280905270377726,0.826743525568817,70.03830377387592,-7.98044727009881,2
45,2024-09-14 18:27:43.379744000,TASK_BEGIN,002,-0.8561970900109758,0.14303721899938646,-6.067550810832486,1.3423015328409391,8.544209947038034,1.0032550712088482,68.44716961552868,-8.79171560053645,2
46,2024-09-14 18:27:44.312086272,TASK_BEGIN,002,-0.8912100866243022,0.14846705240153227,-6.064698610089809,1.3220122078615515,8.6990396377774,1.189573953886862,66.97693200611411,-9.596871731207237,2
47,2024-09-14 18:27:44.375464960,TASK_BEGIN,002,-0.9291323406926693,0.15462477003623956,-6.035003358688776,1.302475395968215,8.765758180383008,1.3752612584093598,65.6774518449111,-10.375230395039749,2
48,2024-09-14 18:27:44.437952768,TASK_BEGIN,002,-0.9681920482530848,0.1613876328561412,-5.979657426630921,1.2845021629972073,8.769516697127868,1.548512495314698,64.59674359782507,-11.105605450761754,2
49,2024-09-14 18:27:44.500560128,TASK_BEGIN,002,-1.0065540322576831,0.16862054066424212,-5.900502636566427,1.268700594140742,8.737586826858369,1.6972287031271964,63.77691301721232,-11.765766754868288,2
50,2024-09-14 18:27:44.579491072,TASK_BEGIN,002,-1.0424602415304567,0.17618319762533485,-5.80028323015966,1.255537318675628,8.696353341832419,1.810412787991431,63.247582887487326,-12.331138089205764,2
51,2024-09-14 18:27:44.639405056,TASK_BEGIN,002,-1.0743730436579755,0.18393751347899123,-5.682713821365192,1.2453905888592056,8.668414747347502,1.879524852420736,63.020127423466384,-12.774272479493465,2
52,2024-09-14 18:27:44.716087808,TASK_BEGIN,002,-1.101090330330845,0.191752283105137,-5.552297952106385,1.2385672283944575,8.670299116577937,1.8994525862424516,63.08380215417205,-13.065270232735179,2
53,2024-09-14 18:27:45.662158848,TASK_BEGIN,002,-1.1218092962255033,0.19950396237676338,-5.413985632053635,1.235270358873152,8.711077375525354,1.8689846601487412,63.4040622454079,-13.173278968727272,2
54,2024-09-14 18:27:45.729865984,TASK_BEGIN,002,-1.1361388414425777,0.20707424830492943,-5.272799982010074,1.235545201675703,8.791894362062935,1.7909007381665867,63.92336028957327,-13.069735593956237,2
55,2024-09-14 18:27:45.797714944,TASK_BEGIN,002,-1.1440812963181872,0.2143476707414463,-5.133546048237925,1.2392561627089964,8.906457730216125,1.671791667017583,64.56469489661201,-12.73308628339516,2
56,2024-09-14 18:27:45.864386048,TASK_BEGIN,002,-1.1460038452529286,0.22121314335775819,-5.000649955054638,1.2461152802013993,9.042666381033426,1.521540617026689,65.23904539519245,-12.15352182815886,2
57,2024-09-14 18:27:45.926027008,TASK_BEGIN,002,-1.1426066787461822,0.2275710747156955,-4.878078260848196,1.2557336437885405,9.185334879586275,1.3523648209562573,65.85674156686473,-11.336330101923066,2
58,2024-09-14 18:27:45.987586048,TASK_BEGIN,002,-1.1348792843221753,0.23334367754911975,-4.76925352386228,1.2676606920591684,9.319366482081852,1.177551743633304,66.33917232431412,-10.303239786929486,2
59,2024-09-14 18:27:46.065287168,TASK_BEGIN,002,-1.1240338518018895,0.2384839552198693,-4.676938558069302,1.2813974162850792,9.432396369044849,1.0102066365926203,66.62638432223977,-9.09173145222468,2
60,2024-09-14 18:27:47.007113984,TASK_BEGIN,002,-1.111422985420443,0.2429804096697358,-4.6031000565948315,1.2963841273128722,9.516230022265267,0.8622561918226145,66.67975103607587,-7.752721183820464,2
61,2024-09-14 18:27:47.080083968,TASK_BEGIN,002,-1.0984577761988563,0.24685810433817748,-4.548782182999554,1.3119794864543695,9.56693550263956,0.7437719469049906,66.48246351683353,-6.347542995304928,2
62,2024-09-14 18:27:47.145981952,TASK_BEGIN,002,-1.0865286230346687,0.250179422879558,-4.514060702525139,1.327462807411043,9.583889471001653,0.6625284711536152,66.04038147808595,-4.945075810355878,2
63,2024-09-14 18:27:47.215558144,TASK_BEGIN,002,-1.0769259265417273,0.2530465309294656,-4.498093072361853,1.3420733939488148,9.568405133428787,0.6236607582461674,65.3829450093372,-3.618676989292723,2
64,2024-09-14 18:27:47.268179968,TASK_BEGIN,002,-1.0707673186672453,0.25560185912098493,-4.499159505187358,1.3550699651224904,9.522597158113914,0.6293784691505585,64.56239404005558,-2.4418662496947543,2
65,2024-09-14 18:27:47.345312000,TASK_BEGIN,002,-1.06893631920373,0.25801896277046305,-4.514613325246328,1.365793811721544,9.44884062610213,0.6788038218800556,63.65051979752601,-1.4826180775819218,2
66,2024-09-14 18:27:47.418920960,TASK_BEGIN,002,-1.072024815595892,0.2604801425458611,-4.540812538587066,1.3737296071315428,9.349809972372956,0.7680059835292591,62.73297836047024,-0.797275149192369,2
67,2024-09-14 18:27:48.346426880,TASK_BEGIN,002,-1.080270855960861,0.26314573985247325,-4.573184438312,1.378551534753706,9.228824880568974,0.8902869306376547,61.90162943858993,-0.4253869481848605,2
68,2024-09-14 18:27:48.423628288,TASK_BEGIN,002,-1.0935029323084737,0.2661243439061784,-4.6064989376881815,1.3801414811050492,9.090221487594421,1.0367607633733698,61.24677592669705,-0.3867236361210694,2
69,2024-09-14 18:27:48.486200320,TASK_BEGIN,002,-1.111127811332994,0.26945210311475976,-4.635296561757405,1.3785812970919682,8.939574624096544,1.1972165898590599,60.8509390131393,-0.6811152776671306,2
70,2024-09-14 18:27:48.565399808,TASK_BEGIN,002,-1.1321901700062205,0.2730860657103192,-4.654361682677713,1.3741296772017493,8.783528962261096,1.3611991989899883,60.78283158894141,-1.2903542191268969,2
71,2024-09-14 18:27:48.633205760,TASK_BEGIN,002,-1.1554806390652204,0.2769118689252162,-4.659155305306011,1.3671882207881205,8.62901639952055,1.5191477279388776,61.0895943124143,-2.1806970068033564,2
72,2024-09-14 18:27:48.685767936,TASK_BEGIN,002,-1.1796404415547046,0.2807625512917399,-4.646170349379658,1.3582604300309864,8.48210895491759,1.6632550856979782,61.78874671346475,-3.305390760739117,2
73,2024-09-14 18:27:48.763977984,TASK_BEGIN,002,-1.2032406428713927,0.28444411292152416,-4.613222480222428,1.3479110991217598,8.347197342447231,1.7876868368031258,62.86355962759687,-4.607659173010166,2
74,2024-09-14 18:27:49.706052096,TASK_BEGIN,002,-1.2248493043214175,0.2877627090401985,-4.55968714702651,1.336720441241301,8.226947102539244,1.8881599772706201,64.26419303867928,-6.024470384810539,2
75,2024-09-14 18:27:49.768214016,TASK_BEGIN,002,-1.2431030523051683,0.29054850613011896,-4.486620600221533,1.325217875243426,8.122820212300944,1.9613262098073192,65.9140854427928,-7.490644781817587,2
76,2024-09-14 18:27:49.846926080,TASK_BEGIN,002,-1.2567881586029768,0.292673472297301,-4.396660525255213,1.313806472985664,8.035602872104732,2.0044239336196945,67.7184300680545,-8.942256914189521,2
77,2024-09-14 18:27:49.914679040,TASK_BEGIN,002,-1.2649213790804696,0.29406210249656317,-4.29365391367339,1.302714720855014,7.965647150187025,2.0153131130902966,69.57068607678742,-10.318384132544349,2
78,2024-09-14 18:27:49.968687104,TASK_BEGIN,002,-1.2668100313295536,0.29469389073124547,-4.182088234857647,1.291999236980213,7.912963063200685,1.9927774205001738,71.35597126022523,-11.56143276017487,2
79,2024-09-14 18:27:50.050309888,TASK_BEGIN,002,-1.2620868806998464,0.29459767055469155,-4.066541594968406,1.2815954572991572,7.8773084809673435,1.936989038419532,72.954134919044,-12.61762479432824,2
80,2024-09-14 18:27:50.107897088,TASK_BEGIN,002,-1.2507413952917643,0.2938417996800674,-3.9513445702294425,1.271394659000603,7.858202947130796,1.849984587984742,74.24473588673679,-13.43889405004822,2
81,2024-09-14 18:27:51.033646080,TASK_BEGIN,002,-1.2331562970510317,0.29252560245222536,-3.840432523398434,1.2613152880404972,7.854826011277859,1.7358806440058006,75.11309846100565,-13.98562887067165,2
82,2024-09-14 18:27:51.103768064,TASK_BEGIN,002,-1.2101186417494436,0.29077359392644364,-3.7372506413397106,1.2513455879483182,7.8659192814945,1.6006276251078817,75.45700935546652,-14.22902402912772,2
83,2024-09-14 18:27:51.171485952,TASK_BEGIN,002,-1.1827681154665093,0.2887296260739057,-3.644682977320934,1.2415569797094719,7.889810151984173,1.4513263132861598,75.19507394008164,-14.152944635810037,2
84,2024-09-14 18:27:51.233455872,TASK_BEGIN,002,-1.1524854519788095,0.28654900432469305,-3.56505348056843,1.2320949791484606,7.9245708830634385,1.2953036832161613,74.27541621248683,-13.7556673191767,2
85,2024-09-14 18:27:51.296118784,TASK_BEGIN,002,-1.1207559408808796,0.2843891219292981,-3.500154746451005,1.2231453905644765,7.968191303667715,1.1392249057415391,72.68087903401191,-13.050889810572745,2
86,2024-09-14 18:27:51.374950912,TASK_BEGIN,002,-1.0890268715502929,0.28239694097905005,-3.4511915904054016,1.214874870149769,8.018584993097486,0.9884879191484722,70.42904699624476,-12.067223752019117,2
87,2024-09-14 18:27:51.434401024,TASK_BEGIN,002,-1.0585568520251611,0.28069004943365267,-3.4186061495387845,1.2073601070826274,8.073408687835485,0.8470057519889713,67.56934121781703,-10.846519358328605,2
88,2024-09-14 18:27:52.385960192,TASK_BEGIN,002,-1.0302761542878818,0.27933362760630276,-3.4018699747082173,1.200530705633393,8.12991308498658,0.7173355010279032,64.18020607777474,-9.441931643212051,2
89,2024-09-14 18:27:52.447639808,TASK_BEGIN,002,-1.0047061055864315,0.278322856318454,-3.39937982016243,1.1941502961654489,8.185116428026177,0.60101811614322,60.366843680305564,-7.916041617037684,2
90,2024-09-14 18:27:52.509234944,TASK_BEGIN,002,-0.9819756378393939,0.27758125032987635,-3.4085665790601496,1.1878442477309592,8.236420606468105,0.4989831361544855,56.25720743277653,-6.338550381934751,2
91,2024-09-14 18:27:52.585959936,TASK_BEGIN,002,-0.9619262341882866,0.27697787874373864,-3.426202875725636,1.1811558424741542,8.282471585223005,0.4119523189771508,51.994268356635764,-4.782642120684744,2
92,2024-09-14 18:27:52.648446976,TASK_BEGIN,002,-0.9442431810152976,0.276354257982715,-3.448753129312177,1.1736038010597165,8.323870703257102,0.34080048670102436,47.7258336455194,-3.319510773869372,2
93,2024-09-14 18:27:52.724898304,TASK_BEGIN,002,-0.9285436088749484,0.2755469971293821,-3.4726576103454745,1.1647330314235431,8.363436298182416,0.28674092902420545,43.59554268525836,-2.0121102825041604,2
94,2024-09-14 18:27:52.792572928,TASK_BEGIN,002,-0.9144116782963749,0.27440244749595605,-3.494641814408669,1.1541705239745126,8.405960649450543,0.2511693504239207,39.73722614069891,-0.9104464466501951,2
95,2024-09-14 18:27:53.736640000,TASK_BEGIN,002,-0.9014301624979155,0.2727921872908914,-3.512194025570615,1.1416969585911534,8.457620726645999,0.2351391050882068,36.27141749020811,-0.04961285944191126,2
96,2024-09-14 18:27:53.794089984,TASK_BEGIN,002,-0.8892434576151882,0.27063647220062503,-3.5241621343810157,1.1273236073698931,8.525287956714656,0.23864842041426576,33.30157942363294,0.5504068776014668,2
97,2024-09-14 18:27:53.872092160,TASK_BEGIN,002,-0.8776274197016262,0.26793007734759544,-3.53118380850524,1.1113343168409326,8.615875845261945,0.2600499477427867,30.90937659835405,0.8844519620555116,2
98,2024-09-14 18:27:53.939949824,TASK_BEGIN,002,-0.8665161605659846,0.2647581531689406,-3.5356280871965926,1.0942451777808264,8.735677499917985,0.2958714084229809,29.149884246169417,0.9617100236981536,2
99,2024-09-14 18:27:53.996162048,TASK_BEGIN,002,-0.8559731803386256,0.2612962343691283,-3.540979963353787,1.076682804558052,8.889651190995403,0.341156725365702,28.047459212245908,0.8050323076178625,2
100,2024-09-14 18:27:54.073820160,TASK_BEGIN,002,-0.8461418036771883,0.257799470878003,-3.5509496937278326,1.0592473605981987,9.080823959810543,0.3902070201243113,27.59299337763495,0.4498470645407798,2
101,2024-09-14 18:27:54.135864064,TASK_BEGIN,002,-0.8372064474659767,0.2545892492975927,-3.568740991509846,1.0424348488916857,9.310051661059608,0.4374686846376275,27.743827296429757,-0.0578498458740062,2
102,2024-09-14 18:27:55.060459008,TASK_BEGIN,002,-0.8293592270982401,0.2520398085670252,-3.5967442771286104,1.0266454025983065,9.576106101002647,0.47829814816523886,28.4273907853632,-0.6647427834226104,2
103,2024-09-14 18:27:55.128258048,TASK_BEGIN,002,-0.8227577546129763,0.2505628024272282,-3.6365749700779966,1.0122527026445023,9.87578297486993,0.5093934387149041,29.549213360028887,-1.3147532373556354,2
104,2024-09-14 18:27:55.182110208,TASK_BEGIN,002,-0.8174844046183769,0.25058913073016753,-3.689188320697039,0.9996846267155237,10.203814781652936,0.5288428293122653,31.00549628746823,-1.9547135300377092,2
105,2024-09-14 18:27:55.263803904,TASK_BEGIN,002,-0.8135292362849875,0.25254934824523745,-3.7549230355331518,0.9894766515307336,10.552637763285093,0.535945926408188,32.698164841415476,-2.5400501948967977,2
106,2024-09-14 18:27:55.331607296,TASK_BEGIN,002,-0.8108019155091892,0.25685153720345716,-3.833521253295498,0.9822897755484985,10.912106252731482,0.5310407605611034,34.547262270613885,-3.038802409412676,2
107,2024-09-14 18:27:55.399390976,TASK_BEGIN,002,-0.809158373177691,0.263852471884204,-3.9242047529036146,0.9788945407823844,11.269227470174572,0.5154319322106032,36.49591963275534,-3.432924433702498,2
108,2024-09-14 18:27:55.459116032,TASK_BEGIN,002,-0.8084256616557124,0.27382017504603695,-4.0257738387091075,0.9801111354231111,11.608198412718382,0.49130123849389895,38.50747696372976,-3.7169695225742165,2
109,2024-09-14 18:27:56.410525952,TASK_BEGIN,002,-0.8084150105343787,0.28689195100546916,-4.1365888408563904,0.9866934122019787,11.911141410416004,0.46144740550335395,40.55795587593616,-3.8953880433393917,2
110,2024-09-14 18:27:56.478306048,TASK_BEGIN,002,-0.80892070745541,0.3030355208848531,-4.2543539396511605,0.9991609467592418,12.15965333061841,0.42886318752007063,42.62752314637251,-3.980197673329923,2
111,2024-09-14 18:27:56.546068736,TASK_BEGIN,002,-0.8097163249231993,0.3220194636303831,-4.375817671473912,1.0176080596991082,12.336923420836877,0.39627091487976207,44.69389419280378,-3.9899358187871363,2
112,2024-09-14 18:27:56.613285888,TASK_BEGIN,002,-0.8105681825326796,0.34339376510593234,-4.496600622775334,1.0415388546859279,12.429945722413756,0.3657375257355593,46.72989693139291,-3.949458682910168,2
113,2024-09-14 18:27:56.675303936,TASK_BEGIN,002,-0.811274719521324,0.36647638662508236,-4.611291948480295,1.0697831684727814,12.43117889798015,0.3385204186581682,48.706192196921656,-3.889861866280097,2
114,2024-09-14 18:27:56.749388800,TASK_BEGIN,002,-0.8117255866457572,0.39034352033787834,-4.713867095445835,1.1005368392059884,12.339128178515896,0.3152858032398279,50.598155063706315,-3.847963496655834,2
115,2024-09-14 18:27:56.815296000,TASK_BEGIN,002,-0.811968601361484,0.41382686085603304,-4.798397787358045,1.1315340119274369,12.157859805959738,0.29662017363628823,52.39326534079597,-3.8643554407429375,2
116,2024-09-14 18:27:57.747283968,TASK_BEGIN,002,-0.8122717719620305,0.43552231922309764,-4.859901433281688,1.1603083386236024,11.895899641153788,0.2834966723554564,54.09442397511262,-3.97920082548414,2
117,2024-09-14 18:27:57.824048128,TASK_BEGIN,002,-0.8131744554766659,0.4538120462727568,-4.895085213857923,1.1844698673705012,11.564954773018323,0.2774015757014094,55.71718081102671,-4.226540161517404,2
118,2024-09-14 18:27:57.886049024,TASK_BEGIN,002,-0.8155299107822586,0.4669013844858998,-4.902790435119984,1.2019387458010717,11.178740036859413,0.2801023462083671,57.28191350442875,-4.628959764757511,2
119,2024-09-14 18:27:57.963791104,TASK_BEGIN,002,-0.8205355883802471,0.4728735532604962,-4.884099825991877,1.2111171599784414,10.752163798165059,0.29317999305221715,58.803077064845624,-5.193704769416338,2
120,2024-09-14 18:27:58.031831040,TASK_BEGIN,002,-0.8297380007200575,0.46976420470660746,-4.842170148344697,1.2110007501242446,10.300956986931494,0.3174486153697043,60.27878832515834,-5.910262906661697,2
121,2024-09-14 18:27:58.099543296,TASK_BEGIN,002,-0.8450013213119445,0.4556552364608619,-4.781840246400209,1.2012206123478986,9.841390376182586,0.3525005416513817,61.685339562184296,-6.749585112616522,2
122,2024-09-14 18:27:58.167447040,TASK_BEGIN,002,-0.8684335991941396,0.4287844934778428,-4.709051078869441,1.182013897804389,9.389608763804151,0.3966890915777831,62.979401121864214,-7.665535108987227,2
123,2024-09-14 18:27:59.105530112,TASK_BEGIN,002,-0.9022656370277107,0.3876684948348936,-4.630146863548304,1.1541519803986193,8.960652972393412,0.44756865279293634,64.10642385141243,-8.598922296830896,2
124,2024-09-14 18:27:59.166722816,TASK_BEGIN,002,-0.9486851535489315,0.33123687665906426,-4.551152427412716,1.1188593770683777,8.567664858182814,0.5024433746598195,65.01146308903535,-9.483720967670417,2
125,2024-09-14 18:27:59.243850752,TASK_BEGIN,002,-1.009643181316285,0.25897368471433124,-4.477135782787211,1.0777318168872174,8.221450838159058,0.5587172911574815,65.64882935097575,-10.254041168766731,2
126,2024-09-14 18:27:59.305882112,TASK_BEGIN,002,-1.0866580434789996,0.17105431592653114,-4.411800302590223,1.0326544774372703,7.930175724367401,0.6140122354266531,65.9878235922997,-10.85006778057421,2
127,2024-09-14 18:27:59.381882880,TASK_BEGIN,002,-1.180633845844998,0.0684640137567904,-4.357454620132416,0.9857347796689913,7.699094129646555,0.6661425739754452,66.01392024994524,-11.22251430028211,2
128,2024-09-14 18:27:59.449541888,TASK_BEGIN,002,-1.291689094480048,-0.046917666308772976,-4.315358516975304,0.939258808436203,7.530477402287513,0.7130474105006182,65.72739149453062,-11.33658192950173,2
129,2024-09-14 18:27:59.517448960,TASK_BEGIN,002,-1.418985224103138,-0.1722851705338999,-4.286187350272566,0.8956462426645652,7.423887550183096,0.7527657340774794,65.14122584676056,-11.175656393679104,2
130,2024-09-14 18:28:00.460733952,TASK_BEGIN,002,-1.560575292737447,-0.30394828517590977,-4.270283148402278,0.8573604615475797,7.376846979025742,0.7834579701338954,64.27810982202882,-10.74319161426648,2
131,2024-09-14 18:28:00.528567040,TASK_BEGIN,002,-1.7133228993059162,-0.437466718898112,-4.267584742050021,0.8267592856235761,7.3858078974470915,0.8034248347761836,63.16656393402351,-10.061465749135445,2
132,2024-09-14 18:28:00.595948032,TASK_BEGIN,002,-1.8729276470845386,-0.5678989329836668,-4.2773802153646345,0.8059069996734791,7.447172636632155,0.8111395432281744,61.838440520956446,-9.16788659329045,2
133,2024-09-14 18:28:00.657947904,TASK_BEGIN,002,-2.0340766252026636,-0.6901703223600337,-4.298112278220998,0.7963803810189678,7.558137157886541,0.8053880376225303,60.32931329973914,-8.110482740827536,2
134,2024-09-14 18:28:00.731823104,TASK_BEGIN,002,-2.190759986741337,-0.7995124094924928,-4.327459559518348,0.7991202690891194,7.717223636672497,0.7855606009295104,58.68029870617192,-6.943578489626231,2
135,2024-09-14 18:28:00.799721984,TASK_BEGIN,002,-2.336767624020405,-0.8918688942004076,-4.362762514703816,0.8143861692835579,7.924288168441757,0.7519833071701854,56.93959143584815,-5.72414204073468,2
136,2024-09-14 18:28:00.857321984,TASK_BEGIN,002,-2.466274828204462,-0.9641753232516738,-4.40158028846241,0.8418174114193175,8.179745068620598,0.7061142242438502,55.16469461607905,-4.509470489109348,2
137,2024-09-14 18:28:01.785979904,TASK_BEGIN,002,-2.5743478780374893,-1.0144910817496482,-4.442075633297947,0.8805486562461685,8.483110953902239,0.6505369066880412,53.42631087583929,-3.3564486587676363,2
138,2024-09-14 18:28:01.854234880,TASK_BEGIN,002,-2.6572648110172032,-1.0420165783157136,-4.483100011126757,0.9293348778157955,8.831478766092806,0.5888113163981589,51.81088226171939,-2.3212721089198087,2
139,2024-09-14 18:28:01.916166912,TASK_BEGIN,002,-2.712666041620363,-1.0470320504168233,-4.524024101282638,0.9866626776303158,9.218620063445544,0.5252562852787469,50.41769414069902,-1.4579517330238547,2
140,2024-09-14 18:28:01.977742848,TASK_BEGIN,002,-2.7395938665340833,-1.0307817177355685,-4.564437015983386,1.0508204944239083,9.63504052543888,0.4646732663731396,49.35122256902517,-0.8150595660135534,2
141,2024-09-14 18:28:02.055428864,TASK_BEGIN,002,-2.7384542812737847,-0.9953230231359315,-4.603864552839159,1.119909876647007,10.068758915326285,0.41201386528195194,48.71302646596282,-0.4317428389189082,2
142,2024-09-14 18:28:02.125441792,TASK_BEGIN,002,-2.710909369638434,-0.943359277934331,-4.64163429105832,1.1918233527467046,10.506144658171262,0.37209157221115174,48.595389701957714,-0.3344691237912721,2
143,2024-09-14 18:28:02.179533824,TASK_BEGIN,002,-2.659711078249896,-0.8780663982775041,-4.676949406169216,1.2642443836223964,10.932264837002174,0.34947588045389594,49.07500266967109,-0.5351404544846925,2
144,2024-09-14 18:28:03.125641216,TASK_BEGIN,002,-2.588495514308493,-0.8029143784312475,-4.709104359127375,1.3347035071333133,11.330917342644716,0.34853925079742964,50.2038310592569,-1.0302748142548401,2
145,2024-09-14 18:28:03.203307008,TASK_BEGIN,002,-2.501542647118592,-0.7214829223032337,-4.737655783727877,1.4006866596279943,11.685063752851205,0.3734350337534382,51.99690857302088,-1.8008019297370825,2
146,2024-09-14 18:28:03.272192000,TASK_BEGIN,002,-2.403491214736833,-0.6372781772936604,-4.762422523640544,1.4597813437614382,11.977976905253705,0.4278454503184944,54.42034478492626,-2.8121214063490827,2
147,2024-09-14 18:28:03.339968000,TASK_BEGIN,002,-2.29902742746395,-0.5535609617446553,-4.783361677022906,1.509845325912197,12.19464211112028,0.5145498275659177,57.3836193811343,-4.014073575130332,2
148,2024-09-14 18:28:03.403152896,TASK_BEGIN,002,-2.1926110600533577,-0.4731939912151565,-4.800419712959621,1.549166507838031,12.322854512318616,0.6349489885615072,60.73900979640696,-5.341321021093955,2
149,2024-09-14 18:28:03.465275904,TASK_BEGIN,002,-2.088292397837352,-0.3985156082975221,-4.813407065168014,1.5765782332514395,12.353903317010365,0.7886882978221055,64.29041031204896,-6.715933743610426,2
150,2024-09-14 18:28:03.543379968,TASK_BEGIN,002,-1.9896116462316735,-0.33125029128099437,-4.821923964404992,1.5915185750377885,12.282996889909718,0.9735476356654715,67.81249382171191,-8.053522161058352,2
151,2024-09-14 18:28:04.487187968,TASK_BEGIN,002,-1.8995283860146404,-0.2724646931028518,-4.825356677720435,1.594044483020445,12.109635729515757,1.1856697106131635,71.07748509410128,-9.272025550818176,2
152,2024-09-14 18:28:04.540940032,TASK_BEGIN,002,-1.8203355551020657,-0.22257281802407353,-4.822951968880327,1.5848096129559794,11.838003383518403,1.4200001304359073,73.88309154046021,-10.300752661816452,2
153,2024-09-14 18:28:04.622899968,TASK_BEGIN,002,-1.7535510838996464,-0.1813890594298848,-4.813972105618886,1.5650025180613292,11.477006829550891,1.67075647309699,76.07431203076628,-11.087430837979221,2
154,2024-09-14 18:28:04.680460032,TASK_BEGIN,002,-1.6998225234488145,-0.14822208418689414,-4.797877050219023,1.5362419403441998,11.039542492108795,1.9318361355726414,77.55473300327789,-11.601732087044445,2
155,2024-09-14 18:28:04.758075904,TASK_BEGIN,002,-1.6588970487334311,-0.12199617826676534,-4.774414798614746,1.500440977461912,10.541239225227157,2.1971347209791565,78.28815159860964,-11.834839048634954,2
156,2024-09-14 18:28:04.823820032,TASK_BEGIN,002,-1.629690095154024,-0.10138477838133478,-4.74357127276498,1.459667930001499,9.999344157036548,2.4607526921981218,78.29492141768904,-11.796427439603857,2
157,2024-09-14 18:28:04.881871104,TASK_BEGIN,002,-1.6104556035242141,-0.08494494774192136,-4.705505913108381,1.4160355447058472,9.432013361168513,2.717111246240281,77.64611535842802,-11.511417482779539,2
158,2024-09-14 18:28:05.805936128,TASK_BEGIN,002,-1.5990410331602298,-0.07124489064522589,-4.6606228247134505,1.3716288125660812,8.85770014232493,2.9610937321390676,76.4546871363717,-11.017253848560628,2
159,2024-09-14 18:28:05.868002048,TASK_BEGIN,002,-1.593189846530224,-0.058974285534261095,-4.609738987186197,1.3284448322977127,8.29423937773627,3.188331492443665,74.86163327055435,-10.360228046213358,2
160,2024-09-14 18:28:05.947417856,TASK_BEGIN,002,-1.59082592007004,-0.04702600450332708,-4.554200066226915,1.2883128814594875,7.757705605928021,3.3955696128886714,73.01845940408127,-9.589981237871271,2
161,2024-09-14 18:28:06.007785984,TASK_BEGIN,002,-1.5902493179409478,-0.03454522330016051,-4.495889225457261,1.2527957167550547,7.261728264332059,3.5808863419912482,71.07066631767943,-8.7538388542293,2
162,2024-09-14 18:28:06.082993920,TASK_BEGIN,002,-1.590216729307153,-0.020950885985587107,-4.437157232562826,1.223097613685016,6.817894552563858,3.743618249212105,69.14608552832539,-7.893093786223905,2
163,2024-09-14 18:28:06.150672128,TASK_BEGIN,002,-1.5899330702879453,-0.0059349940912284925,-4.380691480041195,1.200005905868264,6.436976437186503,3.8840493381796155,67.34852048031766,-7.041615811955131,2
164,2024-09-14 18:28:06.218563072,TASK_BEGIN,002,-1.588990401104502,0.010559138297794469,-4.329365424330171,1.183890283336178,6.129877319579479,4.00303453319731,65.75542520617152,-6.226099445642648,2
165,2024-09-14 18:28:07.161434880,TASK_BEGIN,002,-1.5872744136946666,0.028379214368107877,-4.286137482728288,1.174773369155495,5.907378450333207,4.101710086982455,64.41845322038692,-5.467384538030615,2
166,2024-09-14 18:28:07.229209856,TASK_BEGIN,002,-1.5848559137352451,0.047221931538087326,-4.254000159895163,1.1724538433646152,5.778778669435338,4.181363049656485,63.36547169464081,-4.781889601829737,2
167,2024-09-14 18:28:07.287662080,TASK_BEGIN,002,-1.5818848948343829,0.0666956301238014,-4.235903337170139,1.17663052529679,5.750273030241428,4.243415796851082,62.60219079914115,-4.181602402292992,2
168,2024-09-14 18:28:07.352883968,TASK_BEGIN,002,-1.5784951779432803,0.08637464613902998,-4.234590384466606,1.186975518294937,5.823820709036686,4.28941887040318,62.11260146444625,-3.6722731600569274,2
169,2024-09-14 18:28:07.428777728,TASK_BEGIN,002,-1.5747242804923156,0.10583762540555038,-4.252338828805588,1.2031370129631327,5.996741031855698,4.3210295594505785,61.85957968004067,-3.2517408060613673,2
170,2024-09-14 18:28:07.490374912,TASK_BEGIN,002,-1.570464489180594,0.12469046411383837,-4.290635286812612,1.2246906879389394,6.261963074943445,4.340033744348637,61.788052434548945,-2.910731344816354,2
171,2024-09-14 18:28:07.568113920,TASK_BEGIN,002,-1.5654663396957738,0.14257912389981944,-4.349867910910228,1.2510812914017344,6.608798337691335,4.348382537248951,61.831665238327005,-2.6363760095640636,2
172,2024-09-14 18:28:08.511483904,TASK_BEGIN,002,-1.5593876015798576,0.15919593682506228,-4.4291592563076065,1.2815904521875603,7.024060042413348,4.348125025886801,61.92094945981408,-2.416404836499523,2
173,2024-09-14 18:28:08.579433728,TASK_BEGIN,002,-1.5518417602149586,0.1742799760642336,-4.526401877943976,1.3153339187374666,7.493289828365744,4.341212996376998,61.989301459417014,-2.241601268569728,2
174,2024-09-14 18:28:08.644350976,TASK_BEGIN,002,-1.5424117220368445,0.1876134423335574,-4.638459854685024,1.3512708809144593,8.001845065974916,4.329319014846294,61.97473918055885,-2.105898840675252,2
175,2024-09-14 18:28:08.706891008,TASK_BEGIN,002,-1.5306496773446832,0.19901918919057882,-4.761470972733699,1.388224844788713,8.535593876102276,4.313839397056647,61.81902840057697,-2.005542307304577,2
176,2024-09-14 18:28:08.782650880,TASK_BEGIN,002,-1.5161058920388175,0.20836401392538206,-4.891177535636524,1.4249270874490163,9.081076757939034,4.296109881947762,61.46727371166333,-1.9385918835496085,2
177,2024-09-14 18:28:08.846151168,TASK_BEGIN,002,-1.4984008914859641,0.21556948204679977,-5.0232140417410625,1.4600804647825298,9.625359361046657,4.277664495705981,60.86915577804821,-1.9044696968677515,2
178,2024-09-14 18:28:08.908154112,TASK_BEGIN,002,-1.4773259614541778,0.22062876259989864,-5.153349404553082,1.4924370258942201,10.15605716833413,4.2603200799562835,59.980961900340255,-1.9029343016812066,2
179,2024-09-14 18:28:09.853372160,TASK_BEGIN,002,-1.4529452778759036,0.22362377703871564,-5.277746285494823,1.5208925552821593,10.661796687694265,4.246041363489407,58.76777785432526,-1.9326689966907806,2
180,2024-09-14 18:28:09.929372160,TASK_BEGIN,002,-1.4256678445273265,0.22473428934777356,-5.393272064561404,1.5446035645600635,11.132969426777617,4.236706687807079,57.20599561922853,-1.9898334345932502,2
181,2024-09-14 18:28:09.992121856,TASK_BEGIN,002,-1.396259483976645,0.22423195678875626,-5.497788359818431,1.563111903646813,11.562475222105737,4.233872077094089,55.285661270844344,-2.0667150656465245,2
182,2024-09-14 18:28:10.064873984,TASK_BEGIN,002,-1.3657812867343848,0.22245784879561567,-5.590228490516493,1.576427806808162,11.946267235572485,4.238555454424408,53.01151233450007,-2.1509544082213354,2
183,2024-09-14 18:28:10.130432000,TASK_BEGIN,002,-1.3354659772432829,0.21978949844227966,-5.670305370525769,1.58501880321568,12.283676808740775,4.251066411984493,50.40269608386076,-2.2260699376327775,2
184,2024-09-14 18:28:10.200431872,TASK_BEGIN,002,-1.3065617910673462,0.21660825441204262,-5.737928658636733,1.5896976578424746,12.577560349708133,4.270943877922223,47.492624549392204,-2.273293660577198,2
185,2024-09-14 18:28:10.268126976,TASK_BEGIN,002,-1.2801749119357266,0.2132756986926587,-5.792631208430267,1.5914553845062525,12.834194853869695,4.297065859311667,44.330140466601065,-2.2740181121272016,2
186,2024-09-14 18:28:11.211656960,TASK_BEGIN,002,-1.2571348562930575,0.210120618551088,-5.833298167979243,1.5912993826839288,13.062677195422049,4.327911173439239,40.98167040728656,-2.2125243597696134,2
187,2024-09-14 18:28:11.277188096,TASK_BEGIN,002,-1.237903026398728,0.20743064727841518,-5.858295536587115,1.5901304501450653,13.27376180652907,4.361810971977422,37.532242101428686,-2.078773043835545,2
188,2024-09-14 18:28:11.335149824,TASK_BEGIN,002,-1.222537244444563,0.20544101805803314,-5.865901604063107,1.5886657584754205,13.478523907510443,4.397017562535871,34.081869867602165,-1.8699706293887361,2
189,2024-09-14 18:28:11.411928064,TASK_BEGIN,002,-1.2107134529819275,0.2043190709160521,-5.854832815796548,1.587404414989492,13.687305387645413,4.431610846329374,30.735352531539586,-1.5894844386038198,2
190,2024-09-14 18:28:11.473556224,TASK_BEGIN,002,-1.201798566859869,0.20415143656058368,-5.8245926535616395,1.586618342054953,13.909040363769973,4.46342208054185,27.588429239916323,-1.2437018932606556,2
191,2024-09-14 18:28:11.550618880,TASK_BEGIN,002,-1.194958858186698,0.2049415924506495,-5.775484677559303,1.5863526312637726,14.150779176041834,4.490125060094763,24.71633883847681,-0.8391672481164311,2
192,2024-09-14 18:28:11.618370048,TASK_BEGIN,002,-1.189278308414967,0.2066182015412819,-5.708445334487794,1.5864514032947057,14.417174288086118,4.509548808046821,22.16874145424514,-0.3817192137648486,2
193,2024-09-14 18:28:12.532434944,TASK_BEGIN,002,-1.1838721359527653,0.2090494749676196,-5.625000040433228,1.5866336738530114,14.70983178910465,4.520162691652634,19.971235623568596,0.12239886690425648,2
194,2024-09-14 18:28:12.594923008,TASK_BEGIN,002,-1.1779982245541474,0.21206018800115964,-5.527437279293805,1.5866040795143386,15.026784521602318,4.521539006359901,18.131562573079922,0.6645802905989093,2
195,2024-09-14 18:28:12.656461056,TASK_BEGIN,002,-1.1711576307993958,0.21544922411446646,-5.419030464363043,1.5861462893996554,15.36258414696917,4.514538698832,16.647750946574646,1.2321538062152901,2
196,2024-09-14 18:28:12.739614976,TASK_BEGIN,002,-1.1631560718305978,0.21900481805997513,-5.304077471128455,1.5851529012824872,15.709246071255343,4.501105524457674,15.515850132318436,1.807253294822569,2
197,2024-09-14 18:28:12.795460864,TASK_BEGIN,002,-1.1541190450058063,0.22251778170794728,-5.187624157537123,1.5835836009794784,16.057702337474755,4.483756128148206,14.735776165047318,2.3660342746675784,2
198,2024-09-14 18:28:12.873194752,TASK_BEGIN,002,-1.1444817866688002,0.22579628824241654,-5.074876552066742,1.5813852571837552,16.399162332024982,4.464938757683822,14.314025337749703,2.8785847504714748,2
199,2024-09-14 18:28:12.942998784,TASK_BEGIN,002,-1.134955061446888,0.22868182257639943,-4.970465222622473,1.5784348232270666,16.726100596714495,4.446387086635934,14.262702057038943,3.3106530064002864,2
200,2024-09-14 18:28:13.883074048,TASK_BEGIN,002,-1.1264425030769758,0.23106148745759525,-4.877845565319594,1.5745555790585009,17.03297491289882,4.428559996492702,14.596032908916376,3.6275953984153695,2
201,2024-09-14 18:28:13.954124032,TASK_BEGIN,002,-1.1199120425382252,0.2328741310766674,-4.799097657885028,1.5696075447496698,17.316721173250514,4.410324173129112,15.326047133434878,3.799262424246426,2
202,2024-09-14 18:28:14.022028800,TASK_BEGIN,002,-1.1162579776568267,0.2341102218809787,-4.735239556502924,1.5636065808013448,17.576861040993272,4.389024952838676,16.457395479130327,3.8041608871707484,2
203,2024-09-14 18:28:14.089745152,TASK_BEGIN,002,-1.1161787716340341,0.23480340152742737,-4.686924515341524,1.5568104166247259,17.815141222164765,4.360876465959563,17.980403259071508,3.632166243603948,2
204,2024-09-14 18:28:14.146365952,TASK_BEGIN,002,-1.120070226638484,0.23501090114859866,-4.655146264370018,1.5497234653065508,18.03476456217795,4.321450247035406,19.86342126165501,3.285511814273796,2
205,2024-09-14 18:28:14.225265152,TASK_BEGIN,002,-1.127938477678878,0.2347850428747198,-4.64155365909775,1.5430147100824907,18.239233791697416,4.26614957951196,22.047651004204784,2.777868568075264,2
206,2024-09-14 18:28:14.284772096,TASK_BEGIN,002,-1.1393528730127143,0.23414310906063598,-4.648207489477134,1.5373849966912596,18.430934270025897,4.190693688296838,24.446934456844755,2.1320720990122015,2
207,2024-09-14 18:28:15.223491840,TASK_BEGIN,002,-1.1534503621419274,0.23304140441829577,-4.6768708732508655,1.533429941222119,18.609896374361227,4.091578208903024,26.951993347248138,1.3776996253241747,2
208,2024-09-14 18:28:15.300241920,TASK_BEGIN,002,-1.168984133566258,0.2313567250373607,-4.728080583599133,1.5315252553166956,18.77321737259464,3.966367472779179,29.43685430158136,0.5491119243289511,2
209,2024-09-14 18:28:15.361430016,TASK_BEGIN,002,-1.1844068416903049,0.22887977040873317,-4.80030602122762,1.5317341022769377,18.915242025249636,3.813725916696991,31.76743406532125,-0.31661211853338905,2
210,2024-09-14 18:28:15.439087872,TASK_BEGIN,002,-1.1979917927949661,0.22532495616340165,-4.8894604524603364,1.533737217424781,19.028235498078153,3.6332632890461536,33.81456745408618,-1.1826721451119346,2
211,2024-09-14 18:28:15.507590144,TASK_BEGIN,002,-1.2080018763417857,0.22035786390564818,-4.988900129826365,1.5368189947120094,19.103221396477178,3.4253559456885276,35.47114540352548,-2.016338981153795,2
212,2024-09-14 18:28:15.575475200,TASK_BEGIN,002,-1.212889321018138,0.21363825024094887,-5.089906577594534,1.5399465931601755,19.13078926966289,3.1910384723564604,36.668944163996144,-2.792389608827625,2
213,2024-09-14 18:28:15.643180032,TASK_BEGIN,002,-1.2114674917175317,0.20487146341989332,-5.182528970286971,1.5419287528520977,19.101809201487857,2.9319621556530913,37.390212761951744,-3.4949097382794556,2
214,2024-09-14 18:28:16.573989888,TASK_BEGIN,002,-1.2029975098750605,0.19385616833875752,-5.256549007994224,1.5415893744908422,19.008029965917242,2.6504150203250476,37.67087222970065,-4.116974216097384,2
215,2024-09-14 18:28:16.654799104,TASK_BEGIN,002,-1.187184103983793,0.18051932990862574,-5.302319632313443,1.537892788480445,18.842535240192323,2.3494065304857727,37.594446026856595,-4.658846431568636,2
216,2024-09-14 18:28:16.712792064,TASK_BEGIN,002,-1.164124439461417,0.16493890013860477,-5.311395115256005,1.5300098737530732,18.600097684736713,2.032761499360672,37.2786435673373,-5.125989598453804,2
217,2024-09-14 18:28:16.791094016,TASK_BEGIN,002,-1.134260985779758,0.14735811535986085,-5.277049252026691,1.5173604141181474,18.27758512737832,1.7051427494076212,36.85823347816677,-5.527652442828772,2
218,2024-09-14 18:28:16.858262016,TASK_BEGIN,002,-1.0983538735789613,0.128188685399217,-5.1948253956527815,1.499666146565099,17.874598419951695,1.3719807707718115,36.46727983059289,-5.87545075001198,2
219,2024-09-14 18:28:16.926074880,TASK_BEGIN,002,-1.0574484681895895,0.1079941463803452,-5.063171123554732,1.4770160672806791,17.394297002566933,1.0393684323093666,36.22265146493735,-6.180895150219008,2
220,2024-09-14 18:28:16.993858048,TASK_BEGIN,002,-1.0128089675281031,0.08744699696549564,-4.88401180926083,1.4499133571616467,16.843998762351344,0.7140042198201719,36.21064952118225,-6.452032201526654,2
221,2024-09-14 18:28:17.907916032,TASK_BEGIN,002,-0.9658137840786949,0.06726149238863754,-4.662975670983228,1.4192643725105845,16.2351386428995,0.40318545403619094,36.478913169154225,-6.690695176152221,2
222,2024-09-14 18:28:17.979995904,TASK_BEGIN,002,-0.9178410615379826,0.04811395041709108,-4.4090504090143705,1.3862858453286873,15.582659811808776,0.11475235756399776,37.034814660845775,-6.891820376569121,2
223,2024-09-14 18:28:18.046521088,TASK_BEGIN,002,-0.8701871541876119,0.030567819286264977,-4.133645654079323,1.3523298193806763,14.90410029440571,-0.14307799486621023,37.84993118044302,-7.045373709016013,2
224,2024-09-14 18:28:18.115494912,TASK_BEGIN,002,-0.8240355801835564,0.015016983592335012,-3.8492266560708424,1.3186555597147858,14.21815945933081,-0.36194847665155794,38.8696967720527,-7.140411743141353,2
225,2024-09-14 18:28:18.183361024,TASK_BEGIN,002,-0.7804548212868244,0.0016536593394718237,-3.5678275106089776,1.2862099930232758,13.542299320104716,-0.5336344294077842,40.02716443333105,-7.170022827658128,2
226,2024-09-14 18:28:18.247264000,TASK_BEGIN,002,-0.7403974270188088,-0.0095368020838552,-3.2998200077720576,1.2554871689134746,12.889607144922087,-0.6503526420143341,41.258658599630984,-7.135896005223934,2
227,2024-09-14 18:28:18.309335040,TASK_BEGIN,002,-0.7046968252454139,-0.01875429353153765,-3.053245673826122,1.2265134181762773,12.266076230899714,-0.7051301078992493,42.51794867241247,-7.05163750775914,2
228,2024-09-14 18:28:19.261161216,TASK_BEGIN,002,-0.6740710397452186,-0.026339046569250756,-2.8337524310589273,1.1989542503137443,11.669715029976915,-0.6923590517496505,43.78501160682032,-6.943758256623,2
229,2024-09-14 18:28:19.329915136,TASK_BEGIN,002,-0.6491316112354926,-0.0327116937974049,-2.644888743372188,1.1722814852909538,11.092134498323247,-0.6086628847576862,45.06579424626528,-6.849180344248938,2
230,2024-09-14 18:28:19.384548096,TASK_BEGIN,002,-0.630383835781754,-0.0383107134342324,-2.4884661994857917,1.145923424595631,10.521977594021616,-0.45390827342446816,46.38158800000532,-6.809122448187709,2
231,2024-09-14 18:28:19.462224896,TASK_BEGIN,002,-0.6182080717208998,-0.04353949706707726,-2.3648206215653227,1.1193580764301665,9.94879493651769,-0.2319645243109511,47.75066729929414,-6.860655492421369,2
232,2024-09-14 18:28:19.533165056,TASK_BEGIN,002,-0.6128305747671803,-0.04872891771644194,-2.2728985560064037,1.092152366147599,9.366211023165366,0.0490550609406855,49.169376231214876,-7.028389898833179,2
233,2024-09-14 18:28:19.600482816,TASK_BEGIN,002,-0.6143056773188573,-0.054112649614285746,-2.210219561653376,1.0639745090521362,8.773903395491272,0.3770823478870665,50.60118249127924,-7.319290439487744,2
234,2024-09-14 18:28:19.668670976,TASK_BEGIN,002,-0.6225124592707877,-0.05980973403458119,-2.1728832163019938,1.0346150433159755,8.178362056067265,0.736843987237486,51.97724540700112,-7.72235984050192,2
235,2024-09-14 18:28:20.602669056,TASK_BEGIN,002,-0.6371385191901972,-0.06581414893296204,-2.155769770724399,1.0040323554743291,7.59244227392334,1.1110063390316247,53.205024477164386,-8.21217566038443,2
236,2024-09-14 18:28:20.679958016,TASK_BEGIN,002,-0.6576326840109291,-0.07199480757114254,-2.152953614147777,0.972395258864237,7.033674186400097,1.4815917073238605,54.17936211231632,-8.753689652036423,2
237,2024-09-14 18:28:20.737052928,TASK_BEGIN,002,-0.6831465387688755,-0.07810515437428424,-2.1582291581396227,0.9400756982419051,6.521575545390009,1.8314510181507937,54.793173715564016,-9.306612792283211,2
238,2024-09-14 18:28:20.815345920,TASK_BEGIN,002,-0.7124993394934046,-0.08379710778876412,-2.1656494705286704,0.9075842175635409,6.074696166626971,2.145530790269938,54.94771441106105,-9.829177215978376,2
239,2024-09-14 18:28:20.883123968,TASK_BEGIN,002,-0.744191305007495,-0.08863662137740295,-2.170057081644544,0.8754921573087785,5.708195057825511,2.41172044391079,54.562594476407156,-10.281124872380431,2
240,2024-09-14 18:28:20.937540096,TASK_BEGIN,002,-0.7764781577703254,-0.09212347194422027,-2.1675508925652593,0.8443768289731022,5.432311435489858,2.6212588944024824,53.5843795310747,-10.62551281367124,2
241,2024-09-14 18:28:21.016974848,TASK_BEGIN,002,-0.807504024786125,-0.0937194203132631,-2.1557324179470068,0.814784426294266,5.251685782141517,2.768868687068672,51.99317319346321,-10.829985038563722,2
242,2024-09-14 18:28:21.962885888,TASK_BEGIN,002,-0.8354693295460304,-0.09288800072048832,-2.1336513136765936,0.787194522581385,5.165417434337402,2.852755546704006,49.807904538496615,-10.86878459787306,2
243,2024-09-14 18:28:22.019589888,TASK_BEGIN,002,-0.8587953750322559,-0.08915156798694626,-2.101571941247333,0.7619846159670456,5.167761411753948,2.874484615326704,47.08917535856348,-10.725145269450461,2
244,2024-09-14 18:28:22.097779968,TASK_BEGIN,002,-0.8762577441417612,-0.0821704415701979,-2.060739170871548,0.7394057546027845,5.24920730066812,2.838736876560693,43.93677477992749,-10.392324114448128,2
245,2024-09-14 18:28:22.166163200,TASK_BEGIN,002,-0.8870869900797465,-0.07183427622177047,-2.0131997445063523,0.7195872387964817,5.397487105009072,2.7529799001353648,40.481895898183666,-9.872796071212015,2
246,2024-09-14 18:28:22.220979968,TASK_BEGIN,002,-0.8910330989766083,-0.05833937734450337,-1.9616446317336866,0.7025833019745329,5.598215643811989,2.6270359207835723,36.877294629951884,-9.176850055370084,2
247,2024-09-14 18:28:22.301793280,TASK_BEGIN,002,-0.8883754968302658,-0.04222680021726944,-1.9092666085314827,0.6884531597572654,5.835341732552663,2.472486192960703,33.287831019249104,-8.321737616769951,2
248,2024-09-14 18:28:22.358820864,TASK_BEGIN,002,-0.8798822981264409,-0.02436995565112961,-1.8596527666919396,0.6773393566713142,6.091840542290779,2.301911076399327,29.882084870241545,-7.331744789190897,2
249,2024-09-14 18:28:23.271977728,TASK_BEGIN,002,-0.8667462771607182,-0.0059146481407650175,-1.8166870298928883,0.6694996495535673,6.350890196916418,2.128068687679295,26.82504995098883,-6.2389754596516775,2
250,2024-09-14 18:28:23.354108160,TASK_BEGIN,002,-0.8505045008176726,0.011813764437312675,-1.7844427719086258,0.6652757904454053,6.59738349607755,1.9631573402643325,24.271258419115824,-5.083832571209942,2
251,2024-09-14 18:28:23.410252288,TASK_BEGIN,002,-0.832926707190586,0.02741623217894283,-1.7671387151841154,0.6650294652768604,6.819324551817267,1.8182367621658446,22.358034539473515,-3.914007827538598,2
252,2024-09-14 18:28:23.487480064,TASK_BEGIN,002,-0.8158805556769362,0.03952461580195719,-1.769186211530035,0.6690846396370003,7.008727513407137,1.702756312947667,21.19948568591912,-2.7817510129200076,2
253,2024-09-14 18:28:23.557418240,TASK_BEGIN,002,-0.8012118546394208,0.0469007553242101,-1.7951201294171064,0.677681104830348,7.161940284025385,1.624133392633056,20.880696283415833,-1.7398858737664022,2
254,2024-09-14 18:28:23.625167104,TASK_BEGIN,002,-0.7906541210552565,0.04852877604649354,-1.8491782743550904,0.690924296795478,7.279457344036503,1.5874572188406542,21.450307314713786,-0.8369513262002914,2
255,2024-09-14 18:28:23.692918016,TASK_BEGIN,002,-0.7857320136149284,0.0436939592626608,-1.934623099552845,0.7087328587101303,7.365275122882911,1.5954424557520472,22.91159766546662,-0.11192122679801832,2
256,2024-09-14 18:28:24.630109184,TASK_BEGIN,002,-0.7876321984951498,0.03203921669105603,-2.0531289088046005,0.7308006908648579,7.4258942068196925,1.648642490822875,25.214775797365235,0.4107022310194598,2
257,2024-09-14 18:28:24.703577088,TASK_BEGIN,002,-0.7970746740395555,0.013598497992090675,-2.204432919371281,0.7565815567792394,7.4691799556078555,1.7458107972573704,28.253364735480854,0.7244424277728283,2
258,2024-09-14 18:28:24.769433088,TASK_BEGIN,002,-0.8142323950168556,-0.011184011432335264,-2.3862422873292872,0.7852884135431505,7.503303738797717,1.884296983887571,31.866917296850982,0.8419050975462407,2
259,2024-09-14 18:28:24.839265024,TASK_BEGIN,002,-0.8386989386021088,-0.041443067863921934,-2.594307271390375,0.8158965998014249,7.535892426018684,2.0603923368490737,35.851379930493394,0.7924750576869074,2
260,2024-09-14 18:28:24.906960896,TASK_BEGIN,002,-0.8694756288798842,-0.07589716470460252,-2.8225673156536213,0.8471526132286016,7.57351149771476,2.269514021391612,39.97603774975925,0.6171728413894533,2
261,2024-09-14 18:28:24.974733056,TASK_BEGIN,002,-0.9049805999852133,-0.11288185830548111,-3.063348824989161,0.8776146396750473,7.621545181501487,2.506183552015404,44.00361057017573,0.3625589155062162,2
262,2024-09-14 18:28:25.042416896,TASK_BEGIN,002,-0.9431127992788045,-0.1504179978279185,-3.3077116692647848,0.9057614776237307,7.684212920857603,2.763919155249637,47.70957644059479,0.07531003373901635,2
263,2024-09-14 18:28:25.980854016,TASK_BEGIN,002,-0.981386530197622,-0.18631689565222997,-3.546033070315677,0.9301648185266077,7.764393349009721,3.035195709436646,50.898330128468444,-0.20227582391300278,2
264,2024-09-14 18:28:26.053594880,TASK_BEGIN,002,-1.0171191737616556,-0.21832949558147885,-3.7687820150971354,0.9496617246367889,7.863376766501108,3.3115609675448896,53.41619416594578,-0.43622476497046553,2
265,2024-09-14 18:28:26.121505024,TASK_BEGIN,002,-1.0476466090726435,-0.24434956428306023,-3.9673491035733575,0.9634665224951078,7.98092973972633,3.5839919086391903,55.16194703727001,-0.6041488725601895,2
266,2024-09-14 18:28:26.182505984,TASK_BEGIN,002,-1.0705609312784474,-0.2626598720285316,-4.134771841288066,0.9712098237767632,8.115743226718486,3.8435279959301263,56.093652207109265,-0.6971943808879427,2
267,2024-09-14 18:28:26.257123072,TASK_BEGIN,002,-1.0839863744291434,-0.2721589711056494,-4.266204927292877,0.9729248429214951,8.265966664449113,4.082044924398686,56.228625813043344,-0.7200048478032154,2
268,2024-09-14 18:28:26.320931840,TASK_BEGIN,002,-1.0868718031210918,-0.27247531099948125,-4.3590722921373555,0.9690075450399157,8.429555981043935,4.292894444041074,55.63422142975062,-0.6881736716506927,2
269,2024-09-14 18:28:26.382064896,TASK_BEGIN,002,-1.0791875766934846,-0.2639269078036307,-4.412949848982924,0.9601673087997699,8.604428816326635,4.471197095455878,54.411363783491865,-0.6234635446903922,2
270,2024-09-14 18:28:27.330688000,TASK_BEGIN,002,-1.0619063699732763,-0.24737862560842447,-4.4292636773619005,0.9473632381958526,8.788566866867855,4.613806647666285,52.67646109982158,-0.5484461126722223,2
271,2024-09-14 18:28:27.392718080,TASK_BEGIN,002,-1.0367713688133267,-0.2240830870262236,-4.410860005223425,0.9317068297023463,8.980124524708478,4.719149316998849,50.54646680610072,-0.48268650596436247,2
272,2024-09-14 18:28:27.472256768,TASK_BEGIN,002,-1.0059676941888263,-0.19554886818162123,-4.361510644317854,0.914327750751739,9.177485812590849,4.787093378574321,48.12902391819643,-0.4413507653468002,2
273,2024-09-14 18:28:27.539940096,TASK_BEGIN,002,-0.9718203670795739,-0.16342824037943487,-4.285479877104757,0.8962408941221762,9.379229120445611,4.818848588652585,45.51852701380054,-0.4353831923967681,2
274,2024-09-14 18:28:27.607815936,TASK_BEGIN,002,-0.9365908112922131,-0.12940263640685837,-4.187280520512857,0.8782650875535633,9.584031686129318,4.816849952290743,42.79808808782811,-0.47192267577602276,2
275,2024-09-14 18:28:27.675569152,TASK_BEGIN,002,-0.902376928928102,-0.09506253432152925,-4.071625655905551,0.8609991479416051,9.790612454475326,4.784602815221674,40.045015344803105,-0.5542389855704853,2
276,2024-09-14 18:28:27.732589824,TASK_BEGIN,002,-0.8710656369069658,-0.061800637147933254,-3.943452865474264,0.8448258927880458,9.997866249336315,4.726450997530545,37.33566132402445,-0.6810298707396709,2
277,2024-09-14 18:28:28.660410880,TASK_BEGIN,002,-0.8442787081789819,-0.030740752253022915,-3.807904552779254,0.8299335932271176,10.2051706713833,4.647253135965844,34.746479916946015,-0.8454555329327358,2
278,2024-09-14 18:28:28.714885888,TASK_BEGIN,002,-0.8232935214541749,-0.00271058506498134,-3.670261575697697,0.8163670942545658,10.412515439237358,4.552028250589849,32.35098891419771,-1.034766588714184,2
279,2024-09-14 18:28:28.795941888,TASK_BEGIN,002,-0.808966781177066,0.021750796484339016,-3.535863415233227,0.8041109577164405,10.620110248799161,4.445651881984434,30.21495985682826,-1.2310802684055917,2
280,2024-09-14 18:28:28.854568192,TASK_BEGIN,002,-0.8016956803461265,0.042366820592470135,-3.4099524244683965,0.7931842516474601,10.827506424842497,4.33266728088468,28.392439592973272,-1.4131550079014201,2
281,2024-09-14 18:28:28.931623168,TASK_BEGIN,002,-0.8014236472253575,0.059088111429592236,-3.2973398456873015,0.7837146393763631,11.032605964801627,4.2172564100547065,26.923316467749608,-1.5588882928846077,2
282,2024-09-14 18:28:28.999414016,TASK_BEGIN,002,-0.8076894164245537,0.0720510198265193,-3.201932459059563,0.7759726113653668,11.231073151384548,4.103332447699245,25.832230074745823,-1.648486572721515,2
283,2024-09-14 18:28:29.055032064,TASK_BEGIN,002,-0.8197309841591678,0.08153534555412521,-3.1263426290583762,0.770381559892023,11.416570602604352,3.9946496417312227,25.129106162864147,-1.6680450690143112,2
284,2024-09-14 18:28:30.004978944,TASK_BEGIN,002,-0.8366388919290189,0.08792837773082313,-3.0718252439216265,0.7675355073657862,11.581909941618179,3.8948744197492173,24.81100774164034,-1.6128107359149209,2
285,2024-09-14 18:28:30.078404864,TASK_BEGIN,002,-0.857512063816713,0.09169547162031158,-3.0386098717060155,0.7682227102758032,11.720805739668766,3.8075961048645404,24.864225778789056,-1.4892541572207758,2
286,2024-09-14 18:28:30.146123008,TASK_BEGIN,002,-0.8815644337987021,0.09335116999391575,-3.026452578371209,0.7734090193909564,11.829582225026362,3.736218569295794,25.266300722402896,-1.3152420630288326,2
287,2024-09-14 18:28:30.209861120,TASK_BEGIN,002,-0.9081766224967585,0.0934286893436175,-3.035081985758161,0.7841381708394033,11.908148683303592,3.683680801534961,25.988215542153192,-1.1180225931908125,2
288,2024-09-14 18:28:30.268877056,TASK_BEGIN,002,-0.9369288813530069,0.09245193240365757,-3.0643024226654445,0.8013546028914242,11.960039324716146,3.652019031300841,26.996226884799107,-0.9304161106719632,2
289,2024-09-14 18:28:30.346057984,TASK_BEGIN,002,-0.9676349713319654,0.09091325515817485,-3.113804898682908,0.8257040435538364,11.991815182532369,3.641880083137676,28.25233084070516,-0.7862209148635,2
290,2024-09-14 18:28:30.407182848,TASK_BEGIN,002,-1.000345418261236,0.08925543543582581,-3.182894063193264,0.8573749435235126,12.012103497961585,3.6522102921802357,29.71325845426298,-0.7159504209362327,2
291,2024-09-14 18:28:31.360666880,TASK_BEGIN,002,-1.0352736409146475,0.08785412409993296,-3.2701758920589414,0.8959978288939902,12.030351487627073,3.680316736578865,31.329173792615144,-0.7435235120168928,2
292,2024-09-14 18:28:31.427624960,TASK_BEGIN,002,-1.072640348547255,0.08699878860634576,-3.3731221769182755,0.940583511136721,12.055430362733164,3.722283792613785,33.04331041442894,-0.883903247906775,2
293,2024-09-14 18:28:31.489211904,TASK_BEGIN,002,-1.1124882138666032,0.0868749574861369,-3.487670436331661,0.9895172314292378,12.09435518233993,3.773581089477207,34.79270352227017,-1.141392587755882,2
294,2024-09-14 18:28:31.563996160,TASK_BEGIN,002,-1.1545378238795112,0.08755345719229163,-3.6082523518118514,1.0406672245166741,12.151380945832017,3.829732141493582,36.50959708378097,-1.5084692869143614,2
295,2024-09-14 18:28:31.628026880,TASK_BEGIN,002,-1.1981265145796676,0.08899030371016671,-3.7283952961041784,1.0916210890879852,12.227591986034048,3.886948075377227,38.123449413041804,-1.9654339464032018,2
296,2024-09-14 18:28:31.690717952,TASK_BEGIN,002,-1.2422344159370353,0.09103916936037243,-3.841632019020443,1.1399849624442,12.320860198464702,3.9425976439792136,39.56380111500648,-2.4812234721274726,2
297,2024-09-14 18:28:31.767433728,TASK_BEGIN,002,-1.2855855031520338,0.09347791925941056,-3.942400608241158,1.1836652878289058,12.42595481910131,3.9954243410268484,40.764283260695485,-3.0156268738863177,2
298,2024-09-14 18:28:32.697415936,TASK_BEGIN,002,-1.3268013708001194,0.09604676183513253,-4.026776650117881,1.221083291008599,12.53475867621138,4.045559203090465,41.66773605768281,-3.5232346215568975,2
299,2024-09-14 18:28:32.775450880,TASK_BEGIN,002,-1.3645685260271905,0.09848963082707175,-4.092940862862216,1.2512941522937207,12.636667426232373,4.094428979180181,42.231770527239945,-3.959101187641394,2
300,2024-09-14 18:28:32.837020928,TASK_BEGIN,002,-1.3977722433359008,0.10058764738911308,-4.1412986766455555,1.2739984692343747,12.7192150879515,4.144554411928023,42.43356547723964,-4.284956876820209,2
301,2024-09-14 18:28:32.913736960,TASK_BEGIN,002,-1.4255726666140054,0.10217595369109723,-4.174215626166589,1.2894507835783369,12.768984150600863,4.199159660213214,42.27264048742883,-4.474151210389489,2
302,2024-09-14 18:28:32.975417856,TASK_BEGIN,002,-1.4474346010761787,0.10314331281516437,-4.195383570586794,1.2982846624522535,12.772829015231208,4.261597764603738,41.77076560778946,-4.514060051053409,2
303,2024-09-14 18:28:33.049873920,TASK_BEGIN,002,-1.4631301327724748,0.10342313458720487,-4.2088832721775145,1.301286277349195,12.71930102196586,4.33469952812187,40.968857561838604,-4.405500935725731,2
304,2024-09-14 18:28:33.115126016,TASK_BEGIN,002,-1.4727128537467973,0.10298562433933943,-4.218077243454165,1.2991562946171185,12.60013636206491,4.420143567361489,39.92130850876079,-4.159368657228359,2
305,2024-09-14 18:28:34.036592128,TASK_BEGIN,002,-1.476455236041288,0.10183297083611668,-4.224589330961057,1.2923147548253224,12.411726115503361,4.517908633473916,38.68823280363103,-3.7915615728149903,2
306,2024-09-14 18:28:34.104413952,TASK_BEGIN,002,-1.4747632946058704,0.09999449741160832,-4.22774215781608,1.280819152120655,12.156402526644095,4.625892241049971,37.32614993813971,-3.3179627213544536,2
307,2024-09-14 18:28:34.159240960,TASK_BEGIN,002,-1.468100060127125,0.09752186874235783,-4.224732729501184,1.264439972096328,11.84311455688215,4.7398222918729696,35.878567182136024,-2.7512033292171565,2
308,2024-09-14 18:28:34.237346816,TASK_BEGIN,002,-1.4569295475406028,0.09448706099932032,-4.211500104399753,1.2428725068438102,11.486899639920843,4.853570017510034,34.36892407127266,-2.1000176794421344,2
309,2024-09-14 18:28:34.299424768,TASK_BEGIN,002,-1.4416665626972014,0.09098239405226637,-4.183936354462854,1.2160098220371611,11.106933745754539,4.959837843052382,32.7983731790908,-1.3707073936582976,2
310,2024-09-14 18:28:34.375588864,TASK_BEGIN,002,-1.4226314993375693,0.08711870538456017,-4.139016618471832,1.1841814166243783,10.723696041244605,5.051032630853035,31.149758733039125,-0.5694550870065116,2
311,2024-09-14 18:28:34.438247680,TASK_BEGIN,002,-1.4000428202351807,0.08301999402223638,-4.075497722297686,1.1482665921204307,10.356102560713028,5.12012814814948,29.396780177107,0.2958284993082889,2
312,2024-09-14 18:28:35.386529024,TASK_BEGIN,002,-1.3740738468746398,0.07881708527410893,-3.993988365933787,1.1096292831570633,10.019126793071374,5.161467568392597,27.515065450833653,1.2149166558438693,2
313,2024-09-14 18:28:35.454241024,TASK_BEGIN,002,-1.3449443333397753,0.07464210074932334,-3.8964824304864445,1.0699023278394992,9.72203469867274,5.171510394373604,25.4914863605039,2.175816115648886,2
314,2024-09-14 18:28:35.519206912,TASK_BEGIN,002,-1.312973523864891,0.07062045280762067,-3.785691771656204,1.0307209337698444,9.467350713829356,5.149385568426725,23.32942337328781,3.16561560816366,2
315,2024-09-14 18:28:35.589811968,TASK_BEGIN,002,-1.2785548011174082,0.06685746279459785,-3.6644544273950594,0.9934954052913316,9.250829143788495,5.097032152998003,21.050162138726414,4.170642869539509,2
316,2024-09-14 18:28:35.657667072,TASK_BEGIN,002,-1.2420916708321181,0.06342436237779676,-3.5352766256537778,0.9592464545634857,9.062616418186836,5.018840623788508,18.692534845037958,5.175507103925511,2
317,2024-09-14 18:28:35.719398912,TASK_BEGIN,002,-1.2039622286716054,0.06035201250856009,-3.399992650583454,0.9284917588951763,8.88945257859621,4.920869334043352,16.312380387715624,6.161729316338406,2
318,2024-09-14 18:28:35.793241088,TASK_BEGIN,002,-1.1645295191898717,0.0576342320087753,-3.259600339584915,0.9011979715746097,8.717475563030508,4.809826078336341,13.981600813755652,7.10702003919488,2
319,2024-09-14 18:28:36.723961088,TASK_BEGIN,002,-1.1241658501204166,0.055234747653743914,-3.114377897656202,0.8768337172859346,8.535066604823982,4.692094932057756,11.785760306955424,7.985318079310467,2
320,2024-09-14 18:28:36.802073088,TASK_BEGIN,002,-1.083269745790903,0.05309302989007885,-2.964312814639044,0.8545189127574957,8.335120508773391,4.573043053743362,9.819520700983563,8.767115221842985,2
321,2024-09-14 18:28:36.872150016,TASK_BEGIN,002,-1.0422901718589286,0.05113201896440915,-2.809736505375072,0.8332147201957498,8.116177630493489,4.4566930269228076,8.180368669270127,9.420112775384144,2
322,2024-09-14 18:28:36.925888256,TASK_BEGIN,002,-1.001766804050514,0.04927173507712584,-2.651976342723824,0.8119072309652363,7.882160947301428,4.345747068033853,6.961880097326508,9.910670087568656,2
323,2024-09-14 18:28:37.007740928,TASK_BEGIN,002,-0.9623524855747415,0.04744451621152919,-2.4938360100990353,0.7897681571099937,7.6409157943039,4.241887777169085,6.24695245462026,10.206396900060357,2
324,2024-09-14 18:28:37.065119232,TASK_BEGIN,002,-0.9247753016112172,0.04560328818255223,-2.3397435705209313,0.7662713221900702,7.402090643883611,4.146217457849002,6.100622726043548,10.279970793487148,2
325,2024-09-14 18:28:37.142336000,TASK_BEGIN,002,-0.889742730737345,0.04371994239999386,-2.195446558410346,0.7412395741137047,7.1750782281661065,4.059650948289391,6.562774684265872,10.113565129975333,2
326,2024-09-14 18:28:38.074392064,TASK_BEGIN,002,-0.8578319598036557,0.041777989425218466,-2.0672391413510747,0.7148286872876993,6.967717429948412,3.9830729836069554,7.641612883926005,9.702581991126054,2
327,2024-09-14 18:28:38.151577856,TASK_BEGIN,002,-0.8294118948180581,0.039765844967762046,-1.9608865151428296,0.6874829140675734,6.786088102849451,3.9171945054446433,9.308679040257507,9.057642464990403,2
328,2024-09-14 18:28:38.213112064,TASK_BEGIN,002,-0.8046176036132715,0.037675199612507905,-1.8805557339045285,0.659884266476456,6.6351245626358155,3.8622416927752807,11.49666061955239,8.204501823594056,2
329,2024-09-14 18:28:38.290795264,TASK_BEGIN,002,-0.783368807166855,0.03550404957214876,-1.8280586762791802,0.6328879797572826,6.5193542623568,3.8176717699128724,14.101166189639223,7.182047231440276,2
330,2024-09-14 18:28:38.352680960,TASK_BEGIN,002,-0.7654091312754708,0.033260142760715185,-1.8025553096475837,0.6074263615180968,6.4432152584176,3.7820063178562435,16.98641007913342,6.039024251757536,2
331,2024-09-14 18:28:38.414334976,TASK_BEGIN,002,-0.7503467739257763,0.03096190029639555,-1.800682585603894,0.5843839663985751,6.410925459415022,3.7528053462283775,19.99457072044673,4.830315558924262,2
332,2024-09-14 18:28:38.494042112,TASK_BEGIN,002,-0.7376838516102585,0.028635751973181925,-1.8169935490400597,0.5644738714853145,6.426088441088713,3.7268535254209185,22.958424959278577,3.61319886712489,2
333,2024-09-14 18:28:39.407724032,TASK_BEGIN,002,-0.7268308960414925,0.02630838048487788,-1.8445738033678087,0.5481375230621045,6.491029611288784,3.700650345067386,25.714763994236723,2.4437018296728117,2
334,2024-09-14 18:28:39.480679936,TASK_BEGIN,002,-0.7171320964044539,0.023996511395419255,-1.87573972530694,0.5354702489296723,6.605877298040456,3.671163699695067,28.115820507358873,1.3731409725215389,2
335,2024-09-14 18:28:39.547913984,TASK_BEGIN,002,-0.7079474466488248,0.02170437463676213,-1.9028345738866541,0.5261850556919345,6.76771470592826,3.6366009421903076,30.0388913783435,0.44491677217000225,2
336,2024-09-14 18:28:39.609056000,TASK_BEGIN,002,-0.6987989701756178,0.019436625764675364,-1.9191253836787068,0.5196369937832298,6.970176200575552,3.596891461194041,31.39515944766403,-0.3082494595493814,2
337,2024-09-14 18:28:39.684076800,TASK_BEGIN,002,-0.6895199630866257,0.017221238748996233,-1.9196165843557873,0.5149122225789184,7.203591856768741,3.5537577725287077,32.13653982445912,-0.8664099864530245,2
338,2024-09-14 18:28:39.748072960,TASK_BEGIN,002,-0.6803271251646327,0.015126806227413926,-1.901545562166299,0.5109727507158355,7.455612147745953,3.5104755253826974,32.25925409078013,-1.2238554991908144,2
339,2024-09-14 18:28:39.819529984,TASK_BEGIN,002,-0.671777663096866,0.013261398688112413,-1.8645250564441944,0.5068427659420134,7.712220965487216,3.4714578331870105,31.804762038599282,-1.3899638676620467,2
340,2024-09-14 18:28:40.748076800,TASK_BEGIN,002,-0.6646311992627089,0.011752374544026431,-1.8104829127950437,0.5018059252287339,7.958969661437731,3.441715539493467,30.8582494160713,-1.3889183739267528,2
341,2024-09-14 18:28:40.829391872,TASK_BEGIN,002,-0.65966632491615,0.01071648263528372,-1.7434858675680929,0.4955602141529062,8.182148000076007,3.4262266030960147,29.542746528172785,-1.2577005338501974,2
342,2024-09-14 18:28:40.887485184,TASK_BEGIN,002,-0.6574936995011557,0.010230057088828601,-1.6693376966918103,0.4882699847263802,8.369618133275184,3.4293141980974777,28.007603914269026,-1.0425231083472624,2
343,2024-09-14 18:28:40.964858880,TASK_BEGIN,002,-0.6583974200152183,0.01030657009300861,-1.5948465342905054,0.48049524917569203,8.511216107198148,3.454177305709333,26.413419467875258,-0.7945314081215048,2
344,2024-09-14 18:28:41.032486912,TASK_BEGIN,002,-0.6622409964273659,0.01088846448998471,-1.526883252698003,0.47304499768845015,8.598828894482457,3.502654436972944,24.917432220356844,-0.5654594583937093,2
345,2024-09-14 18:28:41.089641216,TASK_BEGIN,002,-0.6684564932507592,0.01185668342054261,-1.4714827662033267,0.46682082738827513,8.62641802857785,3.5751603497144147,23.662151078369565,-0.4034265937331163,2
346,2024-09-14 18:28:41.167300096,TASK_BEGIN,002,-0.676100909011598,0.013054946288507644,-1.4331860058645007,0.4626881049760009,8.590360555113984,3.6706585896667008,22.76745121319983,-0.3489045507216946,2
347,2024-09-14 18:28:42.106599168,TASK_BEGIN,002,-0.6839651900159422,0.01432310922510629,-1.4147485809826206,0.46139265820390707,8.49032931323048,3.7866083933712065,22.324486935309732,-0.43107429919161294,2
348,2024-09-14 18:28:42.168195072,TASK_BEGIN,002,-0.6907406873155425,0.015533451267760892,-1.4172510700418435,0.4635293438021624,8.330503659520852,3.91893903264456,22.389460179734698,-0.6649423373596054,2
349,2024-09-14 18:28:42.245639936,TASK_BEGIN,002,-0.6952284618551284,0.016622401767590913,-1.4404770672008294,0.4695363543183111,8.120511328724845,4.062113338400372,22.977477670811034,-1.049757100469129,2
350,2024-09-14 18:28:42.314804224,TASK_BEGIN,002,-0.696533253892054,0.017610321717162692,-1.483325576187392,0.47967456564667615,7.875511526259285,4.209291847381704,24.059965776779553,-1.5694196778112381,2
351,2024-09-14 18:28:42.382522880,TASK_BEGIN,002,-0.6941743539165849,0.018603987125748563,-1.5441191593543275,0.49399087181132306,7.615280380432155,4.352603448077105,25.568747122367352,-2.1950423647187405,2
352,2024-09-14 18:28:42.446388992,TASK_BEGIN,002,-0.688088532654345,0.019780255111300892,-1.6208202963260356,0.5123037821411053,7.362626358298885,4.4835454101814545,27.405404125728698,-2.8887533188027343,2
353,2024-09-14 18:28:42.507456000,TASK_BEGIN,002,-0.6785599271374532,0.02135640658661314,-1.7111837640365415,0.5342322830594182,7.141553334875192,4.59348834287148,29.451644790568192,-3.6075093584131053,2
354,2024-09-14 18:28:43.452254208,TASK_BEGIN,002,-0.6661315456595405,0.023557872208476226,-1.8127967366060713,0.5592478570070011,6.975485582326532,4.67417345861942,31.577976909918412,-4.306307542827758,2
355,2024-09-14 18:28:43.529422080,TASK_BEGIN,002,-0.6515211810190167,0.026590889282765033,-1.9229894875787592,0.5867190163903436,6.885767430999114,4.7181080167738605,33.65108119203661,-4.94088698341561,2
356,2024-09-14 18:28:43.597232128,TASK_BEGIN,002,-0.635543821359447,0.030621844195708167,-2.0387449288726573,0.6159381434565934,6.890433394249203,4.718900639580727,35.541220991171,-5.470083531620302,2
357,2024-09-14 18:28:43.652080128,TASK_BEGIN,002,-0.6190652483484947,0.03576468325048748,-2.1567489302567764,0.6461391379525974,7.003049665014564,4.671652492623969,37.12974838713952,-5.857723536144506,2
358,2024-09-14 18:28:43.732823040,TASK_BEGIN,002,-0.6030133972303345,0.042077800794247305,-2.2735361517545094,0.676510045887738,7.2315348762102865,4.573451254736735,38.316235105195474,-6.074194200220065,2
359,2024-09-14 18:28:43.791321088,TASK_BEGIN,002,-0.5884210717696846,0.04956649080261621,-2.3855925613398514,0.7061935947661024,7.5771709059642625,4.423893714985897,39.0257342655326,-6.098359835956956,2
360,2024-09-14 18:28:43.868327936,TASK_BEGIN,002,-0.5764329237004839,0.05818299009401048,-2.489442959934881,0.7342838290496952,8.034106826809326,4.2255060731787655,39.21637869984633,-5.920162642920638,2
361,2024-09-14 18:28:44.786625024,TASK_BEGIN,002,-0.5682366365624334,0.0678210599060478,-2.581892851053992,0.7598528569745562,8.589341850573259,3.983985488476666,38.88531889437779,-5.543144982631552,2
362,2024-09-14 18:28:44.852459008,TASK_BEGIN,002,-0.5649393768293005,0.07831204641250467,-2.6604253302866576,0.7820253605877234,9.222865319538672,3.7082715730328855,38.06973970866271,-4.985495958146061,2
363,2024-09-14 18:28:44.922327040,TASK_BEGIN,002,-0.5674424415337389,0.08943360640615042,-2.7234733976898284,0.8000642846060786,9.90781645886403,3.410438786833129,36.841301715526455,-4.278601805929021,2
364,2024-09-14 18:28:44.975665920,TASK_BEGIN,002,-0.5763541722857926,0.10093537219667137,-2.7703019541815426,0.813412061161341,10.610936832791573,3.1052870808806685,35.29589446646172,-3.4629661086536463,2
365,2024-09-14 18:28:45.052881920,TASK_BEGIN,002,-0.5919543828511128,0.1125736825729232,-2.8005810955147323,0.8216853573059008,11.293669925994374,2.8094852051830603,33.54252547437703,-2.5822492932915937,2
366,2024-09-14 18:28:45.125662976,TASK_BEGIN,002,-0.6142062339489872,0.12414238939704456,-2.814027625255094,0.8246760103189265,11.913971109417181,2.540317355464243,31.693092322981254,-1.6768197783545282,2
367,2024-09-14 18:28:45.191633920,TASK_BEGIN,002,-0.6428007116144681,0.1354933103253491,-2.810417893617255,0.8223893829022539,12.42860810161285,2.314316344487373,29.852327798458383,-0.7784053056690401,2
368,2024-09-14 18:28:46.133647872,TASK_BEGIN,002,-0.6772122188731349,0.14654872922894083,-2.7899524839842362,0.8150975037333942,12.795675561895521,2.146083512832459,28.10852383038465,0.09290005727172726,2
369,2024-09-14 18:28:46.195185152,TASK_BEGIN,002,-0.7167521483537432,0.1573106272344915,-2.7537112851558945,0.8033722667687829,12.977059767607965,2.0474436270752405,26.52843618697791,0.9286353392137151,2
370,2024-09-14 18:28:46.257672192,TASK_BEGIN,002,-0.760628745829006,0.1678689154611881,-2.703910890297583,0.7880793471733571,12.940635547604485,2.026899552280995,25.159561413710154,1.7289783804485725,2
371,2024-09-14 18:28:46.335750912,TASK_BEGIN,002,-0.8080257565748744,0.1784058422991102,-2.6438225417942607,0.7703259151928062,12.66216464352676,2.089218090017661,24.038529081064056,2.4977665541838037,2
372,2024-09-14 18:28:46.407433984,TASK_BEGIN,002,-0.858183456334755,0.18918760681323557,-2.577425020074358,0.7513726176380047,12.126971092227556,2.235036495895254,23.19967933293513,3.23769894802869,2
373,2024-09-14 18:28:46.475156992,TASK_BEGIN,002,-0.9104414299883535,0.200535654434881,-2.508953899934648,0.732525343690057,11.33137368535403,2.4605852117840294,22.678865986467894,3.9475938151170693,2
374,2024-09-14 18:28:46.536239104,TASK_BEGIN,002,-0.964217862581182,0.2127804978585458,-2.4424295447802,0.7150076666277062,10.283775595009157,2.7577121571164525,22.5125817295887,4.621874160072471,2
375,2024-09-14 18:28:47.486226176,TASK_BEGIN,002,-1.0189299379274104,0.22620804934980726,-2.381229221650607,0.6998293120444059,9.005283123595865,3.114292287264689,22.734579238129136,5.251558220062052,2
376,2024-09-14 18:28:47.543543296,TASK_BEGIN,002,-1.0738758595470503,0.24100815173287163,-2.3278413385137324,0.6877002750077214,7.529737208409005,3.5149468484125994,23.370342924515086,5.826125933410972,2
377,2024-09-14 18:28:47.620774912,TASK_BEGIN,002,-1.128112202207125,0.25723365202489706,-2.2838853230043044,0.6790209705556672,5.903113033838955,3.9418986792122706,24.428887474752628,6.335395957833037,2
378,2024-09-14 18:28:47.689552128,TASK_BEGIN,002,-1.1803707366369744,0.27477586633448003,-2.2503004002053686,0.6739206809115803,4.1821402163158785,4.375842447262265,25.893449325233714,6.770636993839204,2
379,2024-09-14 18:28:47.757412096,TASK_BEGIN,002,-1.2290497389315735,0.29335745968230686,-2.2275172297527517,0.6723005946653432,2.4317740037818787,4.796876882126997,27.715058748448392,7.124999710251548,2
380,2024-09-14 18:28:47.825100032,TASK_BEGIN,002,-1.272292204508562,0.3125429704360228,-2.215514544863098,0.6738724959586145,0.7212771011572544,5.185612654376045,29.81235395815322,7.393734212679977,2
381,2024-09-14 18:28:47.881938944,TASK_BEGIN,002,-1.3081372284904131,0.33176946088517173,-2.2138044648036463,0.6782145223147289,-0.8808941774460104,5.524434369351377,32.0777987322002,7.574460009146297,2
382,2024-09-14 18:28:48.814615040,TASK_BEGIN,002,-1.3347033293636346,0.35039477338943226,-2.221441582064484,0.6848578579069029,-2.312887132328307,5.798742610121944,34.38807746957265,7.667668498542245,2
383,2024-09-14 18:28:48.892034048,TASK_BEGIN,002,-1.350358072689073,0.36775109790537414,-2.2371026509573957,0.6933831782465609,-3.5251061857733994,5.997975752859953,36.61579043602991,7.677393967364167,2
384,2024-09-14 18:28:48.959756032,TASK_BEGIN,002,-1.353862577686015,0.38319111456653915,-2.2592002316168265,0.7034812097888442,-4.484487797913075,6.116238147654255,38.63994093910808,7.61157907474019,2
385,2024-09-14 18:28:49.027660032,TASK_BEGIN,002,-1.344509641952664,0.3961241539556486,-2.2859372280162473,0.714947747336571,-5.176285083222919,6.152421988428645,40.35436673688699,7.481637912598854,2
386,2024-09-14 18:28:49.095385088,TASK_BEGIN,002,-1.3222568800211123,0.4060483334532323,-2.3152486311077363,0.7276244924334708,-5.603170196827112,6.109859159116863,41.675099738943125,7.301035407325657,2
387,2024-09-14 18:28:49.163321088,TASK_BEGIN,002,-1.2878188657774647,0.41258363551298727,-2.344696151638078,0.7413227347436501,-5.782423262073712,5.995674880523447,42.54792739779142,7.082866107779659,2
388,2024-09-14 18:28:49.219531008,TASK_BEGIN,002,-1.2426745798120495,0.41550308963948523,-2.3714526814160988,0.7557642546898894,-5.742334395210196,5.820019632145191,42.956179443891564,6.836685222777455,2
389,2024-09-14 18:28:50.178494976,TASK_BEGIN,002,-1.1889737608186544,0.41475313321622925,-2.392451294579473,0.7705553362759981,-5.5187126428669195,5.595279319650366,42.92657897574018,6.565612095314711,2
390,2024-09-14 18:28:50.254750976,TASK_BEGIN,002,-1.1293587807107137,0.41045466974454664,-2.4046246536484923,0.7851871375049733,-5.1517828418810465,5.335284491000934,42.52939444122714,6.265068312624458,2
391,2024-09-14 18:28:50.322606080,TASK_BEGIN,002,-1.0667292050791102,0.40288074113418876,-2.4051165014105815,0.7990524480500735,-4.683232174431534,5.054483414118878,41.86987131672652,5.92384684344161,2
392,2024-09-14 18:28:50.390319104,TASK_BEGIN,002,-1.0039716217344712,0.392414217514255,-2.391502336012051,0.8114895429725705,-4.153247026085937,4.767039670011463,41.07091607323841,5.527337025795599,2
393,2024-09-14 18:28:50.457612032,TASK_BEGIN,002,-0.9436878941570412,0.3794987646381283,-2.362127526173609,0.8218604270172676,-3.5978029963554503,4.485879946840126,40.25097344244472,5.061931896018167,2
394,2024-09-14 18:28:50.525768960,TASK_BEGIN,002,-0.887973053561352,0.3645995354489019,-2.316474005455035,0.8296331596181203,-3.04661962891859,4.221821549353362,39.504005891711984,4.518957668977302,2
395,2024-09-14 18:28:50.579353088,TASK_BEGIN,002,-0.8382911363800071,0.3481820150247167,-2.2553423452426116,0.8344280096474167,-2.5219848970004675,3.982960214046997,38.887972092378405,3.8966988276885357,2
396,2024-09-14 18:28:51.512009984,TASK_BEGIN,002,-0.7954746259365534,0.3307072664508013,-2.18080253071472,0.8360219689887269,-2.0384103334606642,3.774428222136714,38.42390043406322,3.2002920375265367,2
397,2024-09-14 18:28:51.565332992,TASK_BEGIN,002,-0.7598321211442379,0.3126363336792602,-2.0960224385822492,0.8343326515656834,-1.6030606690130411,3.5985155824672597,38.10302680516154,2.4402858968471253,2
398,2024-09-14 18:28:51.647474176,TASK_BEGIN,002,-0.7312984346500387,0.2944348263461214,-2.00504199805003,0.8294005031248189,-1.2169575360507465,3.4550770097510064,37.89768985487273,1.6309143723652146,2
399,2024-09-14 18:28:51.704564224,TASK_BEGIN,002,-0.7095536530311566,0.27657078046261796,-1.9124945342785293,0.8213835273343718,-0.8767522248775903,3.34212504315342,37.77217239418783,0.7888482738932293,2
400,2024-09-14 18:28:51.781316864,TASK_BEGIN,002,-0.6940889069885067,0.2595029744960444,-1.823241136214413,0.8105684509496452,-0.5766414287298157,3.256529783400901,37.69112838382535,-0.06744945671821365,2
401,2024-09-14 18:28:51.843805184,TASK_BEGIN,002,-0.6842436477084307,0.24365920377902772,-1.741843017801242,0.7973722936626052,-0.31005301256289425,3.194745996107151,37.62495793666471,-0.9180813651015218,2
402,2024-09-14 18:28:51.918607872,TASK_BEGIN,002,-0.6792428217943065,0.2294075800222584,-1.67186593226639,0.7822967355433441,-0.07081315352073586,3.153407733256673,37.55226512330761,-1.741744373761788,2
403,2024-09-14 18:28:52.862316032,TASK_BEGIN,002,-0.6782473651383164,0.2170299633287378,-1.6152004179824653,0.7658395663279718,0.14643817992026434,3.129597035142927,37.459580609660016,-2.515151577354232,2
404,2024-09-14 18:28:52.917384960,TASK_BEGIN,002,-0.6804149221568302,0.20670592544588304,-1.571704244346727,0.7484198792787313,0.3465827427209629,3.120732994687235,37.33901467127267,-3.212383308260221,2
405,2024-09-14 18:28:52.997909248,TASK_BEGIN,002,-0.6849513684284247,0.19850737866031978,-1.539410509916021,0.7303752182761802,0.5346831588207495,3.1242611054493885,37.184999299420234,-3.805254973305513,2
406,2024-09-14 18:28:53.055097856,TASK_BEGIN,002,-0.6911329751208642,0.19240031177680797,-1.5153040881868376,0.7120411657390959,0.7161994506180347,3.1374639478019146,36.99161162728245,-4.265191943865477,2
407,2024-09-14 18:28:53.133446144,TASK_BEGIN,002,-0.6982983694191384,0.18825331573800222,-1.4963457143521557,0.6938663810872591,0.8962884174044681,3.1576047338221995,36.75235371441214,-4.566541690199806,2
408,2024-09-14 18:28:53.193873664,TASK_BEGIN,002,-0.70583632815484,0.18585577813260318,-1.4802728207208198,0.6764887263574361,1.0785854432534936,3.182327240400982,36.462936172682355,-4.69077502247799,2
409,2024-09-14 18:28:53.255378944,TASK_BEGIN,002,-0.7132040093567781,0.1849478620682361,-1.4659094079211206,0.6607263078232939,1.2642803123738429,3.2100740838581037,36.124772497347045,-4.630128241016632,2
410,2024-09-14 18:28:54.197534208,TASK_BEGIN,002,-0.7199749024880201,0.1852577719949091,-1.4530518389994802,0.6474936429066027,1.451763871533116,3.240350979290508,35.74663919430363,-4.3894044972384245,2
411,2024-09-14 18:28:54.275227904,TASK_BEGIN,002,-0.7258771567784188,0.18653513834047802,-1.4421464225609633,0.6376813005632304,1.6365445393986906,3.2737523520255616,35.344572103642356,-3.9862061225787,2
412,2024-09-14 18:28:54.347771904,TASK_BEGIN,002,-0.730803632745022,0.18857248155760623,-1.4339365227701657,0.6320302390806297,1.8112442931814232,3.311709514474426,34.94063788595563,-3.450438597801249,2
413,2024-09-14 18:28:54.415534848,TASK_BEGIN,002,-0.7348149820219135,0.19121494628295085,-1.429181234323547,0.6310237909393906,1.9658811023587281,3.356015149275606,34.559325711506055,-2.8227880699032957,2
414,2024-09-14 18:28:54.475384064,TASK_BEGIN,002,-0.7381480104863992,0.1943611611557891,-1.4284912820034688,0.634817742150087,2.0887584750130745,3.4082545971158344,34.22109658367738,-2.151375256123426,2
415,2024-09-14 18:28:54.551148800,TASK_BEGIN,002,-0.7412135281645981,0.19795770883342154,-1.4322883354084397,0.6432158890135169,2.1680115428474367,3.4692879580003093,33.93634081321294,-1.4870511747343884,2
416,2024-09-14 18:28:54.614125056,TASK_BEGIN,002,-0.7445677515376189,0.20199034662391765,-1.4408663902735108,0.6556833924284999,2.193443046137295,3.5389131042334654,33.70410387525787,-0.8787808694901851,2
417,2024-09-14 18:28:55.537175040,TASK_BEGIN,002,-0.7488543422847016,0.20647304960403748,-1.4544941185379099,0.671389403983765,2.15817073549453,3.615738046392441,33.517103638084244,-0.36993716233878277,2
418,2024-09-14 18:28:55.604995072,TASK_BEGIN,002,-0.7547229842255787,0.21143274073089136,-1.473448642763266,0.6892730047350011,2.0598562691385265,3.6971471713695365,33.37089028676144,0.00452866627220954,2
419,2024-09-14 18:28:55.672780032,TASK_BEGIN,002,-0.7627388215251222,0.21688902783779204,-1.4978898263988245,0.7081213469791048,1.9013959115843377,3.7792770737764134,33.27227685000635,0.22013790061417893,2
420,2024-09-14 18:28:55.737568000,TASK_BEGIN,002,-0.7732992120946004,0.22283228667518917,-1.5275967060431284,0.7266464605802979,1.6908073227124405,3.857131397334053,33.242180017853556,0.2641382521102917,2
421,2024-09-14 18:28:55.808371968,TASK_BEGIN,002,-0.786562385163913,0.2292040354466485,-1.5616789149982087,0.7435505621893289,1.4401156298888507,3.925072290743559,33.31169073112057,0.13602229065175805,2
422,2024-09-14 18:28:55.866838016,TASK_BEGIN,002,-0.8023856765306042,0.23588133307312165,-1.598363906423551,0.7575740823562028,1.1634983419124643,3.97772692834479,33.513903536819164,-0.1525445163179161,2
423,2024-09-14 18:28:55.943537152,TASK_BEGIN,002,-0.8202897006500328,0.24266749383361388,-1.6349404182379579,0.7675383064283577,0.8753445344974177,4.011026376621552,33.874707233527346,-0.5782397640450004,2
424,2024-09-14 18:28:56.886786816,TASK_BEGIN,002,-0.8394812837376958,0.24929399597299665,-1.667962250615221,0.7724151322758325,0.5887894771683007,4.023000400130353,34.40529023338851,-1.1072441329765759,2
425,2024-09-14 18:28:56.954870016,TASK_BEGIN,002,-0.8589462835031928,0.2554367785522111,-1.6937681749861653,0.771442340375652,0.31486353706976633,4.0141099921576755,35.09900217678528,-1.6978476451390103,2
426,2024-09-14 18:28:57.022351104,TASK_BEGIN,002,-0.8775870168783053,0.2607452042338269,-1.7092279838247693,0.7642644538387771,0.06207093431033662,3.9870763882261118,35.9338063651516,-2.3050643033129754,2
427,2024-09-14 18:28:57.077020928,TASK_BEGIN,002,-0.8943682161584537,0.2648791325327079,-1.712502719112382,0.7510542329762478,-0.16384164410401011,3.946302008371962,36.87858530647699,-2.88631313440609,2
428,2024-09-14 18:28:57.154150912,TASK_BEGIN,002,-0.9084404634424168,0.26754747956282066,-1.7035594511571461,0.7325603864241568,-0.3599729426486358,3.8970913296134886,37.89970217051024,-3.405987853778965,2
429,2024-09-14 18:28:57.215715840,TASK_BEGIN,002,-0.9192099646366869,0.2685395533917669,-1.6842184196130363,0.710038581749414,-0.5260455849342052,3.8448623797800034,38.96500249969914,-3.837329904256395,2
430,2024-09-14 18:28:57.291934208,TASK_BEGIN,002,-0.9263415466961212,0.26774382468533775,-1.6577069309049244,0.6850739474444515,-0.6638249013154222,3.7944421791300194,40.044045961145926,-4.161824732463637,2
431,2024-09-14 18:28:58.225161216,TASK_BEGIN,002,-0.9297216094457449,0.26515588351686703,-1.6279660621544136,0.6593604810726569,-0.776452370727897,3.7495573755834957,41.104524526749266,-4.367525405623725,2
432,2024-09-14 18:28:58.302369024,TASK_BEGIN,002,-0.9294170571670016,0.2608787387810987,-1.5989886578345807,0.6345027394050163,-0.8680601032079189,3.7126833558299763,42.10676154188246,-4.447609491624118,2
433,2024-09-14 18:28:58.372028928,TASK_BEGIN,002,-0.9256356147810533,0.25511461955717857,-1.5742340583673742,0.6118585636117756,-0.9437602253082011,3.685280184520963,43.00044252220709,-4.399826312632318,2
434,2024-09-14 18:28:58.425993984,TASK_BEGIN,002,-0.9186694319571378,0.2481451197847511,-1.5560793019715922,0.5924181756629796,-1.0097046939877854,3.668234066443436,43.72690798339995,-4.226850698554339,2
435,2024-09-14 18:28:58.504102912,TASK_BEGIN,002,-0.9088084266543428,0.24029834267180625,-1.5454262315683542,0.5767258604905801,-1.0728059437925872,3.66230074618733,44.2260433898611,-3.936972954975704,2
436,2024-09-14 18:28:58.575308032,TASK_BEGIN,002,-0.8962374193331634,0.231908423386028,-1.5416222512263427,0.5648542785148915,-1.1400798493068764,3.6684692400711043,44.4438472801694,-3.5442751871454794,2
437,2024-09-14 18:28:58.643024896,TASK_BEGIN,002,-0.8809618834953049,0.2232802858316837,-1.5426997409993994,0.5564371629017991,-1.218019151911836,3.68821847996059,44.337726810159744,-3.0677114723790995,2
438,2024-09-14 18:28:59.586437888,TASK_BEGIN,002,-0.8628022873505601,0.21467089318266042,-1.5458336414473546,0.5507649925481163,-1.3123958132314777,3.7236016886829852,43.878997074500234,-2.5292449825735472,2
439,2024-09-14 18:28:59.654385920,TASK_BEGIN,002,-0.8414542508838373,0.20628818091510862,-1.5478860710855729,0.5469257550785982,-1.4284405565760558,3.7770774259174424,43.05389463641944,-1.9520212469059497,2
440,2024-09-14 18:28:59.716057088,TASK_BEGIN,002,-0.8165811864232103,0.1983015537593035,-1.5459002884624398,0.5439393205161307,-1.5709896116288617,3.8510723871504844,41.865032305471466,-1.3596646234820882,2
441,2024-09-14 18:28:59.777124096,TASK_BEGIN,002,-0.787911409051317,0.1908574939343404,-1.5374625467544363,0.5408428040735741,-1.7443151359932083,3.947384587798314,40.334025693734915,-0.7767204692229583,2
442,2024-09-14 18:28:59.854293248,TASK_BEGIN,002,-0.755322648420781,0.18409599489296796,-1.5209066108989493,0.5367321191128525,-1.951784361103555,4.066634936171016,38.50421982071968,-0.2289688380302639,2
443,2024-09-14 18:28:59.925491200,TASK_BEGIN,002,-0.7188933284457839,0.17816348099533255,-1.4953443151802355,0.5307940476535565,-2.1956930015451275,4.207965182242097,36.44214499437935,0.2576955208057353,2
444,2024-09-14 18:28:59.992645120,TASK_BEGIN,002,-0.678901212047477,0.17321570109249398,-1.460578106017983,0.5223541521101286,-2.4773323964437592,4.369037938425019,34.23706534963037,0.6598183456386009,2
445,2024-09-14 18:29:00.936624128,TASK_BEGIN,002,-0.6357772807406835,0.16940718697582421,-1.4170453154437284,0.510942124681048,-2.796997198193368,4.546221774812858,31.99799255558777,0.9592044987246086,2
446,2024-09-14 18:29:00.993684992,TASK_BEGIN,002,-0.5900517934801841,0.16687260597879075,-1.365850459494387,0.49635246784136333,-3.153774848992267,4.734804742696993,29.847433549887157,1.144869826932164,2
447,2024-09-14 18:29:01.070866176,TASK_BEGIN,002,-0.5423161983656664,0.1657068931036233,-1.3087718814739902,0.4786712013151558,-3.5453713909081768,4.929180996098119,27.91215173405353,1.2138533376257903,2
448,2024-09-14 18:29:01.133352960,TASK_BEGIN,002,-0.4931880519074344,0.1659448896971521,-1.2481649216813455,0.4582635343769981,-3.968246781199619,5.123056260582347,26.312148970464087,1.1712795884751415,2
449,2024-09-14 18:29:01.197091072,TASK_BEGIN,002,-0.44326256886435145,0.16754064094294943,-1.186807969497002,0.43573552355777734,-4.41794501746883,5.309749018658834,25.14906935687762,1.0301643032789822,2
450,2024-09-14 18:29:01.272645888,TASK_BEGIN,002,-0.39306050219040906,0.1703511127576221,-1.127736934827942,0.4118695805449959,-4.889358989523053,5.482645626928173,24.49551356639857,0.8111468659505187,2
451,2024-09-14 18:29:01.343483904,TASK_BEGIN,002,-0.3429911996118853,0.17412895642431261,-1.0740994848778367,0.38753678506300393,-5.376902665862225,5.635792925684368,24.387388244621192,0.5417338926902708,2
452,2024-09-14 18:29:02.286683136,TASK_BEGIN,002,-0.29333237546142904,0.17852450664735844,-1.0290661391405003,0.3636132276778795,-5.8746723069244,5.764492587527912,24.821423588140586,0.25422420257331263,2
453,2024-09-14 18:29:02.342733824,TASK_BEGIN,002,-0.24421835579191517,0.18309552334847842,-0.9957525752600285,0.34092331903772893,-6.376508736068205,5.865707829596852,25.75900157469388,-0.01809512189570712,2
454,2024-09-14 18:29:02.422363136,TASK_BEGIN,002,-0.1956396291120739,0.1873257986559431,-0.9770531181996871,0.32021215990636315,-6.875710986094269,5.938180983607567,27.134842928234576,-0.24587416572930912,2
455,2024-09-14 18:29:02.481957120,TASK_BEGIN,002,-0.14745836146825167,0.19065497704068524,-0.9753752108272877,0.30214427080402945,-7.364259595661315,5.982301181307076,28.866484773868414,-0.40835691376949806,2
456,2024-09-14 18:29:02.557864960,TASK_BEGIN,002,-0.0994299421615393,0.1925194265613495,-0.9923612424081352,0.2873219170978287,-7.831851566767433,5.999821202230058,30.861725143380195,-0.49634501927824387,2
457,2024-09-14 18:29:02.620709888,TASK_BEGIN,002,-0.05122623248333799,0.1924034547040348,-1.0286770332841835,0.2763058355190748,-8.265506927184259,5.9935060269346785,33.0253573393648,-0.5129658948067725,2
458,2024-09-14 18:29:02.683333120,TASK_BEGIN,002,-0.0024838188022127377,0.18990156649871268,-1.0839091244501047,0.26962394763842534,-8.650453914971692,5.9668007640457805,35.267023732503446,-0.4727389697968447,2
459,2024-09-14 18:29:03.636610048,TASK_BEGIN,002,0.047100636592545035,0.18478638919304435,-1.1565829011250075,0.26776445608645316,-8.972273227033144,5.9236017775535705,37.50765044289483,-0.3991096663475188,2
460,2024-09-14 18:29:03.704492288,TASK_BEGIN,002,0.09765048243568482,0.17706440980039098,-1.2442502570767604,0.27114406700649557,-9.219413637885086,5.868125492242655,39.680176749945886,-0.32005178035043436,2
461,2024-09-14 18:29:03.772211968,TASK_BEGIN,002,0.1490174078632143,0.16699855040921138,-1.3435872156370705,0.28003614895441126,-9.385004771224459,5.8047889700190884,41.7246592427921,-0.26239642657300816,2
462,2024-09-14 18:29:03.839992064,TASK_BEGIN,002,0.20074645412205985,0.15508893393238732,-1.45056788274455,0.29447498538275246,-9.467452032000006,5.7380350703873075,43.582085807837665,-0.24682548155596523,2
463,2024-09-14 18:29:03.907742976,TASK_BEGIN,002,0.25208657874989854,0.1420184854931911,-1.5608478861991772,0.31419081070350524,-9.46984259732715,5.672083649608028,45.19055510658306,-0.28486958857781164,2
464,2024-09-14 18:29:03.961051136,TASK_BEGIN,002,0.3020261193691915,0.12857751935154627,-1.6703404706510647,0.33861439239650554,-9.398339765899292,5.610610218947795,46.48470360862745,-0.3778285615470776,2
465,2024-09-14 18:29:04.043365888,TASK_BEGIN,002,0.34934239421485774,0.11558300240026177,-1.7758052527759156,0.36693915472590277,-9.259944189538786,5.5564092364524615,47.39819048176327,-0.5171224669384836,2
466,2024-09-14 18:29:04.962699008,TASK_BEGIN,002,0.39266442898581205,0.10380638496793472,-1.875270276843285,0.3982001579950454,-9.06052800442854,5.51121722430517,47.86899405182847,-0.6858593809762925,2
467,2024-09-14 18:29:05.030523904,TASK_BEGIN,002,0.4305557944134982,0.09391748540291807,-1.968162610975103,0.43133008062565886,-8.804193610214783,5.475857378345065,47.84655492768274,-0.8614435242540656,2
468,2024-09-14 18:29:05.098360064,TASK_BEGIN,002,0.46162069028632313,0.08644517089591688,-2.055069599069937,0.4651740115730043,-8.49414126752972,5.450623243821113,47.2992465593221,-1.0190331772554921,2
469,2024-09-14 18:29:05.164334080,TASK_BEGIN,002,0.48461775866303314,0.08175450734680775,-2.137149437888623,0.49847450429616597,-8.134196058168671,5.435654335852397,46.22064565728188,-1.135717172332289,2
470,2024-09-14 18:29:05.233889792,TASK_BEGIN,002,0.4985536518010377,0.08004101368088783,-2.215346573419274,0.5298515925077466,-7.730106601826059,5.43116413439881,44.63280881944846,-1.1948571351283952,2
471,2024-09-14 18:29:05.301701888,TASK_BEGIN,002,0.5027347169307798,0.08134011356061409,-2.289677766829973,0.5578083796657158,-7.2903380872565675,5.43752314346716,42.58503886144224,-1.1893299149779863,2
472,2024-09-14 18:29:05.364299008,TASK_BEGIN,002,0.49677167623676666,0.08554675704449295,-2.3588445048273705,0.5808009747212529,-6.826398482674468,5.455228849035841,40.14872146421548,-1.122559891689875,2
473,2024-09-14 18:29:06.307295232,TASK_BEGIN,002,0.48054898831737425,0.0924396256765992,-2.420284852594393,0.5973918347748468,-6.352715381002271,5.484780153740659,37.411415033823104,-1.0074886818769713,2
474,2024-09-14 18:29:06.378803968,TASK_BEGIN,002,0.45418442980800966,0.10170426687419468,-2.470614328181689,0.606457683200628,-5.886091025866508,5.526452940641634,34.473022436608815,-0.8646595191297438,2
475,2024-09-14 18:29:06.431828736,TASK_BEGIN,002,0.41800559718175584,0.11295217922328617,-2.506261133306391,0.6073858071554632,-5.444846622866117,5.579992723724048,31.443441809895585,-0.7203594066465483,2
476,2024-09-14 18:29:06.509069824,TASK_BEGIN,002,0.3725492338807733,0.125740527908025,-2.52400732157841,0.600188483300275,-5.047788581384808,5.644325196153792,28.43932481175013,-0.6048090031739013,2
477,2024-09-14 18:29:06.571557120,TASK_BEGIN,002,0.31856938591822753,0.13959944333873348,-2.5212488326862355,0.5855030653568896,-4.713062441336355,5.717441495205861,25.5794157999466,-0.5498935761013807,2
478,2024-09-14 18:29:06.649863936,TASK_BEGIN,002,0.25704701727741447,0.15406490206259252,-2.4960667473832245,0.5645061519049281,-4.456921516198606,5.796548589322906,22.97990746854891,-0.5861815704375725,2
479,2024-09-14 18:29:06.717700864,TASK_BEGIN,002,0.18920621228245968,0.1687076644924356,-2.4473858625736873,0.5388034471279128,-4.29244343997764,5.878425034428358,20.75048717119912,-0.739372595003502,2
480,2024-09-14 18:29:07.624296960,TASK_BEGIN,002,0.11653445482944497,0.18315155919011228,-2.3753706130838115,0.5103364433878355,-4.228217983370083,5.959802644979643,18.98972024426969,-1.0266910297359293,2
481,2024-09-14 18:29:07.704818944,TASK_BEGIN,002,0.04078961247312118,0.1970815509214717,-2.2818627471885495,0.48129905061966155,-4.2671139498489055,6.037579787516797,17.77849398677472,-1.4542584528689093,2
482,2024-09-14 18:29:07.772513024,TASK_BEGIN,002,-0.03602838218162487,0.2102470720266935,-2.170457820613933,0.45402602850408924,-4.405411654481511,6.108797425685267,17.172659774623025,-2.016437260076947,2
483,2024-09-14 18:29:07.825063936,TASK_BEGIN,002,-0.11175791209432355,0.22246682819753372,-2.046006461472869,0.4308196920665052,-4.632604583119721,6.170505575093572,17.197606038807688,-2.697178190393046,2
484,2024-09-14 18:29:07.902735872,TASK_BEGIN,002,-0.1842061275675713,0.2336365784515616,-1.913741396233163,0.4137202625835656,-4.931984179171556,6.2196967081461505,17.84651215163253,-3.47255435077971,2
485,2024-09-14 18:29:07.975857920,TASK_BEGIN,002,-0.25130057199584227,0.24373530607602711,-1.778474702602517,0.40428487736399266,-5.281987270367622,6.253337798983732,19.081682222011164,-4.31352068833543,2
486,2024-09-14 18:29:08.041295872,TASK_BEGIN,002,-0.31122796471406655,0.25282511916273753,-1.644195141859806,0.40346361183375834,-5.658281385024425,6.268452851893893,20.837044196096958,-5.188116232764439,2
487,2024-09-14 18:29:08.986424832,TASK_BEGIN,002,-0.36254547997221914,0.2610450062561484,-1.5140879353802987,0.41160277388688216,-6.036395068767287,6.262281032870699,23.02077778568206,-6.06273259617683,2
488,2024-09-14 18:29:09.046502144,TASK_BEGIN,002,-0.40425745731145135,0.268599977675167,-1.3907662418380244,0.4285274457122008,-6.394347274717231,6.232552724321488,25.518638484704567,-6.90270645618739,2
489,2024-09-14 18:29:09.122616832,TASK_BEGIN,002,-0.4358478964221622,0.27574491216659,-1.276472015532127,0.45364155835220243,-6.71472778636846,6.1778545699178,28.19924044422787,-7.672977644019155,2
490,2024-09-14 18:29:09.183827968,TASK_BEGIN,002,-0.4572744142252498,0.282762482009703,-1.1731475080361407,0.4860171719631505,-6.986105252184947,6.098030472282442,30.92229036694973,-8.339503787672294,2
491,2024-09-14 18:29:09.258171136,TASK_BEGIN,002,-0.4689374351966194,0.28993544699531487,-1.0824411733822217,0.5244666025696555,-7.203825074490857,5.9945505724861325,33.54949910903293,-8.87144299146208,2
492,2024-09-14 18:29:09.325948928,TASK_BEGIN,002,-0.47162067628330057,0.2975135845406208,-1.005738895672613,0.5675971706601927,-7.370086966936622,5.870720707430079,35.95607300988643,-9.243331083901866,2
493,2024-09-14 18:29:09.393729024,TASK_BEGIN,002,-0.4664015308495015,0.30567895519716526,-0.944226784747579,0.6138511125204299,-7.493225312555715,5.731606526253272,38.04019074706747,-9.436415937748253,2
494,2024-09-14 18:29:10.333912064,TASK_BEGIN,002,-0.45456052968012955,0.3145177390039129,-0.898930889043842,0.6615326419503705,-7.586421129726237,5.583668090267151,39.72932414398725,-9.43906926208958,2
495,2024-09-14 18:29:10.392627968,TASK_BEGIN,002,-0.4375217159970065,0.324005294396591,-0.8707020003087991,0.7088340920347714,-7.666214749527176,5.434229644463067,40.98358768920506,-9.24699037442503,2
496,2024-09-14 18:29:10.469761024,TASK_BEGIN,002,-0.41681655959761,0.3340050697075091,-0.8601601469740718,0.7538922284362383,-7.75100445456542,5.290922606526996,41.79609116073313,-8.863844351085957,2
497,2024-09-14 18:29:10.540487168,TASK_BEGIN,002,-0.3940307029087055,0.3442783713962223,-0.8676087576069103,0.7948993139085401,-7.859460140708014,5.161160411683887,42.18998888856686,-8.30208799671655,2
498,2024-09-14 18:29:10.608292864,TASK_BEGIN,002,-0.3707058086384415,0.35450366411985995,-0.8928927812949646,0.8302561235562081,-8.008806654376192,5.051631262428935,42.213136014243084,-7.5832560073304345,2
499,2024-09-14 18:29:10.670726144,TASK_BEGIN,002,-0.34821084370239686,0.3643064071643412,-0.9352107451570983,0.8587275555103577,-8.213192826254087,4.967799503462351,41.9322919765246,-6.737432367071269,2
500,2024-09-14 18:29:10.732292096,TASK_BEGIN,002,-0.32761593397090943,0.3732960120534162,-0.9929566815803259,0.8795548247712712,-8.482371619780432,4.913475021057581,41.427178558289,-5.801955040486035,2
501,2024-09-14 18:29:11.686158080,TASK_BEGIN,002,-0.3095865240360155,0.38109790654473114,-1.063606491192853,0.8924735520627581,-8.820674597975936,4.8905385181386976,40.782729972150854,-4.819158028756761,2
502,2024-09-14 18:29:11.748634112,TASK_BEGIN,002,-0.2943068774317684,0.3873675768728459,-1.1435816123007614,0.8976142215652939,-9.226385866008592,4.898873268331874,40.079518627999214,-3.833052590118807,2
503,2024-09-14 18:29:11.810290944,TASK_BEGIN,002,-0.2814560752108519,0.39178516829330323,-1.228095909889063,0.8953250892285924,-9.692038805058752,4.936522760620813,39.38511703989646,-2.8854065351297624,2
504,2024-09-14 18:29:11.890479104,TASK_BEGIN,002,-0.2702625182617278,0.39404512835578187,-1.3111061376435715,0.8859915056077737,-10.205990460180969,5.000047587601955,38.74815569550503,-2.0118085837838584,2
505,2024-09-14 18:29:11.949430784,TASK_BEGIN,002,-0.25964171254264556,0.393861157789793,-1.3855094649167887,0.8699096160429182,-10.754784392891008,5.0849987831855845,38.193546572123,-1.2378934067730325,2
506,2024-09-14 18:29:12.026019072,TASK_BEGIN,002,-0.2484011834177246,0.39099635580401276,-1.4436446910538931,0.8472408247153161,-11.325312923248513,5.186447234859149,37.71690326754027,-0.5758223055517964,2
507,2024-09-14 18:29:12.089118976,TASK_BEGIN,002,-0.23547164134677354,0.385308904916206,-1.4779929000476546,0.8180402192702614,-11.906104962960175,5.299534306679157,37.27992682877084,-0.021925371175017205,2
508,2024-09-14 18:29:13.037348864,TASK_BEGIN,002,-0.22009354058970793,0.3767906433034448,-1.4818999090754112,0.7823304696046959,-12.487662405255994,5.419952027307936,36.81185346658473,0.4428920689179085,2
509,2024-09-14 18:29:13.105156096,TASK_BEGIN,002,-0.20190313025656703,0.3655815353935703,-1.4502518448809094,0.7402024144110276,-13.062233574411238,5.544248355791707,36.21965148104494,0.8494326599318616,2
510,2024-09-14 18:29:13.167047168,TASK_BEGIN,002,-0.18092928102887001,0.3519599342020638,-1.3801655591546582,0.6919471103420642,-13.623608594076067,5.6699485081843015,35.40375523924594,1.2345939616330663,2
511,2024-09-14 18:29:13.229679104,TASK_BEGIN,002,-0.15755970521674265,0.3363192708599604,-1.2717131818350582,0.6382145849400017,-14.167284676627792,5.795580705010336,34.27376792926458,1.6356413551271571,2
512,2024-09-14 18:29:13.308507136,TASK_BEGIN,002,-0.13252284404668888,0.3191428894596593,-1.1285364995378748,0.5801515461197269,-14.690886537626533,5.920698285079382,32.760853845589445,2.0851595580297198,2
513,2024-09-14 18:29:13.369006080,TASK_BEGIN,002,-0.10688966478249809,0.3009848383293168,-0.9580959431343081,0.5194524993717267,-15.194436606527765,6.045866812546691,30.826461490409166,2.607090111955427,2
514,2024-09-14 18:29:13.430100736,TASK_BEGIN,002,-0.08207277801683747,0.28245654775192774,-0.7712978108294595,0.4582893314349139,-15.680023419654075,6.172439460125294,28.468509181753504,3.214351925476476,2
515,2024-09-14 18:29:14.387347968,TASK_BEGIN,002,-0.059805600974591394,0.2642121431678506,-0.5813927766148346,0.39913024963940213,-16.150648242553014,6.301993587135887,25.72597276233408,3.90818480021113,2
516,2024-09-14 18:29:14.455165952,TASK_BEGIN,002,-0.04209378317415385,0.24692486473359643,-0.4023640375396747,0.3444970456724836,-16.60853630307267,6.435546854689163,22.68092023271358,4.678881462769848,2
517,2024-09-14 18:29:14.522848000,TASK_BEGIN,002,-0.0311228436398191,0.2312517824098602,-0.24729871199003794,0.2967298653457216,-17.05358228481036,6.572844467150288,19.45500169373113,5.507382863733305,2
518,2024-09-14 18:29:14.575424000,TASK_BEGIN,002,-0.029106530872352404,0.21778914083191478,-0.12715426458892712,0.2578119696967711,-17.48253502238941,6.7119589681252325,16.198440774010656,6.367237146705002,2
519,2024-09-14 18:29:14.656978944,TASK_BEGIN,002,-0.038089060699645974,0.207025957889582,-0.04996485654048192,0.22925629806147027,-17.889128951618932,6.849273915420939,13.074188042084218,7.226525947786497,2
520,2024-09-14 18:29:14.714982912,TASK_BEGIN,002,-0.059740451340321965,0.19930665097279537,-0.020321435053508096,0.21202069294331802,-18.264937636944484,6.979791088971458,10.2427153145552,8.049514278016636,2
521,2024-09-14 18:29:14.792634112,TASK_BEGIN,002,-0.09517571307599822,0.19480926758690745,-0.03908689170761476,0.20643750698668187,-18.60053267280971,7.0976599255241535,7.850325208921863,8.798224319850311,2
522,2024-09-14 18:29:15.726285824,TASK_BEGIN,002,-0.14481262103223586,0.19353868615686104,-0.10344123900896704,0.2121814232789258,-18.886572802192976,7.1968040215743505,6.020052405458845,9.434656293192658,2
523,2024-09-14 18:29:15.803870976,TASK_BEGIN,002,-0.2082918162255903,0.19533240901248056,-0.20728577136539283,0.22830545402359848,-19.114597315221125,7.271494023448818,4.843617391642942,9.924172141647274,2
524,2024-09-14 18:29:15.872624896,TASK_BEGIN,002,-0.2844813293269952,0.19987742467432473,-0.34195352163221593,0.25334582922110466,-19.277579605273143,7.316781153527339,4.374669040520289,10.239459433394446,2
525,2024-09-14 18:29:15.927486720,TASK_BEGIN,002,-0.3715548105628459,0.20673607961635881,-0.4971634576631052,0.28546806319639506,-19.370469035593437,7.328822640905309,4.625121351448925,10.363618855608546,2
526,2024-09-14 18:29:16.008285952,TASK_BEGIN,002,-0.46711235310428045,0.21537931554592937,-0.662133637844465,0.3226314300923079,-19.390772071319287,7.305166306517111,5.565965871258941,10.291362316161093,2
527,2024-09-14 18:29:16.076133120,TASK_BEGIN,002,-0.5683187246690542,0.2252255202728706,-0.8267070548897408,0.3627644841274456,-19.33901811247442,7.245019984419043,7.132338616481676,10.028397660128507,2
528,2024-09-14 18:29:16.128331776,TASK_BEGIN,002,-0.6720471400688456,0.23568149584091247,-0.9822870973189626,0.4039408572851551,-19.21894307878895,7.149478631369157,9.232025554130974,9.589563576153687,2
529,2024-09-14 18:29:17.057344000,TASK_BEGIN,002,-0.775033737393868,0.24618140958138796,-1.122410607584014,0.444541827255461,-19.037238452535266,7.021659149577414,11.756713041105023,8.99634305166301,2
530,2024-09-14 18:29:17.129441024,TASK_BEGIN,002,-0.8740506939514452,0.2562186167606835,-1.2429132734462345,0.4833903217977269,-18.802775494419507,6.866715673608847,14.594361666704375,8.274433334242435,2
531,2024-09-14 18:29:17.196113920,TASK_BEGIN,002,-0.9660837694955969,0.2653646819703197,-1.341773569246945,0.5198241760359851,-18.525458874648365,6.691722383850021,17.639370201143116,7.451820596825712,2
532,2024-09-14 18:29:17.258897920,TASK_BEGIN,002,-1.0484906543486596,0.2732750129626859,-1.4188080821347948,0.5536753265121973,-18.21513324132013,6.505401058430286,20.797173661047573,6.557440402963111,2
533,2024-09-14 18:29:17.320508160,TASK_BEGIN,002,-1.1191368640416286,0.27968731864688506,-1.475391903976198,0.5851591949407592,-17.880929396010206,6.317694520751488,23.983261030824774,5.6201557202449015,2
534,2024-09-14 18:29:17.397746944,TASK_BEGIN,002,-1.176510632592395,0.2844188164687501,-1.5142168601474375,0.6147136100647516,-17.531078655895314,6.139226101135356,27.12064467654592,4.66732866451707,2
535,2024-09-14 18:29:17.460449024,TASK_BEGIN,002,-1.2197884268631614,0.28736193729212867,-1.5388674231362525,0.6428187049415921,-17.172993956542403,5.980678712377914,30.13951333726732,3.7224327762958227,2
536,2024-09-14 18:29:18.382048000,TASK_BEGIN,002,-1.2488191474707284,0.2884761624539651,-1.5530218575986499,0.6698143571435612,-16.813584743935337,5.852111396073474,32.97865726803114,2.802367038801526,2
537,2024-09-14 18:29:18.454345984,TASK_BEGIN,002,-1.2640486900279517,0.28777973759965736,-1.5594952690708288,0.6957593713830772,-16.459939245790633,5.76227406167433,35.58662314872477,1.9158550804795047,2
538,2024-09-14 18:29:18.521336064,TASK_BEGIN,002,-1.2664393056993024,0.2853479558636855,-1.5596673114615827,0.720402565818829,-16.120257510607104,5.71802601482844,37.922919232585144,1.0635219659851067,2
539,2024-09-14 18:29:18.582906112,TASK_BEGIN,002,-1.257398275698367,0.281316366873326,-1.553601651554514,0.7432865644071803,-15.804549887281922,5.7239155852013806,39.96075364733428,0.2393307302023368,2
540,2024-09-14 18:29:18.657654016,TASK_BEGIN,002,-1.2386825153404917,0.2758794438121367,-1.5406089512162142,0.7639170414042701,-15.524588995676725,5.781889312489943,41.69106501769753,-0.5669868806392752,2
541,2024-09-14 18:29:18.721436160,TASK_BEGIN,002,-1.2122521722270991,0.269278387084811,-1.519764094647461,0.7819035512770286,-15.29281613571134,5.891058214372921,43.12572606875695,-1.3668127418950318,2
542,2024-09-14 18:29:18.783091968,TASK_BEGIN,002,-1.1800922097981517,0.26178053735890894,-1.4901256257633988,0.7970189353581577,-15.120202950535985,6.047477020078458,44.29687398405534,-2.1692037373688344,2
543,2024-09-14 18:29:19.724281088,TASK_BEGIN,002,-1.1440535097142401,0.2536588525429033,-1.45072507548577,0.8091704118319647,-15.013598159445083,6.244003180382798,45.25044273790468,-2.9773966411297637,2
544,2024-09-14 18:29:19.804506112,TASK_BEGIN,002,-1.105750012293317,0.2451789238224072,-1.4004915077673232,0.818316958796985,-14.973548925042662,6.470400958289997,46.03537983899083,-3.785724666453219,2
545,2024-09-14 18:29:19.863527168,TASK_BEGIN,002,-1.0665125618340048,0.23659384205197398,-1.338236047793359,0.8243994686434414,-14.993435130957453,6.7138143568040505,46.69183847040506,-4.577873445616525,2
546,2024-09-14 18:29:19.925051904,TASK_BEGIN,002,-1.0273846954079036,0.22814027154210037,-1.2627934320035483,0.8273303825161963,-15.060160331910105,6.959606744435292,47.24100423126561,-5.327317284428912,2
547,2024-09-14 18:29:20.001846272,TASK_BEGIN,002,-0.9891474128870299,0.22002881864203858,-1.1733628778648226,0.8270312130655383,-15.156111641509762,7.192449627231151,47.67947542633548,-6.000123342656488,2
548,2024-09-14 18:29:20.063014912,TASK_BEGIN,002,-0.9523622146416969,0.21242810474174748,-1.0699322311457133,0.8234694906835206,-15.261789892149388,7.397472787644273,47.981029147100195,-6.559680783609623,2
549,2024-09-14 18:29:20.140182784,TASK_BEGIN,002,-0.9174206316781542,0.20544909403897407,-0.9535385639719642,0.8166495086075287,-15.358400040797376,7.561301919946633,48.10578141255126,-6.972516978430412,2
550,2024-09-14 18:29:21.085710080,TASK_BEGIN,002,-0.8845862018761015,0.1991379455428328,-0.8262207439266239,0.8065437946563115,-15.42982833926574,7.672886487673503,48.01341631885276,-7.2140268006074955,2
551,2024-09-14 18:29:21.154592000,TASK_BEGIN,002,-0.8540214755109083,0.19348051385961756,-0.6907724962700571,0.7930036270599918,-15.46383315912664,7.724118037700355,47.67599657658668,-7.27272901962159,2
552,2024-09-14 18:29:21.208749056,TASK_BEGIN,002,-0.8258051720708727,0.18841563397722025,-0.5505124803764485,0.7757227641131126,-15.452588234630042,7.710296580177676,47.087426557377626,-7.15209729029692,2
553,2024-09-14 18:29:21.286410240,TASK_BEGIN,002,-0.7999400360224321,0.1838532762520763,-0.40918418236332743,0.7543142194084138,-15.392600032779232,7.6304249852309045,46.26890429771915,-6.870012888318522,2
554,2024-09-14 18:29:21.353642752,TASK_BEGIN,002,-0.7763385101817664,0.1796946241375763,-0.27095902078140593,0.7285008103562106,-15.283929151471364,7.487219295801395,45.27023380342184,-6.456488197388037,2
555,2024-09-14 18:29:21.411514112,TASK_BEGIN,002,-0.7547867843472247,0.1758501997566837,-0.14041627713100724,0.6983454150193539,-15.12906958872254,7.286837382807122,44.16699118412773,-5.9502300411188065,2
556,2024-09-14 18:29:21.493562880,TASK_BEGIN,002,-0.7349161432942776,0.17225212849370589,-0.022314444398294046,0.6644013605062058,-14.93226529795279,7.038510127088957,43.05415123049301,-5.394552350801142,2
557,2024-09-14 18:29:22.433352960,TASK_BEGIN,002,-0.7162074798724795,0.1688590490672394,0.07895463280149699,0.6277004637699782,-14.699721816195087,6.754187136438064,42.03611352422586,-4.833316770847991,2
558,2024-09-14 18:29:22.505276928,TASK_BEGIN,002,-0.6980237320731274,0.16565371072349322,0.16011466398299437,0.5895989813267957,-14.440284685153218,6.448049386165464,41.21289498852913,-4.307586042613978,2
559,2024-09-14 18:29:22.571652096,TASK_BEGIN,002,-0.6796515445947093,0.16263374215165863,0.21966067178878596,0.5515705962178163,-14.165633210920342,6.135667686765058,40.66453135801254,-3.8533488252505483,2
560,2024-09-14 18:29:22.633276928,TASK_BEGIN,002,-0.6603484067999775,0.15979904120690058,0.25815988434376136,0.5150219600434507,-13.889361041168474,5.832786130209558,40.43721398874444,-3.4999813081036515,2
561,2024-09-14 18:29:22.695276800,TASK_BEGIN,002,-0.6394051398576861,0.15714421708398404,0.2781508732935013,0.4811642912095861,-13.625062384287988,5.553923206050352,40.53438888131403,-3.2686226854035936,2
562,2024-09-14 18:29:22.772910080,TASK_BEGIN,002,-0.6162279547748548,0.15466429946445903,0.2837855950704242,0.45094457890426043,-13.384112479953139,5.3110618628199795,40.91609553110585,-3.1703335498954095,2
563,2024-09-14 18:29:22.844276736,TASK_BEGIN,002,-0.5904225513255326,0.15237166557560894,0.2803893415824755,0.42501004945127463,-13.173950038302385,5.112685030249222,41.50791490882177,-3.2049170167778804,2
564,2024-09-14 18:29:23.783865088,TASK_BEGIN,002,-0.5618447799101302,0.15031069884679366,0.2740134491801666,0.4036678906525101,-12.997424407364289,4.96333517058676,42.21540756696438,-3.360820539150951,2
565,2024-09-14 18:29:23.854769920,TASK_BEGIN,002,-0.530599637804981,0.14855830493764097,0.27096032106034257,0.3868351897689488,-12.853406351179373,4.863760430249587,42.936858316012135,-3.6154333287147997,2
566,2024-09-14 18:29:23.907037184,TASK_BEGIN,002,-0.49701341698652085,0.14721148666381634,0.27725918096967006,0.37401785228844237,-12.738438455338184,4.811570866259752,43.57122178757891,-3.935351966847079,2
567,2024-09-14 18:29:23.983736064,TASK_BEGIN,002,-0.4616158331398422,0.14637085553060541,0.29807014862616926,0.36436753947714084,-12.64876450938796,4.802153959076966,44.02429752177997,-4.277394582851486,2
568,2024-09-14 18:29:24.046221824,TASK_BEGIN,002,-0.42513123909159195,0.14612298283055491,0.3369557237580253,0.35683571828786426,-12.581917082067429,4.829505152907825,44.216923294618965,-4.591630195857412,2
569,2024-09-14 18:29:24.123770112,TASK_BEGIN,002,-0.38844590022589837,0.1465172227065183,0.3950530264872951,0.35039210490045875,-12.537345159764616,4.886787682239012,44.09483342886582,-4.8268154220021104,2
570,2024-09-14 18:29:24.193739008,TASK_BEGIN,002,-0.3525403545379984,0.14753769801733663,0.4704225249137477,0.34423263377776797,-12.516083490015172,4.966711312795437,43.63660564937205,-4.936938457934482,2
571,2024-09-14 18:29:25.122274048,TASK_BEGIN,002,-0.31841685994761953,0.1490808766121554,0.5579777236892766,0.3378936092713877,-12.51983563023178,5.0618941640646415,42.85607478604543,-4.886543171228631,2
572,2024-09-14 18:29:25.201900800,TASK_BEGIN,002,-0.2870425168269267,0.1509461674330157,0.6501988444283974,0.3312258988597975,-12.549939157654064,5.165245522108919,41.797526698015346,-4.653335592435626,2
573,2024-09-14 18:29:25.272638976,TASK_BEGIN,002,-0.2592816897813879,0.15283388656314603,0.738403702934142,0.32425955520969774,-12.606506982766822,5.270306216795814,40.52556710426538,-4.228543061500557,2
574,2024-09-14 18:29:25.340428288,TASK_BEGIN,002,-0.23579322183601048,0.15434229241920877,0.8140597947447115,0.3170515350911389,-12.687742212131916,5.371480181228492,39.11440088962717,-3.6165450724566095,2
575,2024-09-14 18:29:25.408272896,TASK_BEGIN,002,-0.21693016841022614,0.15496793253906352,0.8696985395818911,0.30960023764116024,-12.789403362318271,5.464167478161431,37.63983313799971,-2.834500450083122,2
576,2024-09-14 18:29:25.476030976,TASK_BEGIN,002,-0.20270491710100944,0.1541224449661934,0.8993194265521373,0.30184528342100714,-12.904698726036356,5.544900268258789,36.17371966808412,-1.9115326827209906,2
577,2024-09-14 18:29:25.537583104,TASK_BEGIN,002,-0.19282713336461654,0.151171965810328,0.8985002684524285,0.2937130999526351,-13.024889042570189,5.611515351824719,34.779165939674535,-0.8869801242081553,2
578,2024-09-14 18:29:26.487019008,TASK_BEGIN,002,-0.18676647945353048,0.14549238612793558,0.8645159607185556,0.285157512463338,-13.140403742872664,5.663211162592729,33.505789041058804,0.19233709817061473,2
579,2024-09-14 18:29:26.546384896,TASK_BEGIN,002,-0.18379799514897346,0.13652856827683754,0.7965697362865503,0.27616871563591433,-13.242069006722984,5.700356133991541,32.38612825644512,1.275708072707895,2
580,2024-09-14 18:29:26.622657024,TASK_BEGIN,002,-0.18302081600213285,0.12384998882421439,0.6960472572109253,0.26675069891599756,-13.322290669626778,5.7241655270806895,31.434849061853143,2.3127079249534916,2
581,2024-09-14 18:29:26.685673216,TASK_BEGIN,002,-0.18336053299894345,0.10720214303210633,0.5666816518279235,0.25687835998589736,-13.376125021934671,5.736488608955146,30.65080265134535,3.2574958046707208,2
582,2024-09-14 18:29:26.758272000,TASK_BEGIN,002,-0.1835721695636022,0.0865540749756787,0.4144948456031658,0.24644978295457348,-13.402098153541328,5.739797667495702,30.020750799645132,4.072519419158896,2
583,2024-09-14 18:29:26.826003968,TASK_BEGIN,002,-0.18226007484262402,0.062137094786193656,0.24734647856039033,0.23526029689407107,-13.402756407462642,5.737266071176285,29.52435151019848,4.730544046050064,2
584,2024-09-14 18:29:26.893417984,TASK_BEGIN,002,-0.1779265177363696,0.03446754577268843,0.07406481153689674,0.22303128103742967,-13.38498602080818,5.732766538726437,29.140281982375125,5.214234415790707,2
585,2024-09-14 18:29:27.807270144,TASK_BEGIN,002,-0.16905063867983613,0.00434929340364075,-0.09663287424222237,0.2095032471069541,-13.359813500305926,5.730658176378102,28.852085080350324,5.513979333645211,2
586,2024-09-14 18:29:27.879867136,TASK_BEGIN,002,-0.1541816434809218,-0.027149638720494355,-0.2571484919875371,0.1945593653645905,-13.341151366233833,5.7352809960978535,28.6519193951781,5.625818923431803,2
587,2024-09-14 18:29:27.947610112,TASK_BEGIN,002,-0.13202782330517643,-0.0587542285374251,-0.40174227292718856,0.17832332548685434,-13.34339484390631,5.75021043142918,28.541169566459917,5.550823968893355,2
