,time,MARKER,pid,L_O_DSI,L_D_DSI,L_O_DSphi,L_D_DSphi,R_O_DSI,R_D_DSI,R_O_DSphi,R_D_DSphi,trial_id
0,2024-09-14 19:40:59.881725184,TASK_BEGIN,003,-0.4610252401655193,0.04813868844016593,-0.4442444180410536,0.36853452116257773,-0.20723389929939684,0.012794109326259016,0.7321720664862664,-0.7709953284908422,0
1,2024-09-14 19:40:59.949507072,TASK_BEGIN,003,-0.5166039239157365,0.07897894821487773,-0.6392557430515081,0.31587846858683355,-0.344696202939096,0.028270323029217535,1.7579643690465385,-0.8658374567960906,0
2,2024-09-14 19:41:00.016065024,TASK_BEGIN,003,-0.5717689080953833,0.10954012929756264,-0.8328548367399579,0.26727657407408106,-0.47888977598227084,0.04342525677199569,2.755822949375714,-0.9581688354328003,0
3,2024-09-14 19:41:00.077631744,TASK_BEGIN,003,-0.6256698357335958,0.1394639737401824,-1.0214397480759791,0.22503150797628552,-0.6064308287055534,0.057823376616823983,3.6984668687456885,-1.0449168895448475,0
4,2024-09-14 19:41:00.152940032,TASK_BEGIN,003,-0.6776763483381214,0.16843664971387382,-1.2010950236956834,0.1907006619644238,-0.7243255992364577,0.0710447497418345,4.5631159433463155,-1.123507447421688,0
5,2024-09-14 19:41:00.220769024,TASK_BEGIN,003,-0.7274347262618652,0.1961979813761639,-1.3678228143297697,0.16499262902359263,-0.8301009669694793,0.08270272212257584,5.332936048900761,-1.1920480517606005,0
6,2024-09-14 19:41:00.278966784,TASK_BEGIN,003,-0.7748484200874983,0.22253626542531257,-1.5177327846252182,0.14777212304122123,-0.9218767377716031,0.09246341716869512,5.997859081810507,-1.2494648571440958,0
7,2024-09-14 19:41:01.229225984,TASK_BEGIN,003,-0.819998423843383,0.2472741731543021,-1.6469903742747363,0.13812376075497404,-0.9983955237425226,0.10006522812542222,6.5547431657174124,-1.2955797100923654,0
8,2024-09-14 19:41:01.290396928,TASK_BEGIN,003,-0.8630422770570396,0.27025396654753264,-1.7517335660260545,0.134486603126093,-1.059039792229142,0.1053385878013772,7.006864371090178,-1.3310959232743371,0
9,2024-09-14 19:41:01.352884992,TASK_BEGIN,003,-0.9041311260559148,0.29133002991518964,-1.8283067284401222,0.13487988881243596,-1.1038488883134743,0.1082258090482144,7.362835827911781,-1.3574735847547812,0
10,2024-09-14 19:41:01.430832896,TASK_BEGIN,003,-0.9433638623807208,0.31037324914274256,-1.8738323996852626,0.13718418010960198,-1.1335092994997538,0.10879580575101665,7.635133110071335,-1.3767032839341693,0
11,2024-09-14 19:41:01.492433152,TASK_BEGIN,003,-0.9807737162191775,0.32728418751244487,-1.8868002569256832,0.13940010477503365,-1.1492839736062939,0.10724615146403917,7.838447053094024,-1.3910257124742176,0
12,2024-09-14 19:41:01.570696960,TASK_BEGIN,003,-1.016336594257093,0.3420070605028698,-1.867316759404335,0.13981441980992854,-1.1528828690456883,0.10388951138210789,7.988095728995473,-1.4026635564210592,0
13,2024-09-14 19:41:01.631312896,TASK_BEGIN,003,-1.049992076349297,0.3545394027668024,-1.816888929974329,0.1370521058461922,-1.1463141102145649,0.09912834960574887,8.098671781872175,-1.4136048160322623,0
14,2024-09-14 19:41:02.577056000,TASK_BEGIN,003,-1.0816610196365575,0.36493632465241777,-1.7379463862523887,0.1300605909348131,-1.1317614674339846,0.09342521148438337,8.18301732885426,-1.4254428975528113,0
15,2024-09-14 19:41:02.639063040,TASK_BEGIN,003,-1.1112477866430486,0.3733080098499896,-1.6334508178616185,0.11809915126077102,-1.1115030183429317,0.08727272482921158,8.251573458301715,-1.4392774229429144,0
16,2024-09-14 19:41:02.716245760,TASK_BEGIN,003,-1.138635021631727,0.37980945874747124,-1.5067461325245015,0.10076092358699633,-1.0878399474526732,0.0811615237650816,8.312097568204665,-1.4556840523785848,0
17,2024-09-14 19:41:02.785831168,TASK_BEGIN,003,-1.1636791362013388,0.38462369201363455,-1.361522863898241,0.07799769734481961,-1.062996403368102,0.0755442258787007,8.369647909112699,-1.4747487872163303,0
18,2024-09-14 19:41:02.853653760,TASK_BEGIN,003,-1.1861982759720695,0.387940104444854,-1.2017395676088076,0.050114232127189455,-1.0389926795407676,0.070798867055532,8.426684596473983,-1.4961439715567462,0
19,2024-09-14 19:41:02.916652800,TASK_BEGIN,003,-1.2059529279400927,0.3899315904520631,-1.0315101450147093,0.017732209842751777,-1.017522688187005,0.06719718378812833,8.48320968406385,-1.5192135115156953,0
20,2024-09-14 19:41:02.979104000,TASK_BEGIN,003,-1.2226404916931424,0.39073774222737173,-0.855036646475914,-0.01825551627750715,-0.9998516186720404,0.06488176965022201,8.537000875407536,-1.5430448648860586,0
21,2024-09-14 19:41:03.907100160,TASK_BEGIN,003,-1.2359161732735142,0.390458986059198,-0.6766068090904542,-0.05672599273173811,-0.9867417781618254,0.06385773387103873,8.584026157724029,-1.566532683994161,0
22,2024-09-14 19:41:03.975988992,TASK_BEGIN,003,-1.2454260551366858,0.3891592726956879,-0.5006639078277463,-0.0963656979581645,-0.9784328280341076,0.0640046731900459,8.619069876598973,-1.588460176304686,0
23,2024-09-14 19:41:04.031489024,TASK_BEGIN,003,-1.2508363604668247,0.3868732223766645,-0.3319624974067731,-0.13572173575884447,-0.9746894173369195,0.06510602784115978,8.63654833602388,-1.6076131016421926,0
24,2024-09-14 19:41:04.111652096,TASK_BEGIN,003,-1.251864397201604,0.3836180324401789,-0.17573241119990599,-0.1732656138410932,-0.9748820447481341,0.06688435225543127,8.631407376726672,-1.6229092608239997,0
25,2024-09-14 19:41:04.179392000,TASK_BEGIN,003,-1.248320797011125,0.3794107352122217,-0.037691474055528904,-0.20744943613037084,-0.9780590526777203,0.06903428695492282,8.599921322378693,-1.6335171048988637,0
26,2024-09-14 19:41:04.231652096,TASK_BEGIN,003,-1.240149456461333,0.3742854677058042,0.07619208730138638,-0.23674247862240508,-0.9830075425762532,0.07125260006679475,8.540291081822403,-1.638952724009286,0
27,2024-09-14 19:41:04.315025152,TASK_BEGIN,003,-1.227443087226228,0.3683038373002344,0.16016862315510602,-0.25967233613482255,-0.9883258768852609,0.07326483535362956,8.453065563956818,-1.6391496951508837,0
28,2024-09-14 19:41:05.253040128,TASK_BEGIN,003,-1.2104348695857128,0.3615568710976629,0.2093485377912913,-0.2749099516368427,-0.992516054898816,0.07484377990720209,8.341382607710276,-1.6344896884042643,0
29,2024-09-14 19:41:05.314358016,TASK_BEGIN,003,-1.1894837634021065,0.3541606367912915,0.2204447108337608,-0.28140597933734224,-0.9940855819299649,0.07581573785458331,8.210938900092392,-1.6257862290896146,0
30,2024-09-14 19:41:05.391533056,TASK_BEGIN,003,-1.1650666469698912,0.34624796950025594,0.19247691838182576,-0.278542969388266,-0.9916520018068257,0.0760570551414964,8.069629286620978,-1.6142262835422723,0
31,2024-09-14 19:41:05.460176896,TASK_BEGIN,003,-1.1377791757679387,0.3379590008116373,0.12726902157123487,-0.26626265978992775,-0.9840447325912193,0.07548645520612174,7.926858011796731,-1.6012737827033288,0
32,2024-09-14 19:41:05.515928832,TASK_BEGIN,003,-1.1083321785420803,0.32943083862396144,0.02963933139267073,-0.2451519277021263,-0.9703843002033904,0.07405478987109519,7.792526832381124,-1.5885275661238916,0
33,2024-09-14 19:41:05.593143040,TASK_BEGIN,003,-1.0775225398833685,0.32078452400515794,-0.09275373870853322,-0.21647668295758418,-0.9501271276412611,0.07173157371544804,7.675785943239782,-1.5775326593021601,0
34,2024-09-14 19:41:05.664434688,TASK_BEGIN,003,-1.046172722306565,0.3121112502002937,-0.22993977102568988,-0.18213576577690557,-0.9230967495150783,0.06849281195941845,7.5838615519871855,-1.5695843798479554,0
35,2024-09-14 19:41:06.607115008,TASK_BEGIN,003,-1.015055503904884,0.3034634618623289,-0.37053874832270023,-0.14450598768006226,-0.8895204084094231,0.0643177298429606,7.521365086345434,-1.5655957284200173,0
36,2024-09-14 19:41:06.669313024,TASK_BEGIN,003,-0.9848300158880999,0.29485300283166793,-0.5029526167162928,-0.1061828434554342,-0.8500524720017757,0.05919598417951526,7.490201175110757,-1.5660624274324397,0
37,2024-09-14 19:41:06.730905088,TASK_BEGIN,003,-0.9560088673454934,0.28625350535176003,-0.6166196322349395,-0.06967370365751697,-0.8057567450513263,0.05314007436240246,7.4898522350144265,-1.571094345559944,0
38,2024-09-14 19:41:06.808649216,TASK_BEGIN,003,-0.9289554645928098,0.27760307682313345,-0.7030058257641024,-0.037132715163511056,-0.7580437507818003,0.046196583302551227,7.5178335964873995,-1.5804735287733702,0
39,2024-09-14 19:41:06.870272000,TASK_BEGIN,003,-0.9038948577846098,0.2688053397049961,-0.7560956542940478,-0.010205815216805416,-0.7085755593161618,0.038451937387898136,7.570274855003517,-1.593732963740225,0
40,2024-09-14 19:41:06.932500992,TASK_BEGIN,003,-0.8809280667743098,0.2597312300741528,-0.772368520704117,0.010002323896263444,-0.6591563211416394,0.0300319315403784,7.642578018427371,-1.610254610710982,0
41,2024-09-14 19:41:07.014519040,TASK_BEGIN,003,-0.8600501612539287,0.25022717972555486,-0.7504464371708733,0.02287274144965672,-0.6116252304355599,0.02109705048722907,7.73005289328471,-1.6293666939611144,0
42,2024-09-14 19:41:07.947410176,TASK_BEGIN,003,-0.8411707435884875,0.24013261293807184,-0.6906962285227142,0.028174314669808728,-0.5677534575951475,0.01183440585129075,7.8284306951677936,-1.6504114619634203,0
43,2024-09-14 19:41:08.024713216,TASK_BEGIN,003,-0.824136613880745,0.22930469210550186,-0.5950204539350084,0.02596558030592309,-0.5291362896554835,0.0024457061935545133,7.934131123492887,-1.6727523609388524,0
44,2024-09-14 19:41:08.093458944,TASK_BEGIN,003,-0.8087581619266051,0.2176460474040095,-0.46686096407551214,0.016525977643561653,-0.49708184806654343,-0.006866389194099759,8.04419628796573,-1.6957111815748043,0
45,2024-09-14 19:41:08.148680960,TASK_BEGIN,003,-0.794823049120421,0.20512797680934627,-0.3112119601270261,0.00031765443099475085,-0.4725119336595713,-0.015908847137464023,8.1559911073552,-1.718479277997151,0
46,2024-09-14 19:41:08.228992000,TASK_BEGIN,003,-0.7820701591014442,0.1917983308969926,-0.13440601627447685,-0.022046692457987627,-0.45589471968741974,-0.024504741071541387,8.266926777086404,-1.7400736464422868,0
47,2024-09-14 19:41:08.296772864,TASK_BEGIN,003,-0.7701325146854532,0.17776996461662872,0.05638463451451722,-0.04984616041029095,-0.44722692771984196,-0.032498461726466414,8.374383367043347,-1.7593658543789783,0
48,2024-09-14 19:41:08.364525824,TASK_BEGIN,003,-0.7584957423533305,0.16319810596573342,0.2537953046601687,-0.08229303802084975,-0.44607311250338677,-0.03976031705542508,8.47577247739034,-1.7751557196025547,0
49,2024-09-14 19:41:09.307805184,TASK_BEGIN,003,-0.7465054817761706,0.14825853006065046,0.4508726703361428,-0.11855009902256179,-0.45164701514733446,-0.04618907334547126,8.568567602193383,-1.786262166294396,0
50,2024-09-14 19:41:09.366870016,TASK_BEGIN,003,-0.7334278778754394,0.13313368326805308,0.6414914613720665,-0.15771140662172636,-0.462904456611254,-0.05171356155239618,8.650211056560266,-1.7916273294714522,0
51,2024-09-14 19:41:09.428888832,TASK_BEGIN,003,-0.7185509237055415,0.1180083092704272,0.8205139267748703,-0.19876147097141672,-0.47863308387970865,-0.056294223578240064,8.717949885108434,-1.790422259148714,0
52,2024-09-14 19:41:09.511204096,TASK_BEGIN,003,-0.7012929999598839,0.10306970462387036,0.9837084552861057,-0.24055424871925804,-0.49755066961538374,-0.05992069038452865,8.768752758819932,-1.7821301980091813,0
53,2024-09-14 19:41:09.579013120,TASK_BEGIN,003,-0.6812822585236564,0.08850551008130378,1.1275128672160315,-0.2818453101019761,-0.5184203579772483,-0.06260210579234549,8.799411054605564,-1.766589155204323,0
54,2024-09-14 19:41:09.645416960,TASK_BEGIN,003,-0.6584037581626079,0.07449856345281616,1.248776343690061,-0.32137194745495445,-0.5401682621351326,-0.06435241556255722,8.806767754496349,-1.7439922433864017,0
55,2024-09-14 19:41:09.707861760,TASK_BEGIN,003,-0.6328263282529533,0.06122351748152499,1.3446690816163547,-0.35796053894425495,-0.5619826224711566,-0.06517327236211024,8.787969107381823,-1.7148734115029534,0
56,2024-09-14 19:41:10.632888832,TASK_BEGIN,003,-0.6050013759129986,0.04884694292257271,1.412876666798249,-0.3906475948488329,-0.5833786532432782,-0.06503629760698652,8.740718658955581,-1.6801060878493332,0
57,2024-09-14 19:41:10.689298176,TASK_BEGIN,003,-0.5756241711710236,0.0375298348868958,1.4519607908292607,-0.4187855923082605,-0.6042185149314998,-0.0638696723814096,8.663565724280977,-1.640894377948678,0
58,2024-09-14 19:41:10.768642816,TASK_BEGIN,003,-0.5455711048850669,0.027432274391611406,1.4616825292677216,-0.4420925157664446,-0.6246926693011394,-0.06155328284969446,8.556213100567636,-1.5987183041561162,0
59,2024-09-14 19:41:10.829175040,TASK_BEGIN,003,-0.515829364037122,0.018718714843646397,1.443253824736579,-0.460633127368197,-0.6452747217571173,-0.05792265640193014,8.419730673650564,-1.5552306770982516,0
60,2024-09-14 19:41:10.890199040,TASK_BEGIN,003,-0.48741639285900973,0.011559146857261017,1.3995634902663978,-0.4747504499884715,-0.6666433373148704,-0.05278347369476525,8.256570270576246,-1.5121242045479637,0
61,2024-09-14 19:41:10.967545856,TASK_BEGIN,003,-0.46128638645376085,0.0061225362344318746,1.3352551469755074,-0.4849673271252689,-0.689564069723963,-0.04593923403851518,8.070432575111408,-1.470981374328984,0
62,2024-09-14 19:41:11.029544192,TASK_BEGIN,003,-0.4382459434907914,0.0025651711226872837,1.2564169670024279,-0.49187714367656477,-0.7147474746554169,-0.03722812966013327,7.866089716052287,-1.4331321256553666,0
63,2024-09-14 19:41:11.976998144,TASK_BEGIN,003,-0.4189074158527586,0.0010197073682339441,1.1698286808195957,-0.4960468857670316,-0.7427069722556003,-0.026560006523995164,7.649116175592769,-1.3995610130473068,0
64,2024-09-14 19:41:12.049177856,TASK_BEGIN,003,-0.40368075740377746,0.001585931335725634,1.081989263132733,-0.49794166700213316,-0.7736336857364063,-0.013946638569472154,7.4253892556885015,-1.370875755125031,0
65,2024-09-14 19:41:12.117001984,TASK_BEGIN,003,-0.39278238473831045,0.004319620754363263,0.9982150528578557,-0.4978586830269009,-0.8073113149718694,0.0004769634634089576,7.20038141008668,-1.3473008823025758,0
66,2024-09-14 19:41:12.178019072,TASK_BEGIN,003,-0.3862439050985978,0.00921868994422112,0.9220068122479292,-0.49586838525374977,-0.8430937006682484,0.016440502147751876,6.978523180163967,-1.3286687049267578,0
67,2024-09-14 19:41:12.239578880,TASK_BEGIN,003,-0.38391210429488243,0.01621052861771204,0.8547877437780526,-0.49179069364925654,-0.8799437826010328,0.03353574033780701,6.762969344841764,-1.3144347547669752,0
68,2024-09-14 19:41:12.317253120,TASK_BEGIN,003,-0.38543647519147495,0.025144435764214473,0.7959969489349952,-0.4852282912930438,-0.9165174277116861,0.051225316632662596,6.55586110792862,-1.303768545962788,0
69,2024-09-14 19:41:12.378341888,TASK_BEGIN,003,-0.3902584575172841,0.03579085069359405,0.7434027535654205,-0.475636823019984,-0.9512865041075969,0.068867277882898,6.358863467926972,-1.2957283492018123,0
70,2024-09-14 19:41:13.317639936,TASK_BEGIN,003,-0.3976350438234138,0.04784846456357802,0.6934896192138561,-0.4623967006502443,-0.9826960147182587,0.08575662520561714,6.17365194018717,-1.2894590945770177,0
71,2024-09-14 19:41:13.394943232,TASK_BEGIN,003,-0.40671105672827434,0.06095893136043058,0.6418635395340394,-0.4448779868835758,-1.009327876112654,0.1011794865843384,6.00216633982398,-1.2843284228596796,0
72,2024-09-14 19:41:13.457048832,TASK_BEGIN,003,-0.4166119617728341,0.07472570592730159,0.5836946883750648,-0.4225128592682522,-1.0300354489355845,0.11447333955536364,5.846647079196554,-1.279963821348611,0
73,2024-09-14 19:41:13.535511040,TASK_BEGIN,003,-0.4265176977457299,0.0887329134238276,0.5142269011430208,-0.3948894062719547,-1.0440269792413606,0.12508493957335193,5.709547316536387,-1.2762182692156336,0
74,2024-09-14 19:41:13.596729856,TASK_BEGIN,003,-0.4357028357275293,0.10256267398007576,0.4293417599481214,-0.361861279251999,-1.0508922338237041,0.13261463196848255,5.593379990099829,-1.27311394360784,0
75,2024-09-14 19:41:13.658322944,TASK_BEGIN,003,-0.44355050468640134,0.11581136103156596,0.32610605716272817,-0.3236431163868674,-1.0505822606548274,0.13683931659520976,5.500526997678285,-1.2707922345155216,0
76,2024-09-14 19:41:13.735555840,TASK_BEGIN,003,-0.44955509188457093,0.12810629752315963,0.2032398887814363,-0.280862086859274,-1.0433614394088997,0.13771558182360516,5.433041490792315,-1.2694689265464734,0
77,2024-09-14 19:41:14.680856064,TASK_BEGIN,003,-0.4533294996745421,0.13912382718809824,0.061494986732660344,-0.23456161938375597,-1.029746005884174,0.13536891031319942,5.39244286181622,-1.269385542612647,0
78,2024-09-14 19:41:14.750016000,TASK_BEGIN,003,-0.4546246234479211,0.14860701773763768,-0.09609125556257377,-0.18616668895016592,-1.0104361088882587,0.13007342886243878,5.379450258413125,-1.2707568422864002,0
79,2024-09-14 19:41:14.805293824,TASK_BEGIN,003,-0.4533537187641087,0.15637950189924243,-0.26416796206794674,-0.1374101510909253,-0.9862394586734391,0.12222341478126829,5.393648278587269,-1.273720925205927,0
80,2024-09-14 19:41:14.882443776,TASK_BEGIN,003,-0.4496039906928738,0.16235160454450714,-0.4353615810288707,-0.0902088655733055,-0.9579790344890292,0.11229450872604022,5.433198799407027,-1.2782980818526575,0
81,2024-09-14 19:41:14.944039168,TASK_BEGIN,003,-0.4436184053712358,0.1665144306526321,-0.6009007950039971,-0.04648837008336645,-0.9263994819443502,0.10079574014653231,5.494721193954432,-1.2843638424879509,0
82,2024-09-14 19:41:15.005629184,TASK_BEGIN,003,-0.4357420749453086,0.1689207808220183,-0.751523149957634,-0.007984960640538127,-0.8921118452066038,0.08822222228527898,5.573392732999869,-1.2916496940296094,0
83,2024-09-14 19:41:15.083246848,TASK_BEGIN,003,-0.42634734417097697,0.16965964855054608,-0.8785715871010727,0.023931151942941223,-0.8555992080295689,0.07502028998675007,5.6633282951257975,-1.2997917057069954,0
84,2024-09-14 19:41:16.007177984,TASK_BEGIN,003,-0.41577115378737195,0.16883565200256376,-0.9751181433071093,0.04838174000124213,-0.8172691086967494,0.06156985511079591,5.758256096364658,-1.308425301912825,0
85,2024-09-14 19:41:16.075010048,TASK_BEGIN,003,-0.40430174345655845,0.16656128291653205,-1.036852490631017,0.0650345342226038,-0.7775218401912046,0.04818175211379926,5.852300214710437,-1.317283782096498,0
86,2024-09-14 19:41:16.142826240,TASK_BEGIN,003,-0.3922320865425807,0.1629623897067327,-1.0625231540088436,0.07407190328229749,-0.7368061169632726,0.0351044890344072,5.9405891116860765,-1.3262479666913085,0
87,2024-09-14 19:41:16.210636032,TASK_BEGIN,003,-0.3799647894997705,0.15819087983596822,-1.0539351268900006,0.0760922828599254,-0.6956464899048704,0.022534376534519087,6.019604858036704,-1.3353350883473651,0
88,2024-09-14 19:41:16.278441984,TASK_BEGIN,003,-0.36811962146694205,0.1524359199481713,-1.015613266405435,0.07198635675514677,-0.6546445810310128,0.010625587490038918,6.0873913184348,-1.3446626967462194,0
89,2024-09-14 19:41:16.340876288,TASK_BEGIN,003,-0.3575737209740996,0.1459266342578305,-0.9541951586986473,0.06282149933836338,-0.6144714256888281,-0.0004986384333532096,6.143704621678655,-1.3544184289652001,0
90,2024-09-14 19:41:16.414040064,TASK_BEGIN,003,-0.3493863901222229,0.13892381139984863,-0.8776397764619145,0.04975238063357861,-0.5758697356674841,-0.010731156245260892,6.190032959892137,-1.3648289212832296,0
91,2024-09-14 19:41:17.350012928,TASK_BEGIN,003,-0.34462975989891503,0.13170379901573667,-0.794388040229924,0.03396116731658452,-0.5396582234124174,-0.019966508179318204,6.229381949871905,-1.3761192947452099,0
92,2024-09-14 19:41:17.411633920,TASK_BEGIN,003,-0.3441996516803927,0.12454216160621674,-0.7125426489851855,0.016610974681111258,-0.5067026055955881,-0.02809659470125507,6.2658661756269565,-1.3884779509540863,0
93,2024-09-14 19:41:17.489273856,TASK_BEGIN,003,-0.3486675487581982,0.11770299256528242,-0.639074298399064,-0.0012059495117436342,-0.47783552016322833,-0.03502015862669389,6.304277747427406,-1.4020415437942702,0
94,2024-09-14 19:41:17.551805952,TASK_BEGIN,003,-0.35819216294725786,0.1114330094959839,-0.579142876751708,-0.01851880126262758,-0.4537519253551921,-0.04065986384054068,6.349764860052434,-1.4169055509139417,0
95,2024-09-14 19:41:17.628455936,TASK_BEGIN,003,-0.3724906919367922,0.10595680077619661,-0.5357268308784863,-0.03449984436083596,-0.43492798013290607,-0.04497789406742173,6.407601878696611,-1.433159469003793,0
96,2024-09-14 19:41:17.690978048,TASK_BEGIN,003,-0.3908754183013326,0.10147334256296069,-0.5096987285121254,-0.04843818059975481,-0.4215926825639039,-0.04798477261283739,6.48291398751828,-1.4509233437535456,0
97,2024-09-14 19:41:17.764100096,TASK_BEGIN,003,-0.41236473427372633,0.0981563452511848,-0.5002658471813556,-0.05968590431271823,-0.41373826194343133,-0.049742296043276436,6.5802399169607915,-1.4703419382580036,0
98,2024-09-14 19:41:18.707329024,TASK_BEGIN,003,-0.4358589487865951,0.0961580493336814,-0.5055295745865278,-0.06763453063318645,-0.4111373756722556,-0.050363108801935015,6.702965218622114,-1.491510339652693,0
99,2024-09-14 19:41:18.760404992,TASK_BEGIN,003,-0.46033285435913046,0.0956117996978444,-0.5229694169244822,-0.07176063789054472,-0.41336752530546594,-0.050003538771608035,6.852783801871769,-1.5143534574541486,0
100,2024-09-14 19:41:18.842971904,TASK_BEGIN,003,-0.4849743544951271,0.09662759753069076,-0.5497843540229425,-0.0717126322080296,-0.41986461973034905,-0.04884525329397996,7.029330724368708,-1.5385198199496104,0
101,2024-09-14 19:41:18.910785024,TASK_BEGIN,003,-0.509219950641868,0.0992771478115913,-0.5830493053062745,-0.06738923646801866,-0.42999613238239376,-0.047071710240388316,7.2300453004697705,-1.563343084584276,0
102,2024-09-14 19:41:18.977256192,TASK_BEGIN,003,-0.5326855703317418,0.10356873935516943,-0.6196574993752639,-0.05900729162085445,-0.44311609762154197,-0.04485287796846266,7.450262775594087,-1.5878829521705073,0
103,2024-09-14 19:41:19.038295808,TASK_BEGIN,003,-0.5550312454855779,0.10941709388839525,-0.6561788304074393,-0.04716377308800297,-0.4585809236792571,-0.04234564979655526,7.683500912775054,-1.611026151311299,0
104,2024-09-14 19:41:19.114259968,TASK_BEGIN,003,-0.5758200581654852,0.11661819381480754,-0.6889431586543109,-0.03283567431326498,-0.475737115455981,-0.03970459693480187,7.921918749790213,-1.6316244512019205,0
105,2024-09-14 19:41:20.042965760,TASK_BEGIN,003,-0.5944362977911528,0.12484101788776006,-0.7145416333659899,-0.01725785809185885,-0.49391003699850566,-0.03708988206316003,8.156945948237073,-1.6486449101472624,0
106,2024-09-14 19:41:20.120534016,TASK_BEGIN,003,-0.6101004572785523,0.13364380517632554,-0.7305687116542959,-0.0017091516160800387,-0.5124158214213667,-0.03466327558672521,8.380029159314011,-1.6613012434650833,0
107,2024-09-14 19:41:20.182543872,TASK_BEGIN,003,-0.6219604967314933,0.14251188821819422,-0.7361956575417978,0.012697896842567032,-0.5305912820147428,-0.03257437850399897,8.583377533929005,-1.6691435260359948,0
108,2024-09-14 19:41:20.260879872,TASK_BEGIN,003,-0.6292031637122072,0.1509050141761561,-0.7322555640127537,0.025147184337952287,-0.5478203367485618,-0.03094421567377253,8.760622052904676,-1.672103165186134,0
109,2024-09-14 19:41:20.321758976,TASK_BEGIN,003,-0.6311509678224756,0.15830369721741358,-0.7208187824280605,0.03515089865738232,-0.5635461857541979,-0.029850264330278868,8.907330246500422,-1.6704949859061964,0
110,2024-09-14 19:41:20.396507136,TASK_BEGIN,003,-0.6273433775198309,0.16425286113405102,-0.7044946701628231,0.04251160174452137,-0.5772769744165408,-0.029315349271260314,9.02124646296506,-1.6649693977424513,0
111,2024-09-14 19:41:20.460127232,TASK_BEGIN,003,-0.6175988636382695,0.16840318810938393,-0.6857043690591504,0.04725640311174965,-0.5886020459130185,-0.029303981713400012,9.10214896218024,-1.6564180168655998,0
112,2024-09-14 19:41:21.372872960,TASK_BEGIN,003,-0.6020451731728486,0.17054436323884303,-0.6660823923133382,0.04957860413274922,-0.5972336511214599,-0.02972706692042339,9.151439000598039,-1.6458636275567895,0
113,2024-09-14 19:41:21.450434048,TASK_BEGIN,003,-0.5811219682771624,0.1706228450315876,-0.64617315934996,0.049811468311614926,-0.6030682266337628,-0.030451875433119082,9.171734126299661,-1.6343706196824437,0
114,2024-09-14 19:41:21.511187968,TASK_BEGIN,003,-0.5555736105742652,0.1687431010253057,-0.6255402185744803,0.04843693040594329,-0.6062256364468436,-0.031315658256408474,9.166587286131584,-1.622986595063781,0
115,2024-09-14 19:41:21.585941248,TASK_BEGIN,003,-0.5264324213843049,0.16515452770710337,-0.6032176203513504,0.0461028795001011,-0.6070229732688026,-0.03214345787039962,9.140183048824994,-1.612694797627497,0
116,2024-09-14 19:41:21.653694976,TASK_BEGIN,003,-0.4949750222984802,0.16022513184826342,-0.5782825016282703,0.04360958051323578,-0.6059033433524601,-0.03276540009600988,9.096828200299655,-1.6043479653894475,0
117,2024-09-14 19:41:21.721501184,TASK_BEGIN,003,-0.46264335399252354,0.15440515203334104,-0.5503423457013156,0.0418493783634733,-0.603387896370865,-0.033023986650814255,9.040265187094631,-1.5985763901501,0
118,2024-09-14 19:41:21.789134080,TASK_BEGIN,003,-0.43093654981716867,0.14818638589512098,-0.5198516791063797,0.0417214511340681,-0.6000740911643864,-0.03276979744185405,8.972980569601429,-1.5956885119182407,0
119,2024-09-14 19:41:22.726504192,TASK_BEGIN,003,-0.4012884115392347,0.14206147671588135,-0.4882268933480275,0.044043005078213855,-0.5966420019884455,-0.0318560386152865,8.895639124770058,-1.5955827969890626,0
120,2024-09-14 19:41:22.788626944,TASK_BEGIN,003,-0.37496140473204753,0.13648774985346254,-0.45768394871756146,0.04945157567328192,-0.5938406311460412,-0.030142016676678485,8.806758006992315,-1.5976876888799059,0
121,2024-09-14 19:41:22.867686912,TASK_BEGIN,003,-0.3529893026532304,0.1318616868260581,-0.43076900732434364,0.05829645993533113,-0.592462153556759,-0.027505517871802644,8.702824520155009,-1.6009692143657708,0
122,2024-09-14 19:41:22.935480832,TASK_BEGIN,003,-0.3361607015632449,0.12850377674057809,-0.40970452167530264,0.07054144219444218,-0.5933149345203903,-0.023857127329145425,8.57902204306114,-1.6040517187384469,0
123,2024-09-14 19:41:22.988987136,TASK_BEGIN,003,-0.32499918811528183,0.12664498123774484,-0.39573796457410687,0.08570047678268684,-0.5971920725849672,-0.019148873684895547,8.430461314582619,-1.6054415186144344,0
124,2024-09-14 19:41:23.070987008,TASK_BEGIN,003,-0.3197128116048996,0.12640873573380543,-0.38865061703068604,0.10281454902069728,-0.6048243840264821,-0.013373572379238101,8.253546101988604,-1.6037714071697422,0
125,2024-09-14 19:41:23.127233792,TASK_BEGIN,003,-0.3201301401573629,0.12779280052678554,-0.38658433202711073,0.12048457466385128,-0.6168072627316589,-0.006558449729315547,8.047048789433251,-1.597970088013232,0
126,2024-09-14 19:41:24.076903168,TASK_BEGIN,003,-0.325662936511654,0.13066024048963257,-0.38630738584902,0.13698297944346652,-0.6335063355244183,0.0012400887797183032,7.8126421878726156,-1.5873136338164093,0
127,2024-09-14 19:41:24.138969856,TASK_BEGIN,003,-0.335325684882651,0.13474595588543403,-0.38388249120385937,0.15044229136128262,-0.6549722118537611,0.0099389319087824,7.5548779768301655,-1.5713894865802782,0
128,2024-09-14 19:41:24.216624128,TASK_BEGIN,003,-0.3478139888999817,0.13968019134353746,-0.37553390435009226,0.15908010405761291,-0.6809017644606505,0.01943128830258503,7.280755064745101,-1.5500465049726562,0
129,2024-09-14 19:41:24.285530112,TASK_BEGIN,003,-0.36162202798075493,0.14502622404207696,-0.3584483917647161,0.16140907699494034,-0.7106589794888138,0.029590060082997797,6.999060480231442,-1.5233880318097148,0
130,2024-09-14 19:41:24.353356032,TASK_BEGIN,003,-0.3751862521795905,0.1503271787996666,-0.33130586128903744,0.15640614139721395,-0.7433375492358215,0.04026717150592967,6.719647284301448,-1.4918074302293522,0
131,2024-09-14 19:41:24.420242944,TASK_BEGIN,003,-0.387052234213014,0.1551565049543514,-0.2944768230661904,0.14364223746762805,-0.777837688358644,0.05128775090135162,6.452756889974423,-1.4560312014735153,0
132,2024-09-14 19:41:24.479149056,TASK_BEGIN,003,-0.39603463764756225,0.1591647244447645,-0.24994219033263418,0.12337672406528029,-0.8129350104398684,0.06244242927978071,6.208371239612519,-1.417141016324862,0
133,2024-09-14 19:41:25.428129024,TASK_BEGIN,003,-0.4013138644806808,0.16211215856786826,-0.2010315371222763,0.09660760963491799,-0.8473285395694682,0.07348066894327286,5.995451646772471,-1.3765459365600248,0
134,2024-09-14 19:41:25.487438080,TASK_BEGIN,003,-0.40244305583879286,0.16387989365495473,-0.15203792111274284,0.06504887799310301,-0.879672560561691,0.08410756891730715,5.82100171401728,-1.3358802420724103,0
135,2024-09-14 19:41:25.564610816,TASK_BEGIN,003,-0.39929450782351616,0.1644598990523693,-0.10769121865377347,0.03099121067237321,-0.9086082851426442,0.09398717785237636,5.689191717645233,-1.296851547648178,0
136,2024-09-14 19:41:25.626135040,TASK_BEGIN,003,-0.3919929012870203,0.16393203732196224,-0.07245377814959135,-0.0029761209470086703,-0.9328005711261481,0.10275336636413558,5.600943612429038,-1.2611028583440793,0
137,2024-09-14 19:41:25.688623104,TASK_BEGIN,003,-0.3808595143595457,0.1624361173553612,-0.04967420110756526,-0.03434067780654346,-0.9509777030554342,0.11002775921579289,5.5542040813471205,-1.2301191422903146,0
138,2024-09-14 19:41:25.771795968,TASK_BEGIN,003,-0.36636384813124084,0.16014429041225692,-0.040784436864415165,-0.061033582541772116,-0.9619834977793129,0.11544579807543724,5.544812615066153,-1.2051591055718935,0
139,2024-09-14 19:41:25.828243968,TASK_BEGIN,003,-0.3490755852468178,0.15723695621579917,-0.04489232957556371,-0.08167075767460288,-0.964857243964061,0.11869209240539931,5.567626835461958,-1.1871894504705829,0
140,2024-09-14 19:41:26.756933888,TASK_BEGIN,003,-0.32962284593595853,0.15388509929756788,-0.05906839793359463,-0.09561650485515595,-0.9589470905136468,0.1195422877568654,5.6175447269794665,-1.17681979295762,0
141,2024-09-14 19:41:26.824749056,TASK_BEGIN,003,-0.3086659340016078,0.15024247296505375,-0.0792490367251734,-0.10291190090313157,-0.9440382340282216,0.11790307681766272,5.690276684989973,-1.1742540331584048,0
142,2024-09-14 19:41:26.891108864,TASK_BEGIN,003,-0.2868830295468934,0.14644834183874444,-0.1013298052268848,-0.10415673172702451,-0.9204475471057141,0.1138384351093568,5.782881267892863,-1.1792799811171029,0
143,2024-09-14 19:41:26.960334080,TASK_BEGIN,003,-0.26495123177853513,0.1426348357178767,-0.12204142880715539,-0.1003974676387355,-0.8890393354218856,0.10757321834662462,5.893958725516576,-1.1912950260852528,0
144,2024-09-14 19:41:27.015998976,TASK_BEGIN,003,-0.24350941978594612,0.13893037937187822,-0.13944537365839973,-0.09300391645590972,-0.8511644735369738,0.0994746257524613,6.023312710831684,-1.2093371887650466,0
145,2024-09-14 19:41:27.094345984,TASK_BEGIN,003,-0.22310616335648123,0.13545597608542487,-0.15305839757966744,-0.08350234569249264,-0.8085597876050686,0.09001927520041164,6.171175074466667,-1.2321064245925337,0
146,2024-09-14 19:41:27.163621888,TASK_BEGIN,003,-0.20414915852147428,0.13231643095707094,-0.1636993939186354,-0.07338286506636363,-0.763231611409803,0.07975343885445721,6.3373951596839655,-1.2579952414704856,0
147,2024-09-14 19:41:28.107013888,TASK_BEGIN,003,-0.18687622198425277,0.12958986594272873,-0.17320952940695156,-0.06393103627554304,-0.7173260189129586,0.06925165933662267,6.520872460549696,-1.2851495895044653,0
148,2024-09-14 19:41:28.164413696,TASK_BEGIN,003,-0.17136583526462856,0.12731982370759376,-0.18414238672242883,-0.05611339572604045,-0.6729851058821643,0.059077891706314306,6.719191189732091,-1.3115636252265748,0
149,2024-09-14 19:41:28.241377280,TASK_BEGIN,003,-0.1575941188408311,0.1255139722951881,-0.19939845512262772,-0.050520513913493464,-0.6321923496589228,0.04975020160516165,6.928386439488309,-1.3352092064930674,0
150,2024-09-14 19:41:28.310374144,TASK_BEGIN,003,-0.14552028954447077,0.12414867041591594,-0.22174868607987147,-0.04736868230078734,-0.5966179033387589,0.04170686220696898,7.142989457611144,-1.3542053398124105,0
151,2024-09-14 19:41:28.378153984,TASK_BEGIN,003,-0.13516225594958794,0.12317397164964225,-0.2532730746537627,-0.04655681874041287,-0.5674853528252587,0.03527431177882533,7.356532552378364,-1.3670188005981143,0
152,2024-09-14 19:41:28.441242880,TASK_BEGIN,003,-0.12663189412731718,0.12251545861444486,-0.2948846041385894,-0.04774805909275246,-0.545485191527422,0.030643906672790974,7.5624154991882735,-1.3726578922399564,0
153,2024-09-14 19:41:28.513710080,TASK_BEGIN,003,-0.12012473214370246,0.12207482077460283,-0.3461414419270491,-0.05043957445262346,-0.5307529454325556,0.0278660718528997,7.754762397459524,-1.3708044534587545,0
154,2024-09-14 19:41:29.456610048,TASK_BEGIN,003,-0.11588020067242244,0.12173390831280871,-0.4053327234929914,-0.05402863389324973,-0.5229108451479677,0.02686264029695272,7.928936447406962,-1.3618418157393457,0
155,2024-09-14 19:41:29.515048192,TASK_BEGIN,003,-0.11413687067973688,0.12136550422545071,-0.46966137941999386,-0.05790784928844728,-0.5211449423665513,0.02744670151635077,8.081654623821793,-1.3467708029042875,0
156,2024-09-14 19:41:29.592120832,TASK_BEGIN,003,-0.11509094312385942,0.12084906853668301,-0.5354894393648512,-0.06158009002752438,-0.5242798266691164,0.029337910716706828,8.210831990206842,-1.327035183378496,0
157,2024-09-14 19:41:29.654337024,TASK_BEGIN,003,-0.11884678743967673,0.12008555488786748,-0.598748398717064,-0.06474332699879701,-0.5308443841952516,0.03217533959751756,8.315268906925064,-1.3042893781213778,0
158,2024-09-14 19:41:29.716559872,TASK_BEGIN,003,-0.12536180990558077,0.11900781371736391,-0.6554969162569797,-0.0673173420554565,-0.539160887463662,0.035542725306109205,8.394238144251647,-1.2801517417152986,0
159,2024-09-14 19:41:29.793438976,TASK_BEGIN,003,-0.13441276344146863,0.11758821121079249,-0.7024519794145827,-0.06942371946562033,-0.5474852295860159,0.03901407220742828,8.447024894873673,-1.2559952913615084,0
160,2024-09-14 19:41:29.863393024,TASK_BEGIN,003,-0.14561089825639192,0.11584525416062376,-0.7373567149642238,-0.07133786873431526,-0.5541907825796771,0.04220965256818532,8.472496606527514,-1.232818157627277,0
161,2024-09-14 19:41:30.806895104,TASK_BEGIN,003,-0.15847928605452952,0.1138490873456941,-0.7591869459879519,-0.0734207404294835,-0.5579649453060337,0.04484508602547795,8.468851624606833,-1.21121872934849,0
162,2024-09-14 19:41:30.874707968,TASK_BEGIN,003,-0.1725834328233088,0.11172637026763954,-0.7682690385984612,-0.0760296036131422,-0.5579796415599467,0.046761564605722616,8.433760621751546,-1.1914795929891668,0
163,2024-09-14 19:41:30.942519040,TASK_BEGIN,003,-0.18767024908444874,0.109663832450909,-0.7663466882562154,-0.07941168759565982,-0.553988541634926,0.04793073994569623,8.365017824297789,-1.1737280852565022,0
164,2024-09-14 19:41:31.009208064,TASK_BEGIN,003,-0.203752449661696,0.1079053807428998,-0.7565331659018087,-0.08360719110351976,-0.5463128434550268,0.04843275217374699,8.261566800157759,-1.1581125760532351,0
165,2024-09-14 19:41:31.071232256,TASK_BEGIN,003,-0.22110331866964325,0.10673730177143834,-0.7430287969038052,-0.08840272872169623,-0.5357212218371991,0.04841555727485495,8.124578160735325,-1.1449450338197906,0
166,2024-09-14 19:41:31.145912064,TASK_BEGIN,003,-0.24017220968477107,0.10646189887120247,-0.7305867964949746,-0.09335705941701625,-0.5232502447182696,0.04805002601747063,7.958234977746237,-1.1347830587375962,0
167,2024-09-14 19:41:31.209180160,TASK_BEGIN,003,-0.26145506081968883,0.10736525198318526,-0.7238529968832513,-0.09788842360490664,-0.5100191052906031,0.04749244925580297,7.769937045012685,-1.1284242350776759,0
168,2024-09-14 19:41:32.132102144,TASK_BEGIN,003,-0.28535502914181143,0.10968667157503137,-0.7266968650563707,-0.10139620375872478,-0.497082668701626,0.046860663432092005,7.569791851308194,-1.1268001281601108,0
169,2024-09-14 19:41:32.199928064,TASK_BEGIN,003,-0.3120659257445312,0.1135977910694906,-0.7416131238633262,-0.1033872010778115,-0.485345418346217,0.046225617129042704,7.369522448624849,-1.1308021173884804,0
170,2024-09-14 19:41:32.257950976,TASK_BEGIN,003,-0.3415092247683899,0.11919645514140392,-0.7693438351073899,-0.10357925424990026,-0.4755297907950876,0.04561652050957429,7.181074005601107,-1.1410914330226203,0
171,2024-09-14 19:41:32.334615040,TASK_BEGIN,003,-0.37334132462041364,0.1265132752323732,-0.8088624348930373,-0.10196523817414618,-0.4681809909649902,0.045035749808949,7.015174804959878,-1.1579304930865164,0
172,2024-09-14 19:41:32.403321088,TASK_BEGIN,003,-0.40701956926904176,0.13552229878148705,-0.8576770913854517,-0.09883262845950418,-0.46369486533704735,0.044478098178084846,6.880084758480508,-1.1810661311652035,0
173,2024-09-14 19:41:32.457746944,TASK_BEGIN,003,-0.44188731052402247,0.14614617521799703,-0.9122929792868246,-0.09473266030095472,-0.4623534861882206,0.04394756819599529,6.780773541372028,-1.2096983862632738,0
174,2024-09-14 19:41:32.534614016,TASK_BEGIN,003,-0.47723281407103524,0.15825021176158663,-0.9687369744358935,-0.0903889265795028,-0.46435062923337833,0.04346646087163921,6.718670781570349,-1.2425503306894445,0
175,2024-09-14 19:41:33.476770048,TASK_BEGIN,003,-0.5123058701148508,0.17162785982059658,-1.0230918924585581,-0.08655811493221885,-0.4697922247696445,0.043075370731620204,6.691938173840063,-1.2780172271711296,0
176,2024-09-14 19:41:33.538448896,TASK_BEGIN,003,-0.5463132049974623,0.18598813430951577,-1.0719351466316134,-0.08389131334804974,-0.47866093850123764,0.0428258230844844,6.696066784850798,-1.3143425743827355,0
177,2024-09-14 19:41:33.616558080,TASK_BEGIN,003,-0.5784241518333533,0.20095601506806124,-1.1126026046444986,-0.08283836122741352,-0.4907545848756953,0.04276885761390842,6.7245806294862716,-1.3497708020457337,0
178,2024-09-14 19:41:33.678612992,TASK_BEGIN,003,-0.6078066238536252,0.2160904212501595,-1.1433128121472667,-0.08359796250744572,-0.5056356113952403,0.042942694335630034,6.769756018384157,-1.3826653547451244,0
179,2024-09-14 19:41:33.740613120,TASK_BEGIN,003,-0.6337008519997129,0.23091781758579846,-1.1632210246363484,-0.08610008403617336,-0.5226243488077945,0.04336213584872808,6.823398792117709,-1.4116080962924562,0
180,2024-09-14 19:41:33.820724736,TASK_BEGIN,003,-0.6555168035220782,0.24497393022675235,-1.1724309431988964,-0.09001269511869739,-0.5408412104824066,0.04401390667335443,6.877644076511913,-1.4354791754897889,0
181,2024-09-14 19:41:33.879550976,TASK_BEGIN,003,-0.6729142274301197,0.2578413127743916,-1.1719701116032017,-0.0947666756180814,-0.5592870500465298,0.04486241900251439,6.925601651256645,-1.4534958610700288,0
182,2024-09-14 19:41:34.831610880,TASK_BEGIN,003,-0.6858321122303749,0.26917393666200906,-1.1637101796125764,-0.09959932726330477,-0.5769459033201965,0.04586520717501924,6.96172053864113,-1.4651957466948788,0
183,2024-09-14 19:41:34.899918848,TASK_BEGIN,003,-0.6944684508010693,0.27871021934245865,-1.15018031894863,-0.10362040241618412,-0.5928901364630135,0.04699016500833253,6.981897721144174,-1.4703718003425867,0
184,2024-09-14 19:41:34.955248128,TASK_BEGIN,003,-0.6992211895872008,0.2862796088598552,-1.134232498719166,-0.105897471273407,-0.6063614844313979,0.048224365599458884,6.983466603856243,-1.4689974330768274,0
185,2024-09-14 19:41:35.035481856,TASK_BEGIN,003,-0.700603974273402,0.2918040921647151,-1.118577200009079,-0.10556124226019603,-0.6167970254711209,0.049568478525095154,6.965244685122068,-1.4612016600808553,0
186,2024-09-14 19:41:35.103279104,TASK_BEGIN,003,-0.699170035354697,0.29529408578455063,-1.1053066883726912,-0.10192724400348802,-0.6237877408920076,0.05101872935744434,6.927684361846221,-1.447321074404369,0
187,2024-09-14 19:41:35.156103936,TASK_BEGIN,003,-0.6954698914806074,0.29683807496378284,-1.0955925981313783,-0.09459202243312982,-0.6269990496714003,0.05254483780735473,6.872920776796524,-1.4279739107155323,0
188,2024-09-14 19:41:35.233371136,TASK_BEGIN,003,-0.6900309157712616,0.296585214704631,-1.08966848000847,-0.08344928902584164,-0.6261091685275019,0.05407328612218202,6.8044746529671984,-1.4040654643849435,0
189,2024-09-14 19:41:36.177233920,TASK_BEGIN,003,-0.6833372319216825,0.2947232446068326,-1.0870178374912018,-0.06863285207235172,-0.6208062610601462,0.05548215140745891,6.726603843446024,-1.376695147225849,0
190,2024-09-14 19:41:36.250236160,TASK_BEGIN,003,-0.6758035920854674,0.2914574964651225,-1.0865839480166077,-0.050453600581020115,-0.6108423587582865,0.05661063834597132,6.643525493105974,-1.3470179786534873,0
191,2024-09-14 19:41:36.318069760,TASK_BEGIN,003,-0.667737642813174,0.28699411645293,-1.0869222486762644,-0.029377948888538747,-0.596106617436812,0.057282457508472946,6.558771050303808,-1.3161225065075883,0
192,2024-09-14 19:41:36.385835008,TASK_BEGIN,003,-0.6592872676962641,0.2815259215782022,-1.0863888825600376,-0.006035960546325982,-0.5766816241246173,0.0573369064868359,6.474836723514076,-1.2849398626041921,0
193,2024-09-14 19:41:36.438926080,TASK_BEGIN,003,-0.6503940775737685,0.2752200680682259,-1.0834431171594794,0.01877645042202373,-0.5528765943750137,0.05666000623832194,6.393188505616157,-1.2541804543020536,0
194,2024-09-14 19:41:36.521441024,TASK_BEGIN,003,-0.6407897816466789,0.26820982919769265,-1.0769400741556747,0.044116897502549414,-0.525252654284597,0.05521037141221982,6.314599092170759,-1.2243206587070026,0
195,2024-09-14 19:41:36.589231872,TASK_BEGIN,003,-0.6300499812385737,0.2605910633213391,-1.066200492133844,0.06892665782102889,-0.49464076232358917,0.05303427467565344,6.239651641121456,-1.1956672440261757,0
196,2024-09-14 19:41:37.509607936,TASK_BEGIN,003,-0.6176821752334906,0.2524209420234466,-1.0508049033751337,0.09206032840389121,-0.46212651595048165,0.05026361283822495,6.1691173997398,-1.168479407152153,0
197,2024-09-14 19:41:37.577420032,TASK_BEGIN,003,-0.6032123095116451,0.2437195583021275,-1.0302673310658836,0.11232306069601586,-0.42898524296882284,0.047096279526685415,6.103995540293877,-1.143074984575681,0
198,2024-09-14 19:41:37.645198080,TASK_BEGIN,003,-0.5862472433171219,0.23447792880626483,-1.0038014199185625,0.1285325801879371,-0.3965828572583182,0.04376624962702454,6.045273797761905,-1.1198578723230082,0
199,2024-09-14 19:41:37.698684928,TASK_BEGIN,003,-0.5665027865582917,0.2246707977322402,-0.9703286051609407,0.1396148077999431,-0.3662662916589096,0.040511937402129404,5.993677068331852,-1.0992737534987174,0
200,2024-09-14 19:41:37.780800000,TASK_BEGIN,003,-0.5438016560782855,0.21426886225948397,-0.9287738178669307,0.14472380353686198,-0.3392511099156215,0.03754697085803766,5.949635027773436,-1.0817492493754475,0
201,2024-09-14 19:41:37.838736128,TASK_BEGIN,003,-0.518069519887185,0.2032498034269494,-0.8785521524535094,0.14335387993953835,-0.31650255263129207,0.03503273637418907,5.91350825262051,-1.0676588436457441,0
202,2024-09-14 19:41:37.916350976,TASK_BEGIN,003,-0.48935945410731774,0.1916102126512236,-0.8200188110209038,0.1354009146845367,-0.2986202786717955,0.03305291039628882,5.885987173755234,-1.0573384856462935,0
203,2024-09-14 19:41:38.846606080,TASK_BEGIN,003,-0.4579065430997251,0.17937688475620475,-0.7546555020727005,0.1211499533128419,-0.2857623977259803,0.031597277294794265,5.868535751152157,-1.0511425184121543,0
204,2024-09-14 19:41:38.924102144,TASK_BEGIN,003,-0.42419139415473645,0.1666155972186259,-0.6849184746941986,0.10120560429268399,-0.2776353008945836,0.03056328171270297,5.863684553109463,-1.0495077006624332,0
205,2024-09-14 19:41:38.993232896,TASK_BEGIN,003,-0.38898398838007,0.15343806871871699,-0.6138538743812126,0.0764039408785484,-0.2735357318091139,0.029773552454622446,5.874972165293043,-1.052973153281304,0
206,2024-09-14 19:41:39.061029120,TASK_BEGIN,003,-0.353338092097422,0.14000652884426165,-0.5446643930453928,0.047735656857582034,-0.27241911191352164,0.0290006120016351,5.906496208086565,-1.0621320856933452,0
207,2024-09-14 19:41:39.128770048,TASK_BEGIN,003,-0.31852811290563376,0.12653441166817175,-0.48035037206306685,0.016288523923200356,-0.2729899389823617,0.027994699963642854,5.962240569342808,-1.0775291952381276,0
208,2024-09-14 19:41:39.186928896,TASK_BEGIN,003,-0.28595422868202813,0.11328327507920719,-0.42341970776211335,-0.01680388845529094,-0.2738196856143985,0.026516119138414885,6.045421003550176,-1.0995372078812358,0
209,2024-09-14 19:41:39.263191040,TASK_BEGIN,003,-0.2570398409588783,0.10055407698536642,-0.37560435898383476,-0.05042683614679541,-0.2734856453426031,0.024371325884758165,6.158023352058209,-1.1282493417213042,0
210,2024-09-14 19:41:40.207667968,TASK_BEGIN,003,-0.2331122554458766,0.08866845138904812,-0.33760134906453587,-0.08356187433903574,-0.2707161549328912,0.021447116105541748,6.30056147223316,-1.1634143042425247,0
211,2024-09-14 19:41:40.275507200,TASK_BEGIN,003,-0.21525017888778486,0.07794003624077094,-0.3089429319993475,-0.11535565237575134,-0.26452768176134406,0.017735349753425167,6.471931973347946,-1.204418070440955,0
212,2024-09-14 19:41:40.336603904,TASK_BEGIN,003,-0.2041196670397789,0.06864345658093404,-0.28807822134947425,-0.14515728091783578,-0.2543358628059546,0.013342031272358213,6.669235471912256,-1.250296793785274,0
213,2024-09-14 19:41:40.411107840,TASK_BEGIN,003,-0.199864078213033,0.060992374784073156,-0.2726557095181082,-0.17251157134556952,-0.2400217683748753,0.008479144620586205,6.887604457937828,-1.2997594838174118,0
214,2024-09-14 19:41:40.478922240,TASK_BEGIN,003,-0.20211139525066324,0.05513541368896008,-0.25986500087013514,-0.19712592793984574,-0.22194788301876867,0.0034436836327807994,7.120204231375133,-1.35120892921772,0
215,2024-09-14 19:41:40.536417024,TASK_BEGIN,003,-0.21009872065635193,0.05116849201870433,-0.24664426544950355,-0.21885879964412133,-0.20093138165543423,-0.0014095676457786023,7.358519637246765,-1.4027745602720023,0
216,2024-09-14 19:41:40.613138944,TASK_BEGIN,003,-0.22284278477802263,0.04915025979767414,-0.2297533289723764,-0.2377456600718949,-0.17817859854811388,-0.005697821899074927,7.592934873401716,-1.4523894360143508,0
217,2024-09-14 19:41:41.552339200,TASK_BEGIN,003,-0.23927831765014482,0.04910608592101894,-0.205929510962995,-0.25401886539410334,-0.15518704375955608,-0.00904068909847608,7.813511400619168,-1.4979163979074817,0
218,2024-09-14 19:41:41.625603072,TASK_BEGIN,003,-0.25833444445304116,0.05101689994452336,-0.17223534461944487,-0.2680874121964156,-0.13364030798780072,-0.011088176846806708,8.010763888960243,-1.5372810302271172,0
219,2024-09-14 19:41:41.693304064,TASK_BEGIN,003,-0.27896221992922793,0.05480084409713646,-0.12645969279901073,-0.2804954612449605,-0.11531800763428657,-0.011543773894884339,8.176264651574085,-1.5685774553384366,0
220,2024-09-14 19:41:41.752087808,TASK_BEGIN,003,-0.3001467165671345,0.060300642518625026,-0.06743437937878959,-0.2918804646627567,-0.10201867683874914,-0.01018063571680348,8.303049158517005,-1.5901591265958344,0
221,2024-09-14 19:41:41.828783872,TASK_BEGIN,003,-0.32094216848809215,0.0672882943805595,0.004725271433727672,-0.3029177572259597,-0.09548654068469652,-0.006848388258595696,8.385876984117013,-1.6007320657871165,0
222,2024-09-14 19:41:41.896601856,TASK_BEGIN,003,-0.34054524122975,0.07549057733760468,0.08847878833779932,-0.314241400967163,-0.09733014570951518,-0.0014733422006323724,8.421445389213025,-1.5994458885986005,0
223,2024-09-14 19:41:41.953246208,TASK_BEGIN,003,-0.3583797830637348,0.08462553062365731,0.18094259696942158,-0.3263573433310204,-0.10891102457332837,0.005937144573137,8.408649724284263,-1.585976728203299,0
224,2024-09-14 19:41:42.874906112,TASK_BEGIN,003,-0.37415396122470673,0.09443335160736509,0.27819027837494137,-0.33955887953624264,-0.1311965075615886,0.015278720764264005,8.348840489700224,-1.5605986005953831,0
225,2024-09-14 19:41:42.937391104,TASK_BEGIN,003,-0.38787504255568767,0.104692448217798,0.3755671950779744,-0.3538367495474564,-0.16460604984619973,0.02632777546030319,8.24587592131052,-1.5242209962605162,0
226,2024-09-14 19:41:43.018414080,TASK_BEGIN,003,-0.3998211893447584,0.11522121161818795,0.4679237386327606,-0.3687939607216026,-0.20889703085470168,0.038725170338192824,8.105810065488328,-1.4783506784315255,0
227,2024-09-14 19:41:43.086159872,TASK_BEGIN,003,-0.41046511736867874,0.12586797840875813,0.5499482976900303,-0.38360542993278296,-0.2631299959453287,0.05197677508107559,7.936246996316817,-1.4249522936465886,0
228,2024-09-14 19:41:43.141394944,TASK_BEGIN,003,-0.42036139791741817,0.1364928921116176,0.6167693790115091,-0.397063897969371,-0.32572978335909814,0.06547665463242773,7.745556574332753,-1.3662417568916032,0
229,2024-09-14 19:41:43.215845888,TASK_BEGIN,003,-0.4300383869007135,0.14694964738039581,0.6646759958298923,-0.407728716414917,-0.3946209954707138,0.07855058477404149,7.5421606684091005,-1.304492654402907,0
230,2024-09-14 19:41:43.277355008,TASK_BEGIN,003,-0.4399307111280246,0.1570737216266137,0.6916183133232572,-0.4141528658359478,-0.4673956025709031,0.09050962399869605,7.333960640085904,-1.2419052727372442,0
231,2024-09-14 19:41:44.224661248,TASK_BEGIN,003,-0.45035671308506076,0.1666772547744423,0.6973268549550695,-0.41512643516316383,-0.5414856955683733,0.1007028524975645,7.127821673409453,-1.1805107906075292,0
232,2024-09-14 19:41:44.286216960,TASK_BEGIN,003,-0.46152448701997834,0.17554851493198648,0.68316626807709,-0.40988078378632287,-0.6143300233725824,0.10856358694759756,6.929017265461839,-1.122061883693128,0
233,2024-09-14 19:41:44.369509888,TASK_BEGIN,003,-0.4735448408713158,0.18345578441329846,0.6518767629190917,-0.3982257598047375,-0.6835131464334805,0.11364708012747608,6.740691977608063,-1.067917798030073,0
234,2024-09-14 19:41:44.425466112,TASK_BEGIN,003,-0.4864339566587163,0.19015681246349694,0.6071936900045363,-0.3805945385833056,-0.7468565246060463,0.11565883596552246,6.56353030398357,-1.0189731109062026,0
235,2024-09-14 19:41:44.504257024,TASK_BEGIN,003,-0.5001024047880819,0.1954152779652858,0.5532961395458806,-0.3579788768371275,-0.8024756314842741,0.11447410373602325,6.395760130938576,-0.9756527804466529,0
236,2024-09-14 19:41:44.563718144,TASK_BEGIN,003,-0.5143375838333831,0.19902403544663727,0.49419053522583983,-0.3317785628210026,-0.8488340975874734,0.11014805578867568,6.233517333576226,-0.9379620146849488,0
237,2024-09-14 19:41:44.625708032,TASK_BEGIN,003,-0.5287863907612033,0.20083041529065643,0.4332125411357305,-0.3036118780391175,-0.8847934017452441,0.10291172704535978,6.071597048980129,-0.9055837770261194,0
238,2024-09-14 19:41:45.582300160,TASK_BEGIN,003,-0.5429443198517827,0.20075566569595035,0.37270132376733084,-0.2751209620598773,-0.9096364677854236,0.09315043820978139,5.9045619687560915,-0.8780231115087742,0
239,2024-09-14 19:41:45.650131712,TASK_BEGIN,003,-0.5561580304250591,0.1988033090621611,0.3137879566707685,-0.24779605501537957,-0.9230672088514256,0.08136935460094734,5.727979875961252,-0.8547727565489367,0
240,2024-09-14 19:41:45.705803008,TASK_BEGIN,003,-0.5676468619109135,0.19505746661663986,0.2563228894809083,-0.22284462685202663,-0.9252004852452033,0.06815160177404767,5.539434350927448,-0.8354506962259068,0
241,2024-09-14 19:41:45.785687040,TASK_BEGIN,003,-0.5765498602243009,0.1896750950039247,0.19905336784777777,-0.201119002225229,-0.9165429396043808,0.054110530988525855,5.339064619630639,-0.8198753850381327,0
242,2024-09-14 19:41:45.853420032,TASK_BEGIN,003,-0.5820032522445415,0.18287388866468807,0.14003365540774568,-0.18308674179496837,-0.8979648669090362,0.03984248272368974,5.129615562762506,-0.8080745904515219,0
243,2024-09-14 19:41:45.920718080,TASK_BEGIN,003,-0.5832377986557408,0.17491620779278713,0.07705717938666273,-0.16881062614331016,-0.8706709867107087,0.025892218559999017,4.916122837957538,-0.8002351249194374,0
244,2024-09-14 19:41:45.983632128,TASK_BEGIN,003,-0.5796695775375508,0.1660909491667401,0.00789219460936284,-0.15791876779134834,-0.836167294511692,0.012736295859078626,4.705376682472225,-0.7966040528904307,0
245,2024-09-14 19:41:46.932004864,TASK_BEGIN,003,-0.5709639907432945,0.1566956977991612,-0.06971592436924441,-0.14958504747262033,-0.796206625349691,0.0007772331802369774,4.50524508995061,-0.7973620611347673,0
246,2024-09-14 19:41:46.996989952,TASK_BEGIN,003,-0.5570749476695438,0.14702037081820535,-0.1581172475098024,-0.14257190366573463,-0.7526965436646144,-0.009661588439220693,4.32392630853223,-0.8025072707149707,0
247,2024-09-14 19:41:47.059062016,TASK_BEGIN,003,-0.5382694989132762,0.13733304224736684,-0.2596679343135584,-0.1353715607188557,-0.7075693749692569,-0.01834371913879956,4.169288373438475,-0.8118003323954183,0
248,2024-09-14 19:41:47.135402752,TASK_BEGIN,003,-0.5151342078284582,0.1278682913391248,-0.3763063717732921,-0.1264329407514487,-0.6626406665743805,-0.02512766107385547,4.048405812225677,-0.8247954563197868,0
249,2024-09-14 19:41:47.197443072,TASK_BEGIN,003,-0.4885506977797313,0.11881876024352794,-0.5088202868841661,-0.11442198229279921,-0.6195030026184919,-0.029970270510900662,3.9672009140490823,-0.8409287087521478,0
250,2024-09-14 19:41:47.271001856,TASK_BEGIN,003,-0.4596342119081858,0.11033134885722932,-0.6560904647293466,-0.09844559170718012,-0.579488763164364,-0.032920122319247645,3.9300748325466515,-0.8596171128157288,0
251,2024-09-14 19:41:47.336721920,TASK_BEGIN,003,-0.4296346408234394,0.10250749758333823,-0.8146990495496087,-0.07818419931192083,-0.5436863941853117,-0.034099700088248155,3.939572090730321,-0.8803383938753102,0
252,2024-09-14 19:41:48.281997056,TASK_BEGIN,003,-0.39981242165236597,0.09540427787540513,-0.9790790665161304,-0.05392233943820463,-0.5129614017822793,-0.033682274647034306,3.9961679043115645,-0.9026646427231225,0
253,2024-09-14 19:41:48.346612992,TASK_BEGIN,003,-0.3713215057832907,0.08903503384324263,-1.1420495913156115,-0.0265034304788761,-0.48795081328657725,-0.031871616791097034,4.098195477663675,-0.9262335685255109,0
254,2024-09-14 19:41:48.408642048,TASK_BEGIN,003,-0.3451282320826681,0.0833728243203433,-1.2954423920993197,0.0027571715218143405,-0.46902862730986117,-0.028890477649223787,4.241899150732661,-0.9506853852838936,0
255,2024-09-14 19:41:48.485399040,TASK_BEGIN,003,-0.321977117574269,0.0783604978043556,-1.430619508574869,0.03217947518324839,-0.45624922853436417,-0.024979502287575762,4.421623455999069,-0.9756171052465508,0
256,2024-09-14 19:41:48.553188096,TASK_BEGIN,003,-0.30240640081725556,0.073927637891761,-1.5388395997177728,0.059840153597598186,-0.44929135425934197,-0.02040148216815926,4.630156445342831,-1.0005701235506244,0
257,2024-09-14 19:41:48.609304832,TASK_BEGIN,003,-0.2868013863866966,0.07000994738415067,-1.6115683445817366,0.08370676636213223,-0.44744413343467604,-0.015441227586636295,4.859216555974327,-1.025031724558417,0
258,2024-09-14 19:41:48.686992896,TASK_BEGIN,003,-0.2754497839432999,0.06656346757500212,-1.640924542651561,0.10179370239568669,-0.4496611036980888,-0.010394701833506942,5.100046585810201,-1.0484480417610595,0
259,2024-09-14 19:41:49.606198016,TASK_BEGIN,003,-0.2685615684038426,0.06356817334319467,-1.6204049098042628,0.11235693904928258,-0.45467130698459335,-0.005548845765528465,5.344064404038504,-1.0702675354931084,0
260,2024-09-14 19:41:49.668582144,TASK_BEGIN,003,-0.2662404396579321,0.061022073236585136,-1.5458068564814693,0.1141146049587912,-0.46111890090766583,-0.0011581549229504801,5.583474639408915,-1.0900112363509074,0
261,2024-09-14 19:41:49.730648832,TASK_BEGIN,003,-0.26841861100769043,0.05892997047648572,-1.4160315295561523,0.10642732530882924,-0.4676947971770267,0.002574347509974242,5.811700473369121,-1.1073377185328475,0
262,2024-09-14 19:41:49.810432768,TASK_BEGIN,003,-0.27478518611854896,0.057289373794121634,-1.2333845460853596,0.08935780442137152,-0.4732181226631716,0.005503680286374809,6.023554183563381,-1.1220836989049492,0
263,2024-09-14 19:41:49.878221056,TASK_BEGIN,003,-0.28475260486998727,0.056076784155595465,-1.0032095664824123,0.06357910902058764,-0.4766548261341579,0.0075346442513147425,6.2151966113741075,-1.134288030163737,0
264,2024-09-14 19:41:49.931022848,TASK_BEGIN,003,-0.2974896046467718,0.05523991750368755,-0.7330818344667084,0.03018263477483973,-0.4771152160157764,0.008607648274685105,6.383981232024766,-1.1442044156667666,0
265,2024-09-14 19:41:50.008243968,TASK_BEGIN,003,-0.3120010676929265,0.05469896966217685,-0.4319826542977075,-0.009521316901155033,-0.47388916485475396,0.008692357588542591,6.528223018418585,-1.1522869002551004,0
266,2024-09-14 19:41:50.957251072,TASK_BEGIN,003,-0.32721252509006193,0.05435499748240483,-0.10968580423391741,-0.05415468462533416,-0.46653508486192313,0.007795708641276775,6.646916265089073,-1.1591318405861883,0
267,2024-09-14 19:41:51.025101824,TASK_BEGIN,003,-0.3420450278071427,0.054102365657613664,0.22370649543609347,-0.1023797001904785,-0.4549822298340581,0.005980272437362752,6.739494567405792,-1.16539291543786,0
268,2024-09-14 19:41:51.087193856,TASK_BEGIN,003,-0.3554924334392182,0.0538436140982035,0.5582228224544172,-0.15298296111725618,-0.43959001685206295,0.0033830405723543396,6.80575204028078,-1.1717100795288675,0
269,2024-09-14 19:41:51.149214208,TASK_BEGIN,003,-0.3667081850846532,0.0535056140866032,0.884524866313748,-0.20494033396744304,-0.42113273058692025,0.00022327492439364911,6.845936979118305,-1.178669209737366,0
270,2024-09-14 19:41:51.228418304,TASK_BEGIN,003,-0.3750996132220879,0.05305756880519567,1.194400318904982,-0.2574650995327951,-0.4007057823574697,-0.0032093234984011667,6.860883173829865,-1.1867673962977627,0
271,2024-09-14 19:41:51.287422208,TASK_BEGIN,003,-0.3804143723904041,0.052530271356290896,1.4811612602866944,-0.3100364844484136,-0.3795730312485389,-0.006586568974259508,6.852015349886805,-1.1963502297329354,0
272,2024-09-14 19:41:51.348998144,TASK_BEGIN,003,-0.3827773685928778,0.052027728576194796,1.7398731760572685,-0.36238688385013573,-0.3590003571916165,-0.009584409430581687,6.821194526861086,-1.2075179696839993,0
273,2024-09-14 19:41:52.294908928,TASK_BEGIN,003,-0.3826479302428266,0.051720946724881485,1.9673611888864826,-0.41442031724273143,-0.340124367129637,-0.011923710990988375,6.7705267615646765,-1.2200415944743248,0
274,2024-09-14 19:41:52.374989056,TASK_BEGIN,003,-0.3807274999883145,0.05182769042467587,2.1619959352331586,-0.4660652062337301,-0.32387261986346133,-0.01340145330173412,6.702279596051568,-1.2333449310713778,0
275,2024-09-14 19:41:52.434437120,TASK_BEGIN,003,-0.37787584990964823,0.05259171434951948,2.323339436385801,-0.5171157933240565,-0.3109144873512279,-0.013910591186159732,6.6189396879822535,-1.2465725893584925,0
276,2024-09-14 19:41:52.511120128,TASK_BEGIN,003,-0.37505353809165637,0.05426701958308431,2.451753771811046,-0.567132543731496,-0.3016121131399996,-0.013450862674666653,6.523359568439697,-1.2587206712727868,0
277,2024-09-14 19:41:52.572753920,TASK_BEGIN,003,-0.3732594097343374,0.05710106404193656,2.548064901704899,-0.6154313132497022,-0.29596096591928134,-0.012133501968852371,6.418946141154008,-1.2688042179056336,0
278,2024-09-14 19:41:52.634832896,TASK_BEGIN,003,-0.37342636746006663,0.061309283313167734,2.613382510305076,-0.661144265206917,-0.29354507536270924,-0.010178262796973985,6.309814493997146,-1.2760361400310996,0
279,2024-09-14 19:41:52.715787776,TASK_BEGIN,003,-0.3762748511710134,0.0670397139220278,2.649111836289554,-0.7033145618757751,-0.2935556406684017,-0.007897082453328572,6.200753300307991,-1.2799694735357945,0
280,2024-09-14 19:41:53.632291072,TASK_BEGIN,003,-0.3821634208885608,0.0743343390494654,2.6570244543390706,-0.7409796805989313,-0.29490135555090413,-0.005661866836964603,6.09689080902149,-1.2805534193849286,0
281,2024-09-14 19:41:53.693485056,TASK_BEGIN,003,-0.3909870890509716,0.08309867846265087,2.6391815329553343,-0.7732098573089881,-0.2963827600792023,-0.0038598330468730996,6.00308367965343,-1.2780854279927523,0
282,2024-09-14 19:41:53.754586880,TASK_BEGIN,003,-0.40216485367334115,0.09309086929741117,2.597668175287444,-0.7991033299441908,-0.2968692931026983,-0.002843275184649282,5.923132149073241,-1.2730740511100764,0
283,2024-09-14 19:41:53.835810816,TASK_BEGIN,003,-0.4147376641968437,0.10393601887113661,2.5343267396957594,-0.8177710450003327,-0.29543914488556644,-0.0028826846625097805,5.859005921147857,-1.266059549008774,0
284,2024-09-14 19:41:53.903645952,TASK_BEGIN,003,-0.4275513573677241,0.11516243885215521,2.4506922004396015,-0.8283465688273355,-0.29147365789456703,-0.0041322474581853025,5.8103408283822855,-1.2574598405792852,0
285,2024-09-14 19:41:53.971436032,TASK_BEGIN,003,-0.4394449642747795,0.12624701404216096,2.348123410713458,-0.8300363360516637,-0.2846962614769019,-0.006613942194478777,5.7744160602350565,-1.2474937136791668,0
286,2024-09-14 19:41:54.039222016,TASK_BEGIN,003,-0.44936842798937754,0.13665536953226157,2.227948257800421,-0.8222001398190321,-0.2751442790331188,-0.010223017294313522,5.746692369962462,-1.2362022374672146,0
287,2024-09-14 19:41:54.977125120,TASK_BEGIN,003,-0.4564254804155307,0.14587309639053958,2.0914942585628875,-0.8044429397375994,-0.2630941032740342,-0.014752231581551535,5.721844193244192,-1.223559984233246,0
288,2024-09-14 19:41:55.039196160,TASK_BEGIN,003,-0.45989478698322284,0.15343579718678502,1.9400742494160987,-0.7767106916439732,-0.24898559847184268,-0.019923914564414762,5.695012238955883,-1.209628905313411,0
289,2024-09-14 19:41:55.118270976,TASK_BEGIN,003,-0.4592684191733007,0.15896353601525556,1.775082986627153,-0.7393873396294007,-0.2333694244527319,-0.025416679496556686,5.662832942219164,-1.1946757818019218,0
290,2024-09-14 19:41:55.185939968,TASK_BEGIN,003,-0.45429985296120423,0.1621941415536457,1.5982265675898215,-0.6933678774380279,-0.2168634795760384,-0.03088385396684761,5.623846831864613,-1.1791814382387251,0
291,2024-09-14 19:41:55.253873152,TASK_BEGIN,003,-0.4450273341423739,0.1630052928225559,1.4117463399702783,-0.6400680823200033,-0.20010162543360355,-0.035971285752680875,5.578175999651622,-1.1637240090461796,0
292,2024-09-14 19:41:55.321679104,TASK_BEGIN,003,-0.4317417305994158,0.16141920499276913,1.2185176740167818,-0.5813611012781201,-0.18368326375417904,-0.04033981894005407,5.526737782471671,-1.1487913863556056,0
293,2024-09-14 19:41:55.389483008,TASK_BEGIN,003,-0.4148963942557536,0.15758777389157835,1.0220223607422343,-0.5194748474143037,-0.16814933104607224,-0.043688515962558225,5.470480397866632,-1.1346146723557573,0
294,2024-09-14 19:41:56.327206912,TASK_BEGIN,003,-0.39499778205516983,0.15176061616778944,0.8262484120827349,-0.4568897248388888,-0.15400075026623605,-0.0457712276181511,5.410026187080378,-1.121089200429156,0
295,2024-09-14 19:41:56.394432000,TASK_BEGIN,003,-0.3725304992141003,0.14424562942915628,0.6355524526794661,-0.3962401085421843,-0.1417446093166525,-0.0464026490197744,5.3457801737076345,-1.1077996302064461,0
296,2024-09-14 19:41:56.467439872,TASK_BEGIN,003,-0.3479369229668786,0.13537321822017495,0.4544714154440545,-0.34018864141835037,-0.13193198269668746,-0.045454531776467993,5.278267423958494,-1.0941326743642548,0
297,2024-09-14 19:41:56.530050048,TASK_BEGIN,003,-0.3216271539323498,0.12546786113038952,0.2874440870305106,-0.29124654053325494,-0.12516619910311472,-0.04284539759315322,5.208427464691093,-1.0794447364453106,0
298,2024-09-14 19:41:56.592087808,TASK_BEGIN,003,-0.2939894047460575,0.11482644631617447,0.13845754429939994,-0.2515519748239253,-0.12208518620329993,-0.03852877940215084,5.137788708475205,-1.0632347324235933,0
299,2024-09-14 19:41:56.669262080,TASK_BEGIN,003,-0.2653991577495154,0.10370705865020492,0.010701152081685763,-0.22265780001490004,-0.12331871753705574,-0.03248585064694999,5.068560413350431,-1.0452562636558607,0
300,2024-09-14 19:41:56.738890752,TASK_BEGIN,003,-0.23624033344291773,0.09233193531222635,-0.09371608273524121,-0.20538383811177405,-0.1294101115033363,-0.024727305942209607,5.003581245041741,-1.0255212250256285,0
301,2024-09-14 19:41:57.677921024,TASK_BEGIN,003,-0.20693439671771174,0.0808997084941951,-0.17399645934473806,-0.19975557024999338,-0.1407066266727901,-0.015304902510569894,4.946018306282037,-1.0042128722478558,0
302,2024-09-14 19:41:57.749836032,TASK_BEGIN,003,-0.17795272090065498,0.06959741208305142,-0.23083440419937737,-0.20501760648113684,-0.15725204043014443,-0.004325716896805556,4.898876146214187,-0.9815812280799943,0
303,2024-09-14 19:41:57.802885120,TASK_BEGIN,003,-0.14979548501296203,0.05860795235709698,-0.266444859242833,-0.21970897821024912,-0.17872991565878507,0.00804111123918834,4.864562616955073,-0.9578859218399268,0
304,2024-09-14 19:41:57.880204800,TASK_BEGIN,003,-0.12295401607401142,0.0481158482153766,-0.2842681923898784,-0.24180553747811134,-0.2044921833746155,0.021569364533256388,4.844745374555134,-0.9334125134165772,0
305,2024-09-14 19:41:57.942691072,TASK_BEGIN,003,-0.09789054245478056,0.038314061973017885,-0.2883171201877243,-0.26893131007149873,-0.23366415846827968,0.0359884225608205,4.840501351510227,-0.9085530082397026,0
306,2024-09-14 19:41:58.020503808,TASK_BEGIN,003,-0.07504492106619422,0.029408404439295557,-0.2823920419552985,-0.2986075002058717,-0.26527217764087035,0.05099739240726007,4.852552872353754,-0.8839078550018784,0
307,2024-09-14 19:41:58.082542080,TASK_BEGIN,003,-0.054852414971964705,0.021613525181771894,-0.2695036115439707,-0.328479364452319,-0.2983332681815278,0.06627580284752627,4.881409599544217,-0.8603511403015336,0
308,2024-09-14 19:41:59.024323072,TASK_BEGIN,003,-0.03776165227529234,0.015140267745159542,-0.25173563057736303,-0.35646297700221363,-0.33188225467566335,0.08148863585539713,4.927370452057161,-0.839017615975918,0
309,2024-09-14 19:41:59.086704128,TASK_BEGIN,003,-0.024245602908375744,0.010179493145728778,-0.23054120870514788,-0.38079283521667956,-0.36495692854911077,0.09628877800573186,4.990409451891893,-0.8212007309740011,0
310,2024-09-14 19:41:59.168423936,TASK_BEGIN,003,-0.014786100839778644,0.006886095107137535,-0.2071743007273474,-0.4000125876458851,-0.3965817119342312,0.11032274390022354,5.069978361027788,-0.8081778157304123,0
311,2024-09-14 19:41:59.236232960,TASK_BEGIN,003,-0.009819300137461854,0.005364111232329114,-0.18289010634766553,-0.41297867797958066,-0.4257771831164056,0.1232420593757351,5.16474441370629,-0.8009985494073742,0
312,2024-09-14 19:41:59.302921216,TASK_BEGIN,003,-0.009662439324947255,0.005655582464189825,-0.1588782946187228,-0.41890129718304486,-0.45159420760622215,0.13471843342648862,5.272317943299668,-0.800287332941308,0
313,2024-09-14 19:41:59.365408000,TASK_BEGIN,003,-0.014460438957933627,0.007738518791076985,-0.13619442955986424,-0.41738310392845895,-0.4731564442377013,0.1444606590649712,5.389114214036458,-0.8061194726303527,0
314,2024-09-14 19:41:59.427488000,TASK_BEGIN,003,-0.024171515331137206,0.011535870248114538,-0.11581340460029373,-0.40841272833378456,-0.48970623099236765,0.15223341151562947,5.5104747446597715,-0.8180157589598155,0
315,2024-09-14 19:42:00.356827904,TASK_BEGIN,003,-0.03858303009263336,0.016931252504920623,-0.09869522264016155,-0.39231325393883504,-0.5006632701529494,0.157879339941774,5.631040605878189,-0.8350480647360444,0
316,2024-09-14 19:42:00.424667904,TASK_BEGIN,003,-0.057344241345150974,0.023786779255942702,-0.08581276145879443,-0.36967415702976664,-0.5057023560518646,0.1613451707602177,5.745295705318465,-0.855997773010673,0
317,2024-09-14 19:42:00.492449024,TASK_BEGIN,003,-0.08001020822991974,0.03196067309506132,-0.07819185530105642,-0.3412924710503912,-0.5048428653786392,0.1627093003813427,5.848210923836527,-0.8795098123115866,0
318,2024-09-14 19:42:00.560211968,TASK_BEGIN,003,-0.10608968823500443,0.04132080167600657,-0.07693794812092847,-0.30812755072376463,-0.49852896806306424,0.16220262796579177,5.935884146539534,-0.9042230550346678,0
319,2024-09-14 19:42:00.627963136,TASK_BEGIN,003,-0.1350851530659428,0.05174942787301125,-0.08318623879035347,-0.27125204992965135,-0.48767324764793457,0.16021186623659772,6.005947316986625,-0.9288692887087757,0
320,2024-09-14 19:42:00.682860032,TASK_BEGIN,003,-0.16651617060614302,0.06313982175852112,-0.09802863263409212,-0.2317821707803019,-0.4736461990646532,0.15726024061393984,6.057536078436046,-0.9523185935663432,0
321,2024-09-14 19:42:00.763577856,TASK_BEGIN,003,-0.1999270103236998,0.07539049101308566,-0.1225202542174234,-0.1907944244890532,-0.45820405064294034,0.15396786335984353,6.09088516044643,-0.9735643112567266,0
322,2024-09-14 19:42:01.695287040,TASK_BEGIN,003,-0.23488697412403448,0.0884004051101725,-0.1577274714370604,-0.1492585940976571,-0.44334546455024165,0.15099555451472557,6.106775442537644,-0.9916786474358051,0
323,2024-09-14 19:42:01.763098880,TASK_BEGIN,003,-0.2709898519796889,0.10206421249022037,-0.20465991943504871,-0.10801212255177892,-0.43110461593577604,0.1489774237342448,6.105992938202233,-1.0057845633889617,0
324,2024-09-14 19:42:01.827922176,TASK_BEGIN,003,-0.30784882540205816,0.11626597224258911,-0.26402289529848655,-0.06777864119074524,-0.42332437958341484,0.14845380837709218,6.0889479032073535,-1.015073858862346,0
325,2024-09-14 19:42:01.890880000,TASK_BEGIN,003,-0.34507675332674215,0.13086984153218587,-0.3358932785582302,-0.029219875641533367,-0.42146050964807197,0.14981791778353976,6.055619164105155,-1.01886804955109,0
326,2024-09-14 19:42:01.953221120,TASK_BEGIN,003,-0.3822515933642271,0.14570715693888497,-0.4194250297577543,0.006994376310597959,-0.426444579673959,0.15328311191851263,6.005829041710076,-1.0166903439674158,0
327,2024-09-14 19:42:02.030867200,TASK_BEGIN,003,-0.4188845173260676,0.16056511633399304,-0.5125954198636874,0.04012243657650547,-0.438612607878663,0.1588721867254127,5.9396693957787345,-1.0083163522166931,0
328,2024-09-14 19:42:02.093351936,TASK_BEGIN,003,-0.4544047512638926,0.17518495523662064,-0.6120365531459279,0.06932427631809372,-0.4576906112817365,0.1664276177340244,5.857852127083659,-0.993785788398202,0
329,2024-09-14 19:42:03.054178048,TASK_BEGIN,003,-0.48815303590685905,0.18927100791272713,-0.7130926046761602,0.09369329217659134,-0.48281912523442627,0.17563759379257135,5.761790702972245,-0.9733705634503893,0
330,2024-09-14 19:42:03.124886016,TASK_BEGIN,003,-0.5193765950011302,0.2025068472648997,-0.8101871110788177,0.1123406035411239,-0.5126078970375094,0.18607049613128676,5.653365596091218,-0.9475143829461762,0
331,2024-09-14 19:42:03.192665088,TASK_BEGIN,003,-0.5472465201023977,0.21457793064770997,-0.897441426711038,0.12450638621956645,-0.5452276457531904,0.19721403523322803,5.5345597937907485,-0.916777263552329,0
332,2024-09-14 19:42:03.255187968,TASK_BEGIN,003,-0.570925123823199,0.22520142534448714,-0.9694056750269976,0.12967383064174764,-0.5785454862453288,0.20851731341424512,5.407236667892919,-0.8818133144666304,0
333,2024-09-14 19:42:03.328207104,TASK_BEGIN,003,-0.5896781393778734,0.2341575774728719,-1.0217081410761097,0.12766533536647467,-0.6103045385229114,0.21943273035304803,5.273234409568386,-0.8433922695370999,0
334,2024-09-14 19:42:03.396007936,TASK_BEGIN,003,-0.6029940653591485,0.24131410337480197,-1.0514213727213855,0.11869518688661394,-0.6383439660261644,0.22945549734105655,5.13481102388995,-0.8024597592019456,0
335,2024-09-14 19:42:03.463758080,TASK_BEGIN,003,-0.6106665354381575,0.24663879423934637,-1.0570824209243896,0.10335350589018322,-0.6608232909196643,0.23815727131065592,4.995264451481011,-0.7602057986956106,0
336,2024-09-14 19:42:04.406825984,TASK_BEGIN,003,-0.612806890180792,0.2501959759436373,-1.0384867183342736,0.08252082370067243,-0.676377446324081,0.2452059585521225,4.859346317964994,-0.7180879283061651,0
337,2024-09-14 19:42:04.474663936,TASK_BEGIN,003,-0.6097820242775849,0.25212185171474466,-0.9964296612471021,0.057251575926514996,-0.6841624744040531,0.25036781598615865,4.7331818976499465,-0.6777730739249083,0
338,2024-09-14 19:42:04.527204096,TASK_BEGIN,003,-0.6021061274067342,0.2525816310559574,-0.9324870233427607,0.028676129045605826,-0.6838256664209308,0.25349824665268056,4.623789884743735,-0.6410129542963207,0
339,2024-09-14 19:42:04.605342976,TASK_BEGIN,003,-0.5903255126057135,0.25172215340542825,-0.8488491771156678,-0.0020557074005259457,-0.6754472147251942,0.25452864546297393,4.538523193354942,-0.6095001085197633,0
340,2024-09-14 19:42:04.677952000,TASK_BEGIN,003,-0.5749269916533226,0.24963606180752332,-0.748253521426281,-0.03379376902226186,-0.6594666939068916,0.253451212891347,4.484565170021672,-0.5847389391648999,0
341,2024-09-14 19:42:04.745737984,TASK_BEGIN,003,-0.5562889471699868,0.24634645482930365,-0.6340320389927344,-0.06539483071676463,-0.6366033393148428,0.2503048421663294,4.468340663802243,-0.5679454158260101,0
342,2024-09-14 19:42:04.807089152,TASK_BEGIN,003,-0.5346736621703349,0.24181030121351382,-0.5101226935744968,-0.09576364304520023,-0.6077913047651583,0.24516803013108718,4.494751089016507,-0.5599900253887073,0
343,2024-09-14 19:42:05.731976192,TASK_BEGIN,003,-0.5102414587335432,0.2359323271524202,-0.38086000406385717,-0.12394981638393682,-0.5741348715638417,0.23815894598988188,4.566391483114304,-0.5613859777239116,0
344,2024-09-14 19:42:05.795591936,TASK_BEGIN,003,-0.48307370453417986,0.22858299721803663,-0.25056054678581163,-0.14926032661475347,-0.5368652529516023,0.22943575915499978,4.682995391559247,-0.5722933628857106,0
345,2024-09-14 19:42:05.867770880,TASK_BEGIN,003,-0.4532008235040858,0.2196194032418421,-0.12306515198267483,-0.17132834082043966,-0.49728329516241876,0.21919157182359517,4.841204355186717,-0.592506067869935,0
346,2024-09-14 19:42:05.928456960,TASK_BEGIN,003,-0.42062798216871855,0.20890902744231396,-0.0013782024543066193,-0.19012287049695864,-0.456691055646141,0.20764283597753447,5.034561833331024,-0.6214070261063277,0
347,2024-09-14 19:42:05.990063872,TASK_BEGIN,003,-0.38536150336006714,0.19635477597193873,0.11248631389808937,-0.20591645391735036,-0.41632715739184095,0.19501411637498192,5.253607095178767,-0.6578960865585043,0
348,2024-09-14 19:42:06.067322112,TASK_BEGIN,003,-0.347452816997623,0.18191860321817527,0.21737197592457483,-0.2192200327967534,-0.37731160615941944,0.18152608282903474,5.486124255600951,-0.700329241189709,0
349,2024-09-14 19:42:06.138951168,TASK_BEGIN,003,-0.30705870633854115,0.16564005172827254,0.3126040767746285,-0.23068761236091628,-0.3405904329857452,0.16739193907027483,5.717758814476284,-0.7465381824167038,0
350,2024-09-14 19:42:07.067570176,TASK_BEGIN,003,-0.26449658232215645,0.14764720104516157,0.39756219946456106,-0.24100550953061894,-0.3068828731560434,0.15281945667847888,5.933121563933577,-0.793973219218258,0
351,2024-09-14 19:42:07.150000896,TASK_BEGIN,003,-0.22028766616597234,0.12816189217585994,0.47143027982115354,-0.25079354339999355,-0.2766529581206139,0.13801085888035763,6.117207524145767,-0.8399429129041011,0
352,2024-09-14 19:42:07.217818112,TASK_BEGIN,003,-0.17518995455802325,0.10750212055454178,0.5332479848348968,-0.2605438285401633,-0.25011031309673504,0.123155002706466,6.256735876282123,-0.8818761274190906,0
353,2024-09-14 19:42:07.285629184,TASK_BEGIN,003,-0.1302033872321317,0.08607934280488136,0.5821995581781862,-0.2706006035013513,-0.22722015760069003,0.10841199513982684,6.341110421023451,-0.9175455396550953,0
354,2024-09-14 19:42:07.349502208,TASK_BEGIN,003,-0.08653158612637935,0.06438614960894619,0.6179577993807651,-0.2811618791290595,-0.2077146746879679,0.09389708327705462,6.363024819149741,-0.9452363668333974,0
355,2024-09-14 19:42:07.420698880,TASK_BEGIN,003,-0.04551554881783671,0.04297464908440321,0.640964810816052,-0.29228957587303667,-0.19112240265134117,0.07967438741845519,6.318882440293964,-0.9638559724082948,0
356,2024-09-14 19:42:07.483436032,TASK_BEGIN,003,-0.008557879776559764,0.022429013072674104,0.6526349710196536,-0.3039281023661301,-0.17682930744551514,0.06576545794648014,6.209056099646696,-0.9729686866347901,0
357,2024-09-14 19:42:08.424902144,TASK_BEGIN,003,0.022962330058079163,0.00333449198983582,0.6554322216904998,-0.3159230190425768,-0.16416672679878205,0.052166908970242516,6.037924079850106,-0.9727668911247792,0
358,2024-09-14 19:42:08.486951936,TASK_BEGIN,003,0.04777438144957,-0.013752903299632607,0.6527378820319314,-0.3280297869687709,-0.15251238470841086,0.0388684266239745,5.813661410458273,-0.9640164358073514,0
359,2024-09-14 19:42:08.564766208,TASK_BEGIN,003,0.06477928659612686,-0.028330767797188978,0.6485312408528969,-0.33992322464044644,-0.14139191029839462,0.025868292915560132,5.547732052208291,-0.9479800687590892,0
360,2024-09-14 19:42:08.637166080,TASK_BEGIN,003,0.07309406747472232,-0.03996973171213594,0.6469972254917676,-0.35122331394206996,-0.1305749750822966,0.01318747471323949,5.254036278010151,-0.9262946585230969,0
361,2024-09-14 19:42:08.703947008,TASK_BEGIN,003,0.07209821348542497,-0.04833273494554564,0.6521397249742188,-0.36153687423559216,-0.1201602678143978,0.0008818926674494977,4.947845979067456,-0.9008123270508205,0
362,2024-09-14 19:42:08.765158912,TASK_BEGIN,003,0.061488290492801925,-0.053192777734117784,0.6674191121182386,-0.37050600614534007,-0.11062380181756683,-0.010949558807619766,4.644745376519012,-0.8734408884882717,0
363,2024-09-14 19:42:08.827219968,TASK_BEGIN,003,0.04133070682960672,-0.05444263891141583,0.695410344646002,-0.37785058452360976,-0.10279035649210615,-0.022164063134588574,4.359669602993968,-0.8459966711504602,0
364,2024-09-14 19:42:09.781400832,TASK_BEGIN,003,0.012097700529509385,-0.05209367480957812,0.7374902128104789,-0.3833925685933049,-0.09771291245424663,-0.03258302340681971,4.106047671991836,-0.8200661140031464,0
365,2024-09-14 19:42:09.843943168,TASK_BEGIN,003,-0.025334521132650143,-0.046265519650328234,0.7936136824568873,-0.38706375707531204,-0.09648703094083254,-0.04200954076406956,3.8950914294189807,-0.7968842331960427,0
366,2024-09-14 19:42:09.906428928,TASK_BEGIN,003,-0.06974071259877265,-0.03716874783598388,0.8622554364670374,-0.38890431807300996,-0.10004821426120139,-0.050251302850959204,3.7352747163664515,-0.7772515042862992,0
367,2024-09-14 19:42:09.983091968,TASK_BEGIN,003,-0.11964516919499138,-0.025083091706976497,0.9405154189498743,-0.38904569580419124,-0.10900767500620483,-0.057138984370081976,3.6320081776944497,-0.7615076914405511,0
368,2024-09-14 19:42:10.052632064,TASK_BEGIN,003,-0.17343514189124984,-0.010336285475100437,1.0243010252007636,-0.38766383201245846,-0.12357820013245689,-0.06252994561705831,3.587488521424274,-0.7495559037252278,0
369,2024-09-14 19:42:10.106700032,TASK_BEGIN,003,-0.2294609253065121,0.006711526100425375,1.1085010108096,-0.3849028693554516,-0.14360558122132755,-0.06629620665090472,3.6006402818082965,-0.7409031275483773,0
370,2024-09-14 19:42:10.188227072,TASK_BEGIN,003,-0.28610752388490585,0.02567627853393713,1.187184290654,-0.3808000484107468,-0.1686664781649992,-0.06830680050746354,3.667087850331999,-0.7347042495007163,0
371,2024-09-14 19:42:11.132420864,TASK_BEGIN,003,-0.34184408308898845,0.046154175785350825,1.2540073399215208,-0.375271605745363,-0.1981690792639777,-0.06841885572091716,3.779319168305436,-0.7298536258916528,0
372,2024-09-14 19:42:11.200247040,TASK_BEGIN,003,-0.39527339505933057,0.06772737149086554,1.302964916177388,-0.3682037417962754,-0.23141737015738237,-0.06648648677664389,3.92729175447733,-0.7251643361990053,0
373,2024-09-14 19:42:11.268082944,TASK_BEGIN,003,-0.4451906410261594,0.08997497075721952,1.3293376672275112,-0.35961527162625384,-0.2676390438906365,-0.062385962471775,4.099427432557634,-0.7195885064995102,0
374,2024-09-14 19:42:11.328967168,TASK_BEGIN,003,-0.4906346683290501,0.11248801583210429,1.3305173797600338,-0.3497946872303847,-0.30599350081166726,-0.0560481932205204,4.283688251855157,-0.7123827783815998,0
375,2024-09-14 19:42:11.390095872,TASK_BEGIN,003,-0.5309161349039908,0.13488532612458645,1.306463616974973,-0.33933184580929415,-0.34557244830255224,-0.04748853988243601,4.4685686498696136,-0.703177674048664,0
376,2024-09-14 19:42:11.466842112,TASK_BEGIN,003,-0.5656255991552913,0.15682799293710947,1.2596364065432148,-0.32902348499625866,-0.3854008095936635,-0.036825375963472656,4.644011544702519,-0.6919763337678217,0
377,2024-09-14 19:42:11.528445952,TASK_BEGIN,003,-0.5946218463171088,0.1780284555664415,1.1943448787032167,-0.3196827903798146,-0.42444404447058354,-0.024281892365717136,4.802169213558675,-0.6791108305074754,0
378,2024-09-14 19:42:12.482409984,TASK_BEGIN,003,-0.617982912273606,0.1982479684416963,1.115711355991102,-0.31192948551197147,-0.46162353265113426,-0.010172680696582982,4.937845099788008,-0.6651654467571751,0
379,2024-09-14 19:42:12.536561920,TASK_BEGIN,003,-0.6359152780408408,0.217281868080035,1.0286871472584846,-0.30605361353503624,-0.4958364991717228,0.005116888461615845,5.048545902535212,-0.6508757085323914,0
380,2024-09-14 19:42:12.618094080,TASK_BEGIN,003,-0.6486578526862911,0.23494207000987227,0.9374426284361181,-0.3019904894613901,-0.5259784024460975,0.021151358555886637,5.134151348193511,-0.6370108101847385,0
381,2024-09-14 19:42:12.685854976,TASK_BEGIN,003,-0.6564293548946134,0.2510481126087901,0.8451250148577627,-0.2993626115126511,-0.5509698093748198,0.037463522610481956,5.196235706646596,-0.6242475400943476,0
382,2024-09-14 19:42:12.753672192,TASK_BEGIN,003,-0.6594344871688967,0.26542995520771373,0.7538486365589087,-0.29753513695107875,-0.5697914803994839,0.05357068367695472,5.2372129362465385,-0.6130626049652969,0
383,2024-09-14 19:42:12.821553920,TASK_BEGIN,003,-0.6579055221523695,0.2779369410360965,0.6648490792228875,-0.29568218526688816,-0.5815351879640561,0.06899150814137062,5.259605372811144,-0.6036765078509807,0
384,2024-09-14 19:42:12.874748928,TASK_BEGIN,003,-0.6521408839153054,0.28844451721425224,0.5787103173398523,-0.29287091210556293,-0.5854728056707997,0.08326607829599687,5.265620827080827,-0.5960544033848181,0
385,2024-09-14 19:42:13.828731904,TASK_BEGIN,003,-0.6425172712882067,0.2968546906055099,0.4955295371973678,-0.2881414647404297,-0.5811238911324669,0.09597581060146239,5.256991983727113,-0.5899435072271028,0
386,2024-09-14 19:42:13.901155072,TASK_BEGIN,003,-0.6294859286280379,0.30309408330782117,0.4149985145858334,-0.2805753213760794,-0.5682982723538892,0.10675800075668318,5.234956274093921,-0.5849230006196076,0
387,2024-09-14 19:42:13.968033024,TASK_BEGIN,003,-0.6135793127787982,0.30711657150414956,0.33650397810922367,-0.26938015556505474,-0.5471219028905311,0.1153177564520968,5.200305691425705,-0.5804445815261564,0
388,2024-09-14 19:42:14.036700928,TASK_BEGIN,003,-0.5954316062229458,0.3089119650977424,0.25931185656055045,-0.2539960252030178,-0.5180716669296472,0.12144433914093883,5.153450173426789,-0.5758511821094994,0
389,2024-09-14 19:42:14.091095040,TASK_BEGIN,003,-0.5757913313409516,0.30851496421216235,0.18279908370052256,-0.2341738433457618,-0.4820209672062673,0.12503122586342608,5.094474226819874,-0.5703907045152612,0
390,2024-09-14 19:42:14.168256000,TASK_BEGIN,003,-0.5555073192634506,0.306007966097585,0.10666282572069469,-0.2099806121616073,-0.4402658938321967,0.12609114637989824,5.023285931334304,-0.5632698556469756,0
391,2024-09-14 19:42:14.239960832,TASK_BEGIN,003,-0.535478923306272,0.3015150548376092,0.031039379396166904,-0.18173940155127868,-0.3944926541097217,0.12475897489774096,4.939953442617771,-0.5537783218741941,0
392,2024-09-14 19:42:15.157625856,TASK_BEGIN,003,-0.5165619638282833,0.29518721166273587,-0.043539469154270045,-0.14993955557394953,-0.3466715134348609,0.12128221010938735,4.845112577609008,-0.5414555469039025,0
393,2024-09-14 19:42:15.225550080,TASK_BEGIN,003,-0.49943625168004996,0.2871826972277982,-0.11636858374590338,-0.11514354157161097,-0.2989056451141454,0.11600334747520892,4.740199560934895,-0.5262281300697585,0
394,2024-09-14 19:42:15.293330688,TASK_BEGIN,003,-0.4844757897019286,0.27765222704875037,-0.18687496312538526,-0.07791481517833862,-0.2532803998655836,0.10933861463252775,4.627417010145351,-0.5084706122168777,0
395,2024-09-14 19:42:15.346684928,TASK_BEGIN,003,-0.4716787612954577,0.2667369536971613,-0.25485099396131244,-0.038794150864271,-0.211736695427472,0.10175455255888834,4.509581813922199,-0.48900883398785855,0
396,2024-09-14 19:42:15.424314880,TASK_BEGIN,003,-0.4606807025067674,0.2545766009869051,-0.3204560859656059,0.0016644752390899387,-0.17596825334195676,0.09374136947947825,4.390055902980413,-0.46910471865497133,0
397,2024-09-14 19:42:15.496685056,TASK_BEGIN,003,-0.45083206918068763,0.24131963768672557,-0.3838946196418478,0.04281052940595621,-0.14733865667008794,0.08578421462819305,4.272801113447829,-0.45042001573779783,0
398,2024-09-14 19:42:15.563599104,TASK_BEGIN,003,-0.4413197920721244,0.22713342872747816,-0.4448901935741454,0.08379687757138682,-0.1268240480461253,0.07833843694198513,4.16238762616827,-0.43491804944441864,0
399,2024-09-14 19:42:16.482691072,TASK_BEGIN,003,-0.4313202120842901,0.2122153218763631,-0.5022728041498519,0.12351118764700142,-0.11499309967274642,0.07181342974845106,4.06374634036366,-0.424670495694133,0
400,2024-09-14 19:42:16.539802112,TASK_BEGIN,003,-0.42015046196643113,0.1967989441502384,-0.5539146305761986,0.1605777682967913,-0.11201777747595355,0.06656132457764112,3.9817066483811994,-0.4215999079075106,0
401,2024-09-14 19:42:16.617436160,TASK_BEGIN,003,-0.40737147458632367,0.18114768971928072,-0.5969850193670617,0.19342157428049533,-0.11768575770070681,0.06286390613304914,3.920613557288269,-0.4272509235945049,0
402,2024-09-14 19:42:16.678937088,TASK_BEGIN,003,-0.3928202792430201,0.16553509713282333,-0.6283536192540099,0.2203535586557202,-0.1314029292511488,0.060917801648527135,3.884185150396608,-0.44265493921130933,0
403,2024-09-14 19:42:16.753923840,TASK_BEGIN,003,-0.3765826462453893,0.1502182830979836,-0.6450262530854876,0.239661508486174,-0.15221480718562402,0.06082435571402946,3.8754371598042465,-0.46827033407467483,0
404,2024-09-14 19:42:16.818205184,TASK_BEGIN,003,-0.35892595593136445,0.13541050662493506,-0.6445885193743452,0.2497328695324109,-0.17887459899996394,0.06258991790438968,3.8964603437975054,-0.503954643720423,0
405,2024-09-14 19:42:16.889555968,TASK_BEGIN,003,-0.34021240666772723,0.12125752403269657,-0.6256334798595921,0.24923078398874687,-0.2099444622405559,0.06613595108592574,3.9481109555217047,-0.5489610853280493,0
406,2024-09-14 19:42:17.833209856,TASK_BEGIN,003,-0.32082513653557465,0.10782289417236988,-0.5881084048922396,0.23729615105455243,-0.24389772214505268,0.07131159173493072,4.029837900399901,-0.6019748997471459,0
407,2024-09-14 19:42:17.901037824,TASK_BEGIN,003,-0.30113685450443767,0.09508695307098941,-0.533524200092061,0.21371883611997977,-0.2792056020068021,0.07790108497251258,4.139724118297312,-0.6611902967434959,0
408,2024-09-14 19:42:17.964645120,TASK_BEGIN,003,-0.28151096505268314,0.08295914616643126,-0.4650028697480402,0.17903414039963123,-0.3144034552929957,0.08562557651016246,4.274625259287355,-0.7244129903738351,0
409,2024-09-14 19:42:18.027534848,TASK_BEGIN,003,-0.26229462478864995,0.07129719808902274,-0.3871235790155956,0.13452531538787033,-0.3481346701056814,0.0941445955126277,4.430268619487125,-0.7891761810589509,0
410,2024-09-14 19:42:18.104443136,TASK_BEGIN,003,-0.24378934728516227,0.05992767854311647,-0.30555350830931977,0.08213757620667533,-0.379181771625045,0.10306159514789912,4.601249177454256,-0.8528586679338495,0
411,2024-09-14 19:42:18.172236800,TASK_BEGIN,003,-0.22623083152857926,0.04866891622822415,-0.22660996715134307,0.024342208103828696,-0.40649992863709317,0.11193479880677101,4.7809577269428,-0.9127903262251359,0
412,2024-09-14 19:42:18.227958016,TASK_BEGIN,003,-0.20980928895575365,0.0373580264944424,-0.15696845816944305,-0.03600318363238999,-0.42926064651773593,0.12029565909859793,4.9615929322064725,-0.9663385253164035,0
413,2024-09-14 19:42:19.168441856,TASK_BEGIN,003,-0.19472341771843102,0.025879751097785463,-0.10348727098584783,-0.09579737926646148,-0.4469067279182585,0.12767951737204575,5.134426076855656,-1.010985485681983,0
414,2024-09-14 19:42:19.250727168,TASK_BEGIN,003,-0.18123783985009756,0.014194001169738164,-0.07283517389183614,-0.1518826102800141,-0.4592059631562064,0.1336676524203121,5.290359149200641,-1.0444244735211532,0
415,2024-09-14 19:42:19.318553856,TASK_BEGIN,003,-0.16971816138587356,0.0023591021629687874,-0.07069239449625153,-0.20129932599645234,-0.46627243556492826,0.1379289277030648,5.420697080839535,-1.0647051149928937,0
416,2024-09-14 19:42:19.386360832,TASK_BEGIN,003,-0.16063118217965822,-0.009455149448197009,-0.10072729608594061,-0.24157516104351315,-0.4685389350614934,0.1402477436914679,5.518030535402935,-1.0704234975240183,0
417,2024-09-14 19:42:19.454170880,TASK_BEGIN,003,-0.15451112232654993,-0.02097044410278307,-0.1638770889760796,-0.27097049239261306,-0.46670124277168573,0.14053560820103903,5.577096294579155,-1.0609092171227033,0
418,2024-09-14 19:42:19.521999872,TASK_BEGIN,003,-0.1519046933507788,-0.03181910235223622,-0.25830738139280784,-0.28859924910756246,-0.4616546554682329,0.13883069498015874,5.5954107511726905,-1.0363488099016902,0
419,2024-09-14 19:42:19.589852160,TASK_BEGIN,003,-0.15331195909663078,-0.04157473894226785,-0.37998286276635374,-0.2943870535029621,-0.4544142948756637,0.13528790043793987,5.5734998224571,-0.9978031969699476,0
420,2024-09-14 19:42:20.533552128,TASK_BEGIN,003,-0.15913696698614918,-0.04978763467602302,-0.5234856913094161,-0.288905835792787,-0.44601686768193366,0.1301619801740097,5.514716604017069,-0.9471201797360714,0
421,2024-09-14 19:42:20.595915008,TASK_BEGIN,003,-0.16966010387481428,-0.05601641583321602,-0.6827056337594779,-0.2731834701092469,-0.437433561483901,0.12379010595904015,5.424781739333937,-0.88678766250354,0
422,2024-09-14 19:42:20.658402816,TASK_BEGIN,003,-0.18503638469574563,-0.05985068594192959,-0.8511908359795687,-0.24857429139908419,-0.4295178927795271,0.11657646945643577,5.311208577845657,-0.8197743204679917,0
423,2024-09-14 19:42:20.736999936,TASK_BEGIN,003,-0.2053054737146611,-0.06092760505859915,-1.0221744920544633,-0.2167055920199609,-0.42297362063909877,0.10897141190152732,5.182702845171139,-0.7493677297624907,0
424,2024-09-14 19:42:20.804837888,TASK_BEGIN,003,-0.23039191446493465,-0.05894880613507065,-1.1884751819213197,-0.1794545810414354,-0.4183180316225616,0.10143766674317815,5.04848483169451,-0.6789931474340475,0
425,2024-09-14 19:42:20.872649984,TASK_BEGIN,003,-0.2600875054634952,-0.0536990424979006,-1.342515522952745,-0.13890075261628415,-0.4158441033631444,0.09440860606945405,4.917458155172395,-0.6120070282132273,0
426,2024-09-14 19:42:20.935704832,TASK_BEGIN,003,-0.2940207985281116,-0.04506400063352935,-1.4766107689703651,-0.09722648399780913,-0.4156039419887336,0.0882498334244032,4.797359650218225,-0.5514926972879508,0
427,2024-09-14 19:42:21.874959872,TASK_BEGIN,003,-0.33162752911177423,-0.03304491248070494,-1.5835250272009025,-0.056572297961686537,-0.4174183988242688,0.08322958518293824,4.69416282898369,-0.5000904311616009,0
428,2024-09-14 19:42:21.950396928,TASK_BEGIN,003,-0.37214869869800754,-0.017766800977684998,-1.6571722764098114,-0.018873591990067346,-0.42089585340439645,0.07949822625634317,4.61183443959165,-0.4598648215413607,0
429,2024-09-14 19:42:22.014612736,TASK_BEGIN,003,-0.4146825475052738,0.0005244028579582412,-1.693313165102459,0.014286644869259195,-0.42545840570862087,0.07708033663488759,4.552330266695121,-0.43220692968140334,0
430,2024-09-14 19:42:22.076158976,TASK_BEGIN,003,-0.45828757542956744,0.0214787242212592,-1.6901264838945829,0.0417753597722031,-0.4304010213559542,0.075885670367834,4.515697015802529,-0.4177845287155078,0
431,2024-09-14 19:42:22.153745920,TASK_BEGIN,003,-0.5020921384702706,0.04466930721377427,-1.6485334095931878,0.06294293456201494,-0.43499953545739006,0.07573919474333672,4.500193182724922,-0.41653710903002605,0
432,2024-09-14 19:42:22.218297088,TASK_BEGIN,003,-0.5453530477534821,0.06962004182180051,-1.5721304924530126,0.077603001879321,-0.4386481585937456,0.07642104519161606,4.5023905429707565,-0.42769112644787516,0
433,2024-09-14 19:42:22.289318144,TASK_BEGIN,003,-0.5874460538373459,0.09582512246275711,-1.466629161756208,0.08596389725842359,-0.44098633688212047,0.07770469299222835,4.517338496286692,-0.4497913668401719,0
434,2024-09-14 19:42:23.227462912,TASK_BEGIN,003,-0.6278211088327416,0.12275920684532696,-1.3388806135886675,0.08851147406944265,-0.44197966360815377,0.07938700196019334,4.538956321210721,-0.48077095950861587,0
435,2024-09-14 19:42:23.299877888,TASK_BEGIN,003,-0.6659618037640593,0.14988301992985206,-1.1957863595595766,0.08587430908629877,-0.4419399206759751,0.08130962883305827,4.560712666924262,-0.5180811730291948,0
436,2024-09-14 19:42:23.367675136,TASK_BEGIN,003,-0.7013701548531784,0.17665206833820107,-1.0434110474688536,0.07871496494330397,-0.4414918025960562,0.08337167175111368,4.576442243443515,-0.5588816781327302,0
437,2024-09-14 19:42:23.427858176,TASK_BEGIN,003,-0.7335838650555178,0.2025342788424745,-0.8864418282883084,0.06765932606997377,-0.44149902334645474,0.08553104197993648,4.581068546733742,-0.6002651370019733,0
438,2024-09-14 19:42:23.503277056,TASK_BEGIN,003,-0.7622175856372276,0.22703575356189554,-0.7280344644831017,0.05326441189094929,-0.4429484365330838,0.08779294005870551,4.571106258940259,-0.6394778066945336,0
439,2024-09-14 19:42:23.566361856,TASK_BEGIN,003,-0.7870080717850071,0.24972779765386316,-0.5700513668861048,0.036030684148200785,-0.446788977551596,0.09018801488264418,4.5449002373747,-0.6741075062726818,0
440,2024-09-14 19:42:23.628354048,TASK_BEGIN,003,-0.807847999264412,0.2702678431571576,-0.41356203482430254,0.016439161681039306,-0.4537435546516721,0.0927438592123457,4.502543017228341,-0.7022193008816455,0
441,2024-09-14 19:42:24.575359232,TASK_BEGIN,003,-0.8248049785625688,0.2884117544745062,-0.2593484915389219,-0.005025174479384229,-0.46413147067231725,0.0954530783614906,4.445455904533797,-0.722419478262897,0
442,2024-09-14 19:42:24.650012928,TASK_BEGIN,003,-0.8381240782658768,0.3040195818926325,-0.1082568636063376,-0.027876576746616283,-0.47774734028497384,0.09824602759665217,4.375733558822202,-0.7338429253388141,0
443,2024-09-14 19:42:24.717841920,TASK_BEGIN,003,-0.8482066919192132,0.31705632387884053,0.03856961265511273,-0.05164466980779231,-0.4938422680935411,0.10097985547598612,4.295459366426263,-0.7361007182208166,0
444,2024-09-14 19:42:24.785619200,TASK_BEGIN,003,-0.855565522158971,0.32758774066899854,0.17952801522686257,-0.0758879247268611,-0.5112278854934662,0.10344806953879827,4.206268846139333,-0.7292480043139786,0
445,2024-09-14 19:42:24.853414912,TASK_BEGIN,003,-0.8607713436119935,0.33577174400191584,0.31251003182948356,-0.10018783699089748,-0.5284702351291275,0.10540367473108694,4.109353820964398,-0.7137900546400303,0
446,2024-09-14 19:42:24.916096000,TASK_BEGIN,003,-0.8644063964525438,0.3418452301022449,0.43502062994974283,-0.1241116024088188,-0.5441044002964962,0.10658707101244153,4.005835591084065,-0.6906818535485358,0
447,2024-09-14 19:42:24.978581760,TASK_BEGIN,003,-0.867025847576734,0.3461060424947227,0.544430369197015,-0.1471563529512767,-0.5568204417444182,0.10675657818748714,3.897211594859154,-0.6612645819887021,0
448,2024-09-14 19:42:25.903393024,TASK_BEGIN,003,-0.8691263808837164,0.3488915962345081,0.6382570796408027,-0.1687071121747465,-0.5656090623187167,0.10572307603996008,3.7855850324562508,-0.6271244505149001,0
449,2024-09-14 19:42:25.975225856,TASK_BEGIN,003,-0.8711216865343855,0.3505542700604935,0.7143654355813855,-0.18803242458242353,-0.5698618846944625,0.10338503012263492,3.673577360012175,-0.5899178333250604,0
450,2024-09-14 19:42:26.043040000,TASK_BEGIN,003,-0.8733160919753548,0.35143092329750064,0.7710364424343121,-0.20432094274522108,-0.5694132265868304,0.09975317300151308,3.564041521936773,-0.5512336452944986,0
451,2024-09-14 19:42:26.110831104,TASK_BEGIN,003,-0.875874651387529,0.3518089259151172,0.8069277049056793,-0.2167427650310229,-0.5645182215352768,0.09495512951775065,3.4598097103035257,-0.5125381638806679,0
452,2024-09-14 19:42:26.165673984,TASK_BEGIN,003,-0.8788119589669446,0.35189914969818953,0.8209969676480641,-0.22451179304363847,-0.5557738967079866,0.08921843392831827,3.363630450687983,-0.4751996002640209,0
453,2024-09-14 19:42:26.246545152,TASK_BEGIN,003,-0.8820155626553235,0.35182366338554666,0.8124735059889768,-0.22694090873396927,-0.5439945604533077,0.08283759840590853,3.2782070008947697,-0.440547229007669,0
454,2024-09-14 19:42:26.304544000,TASK_BEGIN,003,-0.8852838472305081,0.35161490371694737,0.7809165338503892,-0.22349993312360217,-0.5300644826905586,0.0761345074160517,3.2061122881820956,-0.409900178252216,0
455,2024-09-14 19:42:27.232274176,TASK_BEGIN,003,-0.8883473539740149,0.3512194335197183,0.7263639001232357,-0.21387641725137102,-0.5148013085454857,0.06942209611229354,3.149515176042401,-0.38453137081070776,0
456,2024-09-14 19:42:27.294353920,TASK_BEGIN,003,-0.8908686167139643,0.3505064383748472,0.6495533318742024,-0.19801741269743509,-0.49885071775524087,0.06297753009330435,3.109883994939683,-0.36558771157905434,0
457,2024-09-14 19:42:27.356360960,TASK_BEGIN,003,-0.892445936131887,0.3492870026803677,0.552138141336825,-0.1761338359617037,-0.4826184868404961,0.05702584888239947,3.08784816850055,-0.35400245554503595,0
458,2024-09-14 19:42:27.433542912,TASK_BEGIN,003,-0.8926508312010597,0.34734702919372323,0.4367940455857248,-0.14867764094874,-0.4662545685261731,0.05173325468157728,3.08324183594006,-0.3504106016681398,0
459,2024-09-14 19:42:27.503543040,TASK_BEGIN,003,-0.8910970588140055,0.3444876062382694,0.30717542005489346,-0.1163200331807672,-0.44969934831602865,0.047207946556035336,3.095242906609055,-0.35507313988087164,0
460,2024-09-14 19:42:27.571375872,TASK_BEGIN,003,-0.8875034386068503,0.3405598334082117,0.16770332199155308,-0.07993855336471122,-0.4327692459474045,0.04350322036784703,3.122559418648843,-0.3678365787037346,0
461,2024-09-14 19:42:27.639195136,TASK_BEGIN,003,-0.8817162965883866,0.3354836753824136,0.023129705563524235,-0.04058446212541872,-0.4152446761652262,0.04061816801626892,3.1636852916127944,-0.3881494858509504,0
462,2024-09-14 19:42:28.577744896,TASK_BEGIN,003,-0.8736898195952578,0.3292501662439579,-0.12209153499497159,0.0005967054860142708,-0.3969406069836573,0.03849705999837559,3.217196395813067,-0.4151260096413361,0
463,2024-09-14 19:42:28.650226944,TASK_BEGIN,003,-0.8634466753057745,0.3219138784212198,-0.26437066437511453,0.0424692129175578,-0.3777554553186473,0.037032746780555514,3.2819668187722115,-0.447631739641097,0
464,2024-09-14 19:42:28.717997056,TASK_BEGIN,003,-0.851046002176835,0.31358314181346675,-0.4011726163733624,0.08397734325744687,-0.35770017576019986,0.03607788509729018,3.357238071815656,-0.48437690460891375,0
465,2024-09-14 19:42:28.778743040,TASK_BEGIN,003,-0.8365771742192224,0.3044111474646393,-0.5307730811457595,0.1241510061027085,-0.3369129272017269,0.035462848521098975,3.44258998533754,-0.5240079968098288,0
466,2024-09-14 19:42:28.843265024,TASK_BEGIN,003,-0.8201817920584036,0.29458732433698426,-0.6517882190659743,0.16206692381726165,-0.31566294760445696,0.03501624932975285,3.5378264435818885,-0.5651811448687769,0
467,2024-09-14 19:42:28.918889216,TASK_BEGIN,003,-0.8020871618582842,0.2843278672228588,-0.7627270396750299,0.19680175463629468,-0.29434312839282745,0.03458445126897679,3.64269649441649,-0.6066020862083067,0
468,2024-09-14 19:42:28.981374976,TASK_BEGIN,003,-0.7826217541581273,0.27386460457652795,-0.861712231333789,0.22740584454607193,-0.2734520800771784,0.03404769695183882,3.7564372131529904,-0.6470382783278075,0
469,2024-09-14 19:42:29.917385984,TASK_BEGIN,003,-0.7621950440720067,0.2634321816873595,-0.9463707161932621,0.25291372163970455,-0.25357084468483687,0.03333197291417847,3.8772668585134777,-0.685316359795548,0
470,2024-09-14 19:42:30.000337920,TASK_BEGIN,003,-0.7412512485513304,0.25325515649774594,-1.0138205677818413,0.27238902141342397,-0.23533347820111672,0.03241606670168859,4.002001496825884,-0.7203038741740045,0
471,2024-09-14 19:42:30.068142848,TASK_BEGIN,003,-0.7202189172104511,0.24353701607111816,-1.0607838505040104,0.28499375801147525,-0.21937967404612338,0.03133094312356161,4.1259182339080755,-0.7508754063973672,0
472,2024-09-14 19:42:30.135922944,TASK_BEGIN,003,-0.6994765373008077,0.23445307697245668,-1.0839455587620006,0.2900763029443666,-0.20628772264840559,0.030149055993044273,4.242941116204302,-0.7758896459734356,0
473,2024-09-14 19:42:30.199331072,TASK_BEGIN,003,-0.6793509127535367,0.22614997556325045,-1.0805154164935271,0.2872657334522523,-0.19650828078496532,0.028967219166174982,4.3462083926845985,-0.794217094046996,0
474,2024-09-14 19:42:30.271375104,TASK_BEGIN,003,-0.6601514561583225,0.2187529353421002,-1.0487465744716769,0.2765473890211078,-0.190316662090252,0.027889483348493536,4.428971220383234,-0.8048330211322844,0
475,2024-09-14 19:42:30.332904960,TASK_BEGIN,003,-0.6422169138281316,0.21237666952182155,-0.9882482046069777,0.2583017214315063,-0.18778208006129596,0.027012224647181934,4.485557666076254,-0.8069498261059885,0
476,2024-09-14 19:42:31.282537728,TASK_BEGIN,003,-0.6259420125933864,0.20713318586863186,-0.9001245289086094,0.23330888264799532,-0.1887515187292319,0.026411779911390546,4.512057465969477,-0.8001458510689774,0
477,2024-09-14 19:42:31.340527104,TASK_BEGIN,003,-0.611777415361008,0.20313456790628567,-0.7869754654634213,0.20272404158251256,-0.19285793157572503,0.02613869426515399,4.506574858828151,-0.7844625613635867,0
478,2024-09-14 19:42:31.418168832,TASK_BEGIN,003,-0.6002153441328871,0.20049238774427433,-0.6527275146234163,0.16801635082312094,-0.19955929782503767,0.026221946510565534,4.4691481922529785,-0.760460885002311,0
479,2024-09-14 19:42:31.485933056,TASK_BEGIN,003,-0.5917587567719274,0.19931251803943736,-0.5023318566279596,0.1308694760450598,-0.2082001917400065,0.026679420109540407,4.401483775566672,-0.7292187515432261,0
480,2024-09-14 19:42:31.540476928,TASK_BEGIN,003,-0.5868652470036858,0.19968387415808597,-0.34146111956578007,0.09306345941822007,-0.2180838146742889,0.027527817700665057,4.306545203834742,-0.6922407678965579,0
481,2024-09-14 19:42:31.617149184,TASK_BEGIN,003,-0.585876409739229,0.2016639251133605,-0.17630202834816328,0.05636630130863142,-0.22854590556282184,0.02878826044239453,4.188060838365642,-0.65129525118576,0
482,2024-09-14 19:42:31.678716160,TASK_BEGIN,003,-0.5889542134214591,0.20526411111994333,-0.013396405392501878,0.022446009335500533,-0.23901790278564788,0.03048588017827924,4.050154056425366,-0.6082525841048594,0
483,2024-09-14 19:42:32.620014848,TASK_BEGIN,003,-0.5960414480169643,0.21043682443104894,0.14062781882211675,-0.0072107155306510625,-0.2490668488447939,0.03264261333643057,3.897241495358608,-0.5649791104658819,0
484,2024-09-14 19:42:32.697239040,TASK_BEGIN,003,-0.6068622551338023,0.2170685117208987,0.2795116069626134,-0.03138686791257435,-0.2584106610259462,0.03526582429943406,3.7341074269425474,-0.5232779136173533,0
485,2024-09-14 19:42:32.768299008,TASK_BEGIN,003,-0.6209677444450693,0.22498352705906308,0.3978814037088846,-0.04922150793293245,-0.26691293891026624,0.03833834626925461,3.5659734885774177,-0.4848507193222854,0
486,2024-09-14 19:42:32.835663104,TASK_BEGIN,003,-0.6378039942897894,0.2339559355622864,0.4916214104452093,-0.06027197451378887,-0.27456162278570284,0.04181403107876305,3.398438943490043,-0.45126366809964635,0
487,2024-09-14 19:42:32.903875072,TASK_BEGIN,003,-0.6567696408932904,0.24372229591322292,0.5579655291566179,-0.06453139181693915,-0.28144170958433273,0.04561912170859037,3.2372155393023645,-0.4238923869756383,0
488,2024-09-14 19:42:32.971664128,TASK_BEGIN,003,-0.6772490591623844,0.25399239392214074,0.5953159001383247,-0.06238932040081129,-0.2877112334411533,0.04965711064776025,3.0876871199039653,-0.4038286569556695,0
489,2024-09-14 19:42:33.039535104,TASK_BEGIN,003,-0.6986220818685571,0.26445787758237826,0.6029972122797406,-0.05455233481198225,-0.2935808941829287,0.05381452362899162,2.9544572878206217,-0.3917668139233992,0
490,2024-09-14 19:42:33.978627072,TASK_BEGIN,003,-0.7202542930789033,0.274798794443566,0.581236857475372,-0.04196986126860495,-0.2993036133790171,0.05796776546026059,2.8410479592247273,-0.38791524111408376,0
491,2024-09-14 19:42:34.040698112,TASK_BEGIN,003,-0.7414817482193138,0.28469164088590077,0.5314046695656428,-0.025784347178027224,-0.30518207644597356,0.061993240397100254,2.7497967838123305,-0.3919649339702753,0
492,2024-09-14 19:42:34.104886016,TASK_BEGIN,003,-0.7616078218161175,0.2938253545112236,0.4562239602798254,-0.0072733998716827735,-0.31157210027633037,0.06577979467370881,2.6818758555071676,-0.4031068275570911,0
493,2024-09-14 19:42:34.186210048,TASK_BEGIN,003,-0.7799113711904918,0.3019246713020875,0.35971219141087546,0.01224070393623582,-0.3188420184070755,0.0692379735016952,2.6372957832971284,-0.4200744982460187,0
494,2024-09-14 19:42:34.242533888,TASK_BEGIN,003,-0.7956540310666057,0.30877079307207184,0.24686447514557872,0.03149403100661132,-0.32728451181211415,0.07230182144874814,2.614838823240437,-0.4412134918466419,0
495,2024-09-14 19:42:34.321874944,TASK_BEGIN,003,-0.8080957483594925,0.31421066693300903,0.12318376685490842,0.04937088986187197,-0.33702207662237993,0.07492443517728922,2.612008383531298,-0.46459497097345664,0
496,2024-09-14 19:42:34.389694208,TASK_BEGIN,003,-0.8165445381913539,0.31815402355143096,-0.0058383563398923905,0.06497573817806976,-0.3479489217455834,0.07707126992867734,2.6251183316114415,-0.48817218340126267,0
497,2024-09-14 19:42:35.332726016,TASK_BEGIN,003,-0.8204375447460694,0.3205608794089349,-0.13514606424465414,0.07768923777391251,-0.35972529984101936,0.07871351611017342,2.6495606187459093,-0.5099505186853756,0
498,2024-09-14 19:42:35.400592128,TASK_BEGIN,003,-0.8194103043325789,0.3214236584959547,-0.26035632318556934,0.08721025558494473,-0.3718177753134783,0.07982206040715271,2.6802299483689245,-0.5281471551394613,0
499,2024-09-14 19:42:35.468403968,TASK_BEGIN,003,-0.8133164102100977,0.3207503670807876,-0.37787890140237324,0.09358666353976543,-0.3835678767557085,0.08036353079530173,2.712086177684211,-0.5413499959962176,0
500,2024-09-14 19:42:35.536189952,TASK_BEGIN,003,-0.8021979747199696,0.3185534600870132,-0.4850681997884395,0.09723732465663151,-0.3942722980828855,0.08030130948725277,2.7407872898874293,-0.5486850319358185,0
501,2024-09-14 19:42:35.590903040,TASK_BEGIN,003,-0.7862280974648801,0.31484412263946276,-0.580436725233783,0.09895548130191531,-0.4032623384551467,0.07960269382234025,2.763243619486967,-0.5499514135761905,0
502,2024-09-14 19:42:35.668155136,TASK_BEGIN,003,-0.7656470862891848,0.30963055307774306,-0.6637512040041349,0.09985191381418573,-0.40996497447487507,0.07824846927837821,2.77795461100993,-0.5456564950672858,0
503,2024-09-14 19:42:35.730210048,TASK_BEGIN,003,-0.740718490832278,0.30292121253485316,-0.735790982651771,0.10118865642969894,-0.4139333291901115,0.07623875264710911,2.7850989189963236,-0.5369244776031908,0
504,2024-09-14 19:42:36.651490048,TASK_BEGIN,003,-0.7117245134972441,0.2947343489375209,-0.7977871158086806,0.1041180694368647,-0.4148650996348996,0.07359439707015608,2.7864694370516974,-0.5253249050374257,0
505,2024-09-14 19:42:36.713954816,TASK_BEGIN,003,-0.6789959048690447,0.285113466071909,-0.8508070665981176,0.10941686696109387,-0.4126369661218405,0.07035983371656063,2.78534557166456,-0.5126957091567699,0
506,2024-09-14 19:42:36.792620800,TASK_BEGIN,003,-0.6429585574879065,0.2741464769164462,-0.8953023649928865,0.1172974276319441,-0.4073454287602971,0.06660968081867955,2.7862234566392146,-0.5009849638782115,0
507,2024-09-14 19:42:36.854463232,TASK_BEGIN,003,-0.6041768187082955,0.2619814153148201,-0.9308293531941599,0.12731994462789942,-0.3993174872911046,0.06245207707610903,2.794233728033425,-0.4920748783752575,0
508,2024-09-14 19:42:36.928301056,TASK_BEGIN,003,-0.5633685739198745,0.2488284324954481,-0.9559094389162348,0.13840919353394793,-0.3890848414315231,0.05802275648064941,2.814281095509874,-0.4875671958918877,0
509,2024-09-14 19:42:36.996104960,TASK_BEGIN,003,-0.5213781893404721,0.23494507425125719,-0.9681063803270539,0.14899101988079294,-0.3773564243360843,0.05347477542989819,2.8501725667308997,-0.4885708902574982,0
510,2024-09-14 19:42:37.063959040,TASK_BEGIN,003,-0.4791234670680068,0.22061309505570248,-0.9644061657785709,0.15724044010444746,-0.36500853511519465,0.0489707318754582,2.9039600608375697,-0.49555593966767697,0
511,2024-09-14 19:42:37.970298112,TASK_BEGIN,003,-0.4375483904651243,0.2061179217357061,-0.9418557321084776,0.1613860205096757,-0.35306147162070006,0.04467478830415424,2.975547293848952,-0.5083102795568948,0
512,2024-09-14 19:42:38.047529984,TASK_BEGIN,003,-0.3975912015492362,0.1917355377000545,-0.8983064017656812,0.1599989189599417,-0.34259921486489286,0.04073753521189351,3.06254817824141,-0.5260016357262063,0
513,2024-09-14 19:42:38.109590016,TASK_BEGIN,003,-0.3601433012286684,0.17772269877991295,-0.8330533506852383,0.1522089951707639,-0.3346269250119658,0.03727322739935767,3.1604598020212165,-0.5473270419426184,0
514,2024-09-14 19:42:38.186733824,TASK_BEGIN,003,-0.32598002332460174,0.1643035974811434,-0.7471907693382741,0.137808134579457,-0.32990798818530953,0.0343362270665536,3.2632592100126008,-0.5707255700262229,0
515,2024-09-14 19:42:38.249219072,TASK_BEGIN,003,-0.2956874589272072,0.15165402161355931,-0.6436379514309998,0.11722932444104577,-0.3288426905326681,0.03190536310695853,3.364378738391837,-0.5946138352154701,0
516,2024-09-14 19:42:38.322527744,TASK_BEGIN,003,-0.26962816242306065,0.13989311026050022,-0.5269052733454578,0.09143125845269046,-0.3314299801977499,0.029883561919524355,3.457775567689291,-0.6175890570051044,0
517,2024-09-14 19:42:38.390319104,TASK_BEGIN,003,-0.24795646587159537,0.12908920674219737,-0.40270286864837895,0.061740300572956916,-0.33731104635607506,0.028115612732681393,3.5387761622852008,-0.6385636027813094,0
518,2024-09-14 19:42:39.324444160,TASK_BEGIN,003,-0.23065673529496608,0.11927428185407046,-0.27751137362836004,0.029692226049734486,-0.34586506849689846,0.02641849016785694,3.604571732086486,-0.6568373045423779,0
519,2024-09-14 19:42:39.385992960,TASK_BEGIN,003,-0.21757707697806267,0.11045734269710317,-0.15818722895555354,-0.0031011167050261487,-0.35632320527025585,0.024613577023637926,3.6544278119129623,-0.6721327885306014,0
520,2024-09-14 19:42:39.462689024,TASK_BEGIN,003,-0.2084534874527136,0.102634059277738,-0.051544146496480626,-0.035050924136853116,-0.3678762168816509,0.02255406044095861,3.6896675626041837,-0.6845983659111812,0
521,2024-09-14 19:42:39.535334912,TASK_BEGIN,003,-0.20293209403345933,0.0957950944990181,0.03618980824255389,-0.06466822070100624,-0.3797663220940038,0.020146777956269554,3.7133430940876706,-0.6947518899298729,0
522,2024-09-14 19:42:39.600527104,TASK_BEGIN,003,-0.20059660675637855,0.08993411511646472,0.10001315118963423,-0.09064625698057494,-0.39136561445493434,0.01736912142536404,3.7294817240109084,-0.7033381795018503,0
523,2024-09-14 19:42:39.662561024,TASK_BEGIN,003,-0.20100511805829607,0.08505483422272676,0.13676333991828857,-0.11196940815816218,-0.4022418062245604,0.014280009149204638,3.7420420701993,-0.7111171878815379,0
524,2024-09-14 19:42:39.725046016,TASK_BEGIN,003,-0.20372857003093892,0.08117650418782588,0.14562673221537684,-0.12804199950230297,-0.4121987369405716,0.011020404646008355,3.7539769570295154,-0.718655651496201,0
525,2024-09-14 19:42:40.676907008,TASK_BEGIN,003,-0.20837508888238257,0.07833676122372757,0.12850538375727233,-0.13879914134020507,-0.4212735535429026,0.007796875735920427,3.7667360584551304,-0.726205684317551,0
526,2024-09-14 19:42:40.738658048,TASK_BEGIN,003,-0.214600911634063,0.07659118349883835,0.09010782893488344,-0.14474338611256804,-0.4296923725813381,0.004850377707367512,3.7802511098291327,-0.7337066249395342,0
527,2024-09-14 19:42:40.815876864,TASK_BEGIN,003,-0.222119659968808,0.07600947764612048,0.03759952703074261,-0.14686670539550753,-0.4378104401303008,0.0024253252997704163,3.7932547037304274,-0.7408807990894747,0
528,2024-09-14 19:42:40.885592064,TASK_BEGIN,003,-0.23070588147790844,0.07666678335706764,-0.02022074579038274,-0.1464628378728161,-0.4460567655314313,0.0007513142041204856,3.80375629598875,-0.7473550654312158,0
529,2024-09-14 19:42:40.953342976,TASK_BEGIN,003,-0.2401858769530214,0.07862871842217671,-0.07408722166212363,-0.1448757453336632,-0.4548812276476903,3.429612072458785e-05,3.809523950312705,-0.7527468884385256,0
530,2024-09-14 19:42:41.016304896,TASK_BEGIN,003,-0.2504340900666149,0.08193362811097187,-0.11553023321267594,-0.14325013662199598,-0.4647012438158725,0.00044686631897779397,3.8084690494351903,-0.7566912739846241,0
531,2024-09-14 19:42:41.088943872,TASK_BEGIN,003,-0.261399256133683,0.08657963868065037,-0.13795960541548372,-0.14234547760484034,-0.4758575907714261,0.002113618500847355,3.798885478972581,-0.7588186240908473,0
532,2024-09-14 19:42:42.032176128,TASK_BEGIN,003,-0.27314839490948967,0.09252005060925761,-0.13739649643289248,-0.14243722110688276,-0.4885809608947833,0.005095518864539203,3.7795405527021093,-0.7587110015832808,0
533,2024-09-14 19:42:42.085437952,TASK_BEGIN,003,-0.2858877804127551,0.0996631609976933,-0.11285562907434059,-0.1432891507147286,-0.5029534078437601,0.009379132547985935,3.7497089418633243,-0.7558802699059761,0
534,2024-09-14 19:42:42.162642944,TASK_BEGIN,003,-0.2999371904972625,0.10787273156714776,-0.06646951138631481,-0.14417824376555535,-0.5188654256806716,0.014875197029814912,3.7093013918873035,-0.7498150760852414,0
535,2024-09-14 19:42:42.223812864,TASK_BEGIN,003,-0.3156636634595933,0.11697073892256656,-0.0034034027882949318,-0.14397158787806458,-0.5360042553784402,0.02143021878024596,3.6591309500875258,-0.7401068191556944,0
536,2024-09-14 19:42:42.301426944,TASK_BEGIN,003,-0.3333912380691941,0.12674535275977883,0.06846957629008203,-0.14125886443981253,-0.5539087556348691,0.02885192527093945,3.601206072359565,-0.726608249990591,0
537,2024-09-14 19:42:42.371271936,TASK_BEGIN,003,-0.35330920481491807,0.13696412996089272,0.13918269426264457,-0.13452989882015212,-0.5720927776225514,0.03694401173318207,3.5389090293379994,-0.7095528202395012,0
538,2024-09-14 19:42:42.424523264,TASK_BEGIN,003,-0.3754015636227068,0.147388714722227,0.1975956751404289,-0.12236955021038338,-0.5902013358507823,0.045541362518884757,3.4769564004803657,-0.689582646082123,0
539,2024-09-14 19:42:43.382236160,TASK_BEGIN,003,-0.39939887742801805,0.1577846184283814,0.23257254971705008,-0.10363967061310915,-0.6081347620983412,0.054534714651687584,3.4210697987624155,-0.6676746320403215,0
540,2024-09-14 19:42:43.439300096,TASK_BEGIN,003,-0.4247442953064542,0.16792291507809068,0.23426328312304187,-0.07763479422044169,-0.6260787573245179,0.06387510506092887,3.377364944988253,-0.6449988166393491,0
541,2024-09-14 19:42:43.516419840,TASK_BEGIN,003,-0.45059180802529863,0.17757996939131263,0.1952481151280703,-0.04420552096418495,-0.6444288455223964,0.07355723342510993,3.3516086670345233,-0.6227715882432403,0
542,2024-09-14 19:42:43.578708992,TASK_BEGIN,003,-0.47586365343485415,0.18654386119518282,0.11132984143276334,-0.0038230730804275606,-0.6636570344597491,0.08359168497608328,3.348530291157492,-0.6021431263422989,0
543,2024-09-14 19:42:43.639853056,TASK_BEGIN,003,-0.49935323808736304,0.19462610608947437,-0.018100383571315538,0.04244528605604339,-0.6841797273047762,0.09397683061156724,3.371235005023165,-0.5840991737552822,0
544,2024-09-14 19:42:43.717499136,TASK_BEGIN,003,-0.5198285562565553,0.20166948083093839,-0.19006234074538042,0.09304229759395885,-0.7062569474734955,0.1046743536388385,3.4206742027167847,-0.5693503407332015,0
545,2024-09-14 19:42:43.778580736,TASK_BEGIN,003,-0.5361140835176433,0.20754813346830098,-0.39826070729174284,0.14607148007628618,-0.7299270315317584,0.11558934111669672,3.4952463653719494,-0.5582427527114664,0
546,2024-09-14 19:42:44.708213248,TASK_BEGIN,003,-0.547167210240775,0.21216414961022037,-0.6335855383298722,0.1994620086065226,-0.7549668907360587,0.12655637532764824,3.590738262151473,-0.5507449265871028,0
547,2024-09-14 19:42:44.784978944,TASK_BEGIN,003,-0.552165165200316,0.21544456766123132,-0.8848117785952936,0.251126574886271,-0.780865617927654,0.13733169872228215,3.700702926943531,-0.5465003008051682,0
548,2024-09-14 19:42:44.855078912,TASK_BEGIN,003,-0.5505870986205519,0.2173386428407274,-1.1394389822227555,0.2990921522759254,-0.8068133693121785,0.14759142840214926,3.817122154712856,-0.544883043814622,0
549,2024-09-14 19:42:44.922610176,TASK_BEGIN,003,-0.5422624837368498,0.21781402578690642,-1.3845902957027554,0.3415936936493739,-0.8317197625967218,0.156939289963126,3.9311829055300898,-0.5450330353303792,0
550,2024-09-14 19:42:44.990204160,TASK_BEGIN,003,-0.5273800060219164,0.21685307271278076,-1.6079035605211769,0.377136565773165,-0.8542713544791581,0.16492845580074245,4.034176453657626,-0.5459089653826739,0
551,2024-09-14 19:42:45.057957888,TASK_BEGIN,003,-0.5064775142864368,0.21445326736258796,-1.7983142859621397,0.404532404451018,-0.8730261844328245,0.1710971950743665,4.1184969133446065,-0.5463992624398412,0
552,2024-09-14 19:42:45.125731840,TASK_BEGIN,003,-0.48042795191445054,0.21063473459663246,-1.9465737784708756,0.422902430378326,-0.8865298364797577,0.17501173936343523,4.178495006490734,-0.5454822267219267,0
553,2024-09-14 19:42:46.072346880,TASK_BEGIN,003,-0.45040854674619835,0.2054533332588182,-2.0454202876742054,0.43165129663290086,-0.8934262994800138,0.176307536403363,4.210966426791249,-0.5423901761506723,0
554,2024-09-14 19:42:46.150289152,TASK_BEGIN,003,-0.41783334288585416,0.19901463142755776,-2.089521114558701,0.4304382936874036,-0.8925466428837954,0.17472297108689713,4.215314255819074,-0.5367318359388084,0
555,2024-09-14 19:42:46.205518080,TASK_BEGIN,003,-0.384249496890342,0.19148446593416857,-2.0754482676701875,0.41918466732912235,-0.8829786130886638,0.17012302172120702,4.19349243335871,-0.528548714823397,0
556,2024-09-14 19:42:46.282247936,TASK_BEGIN,003,-0.35120900694706536,0.1830922132315953,-2.001895184556242,0.3981400594381841,-0.8641229019528018,0.1625104253285572,4.149648833572463,-0.5182967582344188,0
557,2024-09-14 19:42:46.344288000,TASK_BEGIN,003,-0.3201274897478115,0.1741215253613916,-1.8700964132297644,0.3679827305106061,-0.8357413975238558,0.152023250726477,4.089349782597035,-0.5067498829710068,0
558,2024-09-14 19:42:46.421025024,TASK_BEGIN,003,-0.2921570663891621,0.16488617899879138,-1.6841832839202129,0.3298839882182186,-0.798010925775228,0.13892273682082468,4.018551561490968,-0.49484451869351903,0
559,2024-09-14 19:42:46.489372928,TASK_BEGIN,003,-0.26810769691411707,0.15569762797490475,-1.4512322793923442,0.2854829141316017,-0.751581255595058,0.12357625681080427,3.9427165818319,-0.48351518763923174,0
560,2024-09-14 19:42:47.398953984,TASK_BEGIN,003,-0.24842184608646722,0.1468357906633902,-1.1809855380765453,0.2367769753834504,-0.697602484077088,0.10643499844371905,3.866310791535788,-0.473566653040663,0
561,2024-09-14 19:42:47.475353088,TASK_BEGIN,003,-0.2331826639294084,0.13853047149269637,-0.885351704398714,0.18596891271267266,-0.637687110945366,0.08800470981681789,3.7925797133194847,-0.4655976529212754,0
562,2024-09-14 19:42:47.537803008,TASK_BEGIN,003,-0.22214922387778188,0.13095447615543884,-0.577750646245742,0.13530539535013572,-0.5738065765741884,0.06881379326041671,3.723470881290515,-0.4599843376125257,0
563,2024-09-14 19:42:47.599852032,TASK_BEGIN,003,-0.21482425034077618,0.12422594082426949,-0.2723489889449709,0.08693919679037537,-0.5081454792750261,0.049385776447819704,3.6598112973272308,-0.4569369315056158,0
564,2024-09-14 19:42:47.677539072,TASK_BEGIN,003,-0.2105415351777033,0.11841520973339088,0.016727962566634898,0.042844025957367096,-0.44294640966803883,0.030219652915714573,3.6018299572400805,-0.45661208423323557,0
565,2024-09-14 19:42:47.739139840,TASK_BEGIN,003,-0.20854902809266132,0.1135512678942937,0.2761537484722766,0.004774327998075369,-0.38038372260088293,0.011778591366670399,3.5498319706103585,-0.45922978641353573,0
566,2024-09-14 19:42:47.814376960,TASK_BEGIN,003,-0.2080857398624319,0.10962704667984256,0.49411682381677213,-0.025778056973145714,-0.32248307873924575,-0.005514312857364737,3.5047604147241715,-0.4651614816039322,0
567,2024-09-14 19:42:48.747908096,TASK_BEGIN,003,-0.20846709917314732,0.10660721370110016,0.6609764788039187,-0.04766483948597202,-0.271064323247922,-0.021277928805374064,3.4685205115486304,-0.47497428652876994,0
568,2024-09-14 19:42:48.810252032,TASK_BEGIN,003,-0.20917405377900364,0.10443962297197124,0.7698298746914247,-0.06018461353726595,-0.22767578739344468,-0.03517811035141513,3.4439980346732484,-0.48939550867530845,0
569,2024-09-14 19:42:48.887939840,TASK_BEGIN,003,-0.20991936126156127,0.10306691220029261,0.8169581489165072,-0.0631644102446262,-0.1935141600363111,-0.046936313510246144,3.434727975007025,-0.5091703826665609,0
570,2024-09-14 19:42:48.949515264,TASK_BEGIN,003,-0.21066938774232005,0.1024341602840005,0.8021094739653435,-0.05698443921431429,-0.16934849602828925,-0.056337819143804764,3.444248875168536,-0.534850642551937,0
