,time,MARKER,pid,L_O_DSI,L_D_DSI,L_O_DSphi,L_D_DSphi,R_O_DSI,R_D_DSI,R_O_DSphi,R_D_DSphi,trial_id
0,2024-09-14 19:40:59.881725098,TASK_BEGIN,003,0.3553016300869958,-0.1585637921028908,0.6725060469345269,-0.1561795116452946,-0.3688433601484075,-0.07065006320382194,-1.4262954702303012,0.7184520991841179,0
1,2024-09-14 19:40:59.949507080,0,003,0.3468189839785171,-0.1474044024040483,0.4939602453854609,-0.12187625428089129,-0.3775207896518334,-0.06219718855641925,-1.4956107740809492,0.7232616097697018,0
2,2024-09-14 19:41:00.016064941,0,003,0.33474704514360276,-0.1340742360185379,0.3292969435065528,-0.08649551815681752,-0.3868146369380009,-0.05399395355398098,-1.562021052245694,0.731258273575519,0
3,2024-09-14 19:41:00.077631836,0,003,0.31924048662510546,-0.1187835164757338,0.1787448396201779,-0.04993529259590017,-0.39657900845661354,-0.04621776973816999,-1.623393626869514,0.7420653614380407,0
4,2024-09-14 19:41:00.152939941,0,003,0.30041764339700716,-0.10179924025004318,0.04282483888633611,-0.012419468001268905,-0.4065002392056998,-0.039072181334424416,-1.6779493187350227,0.7551598366724674,0
5,2024-09-14 19:41:00.220769043,0,003,0.2783463818873919,-0.08343247175407552,-0.07763544907462586,0.0254787593575919,-0.41611135832870144,-0.03277516913025586,-1.7240108509218293,0.7698777788301374,0
6,2024-09-14 19:41:00.278966797,0,003,0.25306781589893174,-0.06403088965904134,-0.18152377422643032,0.06286052407628319,-0.4248283245056496,-0.02754165515253639,-1.759664537928372,0.7853890213688589,0
7,2024-09-14 19:41:01.229226074,0,003,0.22465111824982528,-0.043974536091128315,-0.2673420973767931,0.09854445571379858,-0.4320038494929748,-0.023562886135400102,-1.7825037237567796,0.8006660888418531,0
8,2024-09-14 19:41:01.290396973,0,003,0.19325416785376173,-0.023670232046902325,-0.3331341775669572,0.13114691265071457,-0.4370062733095792,-0.020983732226735153,-1.789587823857347,0.8144851970845312,0
9,2024-09-14 19:41:01.352885010,0,003,0.15916340503351858,-0.0035399556291139988,-0.3766979322333151,0.15922147169116524,-0.43931970942106247,-0.019879227220617128,-1.7776524820277084,0.8254858826490366,0
10,2024-09-14 19:41:01.430833008,0,003,0.12280123586080957,0.015999136701667065,-0.39608682967701164,0.18143516258989437,-0.4386334027571909,-0.020235330769329977,-1.7435227142370562,0.832292138084657,0
11,2024-09-14 19:41:01.492433105,0,003,0.0847069494089392,0.034559802788355166,-0.39014248610788455,0.19672529817464743,-0.43488472692149954,-0.021940477557996406,-1.6846285753294548,0.8336661255447426,0
12,2024-09-14 19:41:01.570697021,0,003,0.04550143448315898,0.0518081186485877,-0.3587739064177108,0.20438550265047542,-0.4282503407611242,-0.024790725120608266,-1.5994966163906457,0.828648994167443,0
13,2024-09-14 19:41:01.631312988,0,003,0.00584438679717429,0.06748081725064767,-0.3028774465246844,0.2040664995706834,-0.4191106994709524,-0.028505793242854127,-1.4881171773012065,0.8166624851023457,0
14,2024-09-14 19:41:02.577055908,0,003,-0.033602460783806666,0.08139547894207735,-0.22404799052582686,0.19572843386295957,-0.4080199098255799,-0.03275044349758324,-1.3521389973873519,0.7975696151474938,0
15,2024-09-14 19:41:02.639062988,0,003,-0.07219617219715546,0.09345254702138686,-0.12434566821757669,0.179601718294823,-0.3956908863584709,-0.037157856029331165,-1.1948673643580725,0.7716930461847049,0
16,2024-09-14 19:41:02.716245850,0,003,-0.1093232485480786,0.10362862800505443,-0.006234360055883802,0.15617803608439287,-0.38297198664863,-0.04135604070083501,-1.0210756790030537,0.7397859320500014,0
17,2024-09-14 19:41:02.785831055,0,003,-0.14440643146365792,0.11196239843259177,0.12740496631895995,0.12620877634447114,-0.3707862774558119,-0.04499826627540108,-0.8367061824029082,0.7029594829836655,0
18,2024-09-14 19:41:02.853653809,0,003,-0.17690189651243884,0.11853494032499605,0.2733068663161178,0.09068501017304485,-0.360037100268838,-0.0477943979345851,-0.6485692034616858,0.6625851738046316,0
19,2024-09-14 19:41:02.916652832,0,003,-0.20628767278116406,0.12344787353234378,0.42789388162440095,0.05079828240393946,-0.35150630305396025,-0.049538488087541244,-0.46409078274691384,0.6201966653410916,0
20,2024-09-14 19:41:02.979104004,0,003,-0.23206030978602998,0.1268054472913917,0.5873283337299464,0.007897114118488407,-0.3457605216517787,-0.05012903604648335,-0.2910555833059856,0.5774085330924206,0
21,2024-09-14 19:41:03.907100098,0,003,-0.25374991178141637,0.12870481507051376,0.7475284576545176,-0.036550670668920836,-0.3430749395485063,-0.04957722971145738,-0.13726632268532551,0.5358477479470743,0
22,2024-09-14 19:41:03.975989014,0,003,-0.2709433022964934,0.12923306495648432,0.9041429914195244,-0.08099302749252091,-0.3433974500023876,-0.047998533183542164,-0.010085288167744127,0.49707755415205673,0
23,2024-09-14 19:41:04.031489014,0,003,-0.2833034938239742,0.1284681251022786,1.0524742361349924,-0.12383699756394267,-0.34636543083285726,-0.04558985634116086,0.08413400960019428,0.4625019509829732,0
24,2024-09-14 19:41:04.111652100,0,003,-0.2905898206483776,0.1264838815354809,1.1874091498387276,-0.16350152904027715,-0.35135070348113123,-0.04260123188511329,0.14064889005695866,0.4332636258721245,0
25,2024-09-14 19:41:04.179392090,0,003,-0.29268609461798856,0.12335994179738434,1.3034796501665804,-0.19846485567913225,-0.35750159471987747,-0.039308563158570176,0.15682928406528238,0.41015543370864865,0
26,2024-09-14 19:41:04.231652100,0,003,-0.289626368663809,0.11919188302878879,1.3951254041461556,-0.22729752440761888,-0.36378095468952987,-0.035988272177628275,0.1324837737669694,0.3935537092954524,0
27,2024-09-14 19:41:04.315025146,0,003,-0.281601396873493,0.11409658648954901,1.4571399790458948,-0.24869955333700372,-0.3690175884988069,-0.032894531220780704,0.07003031792827948,0.3833776494977045,0
28,2024-09-14 19:41:05.253040039,0,003,-0.26894614723457605,0.10821139133265437,1.4852480429626262,-0.2615713616002962,-0.3719772333306037,-0.03024299738801741,-0.025488852853418266,0.3790838058074232,0
29,2024-09-14 19:41:05.314357910,0,003,-0.2521218199988566,0.1016885967546329,1.4767496014928363,-0.2651233133589995,-0.37144456759638755,-0.028204291152407752,-0.1466138454810786,0.3797010116650025,0
30,2024-09-14 19:41:05.391532959,0,003,-0.23170252157502005,0.09468716352264217,1.4311152327874335,-0.25899547064079886,-0.36631004054192734,-0.026905433216736475,-0.28393586491105566,0.3839013779407122,0
31,2024-09-14 19:41:05.460177002,0,003,-0.2083680876525687,0.08736370182380163,1.3503941459786386,-0.24335490308162477,-0.3556561674716576,-0.026434981024196124,-0.4268192465875636,0.39010303277690733,0
32,2024-09-14 19:41:05.515928955,0,003,-0.1828930170740036,0.07986306999911726,1.2393524569969057,-0.21895646166576543,-0.33882680725091247,-0.026850541933570518,-0.564363331399542,0.39660873504128674,0
33,2024-09-14 19:41:05.593143066,0,003,-0.15611556377631278,0.07230724078275524,1.1053099690878412,-0.18715772504984501,-0.3154691841308784,-0.028188997125576126,-0.6865267397756148,0.40177920091297153,0
34,2024-09-14 19:41:05.664434814,0,003,-0.12888281791538742,0.06478404350700863,0.9576552185116818,-0.1498664582979003,-0.2855634781116558,-0.03047584744974744,-0.7851625292186923,0.4042088750065163,0
35,2024-09-14 19:41:06.607114990,0,003,-0.10198492418605636,0.057340148959856715,0.807045179931432,-0.1093992332463663,-0.24945350301942354,-0.0337277704117245,-0.8546456700192685,0.4028485158561954,0
36,2024-09-14 19:41:06.669312988,0,003,-0.07609894857561242,0.04998000280743683,0.6643657959204633,-0.06825645031379891,-0.20786359648168237,-0.03794714352359534,-0.8919983651226842,0.39704711393045444,0
37,2024-09-14 19:41:06.730905029,0,003,-0.051758013143686804,0.042668573432641195,0.5396400159157897,-0.02885980146005648,-0.16187997823567948,-0.04311260656052732,-0.8966830005573168,0.3865365270468451,0
38,2024-09-14 19:41:06.808649170,0,003,-0.029345321507598138,0.035334873525788624,0.4411459261736882,0.006676704939993169,-0.11289353484186347,-0.04917062362491741,-0.8702253828026415,0.37138954124586965,0
39,2024-09-14 19:41:06.870271973,0,003,-0.009100419215971888,0.027874724735054417,0.37493800484997175,0.036687289972531976,-0.0625140861113529,-0.05603143936183278,-0.8157110308914377,0.35195682907895287,0
40,2024-09-14 19:41:06.932500977,0,003,0.008870121321594336,0.020154543265956927,0.34478853042859764,0.059995784318210454,-0.01247088354984372,-0.06357007117696872,-0.7372026969896889,0.3287852220212453,0
41,2024-09-14 19:41:07.014519043,0,003,0.024577632443581188,0.01202034921043861,0.3524095667075949,0.0758827461762285,0.03548673955027498,-0.07163079951774315,-0.6391658552453193,0.3025339548613988,0
42,2024-09-14 19:41:07.947410156,0,003,0.038133198942947436,0.0033140917006413005,0.39773746287315437,0.08401415190883066,0.07968608540086994,-0.0800344820215491,-0.5259877534666736,0.27391212550957283,0
43,2024-09-14 19:41:08.024713135,0,003,0.04972687658066271,-0.0061045034325731065,0.47909809427996836,0.08436482876246693,0.11863048306056813,-0.08858903568393324,-0.40169296751483485,0.2436619139809921,0
44,2024-09-14 19:41:08.093458984,0,003,0.0596034080022478,-0.016334101613890324,0.5932319189869488,0.07716054777691016,0.15109892989817603,-0.09710116767385188,-0.26992585577628225,0.2125949743916001,0
45,2024-09-14 19:41:08.148680908,0,003,0.0680471741862788,-0.027411965470338848,0.7353318150621789,0.06284074759659082,0.17623281134995614,-0.10538565469863792,-0.1341248050218018,0.18164805368739526,0
46,2024-09-14 19:41:08.228991943,0,003,0.07539694867347732,-0.039306630114221315,0.899271855943577,0.04202407826368761,0.19359355409885257,-0.11327127720776214,0.002308997493626304,0.15190336404726065,0
47,2024-09-14 19:41:08.296772949,0,003,0.08208354937332468,-0.05192624712730419,1.078067220747086,0.015465123586290224,0.2031770808556503,-0.12060548287197406,0.13598503989070493,0.12455208226516269,0
48,2024-09-14 19:41:08.364525879,0,003,0.0886544914708528,-0.0651361337602949,1.2644554336898568,-0.01598860005514623,0.20537916017600874,-0.1272582402147139,0.2635964281141289,0.10082259678428528,0
49,2024-09-14 19:41:09.307805176,0,003,0.0957599125011764,-0.07877625119095583,1.4514453529515399,-0.051421248300557616,0.2009236302997682,-0.13312396840088445,0.3819625935300733,0.08189526555433146,0
50,2024-09-14 19:41:09.366870117,0,003,0.1040967666643064,-0.09267292850280195,1.6327173474150278,-0.08984521620469278,0.19077775046722084,-0.13812240747157806,0.48797402122702854,0.06880779614288648,0
51,2024-09-14 19:41:09.428888916,0,003,0.11432132413057533,-0.10664347396536353,1.802816192760124,-0.13018108585887916,0.17606715556797434,-0.14219912575628962,0.5784812858906848,0.06236135484249727,0
52,2024-09-14 19:41:09.511204102,0,003,0.12695671478719062,-0.12049729085637083,1.9571468822237377,-0.17125279936027396,0.1579829450251127,-0.14532275627950178,0.6502467307570428,0.06304687649840054,0
53,2024-09-14 19:41:09.579013184,0,003,0.14232439402542843,-0.13403885874085958,2.0918389061647202,-0.21182351736087904,0.13767604540943412,-0.1474765772323485,0.7000391066691164,0.07100641555448044,0
54,2024-09-14 19:41:09.645416992,0,003,0.16050292228810284,-0.14707292047448997,2.2035832099844574,-0.25066786827378557,0.1161515374350381,-0.14864630060392067,0.7248284718139918,0.08603120909143808,0
55,2024-09-14 19:41:09.707861816,0,003,0.1813056561862259,-0.15940827790984244,2.2895880626504965,-0.2866640462575014,0.09418029934412446,-0.14880631598054364,0.7220000366672523,0.10757554166369487,0
56,2024-09-14 19:41:10.632888916,0,003,0.204283600984817,-0.17085888352970563,2.3477436375974476,-0.31889428004916065,0.07224130595595873,-0.14790596853916196,0.6895690433410802,0.13476537445497697,0
57,2024-09-14 19:41:10.689298096,0,003,0.2287605637404854,-0.18124308113267285,2.376903878758791,-0.34673048299939047,0.05050340350939251,-0.14585988359410634,0.6264181237112544,0.16641698363781876,0
58,2024-09-14 19:41:10.768642822,0,003,0.25388990187657073,-0.19038125132188607,2.377127733266033,-0.3698729117008248,0.028842025072569617,-0.1425457119769376,0.5325422399757382,0.20109444243366237,0
59,2024-09-14 19:41:10.829175049,0,003,0.2787196026603383,-0.19809311239394012,2.3498503799138915,-0.38833238455054403,0.0068813192559023665,-0.13780952726539256,0.409211788149013,0.2372069158607827,0
60,2024-09-14 19:41:10.890198975,0,003,0.30226671866131927,-0.20419836111848003,2.298017041418624,-0.4023705035785919,-0.015934263080458776,-0.13148014202837544,0.2589720825346066,0.27313025458263657,0
61,2024-09-14 19:41:10.967545898,0,003,0.32360213345487615,-0.20852341853910228,2.226084854414111,-0.4124140154717142,-0.04023479379454632,-0.1233940540290064,0.08551728537617127,0.30734159827965307,0
62,2024-09-14 19:41:11.029544189,0,003,0.3419276718739457,-0.21091222731629433,2.139711464061636,-0.4189592506767362,-0.06660029068220324,-0.1134276237095575,-0.10648145873632561,0.3385460837185165,0
63,2024-09-14 19:41:11.976998047,0,003,0.356622843952867,-0.21123659217433863,2.0450941091547015,-0.42248581120441575,-0.09543659176907661,-0.1015290446796635,-0.31162741797722776,0.36576228058738763,0
64,2024-09-14 19:41:12.049177979,0,003,0.36725994199199974,-0.20940515578937047,1.948138427664873,-0.4233878928352119,-0.12686680548266113,-0.08774443548557108,-0.5242308788409367,0.388356164407138,0
65,2024-09-14 19:41:12.117001953,0,003,0.3736035422285781,-0.205373617509218,1.8536889616459409,-0.42191532913430213,-0.16065760981789004,-0.0722358599878706,-0.738900200808863,0.4060506567739629,0
66,2024-09-14 19:41:12.178019043,0,003,0.3756074166655315,-0.1991566509109668,1.7649833598964577,-0.4181236848178828,-0.19619880213095908,-0.05529070431773162,-0.9510723984728314,0.4189317233001936,0
67,2024-09-14 19:41:12.239578857,0,003,0.3734154377759138,-0.19083836927078102,1.683415782538717,-0.4118552356291263,-0.23253554409267196,-0.03732208859513934,-1.1572246349115258,0.42743056612888397,0
68,2024-09-14 19:41:12.317253174,0,003,0.3673692880109364,-0.18057820554426787,1.6086012554810267,-0.4027677804276113,-0.268440389735294,-0.018858671033076257,-1.3546942344283446,0.43224391201132756,0
69,2024-09-14 19:41:12.378341797,0,003,0.3580121440353396,-0.16861079713964822,1.5386371751260195,-0.3903955360280648,-0.3025197754861805,-0.0005207259237706291,-1.5412779789984798,0.43418720268363775,0
70,2024-09-14 19:41:13.317639893,0,003,0.3460635831064259,-0.15523901830346973,1.4704468686517398,-0.3742143960431716,-0.33334942466912076,0.017018172923490924,-1.7148641894586467,0.434029096861123,0
71,2024-09-14 19:41:13.394943115,0,003,0.33235525614182987,-0.14082043359312607,1.4001576165566076,-0.3537039562222,-0.3596158592117381,0.03308000630345728,-1.873242027465299,0.4323741622332873,0
72,2024-09-14 19:41:13.457048828,0,003,0.3177495372327266,-0.1257499541746991,1.3235207277793983,-0.32841612876858034,-0.38023470518652797,0.04703601892349227,-2.0140801192679727,0.4296236376391919,0
73,2024-09-14 19:41:13.535510986,0,003,0.30307220987907474,-0.11044200419941383,1.236388706377661,-0.2980594741491958,-0.39442746399067596,0.058358183907083076,-2.135004920385286,0.42599415409606267,0
74,2024-09-14 19:41:13.596729980,0,003,0.2890712543955006,-0.09531360499585653,1.1352320321076979,-0.2625935878574733,-0.4017512628866992,0.06665910237059565,-2.233733386805758,0.42155663750933137,0
75,2024-09-14 19:41:13.658322998,0,003,0.2763966622007141,-0.08076821574094407,1.0176328903788903,-0.22230912213842927,-0.40208866894227935,0.0717139077816204,-2.3082374502657683,0.4162733622897377,0
76,2024-09-14 19:41:13.735555908,0,003,0.2655901472706509,-0.06717938171028619,0.8827000086585755,-0.17786957822405045,-0.39561226198258564,0.07346500955423464,-2.356914267875155,0.41003333413084125,0
77,2024-09-14 19:41:14.680855957,0,003,0.25707288569285897,-0.054873673471086765,0.7313896512803151,-0.13031104759617576,-0.3827352982725463,0.07201408802526807,-2.378759637849886,0.4026921297530513,0
78,2024-09-14 19:41:14.750016112,0,003,0.2511255846465641,-0.04411443924059525,0.5667011744676865,-0.08100681643554943,-0.36405462844524983,0.06760486598263596,-2.3735823593670036,0.39411544525784564,0
79,2024-09-14 19:41:14.805293945,0,003,0.2478666468749967,-0.035089207031806,0.39366677328591804,-0.03159685333680438,-0.3402853439472227,0.06059785576101007,-2.3422604115171635,0.384220670594051,0
80,2024-09-14 19:41:14.882443848,0,003,0.24724205496114385,-0.027903792288044012,0.21906560513120452,0.0161253438276263,-0.3121825116792446,0.0514359322672339,-2.2869481941493697,0.3730110847161138,0
81,2024-09-14 19:41:14.944039062,0,003,0.24903993692795595,-0.022586427354606423,0.05085510300339117,0.06036780135912685,-0.2804622785354469,0.040602099994802736,-2.2111385451154315,0.3605979253391408,0
82,2024-09-14 19:41:15.005629150,0,003,0.25293384017190806,-0.019102670075014035,-0.10263185457220568,0.09951286143934779,-0.24575350526308026,0.02857754416874307,-2.1195387907219376,0.3471997440798872,0
83,2024-09-14 19:41:15.083246826,0,003,0.25854337914643616,-0.017375731652828172,-0.23364167304662437,0.1322720595554126,-0.20859767439082372,0.01580948621613122,-2.0177175321667145,0.3331037256588242,0
84,2024-09-14 19:41:16.007177979,0,003,0.2654859883356777,-0.01730331751808687,-0.3359683915917663,0.15779812749262034,-0.16948628496949267,0.0026929082689950315,-1.9115146094227047,0.31859089886882197,0
85,2024-09-14 19:41:16.075010010,0,003,0.273391046807051,-0.018764765893539342,-0.40572188524707486,0.1757365407132416,-0.12891166514749705,-0.010435309807397907,-1.806366119020217,0.3038584644410185,0
86,2024-09-14 19:41:16.142826172,0,003,0.2818631197550022,-0.021618076607780746,-0.4417232239658492,0.18620571218335963,-0.0874086851177378,-0.023294039719354606,-1.7067670065856133,0.2889802523434531,0
87,2024-09-14 19:41:16.210635986,0,003,0.2904065571387157,-0.025691455562663595,-0.44552352444541266,0.18971978296199954,-0.04557472216474621,-0.0356520105083304,-1.6159439836647238,0.27391495230228186,0
88,2024-09-14 19:41:16.278441895,0,003,0.2983496699577163,-0.030776144554670856,-0.42112845923226216,0.18708695115389512,-0.004068925601029422,-0.0473211515486204,-1.535654514942023,0.25853501466414797,0
89,2024-09-14 19:41:16.340876221,0,003,0.30482267110486205,-0.03662599621439114,-0.3744807694401017,0.1793102324696362,0.036396349993699846,-0.05814844325463613,-1.4660521175724097,0.24265251009976718,0
90,2024-09-14 19:41:16.414040039,0,003,0.3088261986098267,-0.042965749488851075,-0.31277410276118917,0.1675056968343389,0.07505779127169043,-0.06800460249216699,-1.405675324497285,0.2260466726681732,0
91,2024-09-14 19:41:17.350012939,0,003,0.3093733869231063,-0.04950554721972756,-0.2437118191133707,0.15284199958410868,0.11110313776298719,-0.07677292389439555,-1.3516390463124233,0.2084992082796995,0
92,2024-09-14 19:41:17.411634033,0,003,0.305647202703653,-0.05595582067423891,-0.17477334159014038,0.13648972628217318,0.14369982080666188,-0.08434580287406059,-1.2999948165608752,0.18982570739933463,0
93,2024-09-14 19:41:17.489273926,0,003,0.2971246359425051,-0.062037932846301165,-0.1125049668430062,0.11956725337404737,0.172063336034822,-0.09063186439234934,-1.2461253740629163,0.16989144945645013,0
94,2024-09-14 19:41:17.551805908,0,003,0.2836518952912287,-0.0674911447175511,-0.06191317010872745,0.10308877543054795,0.19554430265936004,-0.09556891944085547,-1.1850670989441148,0.148607249424446,0
95,2024-09-14 19:41:17.628456055,0,003,0.26546939766305744,-0.07207860608392269,-0.026115790406825802,0.08793612639553276,0.21369664484528994,-0.09913570616926366,-1.1117693831410402,0.12590612932583162,0
96,2024-09-14 19:41:17.690978027,0,003,0.24318190839373152,-0.07559224387350158,-0.006360660588204234,0.07486898691273713,0.22630374243713475,-0.10135822924418161,-1.0213905277574165,0.1017187429393761,0
97,2024-09-14 19:41:17.764100098,0,003,0.21766742906395772,-0.07785458256057674,-0.002349767988967822,0.06455789584483154,0.23337273044458218,-0.10231126040871054,-0.909713697013203,0.075980908912755,0
98,2024-09-14 19:41:18.707329102,0,003,0.18993351389904617,-0.07871778613422384,-0.012677458011111392,0.05759568592566832,0.2351211561184485,-0.10211686126689938,-0.7736520126862925,0.04869287555894431,0
99,2024-09-14 19:41:18.760405029,0,003,0.1609594895955877,-0.07806348155297813,-0.03522866088154523,0.054457634494557705,0.23195584004553718,-0.10093736204979899,-0.6117158287447726,0.020012363347975803,0
100,2024-09-14 19:41:18.842971924,0,003,0.13158037765387137,-0.07580774930701636,-0.06747965642964321,0.05543209269620511,0.22442762754428344,-0.09895950733723687,-0.4243269376461554,-0.009665772634168951,0
101,2024-09-14 19:41:18.910784912,0,003,0.10245138839224223,-0.07191381835395642,-0.10666435127869409,0.06055993679603229,0.2131698576005247,-0.09637448189683488,-0.21393027439760032,-0.03968491621801129,0
102,2024-09-14 19:41:18.977256104,0,003,0.07409453453754011,-0.06641198261766802,-0.14978105010231282,0.06958556076312736,0.19884991923215328,-0.09336425712707469,0.01509719011099994,-0.06916634854108579,0
103,2024-09-14 19:41:19.038295898,0,003,0.04699735763586184,-0.05942250534504042,-0.19353764709853605,0.08191643568548133,0.18215039748996642,-0.0901000278232745,0.2567133978282317,-0.09709797159975497,0
104,2024-09-14 19:41:19.114260010,0,003,0.02171637684113911,-0.051173540639964286,-0.23446939128429523,0.0966344207664042,0.16377156491071773,-0.08674866201483039,0.5036325336462611,-0.12245328589029644,0
105,2024-09-14 19:41:20.042965820,0,003,-0.0010656256199974544,-0.04200472481924,-0.26937322773754213,0.11260389146335711,0.1444330009800806,-0.08347705347354616,0.7478928846070821,-0.14431999507945778,0
106,2024-09-14 19:41:20.120533936,0,003,-0.020557991587970635,-0.032350569957169284,-0.29591798724555196,0.12865210113488695,0.12485743833047026,-0.08044741701362586,0.9815218512873063,-0.16201266670893627,0
107,2024-09-14 19:41:20.182543945,0,003,-0.03594056972153982,-0.02270610513264411,-0.3131118322335599,0.14374684346164868,0.10574081030902446,-0.07780514907698538,1.1971987175563155,-0.17515041462521436,0
108,2024-09-14 19:41:20.260879883,0,003,-0.04645851240250653,-0.013584387041899189,-0.32137814696504463,0.15711088987279848,0.08772505005244412,-0.07566482354864128,1.3888405318410615,-0.18369601654529297,0
109,2024-09-14 19:41:20.321759033,0,003,-0.05150608596282839,-0.0054744084841572005,-0.3222230820679156,0.16825762943409664,0.07138206093400266,-0.07409758894720661,1.552058120239008,-0.18795719736265165,0
110,2024-09-14 19:41:20.396507080,0,003,-0.05069713395955198,0.0011986511282468316,-0.31767862234314687,0.1769689473331825,0.057203154725839325,-0.07312198611059666,1.6843774842683439,-0.1885447090830425,0
111,2024-09-14 19:41:20.460127197,0,003,-0.04391852961325363,0.006110547808250112,-0.3097152264686929,0.18324733748847807,0.04558111769807192,-0.07270102692097274,1.785141626922546,-0.1862903933594418,0
112,2024-09-14 19:41:21.372873047,0,003,-0.031356196604121124,0.009067511413579083,-0.29975285055098544,0.18726976968475845,0.03677390441433793,-0.07274628200774093,1.8551821810270201,-0.1821498466813866,0
113,2024-09-14 19:41:21.450434082,0,003,-0.013496329765466912,0.010022178539936907,-0.2884038894529454,0.18936271086124698,0.030854968179583758,-0.07312657917161068,1.8964726127869544,-0.17711853863123578,0
114,2024-09-14 19:41:21.511187988,0,003,0.008884881726361931,0.009074873075209947,-0.27554128693454827,0.190000875777134,0.02768247078112575,-0.07367997295684976,1.9118613304816396,-0.17217081647533133,0
115,2024-09-14 19:41:21.585941162,0,003,0.03474275152756751,0.0064618913943464635,-0.2606376170181483,0.18980987451651496,0.026920713954396516,-0.07422924305741584,1.9047775564233265,-0.1682074346831317,0
116,2024-09-14 19:41:21.653695068,0,003,0.06280976778541375,0.0025317862694115246,-0.24320296374135159,0.1895429979287598,0.028098119773627677,-0.07459715091585903,1.878777479534016,-0.1659902839257702,0
117,2024-09-14 19:41:21.721501221,0,003,0.09167122459818777,-0.0022875833976025942,-0.22315869387690548,0.190020615142783,0.03064939562160252,-0.0746140924544974,1.8369602025339613,-0.1660599683374159,0
118,2024-09-14 19:41:21.789134033,0,003,0.11986511232910342,-0.007526373451973131,-0.20107683415031258,0.1920496801762272,0.03392399679780816,-0.07411686924630066,1.7813934358795562,-0.16865145028983652,0
119,2024-09-14 19:41:22.726504150,0,003,0.1459937027861859,-0.012710658980161285,-0.178257599511003,0.19634088043346812,0.03718977622710486,-0.07294652963700855,1.7126571318439552,-0.17362332738050076,0
120,2024-09-14 19:41:22.788626953,0,003,0.16882185218485618,-0.017396874373964782,-0.15658696217113657,0.20342080229306114,0.03965311445979979,-0.07095297734380325,1.6295988671600707,-0.18041460282797417,0
121,2024-09-14 19:41:22.867687012,0,003,0.1873363224898425,-0.02119766621792688,-0.13815383175330162,0.21353910306965374,0.04048939034358441,-0.06800630445838145,1.529458531595637,-0.18805958899954991,0
122,2024-09-14 19:41:22.935480957,0,003,0.20077116831818684,-0.023798969827691537,-0.12472541049281048,0.22658898463567806,0.03887527575746124,-0.06400944870822158,1.4084843282488941,-0.19529510830458727,0
123,2024-09-14 19:41:22.988987061,0,003,0.20863228516141144,-0.02497468508377541,-0.11723036639994382,0.2420586605490741,0.03402493517035272,-0.05890625753963994,1.2629521306032268,-0.20075061400398408,0
124,2024-09-14 19:41:23.070987061,0,003,0.21074145831231966,-0.024603336155007545,-0.11537683140183351,0.25902084066198305,0.025238042536699843,-0.05268211827210319,1.0902910700669841,-0.20315624203454613,0
125,2024-09-14 19:41:23.127233887,0,003,0.2072862051248279,-0.022683217899547505,-0.11753046026630329,0.27617164745404166,0.011966918479367924,-0.04535986722241163,0.8899760081088061,-0.20149303488188755,0
126,2024-09-14 19:41:24.076903076,0,003,0.19884439698388212,-0.019338803704658444,-0.12094585074030362,0.29193545061104265,-0.0061019480163873405,-0.036996232711872884,0.6639801664386957,-0.19505053202306788,0
127,2024-09-14 19:41:24.138969971,0,003,0.18636043151111237,-0.014813483817612829,-0.1223196222333507,0.3046326728751278,-0.02897617051965915,-0.0276800797092143,0.4167725374907924,-0.18341383731845756,0
128,2024-09-14 19:41:24.216624023,0,003,0.1710717833741452,-0.009447690267250359,-0.1185028315714979,0.31267715578137345,-0.05632498464247391,-0.01752996197344492,0.15496740661610126,-0.16643584929178892,0
129,2024-09-14 19:41:24.285530029,0,003,0.15440201869216338,-0.003644883688718537,-0.10716091790859893,0.3147611110258125,-0.08749645812922138,-0.006691142131105909,-0.11323141872091934,-0.14423806906121517,0
130,2024-09-14 19:41:24.353355957,0,003,0.13783158175878826,0.002170234043661897,-0.0872163288370637,0.3100051386119739,-0.12157076563573269,0.004664597506641638,-0.3786594412672664,-0.11723947568922354,0
131,2024-09-14 19:41:24.420242920,0,003,0.12275063452101119,0.007596489212285982,-0.059019246360564145,0.2980718620563516,-0.1574280413610954,0.016335570215475343,-0.6318030341754554,-0.08618656479486944,0
132,2024-09-14 19:41:24.479149170,0,003,0.11031886422412675,0.012297700404929512,-0.024285587980277554,0.27924444145322486,-0.19381316294271195,0.02808580393955301,-0.8633957229334502,-0.0521623193395592,0
133,2024-09-14 19:41:25.428128906,0,003,0.1013769940440529,0.0160324163646376,0.014124125407794876,0.2544619801283454,-0.22938686223822313,0.039641996357161036,-1.0650985842798586,-0.01655216371312209,0
134,2024-09-14 19:41:25.487437988,0,003,0.09643115485992255,0.018665626460672238,0.05253758540800804,0.22528952530682067,-0.2627660989413724,0.050693764517577004,-1.230301928699533,0.019051248796213196,0
135,2024-09-14 19:41:25.564610840,0,003,0.0956882713465294,0.020162970394729345,0.08692347946534916,0.193790103232557,-0.29256531588005896,0.06089953351020561,-1.3548568917722774,0.052984377637559726,0
136,2024-09-14 19:41:25.626135010,0,003,0.09910595511918081,0.020573411680082976,0.11348431997026133,0.1622840128062281,-0.31744205211009124,0.06989881824860499,-1.4374244769382487,0.08364013606994342,0
137,2024-09-14 19:41:25.688623047,0,003,0.1064377245450654,0.020006834119101403,0.1293528036114871,0.13303054977722734,-0.3361448375308055,0.07733037033591798,-1.479265398528982,0.1095612222066458,0
138,2024-09-14 19:41:25.771795898,0,003,0.11727541221045694,0.01861094726154286,0.1332407396069331,0.10791728500537863,-0.34756973207081177,0.08285674526268079,-1.4835449974920876,0.12951265112356866,0
139,2024-09-14 19:41:25.828243896,0,003,0.13109333340673385,0.016550284880569914,0.12576425774990843,0.08825004924910387,-0.3508364216809877,0.08619579793626701,-1.454420042627924,0.14254957946374325,0
140,2024-09-14 19:41:26.756933838,0,003,0.14728892649345768,0.013989857856920553,0.10921449903881089,0.0746863450340452,-0.3453869635877733,0.08715652553048914,-1.396194618017925,0.14808077870488126,0
141,2024-09-14 19:41:26.824749023,0,003,0.16521221913058143,0.011086320716760707,0.08683634166462123,0.06728111864747434,-0.3310915463223268,0.08567236288318117,-1.312669948117327,0.14591484578215258,0
142,2024-09-14 19:41:26.891108887,0,003,0.18418630307490053,0.00798734245182972,0.06194885758099661,0.06557709190455617,-0.3083230377942503,0.08182238849709156,-1.2066881393376605,0.13627194518549787,0
143,2024-09-14 19:41:26.960333984,0,003,0.20353103606888773,0.004834706573598391,0.03722939363524002,0.06869849468255924,-0.27796485640502283,0.07583338954708428,-1.079957066924401,0.11976253693688181,0
144,2024-09-14 19:41:27.015999023,0,003,0.22259985402727533,0.0017646456645056111,0.014296060334593238,0.07545975822648393,-0.24135366107364384,0.06806310680234103,-0.9333021747440317,0.09735653400139058,0
145,2024-09-14 19:41:27.094345947,0,003,0.2408267325883836,-0.0010970307937467328,-0.00641168838000657,0.08451170149139836,-0.20018551969844928,0.058970743519459176,-0.7672690180734911,0.07035472630551877,0
146,2024-09-14 19:41:27.163621826,0,003,0.257770196596769,-0.003643367295699094,-0.025522867516844024,0.09450937616257593,-0.1564049993293803,0.049080870840260256,-0.5827630134606668,0.04034841493426622,0
147,2024-09-14 19:41:28.107013916,0,003,0.27313865276027816,-0.005795593442527169,-0.044510950404135205,0.10426109853513062,-0.11208069709085455,0.0389452051759329,-0.3815046654852701,0.009151938021461031,0
148,2024-09-14 19:41:28.164413818,0,003,0.28678317147638066,-0.007509969360536315,-0.0654327091420763,0.11283384191683297,-0.06926857797250267,0.029105954042164935,-0.16632330913494553,-0.02129370303734985,0
149,2024-09-14 19:41:28.241377197,0,003,0.2986527568338823,-0.008779013521820644,-0.09061481953318302,0.11961057389311477,-0.029867442571568568,0.0200620486265387,0.05866335320191749,-0.049045388243658124,0
150,2024-09-14 19:41:28.310374023,0,003,0.3087264922407925,-0.009627659100178019,-0.12225167185681529,0.12429782773286165,0.0045231098912934245,0.012237127687305957,0.28809949716112254,-0.0723127278010435,0
151,2024-09-14 19:41:28.378154053,0,003,0.316952719414638,-0.010108500820004059,-0.16194066877904142,0.1268860150920446,0.03272382774443067,0.005950089395650607,0.5158081049315422,-0.08963429613974933,0
152,2024-09-14 19:41:28.441242920,0,003,0.3232193270732175,-0.010298937809772543,-0.21029138091767738,0.12758625629247763,0.054055172905785785,0.0013938791881199233,0.7354951428959748,-0.10004389170886646,0
153,2024-09-14 19:41:28.513709961,0,003,0.32735969186772096,-0.010298814744995183,-0.2667683406142442,0.12677237756041254,0.0683601992237741,-0.0013706866235204838,0.9414507594807268,-0.10318287946745776,0
154,2024-09-14 19:41:29.456610107,0,003,0.3291820457754921,-0.01022502597440052,-0.3297591413061576,0.12492304842830658,0.0759714989029292,-0.002405397868541694,1.1289863442784889,-0.09932502604480026,0
155,2024-09-14 19:41:29.515048096,0,003,0.32850341541606426,-0.010200721868052386,-0.39673356473192783,0.1225402061304994,0.07764404378369713,-0.001877676101448279,1.2945577526522583,-0.089307581979953,0
156,2024-09-14 19:41:29.592120850,0,003,0.3251813992429726,-0.010340612081949621,-0.4644652064407249,0.12005235218717646,0.07448363580544085,-4.554440458064665e-05,1.4356716797397662,-0.07438596738178292,0
157,2024-09-14 19:41:29.654336914,0,003,0.3191517805457711,-0.010737062473063573,-0.5293896181607899,0.11774192229500884,0.06787710020029915,0.0027567744526428126,1.5506629626852284,-0.05603919230527601,0
158,2024-09-14 19:41:29.716559814,0,003,0.31046968517902374,-0.011449848735600373,-0.588079838348025,0.1157191478093246,0.059400961666198605,0.006143616530190107,1.6383899391651815,-0.035761819231443254,0
159,2024-09-14 19:41:29.793438965,0,003,0.2993331699714016,-0.012498510638631876,-0.6377002972981431,0.11393423614518192,0.050689048545261885,0.009718606724410167,1.6978930289484937,-0.014884901781936792,0
160,2024-09-14 19:41:29.863393066,0,003,0.2860681827767826,-0.013856091434733408,-0.6763283742393569,0.1122135255007048,0.04326679498381431,0.013123201197498885,1.7280801171709874,0.005539431422396779,0
161,2024-09-14 19:41:30.806895020,0,003,0.2710650672592081,-0.015444481525307535,-0.703139929154913,0.1103132447486735,0.03837820534993834,0.016079203972095734,1.7275560885057824,0.024769207742614038,0
162,2024-09-14 19:41:30.874708008,0,003,0.25467432930111367,-0.01713107878132651,-0.7185105230411022,0.10799047948233356,0.0368374366645243,0.018415593851177383,1.6947604363119029,0.042316261071294374,0
163,2024-09-14 19:41:30.942519043,0,003,0.23709725096558243,-0.018727371280423295,-0.7240590531060532,0.10508731336624784,0.038942961314051006,0.020074370736363343,1.628498518609923,0.0578277380383679,0
164,2024-09-14 19:41:31.009208008,0,003,0.21832060737607284,-0.019993362945463715,-0.7225850909903135,0.10160675237146166,0.04448442527153161,0.02109421677985422,1.5287550498990714,0.0709535857089266,0
165,2024-09-14 19:41:31.071232178,0,003,0.19812298316490695,-0.020651920369793943,-0.7178100782493642,0.09774816774924536,0.05283777547103782,0.02157843320573641,1.3975322322113874,0.08123973504609704,0
166,2024-09-14 19:41:31.145912109,0,003,0.1761447168728913,-0.020412582922229344,-0.7139137726253749,0.09388516779536737,0.0631120934275359,0.021658635175098456,1.239438181857381,0.08806917850708355,0
167,2024-09-14 19:41:31.209180176,0,003,0.15199442259686527,-0.0190001861578377,-0.7149682083126503,0.09049429856285403,0.07430505798362116,0.02146360807822847,1.0617970307123459,0.0906726122963612,0
168,2024-09-14 19:41:32.132102051,0,003,0.1253638285074803,-0.01618214809626027,-0.7243669160533416,0.08805631243501669,0.08543127734893143,0.02109854747907989,0.8741780798480919,0.0882182417746734,0
169,2024-09-14 19:41:32.199927979,0,003,0.09612436293800308,-0.011788003461072578,-0.7443184372100355,0.08695401649319706,0.09560435310382322,0.02063641592438902,0.6874488216384893,0.0799551516514031,0
170,2024-09-14 19:41:32.257950928,0,003,0.06438064182581595,-0.0057169945490714,-0.7755254268190633,0.08738893381281866,0.10407627133743774,0.02012017112200216,0.5125788137342911,0.06536849901060027,0
171,2024-09-14 19:41:32.334614990,0,003,0.0304673377210576,0.0020647845176172373,-0.8171613468041404,0.08933092292308525,0.11024702108003509,0.019572951387316784,0.35940577782663813,0.04431608409021691,0
172,2024-09-14 19:41:32.403321045,0,003,-0.005101910732364075,0.011531179990628606,-0.867112885700036,0.09250519598454587,0.11365443991130865,0.01901197513618017,0.23555888602385358,0.017121009956043435,0
173,2024-09-14 19:41:32.457747070,0,003,-0.04170280045177875,0.022599337099859975,-0.9223630042424649,0.09642144918987094,0.11395606975361565,0.018460789255420107,0.14573866837112234,-0.015406540530414885,0
174,2024-09-14 19:41:32.534614014,0,003,-0.0786507078501055,0.03512534434311535,-0.9794355241681805,0.10045230076086702,0.11091681031967575,0.017955698202652023,0.09147215794906084,-0.05203055695155517,0
175,2024-09-14 19:41:33.476770020,0,003,-0.11522013222108476,0.0488941655448744,-1.0348541248150966,0.10395016883267598,0.10441388221341673,0.01754520444018471,0.07130899195333311,-0.09121625670602994,0
176,2024-09-14 19:41:33.538448975,0,003,-0.15064890400073763,0.0636119720560686,-1.0855288847552638,0.10636410190815279,0.09446725781663244,0.017283759725811598,0.08130654223686629,-0.1312814840384106,0
177,2024-09-14 19:41:33.616558105,0,003,-0.18415088112430314,0.07890936732164035,-1.1290042239131033,0.107322558288372,0.08128778429857991,0.017222399729795647,0.11563089843443816,-0.17053229049028643,0
178,2024-09-14 19:41:33.678613037,0,003,-0.2149520905448655,0.09435894882541944,-1.163590745318571,0.10667869906286079,0.06531412510888084,0.01739875686088823,0.16719580561179115,-0.20737224666341128,0
179,2024-09-14 19:41:33.740613037,0,003,-0.24235539172006007,0.10950549480698975,-1.1884312545864661,0.1045275802188721,0.047213237181793224,0.017828593562106584,0.22836135228688323,-0.24039600344777193,0
180,2024-09-14 19:41:33.820724854,0,003,-0.26582200969141095,0.12390265012177412,-1.2035209512686935,0.10120089296079114,0.027840441690111052,0.01850214622846543,0.29165483208959003,-0.26846518688410387,0
181,2024-09-14 19:41:33.879551025,0,003,-0.28503764175129925,0.13714630587519347,-1.2096860115504653,0.0972439238387254,0.00816783069110062,0.019388716053854182,0.35036903803054664,-0.2907494003605488,0
182,2024-09-14 19:41:34.831610840,0,003,-0.29993701038713033,0.14889751493186384,-1.2085068111444854,0.09337470561169345,-0.010806004333043448,0.020448852997609485,0.39893349178755294,-0.30672086219044786,0
183,2024-09-14 19:41:34.899918945,0,003,-0.31068716549338493,0.15889568726146627,-1.2021480997871068,0.09042299522104545,-0.02814848178145654,0.021647992941646252,0.4330721544484612,-0.316108605847381,0
184,2024-09-14 19:41:34.955248047,0,003,-0.317638035019666,0.16696576164996169,-1.1930678203189922,0.08925240749381695,-0.043066372800914236,0.022963609934091987,0.44984831518278395,-0.31884198917892376,0
185,2024-09-14 19:41:35.035481934,0,003,-0.32125131052670797,0.17302031036243598,-1.1836234342656817,0.09066644639161164,-0.05493552598440492,0.024381250549941596,0.4477323834925483,-0.31502995380668325,0
186,2024-09-14 19:41:35.103279053,0,003,-0.3220340099485764,0.17705617000820498,-1.1756706811031459,0.09530262122624852,-0.06327726256105454,0.025880986101021092,0.42672563129053914,-0.30499668857988804,0
187,2024-09-14 19:41:35.156104004,0,003,-0.3204972000123372,0.17914520649356505,-1.1703024120045382,0.10354794162082936,-0.06770409899038778,0.027420875032469986,0.38838318265073657,-0.28933189608686566,0
188,2024-09-14 19:41:35.233371094,0,003,-0.31713153415077444,0.17941879629197718,-1.1678153969577094,0.11551837190319862,-0.06787791486851615,0.0289247666863044,0.33555394739545463,-0.26888638538825466,0
189,2024-09-14 19:41:36.177233887,0,003,-0.31238376161786996,0.17804807294638764,-1.1678457126847661,0.13109744282378114,-0.06351221972226291,0.030279353026709144,0.2718377275217815,-0.2446906362703516,0
190,2024-09-14 19:41:36.250236084,0,003,-0.3066298206067904,0.17522463930904864,-1.1695318574909646,0.14998263434749118,-0.054416979233214834,0.03134288853963545,0.20093644193105115,-0.21783749657709228,0
191,2024-09-14 19:41:36.318069824,0,003,-0.30014074681339614,0.17114442568405464,-1.1716431942284757,0.17170303968515369,-0.040557004244518705,0.03196479852796738,0.12610838018318957,-0.18937763965441798,0
192,2024-09-14 19:41:36.385834961,0,003,-0.29303945841433787,0.16599376570392127,-1.172742396214479,0.19561700540104512,-0.022095537681464314,0.032011228939491196,0.04985726887766895,-0.16024043044340264,0
193,2024-09-14 19:41:36.438926025,0,003,-0.2852650349054304,0.15993729325609704,-1.1714379924802598,0.22091676419566122,0.0005823522736996736,0.031390360916418496,-0.026094180417437607,-0.13117865012110497,0
194,2024-09-14 19:41:36.521440918,0,003,-0.27657281250194937,0.1531095859447057,-1.1666295799991608,0.24665190319592806,0.02685552749222705,0.030073076416370657,-0.10056310062940076,-0.10275465678383414,0
195,2024-09-14 19:41:36.589231934,0,003,-0.26658127543183024,0.14561111799942497,-1.157580571026519,0.2717632126775989,0.05586156379788457,0.028104471884234695,-0.17252657320216447,-0.07538892040497963,0
196,2024-09-14 19:41:37.509607910,0,003,-0.25484744788226926,0.13750673664752303,-1.143777428958269,0.2951179837111125,0.08652018070862988,0.02560129628589723,-0.2408309795556993,-0.04945471544145802,0
197,2024-09-14 19:41:37.577419922,0,003,-0.24094261742979892,0.12882713532616202,-1.1246946424990953,0.3155523790441372,0.11759755751553662,0.0227349956845198,-0.3041559402369543,-0.02536170885412475,0
198,2024-09-14 19:41:37.645197998,0,003,-0.22451005500120738,0.11957593199480135,-1.0996298369282054,0.3319332985684569,0.1477988785121428,0.01970617124265375,-0.3611901515903027,-0.0035792595689893045,0
199,2024-09-14 19:41:37.698684814,0,003,-0.20529594512910057,0.10974101034847569,-1.0677244807747845,0.3432455078861154,0.175869689823378,0.016717345737207557,-0.41081562933928056,0.015395871650841938,0
200,2024-09-14 19:41:37.780800049,0,003,-0.18315625171323086,0.09930584966210305,-1.0282040739079648,0.3486957196397471,0.20069873857019802,0.013947623196467746,-0.4521240752760659,0.031085540513335022,0
201,2024-09-14 19:41:37.838736084,0,003,-0.15806061212058675,0.08826016671637588,-0.9807609217939559,0.3478077583551094,0.22142349408181944,0.011529178303467965,-0.4842364755092769,0.04305600495862426,0
202,2024-09-14 19:41:37.916351074,0,003,-0.13011602198692332,0.07661124764256168,-0.9259013189417907,0.3404748946419036,0.23752890695133952,0.009526132847814279,-0.5059946349816469,0.050909030745016945,0
203,2024-09-14 19:41:38.846605957,0,003,-0.09961115425372032,0.06439460140430667,-0.8650802107768811,0.32695125458516755,0.24891091177335187,0.007921685305726987,-0.515627317532835,0.0542411935280059,0
204,2024-09-14 19:41:38.924102051,0,003,-0.06706448602603028,0.05168231219414293,-0.8005646398495037,0.30779493465157276,0.255883593342739,0.00662009093261409,-0.5105446785921938,0.05259954744765272,0
205,2024-09-14 19:41:38.993232910,0,003,-0.033253799489928314,0.03858944949976928,-0.7351079845308196,0.28379298293202393,0.25914009304449376,0.005462131634089545,-0.4874168142882826,0.04547312128001012,0
206,2024-09-14 19:41:39.061029053,0,003,0.0007959797648118861,0.02527797344317101,-0.6715791802892731,0.2558919049630573,0.2596874558436724,0.004247186185709496,-0.4425648872143897,0.032338663166492664,0
207,2024-09-14 19:41:39.128770020,0,003,0.03387261105137317,0.01195691948713905,-0.6126459252043457,0.22514085776085072,0.258759562894085,0.00275845932661344,-0.37253299019900155,0.01274940262305813,0
208,2024-09-14 19:41:39.186928955,0,003,0.0646636268038526,-0.0011210924161437045,-0.5605127412670884,0.1926385508843423,0.2577053955897664,0.0007920097390045866,-0.27464874390866006,-0.01355992663761908,0
209,2024-09-14 19:41:39.263190918,0,003,0.09185117439192467,-0.013668408887121467,-0.5166712032779753,0.15946984076842413,0.2578593350526508,-0.0018115037588496165,-0.14743186913455758,-0.04658137422317515,0
210,2024-09-14 19:41:40.207667969,0,003,0.11422001824019919,-0.025379138220781496,-0.4816799860927474,0.12663333936614676,0.26040656325037187,-0.0051371679028653205,0.009176646985119013,-0.08597709914140025,0
211,2024-09-14 19:41:40.275507080,0,003,0.1307894190381102,-0.035953911424442264,-0.4550574742831428,0.09497738342304578,0.26625668451026246,-0.009174476196088127,0.19367619115059034,-0.13106205788292055,0
212,2024-09-14 19:41:40.336604004,0,003,0.1409504787563858,-0.045126499115929114,-0.43535098232698416,0.06516248961998206,0.2759411487526443,-0.013809362244773088,0.40286348820877016,-0.180814761301675,0
213,2024-09-14 19:41:40.411107910,0,003,0.14455726618487555,-0.052683266667696654,-0.42037364893251544,0.03766040390176441,0.2895503183517906,-0.01883099014320197,0.6317182952997793,-0.2339000694684242,0
214,2024-09-14 19:41:40.478922119,0,003,0.14192241964126806,-0.05846853055141819,-0.40749832648350703,0.012776241060994903,0.30671542748534364,-0.02394988752421128,0.8734462957126412,-0.28869525655124645,0
215,2024-09-14 19:41:40.536416992,0,003,0.13371744981827166,-0.06237685618266942,-0.3938576872512316,-0.00934292009360217,0.32663010629517036,-0.028822227600913804,1.1197645887367376,-0.34332958175478934,0
216,2024-09-14 19:41:40.613138916,0,003,0.12083308543863396,-0.06434249601790168,-0.3764473316814742,-0.028725278358848753,0.3481083151123945,-0.03307713452944387,1.3614316457401916,-0.3957613557029549,0
217,2024-09-14 19:41:41.552339111,0,003,0.10426091432897554,-0.06433714282925583,-0.352294279753094,-0.04558422825840987,0.3696731156386622,-0.036345138744654094,1.5889424517835373,-0.44389537799934337,0
218,2024-09-14 19:41:41.625603027,0,003,0.08502073531907715,-0.06237884128212814,-0.31877058112164813,-0.06029521802305537,0.389655881240562,-0.03828508200034251,1.7932274767656247,-0.4857071482123584,0
219,2024-09-14 19:41:41.693303955,0,003,0.06412485893748865,-0.05854591610084347,-0.27394238460580583,-0.07335425756429817,0.40628779486504646,-0.03860716317741742,1.9662170412968085,-0.5193464555507092,0
220,2024-09-14 19:41:41.752087891,0,003,0.04255467074611105,-0.052985950376482426,-0.21684471050843218,-0.08533456109625102,0.4177839188339002,-0.03709027160904207,2.1012420815640183,-0.5432281025993886,0
221,2024-09-14 19:41:41.828783936,0,003,0.021220725805323862,-0.04591090165179647,-0.1476838785160711,-0.09683215967079162,0.4224254947194857,-0.03359145427415879,2.1933065954086715,-0.5561216772027009,0
222,2024-09-14 19:41:41.896601807,0,003,0.0008955950043080006,-0.03757578943009817,-0.06794713975108677,-0.10839369627602045,0.418648377368596,-0.028049462950922296,2.2393013855629773,-0.5572355629731712,0
223,2024-09-14 19:41:41.953246094,0,003,-0.017859381086164524,-0.0282487000360555,0.01967651305360746,-0.12043973382567023,0.405152792826283,-0.020490413554883458,2.238227316774492,-0.5462895008524085,0
224,2024-09-14 19:41:42.874906006,0,003,-0.03474278296786581,-0.018185071818902852,0.11155893873519658,-0.13319237288770214,0.3810372068027088,-0.011041051861829184,2.191387052071721,-0.5235719972875638,0
225,2024-09-14 19:41:42.937391113,0,003,-0.049725399922815765,-0.0076136253470537,0.20342061421704302,-0.14660254119756275,0.3459320408734386,5.46038633218562e-05,2.102390632293006,-0.4899649038299616,0
226,2024-09-14 19:41:43.018414062,0,003,-0.06302550988891191,0.003266309458237231,0.29056659955752345,-0.16028571493963353,0.3000964082357077,0.01242486338990149,1.9768542153092232,-0.446903010763309,0
227,2024-09-14 19:41:43.086159912,0,003,-0.07504371566092369,0.01427794305009152,0.36820371444831324,-0.17349733992727231,0.24444610813754694,0.02557459173947156,1.8218201667217235,-0.3962500472778817,0
228,2024-09-14 19:41:43.141395020,0,003,-0.0862673360185789,0.025253619545661864,0.43196186311884033,-0.1851795950326426,0.18049993692274685,0.03890847518906841,1.645055514553979,-0.3401186111975532,0
229,2024-09-14 19:41:43.215845947,0,003,-0.09717689408958263,0.036021156609239914,0.47849724842386687,-0.1940912158007895,0.1102613191764493,0.05177126525345447,1.454397854296679,-0.2806973700173205,0
230,2024-09-14 19:41:43.277354980,0,003,-0.10818339305802802,0.04639519889820626,0.505912609025648,-0.19899961133605942,0.03606886020945705,0.06349666610326901,1.2572126047317986,-0.22012558199049367,0
231,2024-09-14 19:41:44.224661133,0,003,-0.11960075970734302,0.05617390324674355,0.5138658049846597,-0.1988854658129041,-0.03956163188248747,0.07345592565281475,1.0599063822737351,-0.16039597599380076,0
232,2024-09-14 19:41:44.286217041,0,003,-0.13164158719936153,0.06513950667884148,0.503452908198217,-0.19311434981380443,-0.11409280536417792,0.08110111790874194,0.8674309790079215,-0.10325046959113898,0
233,2024-09-14 19:41:44.369510009,0,003,-0.1444199343893773,0.07306269427379701,0.476983655703697,-0.1815516707505878,-0.18510090993423678,0.08600097742397467,0.682829374651136,-0.05007621184522134,0
234,2024-09-14 19:41:44.425466064,0,003,-0.157948176448665,0.07971160731206373,0.4376460267884473,-0.16459986153061493,-0.2503729412560876,0.08786810408295494,0.5069724196963143,-0.0018405119988890565,0
235,2024-09-14 19:41:44.504257079,0,003,-0.17212547982996523,0.08486647407725964,0.3890286332367239,-0.14314418024327308,-0.30797518104836796,0.08657756706989815,0.3385867794361467,0.040917524590300125,0
236,2024-09-14 19:41:44.563718018,0,003,-0.18672347173984258,0.08833948540571122,0.33458909933168973,-0.11842593526361482,-0.3563157556633747,0.08217626306848695,0.174592964450202,0.07804747303784963,0
237,2024-09-14 19:41:44.625708008,0,003,-0.2013745120595369,0.08999604250484887,0.2772159332667372,-0.09188053321578744,-0.39419937419804846,0.07487917535697325,0.010766495953382792,0.10970650638802064,0
238,2024-09-14 19:41:45.582300049,0,003,-0.21556747108929497,0.08977106799481109,0.21893223589717137,-0.06496856855115771,-0.4208572716785611,0.06505011826022454,-0.15731163504054338,0.1362389068670621,0
239,2024-09-14 19:41:45.650131836,0,003,-0.22865642849162887,0.08767616875795081,0.16070250193286395,-0.03902081613479351,-0.43595363348919464,0.053170776369138965,-0.33320335694764586,0.1580375872094071,0
240,2024-09-14 19:41:45.705802979,0,003,-0.23988631837545382,0.0837983212210566,0.1023648882148943,-0.015119323645188277,-0.4395794879097541,0.039802601832711906,-0.5187474369726194,0.17542727758928,0
241,2024-09-14 19:41:45.785687012,0,003,-0.24844009052853552,0.07829305997763217,0.042774201399594834,0.005973131351410519,-0.432234616242813,0.025543341261750157,-0.7135779879956825,0.18859724314029783,0
242,2024-09-14 19:41:45.853419922,0,003,-0.2535103803484419,0.07137357699402452,-0.019859327272129166,0.0238458975433278,-0.41479792753237343,0.010983630058840921,-0.9150504435458456,0.1975877372734653,0
243,2024-09-14 19:41:45.920718018,0,003,-0.254386567550252,0.06329614531339636,-0.08760001975149191,0.03846006639461381,-0.38849269061551034,-0.003326520000887913,-1.1184825957655977,0.20232493504202087,0
244,2024-09-14 19:41:45.983632080,0,003,-0.2505358537929662,0.05434351246404842,-0.1625563617380964,0.050169196026744814,-0.3548449593924555,-0.016896888675837666,-1.3175991251489056,0.20269576966260436,0
245,2024-09-14 19:41:46.932004883,0,003,-0.24166178770245358,0.04480825599104798,-0.2468219491565677,0.05972553046818686,-0.31562258887721373,-0.02930704070016241,-1.505112201406932,0.1986457848469731,0
246,2024-09-14 19:41:46.996989990,0,003,-0.22774075696659185,0.03497724110153215,-0.342469301133194,0.06823231256900494,-0.27274323645431414,-0.04021465616419647,-1.673376562059055,0.19026942138491404,0
247,2024-09-14 19:41:47.059062012,0,003,-0.20904359064467748,0.025117907009347986,-0.4514182624040813,0.07701571602163154,-0.228152431339142,-0.04936473104965752,-1.8149898499329502,0.17785275036582546,0
248,2024-09-14 19:41:47.135402832,0,003,-0.18613907586442538,0.015466818052785377,-0.5750513243076129,0.08742811632525012,-0.18369323790846034,-0.05659770808818993,-1.923245682260804,0.16184918066445725,0
249,2024-09-14 19:41:47.197443115,0,003,-0.1598697849380015,0.006221139867082083,-0.7136019410305756,0.10062538289866058,-0.14100474754072578,-0.06185281213279575,-1.9925023427678423,0.1428099965518354,0
250,2024-09-14 19:41:47.271001953,0,003,-0.1312958745336774,-0.0024657828778477477,-0.8655421362990734,0.11737451590281649,-0.1014761002325017,-0.06516249756953932,-2.018547960587754,0.12130573436883425,0
251,2024-09-14 19:41:47.336721924,0,003,-0.10160726259177555,-0.010485126523417614,-1.027273095321354,0.13793633686165924,-0.066244831382515,-0.06663727864246304,-1.9989234327687144,0.09786223650986209,0
252,2024-09-14 19:41:48.281997070,0,003,-0.0720148644813225,-0.017772063982397616,-1.1932580140565692,0.162033174880911,-0.03620246022037464,-0.06644563973097588,-1.9331303267697308,0.07293240761676943,0
253,2024-09-14 19:41:48.346613037,0,003,-0.043646851185680985,-0.02430499928630144,-1.3564785046764365,0.18888237102771185,-0.011983396238153582,-0.06479551018418724,-1.8227073682578612,0.04691629521021635,0
254,2024-09-14 19:41:48.408642090,0,003,-0.017473271424738916,-0.03010213790023956,-1.5089860044760381,0.2172694069529147,0.0060647169447215574,-0.06192207727571322,-1.671184771113675,0.020207849175158787,0
255,2024-09-14 19:41:48.485398926,0,003,0.005731534916396729,-0.0352125643442046,-1.6423888254814176,0.2456434229760777,0.01792362618677396,-0.05808337258565314,-1.4839092591413297,-0.006771613602808814,0
256,2024-09-14 19:41:48.553187988,0,003,0.025386074147822853,-0.03970179391212322,-1.7482360579330734,0.2722288673638666,0.023942425800797845,-0.053559824839121216,-1.267728319502953,-0.033565863169967215,0
257,2024-09-14 19:41:48.609304932,0,003,0.04106753140819342,-0.0436353727605855,-1.8183649099617958,0.29515074731185426,0.02483893489176155,-0.04865040549516477,-1.0305463366749161,-0.05968768307456936,0
258,2024-09-14 19:41:48.686992920,0,003,0.05247395036692946,-0.04706652046918562,-1.8453513384195979,0.31257819721925084,0.02164491550813131,-0.04366057865070197,-0.7807865888354584,-0.08463238895419707,0
259,2024-09-14 19:41:49.606197998,0,003,0.05941171665734395,-0.05003211899827015,-1.823165335137952,0.3228970682343295,0.015604206939677182,-0.038883274764119735,-0.5268049964059743,-0.10791515298894135,0
260,2024-09-14 19:41:49.668582031,0,003,0.061818338720766225,-0.052556237259707386,-1.7479598816733157,0.32489905228904864,0.008046905879467093,-0.03457771675296885,-0.27633645183668143,-0.12912871106756113,0
261,2024-09-14 19:41:49.730648926,0,003,0.059811324353520816,-0.054657971641244446,-1.6187413069674812,0.3179345606635853,0.0002690623622953192,-0.0309521569260824,-0.036088033919011345,-0.1479963185908687,0
262,2024-09-14 19:41:49.810432861,0,003,0.053739525089171944,-0.05636157329816067,-1.437621543448108,0.30196619403401587,-0.006548424237504084,-0.028156842023510834,0.18845395585101413,-0.16440465185024056,0
263,2024-09-14 19:41:49.878220947,0,003,0.04420252358280132,-0.05770624112473014,-1.2095237509153827,0.27749900849047615,-0.01137096291976729,-0.026289070137974848,0.3930389977740639,-0.17842196258036538,0
264,2024-09-14 19:41:49.931022949,0,003,0.032016245900732536,-0.058751204315873426,-0.9415174369216758,0.2454273272784116,-0.013322678944093854,-0.02540349230218297,0.5745624626668023,-0.19030517674625017,0
265,2024-09-14 19:41:50.008243896,0,003,0.018140144743635404,-0.05957365221236594,-0.642111377256616,0.20687085734010274,-0.011724373200343235,-0.025517094063690744,0.7309035865794224,-0.20048372916962762,0
266,2024-09-14 19:41:50.957250977,0,003,0.003598976850145088,-0.060260991000467085,-0.32068964010692097,0.1630448779853097,-0.006168720728931566,-0.026603818254852717,0.860713027355303,-0.20950803087908582,0
267,2024-09-14 19:41:51.025101807,0,003,-0.010588828685614919,-0.06089985407046107,0.012948038083513807,0.11516273464535423,0.003398919549322387,-0.028581940315655332,0.9632245515426247,-0.21797585591326848,0
268,2024-09-14 19:41:51.087193848,0,003,-0.02348421731437569,-0.06156329042691576,0.3490443018940531,0.0643578065347235,0.01663778927570698,-0.03130189057433925,1.038184423152746,-0.2264686833516924,0
269,2024-09-14 19:41:51.149214111,0,003,-0.03430619606636345,-0.062297204229895355,0.6783703832896312,0.01162257044357256,0.03283158201863103,-0.03454329759936537,1.0859085075771862,-0.2355116303951594,0
270,2024-09-14 19:41:51.228418213,0,003,-0.04251346149410059,-0.06310586179800994,0.9926940666383991,-0.042236128760007756,0.05097334661824437,-0.03802790855501517,1.1073645693141738,-0.2455386656906515,0
271,2024-09-14 19:41:51.287422119,0,003,-0.0478760847953307,-0.06393716471809424,1.2851588127879112,-0.09662282799593028,0.06989928288671803,-0.04144852077068321,1.1041549064684018,-0.25683821124831935,0
272,2024-09-14 19:41:51.348998047,0,003,-0.05050469036499868,-0.06467466854374539,1.5505126674360667,-0.15114356890452033,0.08843510644902144,-0.044506324969556345,1.0783735213540824,-0.2694776195767393,0
273,2024-09-14 19:41:52.294908936,0,003,-0.05081384747955952,-0.06514421159899564,1.785144215427343,-0.20554001052187784,0.10551568434080354,-0.046946631319369256,1.032432938114316,-0.28323867051624313,0
274,2024-09-14 19:41:52.374989014,0,003,-0.049443166062937666,-0.06513219586738138,1.986928101142114,-0.2595711591598632,0.1202636295635545,-0.04858655663657004,0.9689718467286849,-0.29760753781371146,0
275,2024-09-14 19:41:52.434437012,0,003,-0.047181206822534426,-0.06440505325305582,2.15494448225156,-0.3128859144507129,0.13204136230550798,-0.049332917962104726,0.8908696108170081,-0.3118342520648923,0
276,2024-09-14 19:41:52.511120117,0,003,-0.04490683770384756,-0.06272541008238895,2.2891556666068418,-0.3649419075125168,0.14049887661774121,-0.04919177197683806,0.8013273018464508,-0.32504328624487744,0
277,2024-09-14 19:41:52.572753906,0,003,-0.04352543701402289,-0.059869288531713936,2.3901158370930515,-0.41499474578268003,0.14562439732091914,-0.048271684117868585,0.7039773892361765,-0.33637381426760515,0
278,2024-09-14 19:41:52.634833008,0,003,-0.04387320820228646,-0.05564984769349441,2.458795537984865,-0.46214530931111764,0.14777819363396938,-0.0467794707842056,0.6029618511673619,-0.3451283223090831,0
279,2024-09-14 19:41:52.715787842,0,003,-0.046590731122249256,-0.04994819371020305,2.4965515650829877,-0.5054159803316235,0.1476722617295054,-0.04500419897322672,0.5028606316758294,-0.3508908237897716,0
280,2024-09-14 19:41:53.632291016,0,003,-0.05199753668785732,-0.04274575578010494,2.5051427076133814,-0.5438207833925939,0.1462748241721207,-0.04328779436474559,0.4083870942186443,-0.35357537465897027,0
281,2024-09-14 19:41:53.693485107,0,003,-0.0600079663664475,-0.03414899097829718,2.486635350964454,-0.5764032733522175,0.14466212035723414,-0.041985321560892463,0.3238715771097709,-0.3533907233855535,0
282,2024-09-14 19:41:53.754586914,0,003,-0.07012096917753854,-0.024397504959096934,2.443169182651721,-0.6022430397678441,0.14386620684575405,-0.04142075470883427,0.25261896874733375,-0.3507327915689795,0
283,2024-09-14 19:41:53.835810791,0,003,-0.08150003877466139,-0.013851062708880632,2.3767284672656994,-0.6204555487792456,0.1447513558125654,-0.041845689053459985,0.19628942837494567,-0.3460422075587177,0
284,2024-09-14 19:41:53.903645996,0,003,-0.09312278708878917,-0.0029582232912979765,2.289075516730684,-0.6302124121545204,0.14792726955873536,-0.04340846684071134,0.15450826741771487,-0.33968024096351834,0
285,2024-09-14 19:41:53.971436035,0,003,-0.10393764786537714,0.007783310610271746,2.181842177723915,-0.6307932149424216,0.1537080727727941,-0.04613891277884799,0.12486950795852175,-0.3318643648130965,0
286,2024-09-14 19:41:54.039221924,0,003,-0.11296784142179717,0.017863207087709037,2.056639628027293,-0.6216604096698319,0.1621265599787418,-0.04995102564794251,0.10339375459172244,-0.322680335989045,0
287,2024-09-14 19:41:54.977125000,0,003,-0.11935775023014694,0.026788518553169337,1.9150868272802266,-0.6025416876523039,0.17298800166717154,-0.054661615533372364,0.0853825063286822,-0.3121643210062386,0
288,2024-09-14 19:41:55.039196045,0,003,-0.12240111249667994,0.03411262277346986,1.7588088408303655,-0.5735128473509639,0.1859280222076274,-0.060016334248537966,0.06644893259790803,-0.30041820596410207,0
289,2024-09-14 19:41:55.118270996,0,003,-0.12158012723895745,0.03946689288143537,1.5895217753763973,-0.5350774716593413,0.20045574682011882,-0.06571275288519317,0.04337384280999418,-0.2876965858800341,0
290,2024-09-14 19:41:55.185939941,0,003,-0.11660900210180905,0.042590441572487855,1.4092185062657323,-0.4882229338025536,0.21599198622806182,-0.0714179213377166,0.014472880645153681,-0.27440986222473396,0
291,2024-09-14 19:41:55.253873047,0,003,-0.10745550699462507,0.043349901188261,1.220346730109096,-0.43442178393992176,0.23191461062398747,-0.07678593993654781,-0.020613587458156717,-0.26103006993677175,0
292,2024-09-14 19:41:55.321679199,0,003,-0.09431693271862064,0.0417442951810866,1.0258851838207566,-0.3755707564554197,0.24760396951827301,-0.08147929309534221,-0.06150251417532481,-0.24794261368379777,0
293,2024-09-14 19:41:55.389482910,0,003,-0.07754903755992908,0.037893342404120935,0.8293150031191119,-0.3138936912766217,0.2624683891289065,-0.08519067498111264,-0.10764571148209084,-0.23531566043515276,0
294,2024-09-14 19:41:56.327207031,0,003,-0.057578453366351263,0.03201125145322948,0.6345265092399675,-0.25183943883753657,0.275937305555258,-0.08765940950805728,-0.1586021553598276,-0.22303956122095758,0
295,2024-09-14 19:41:56.394431885,0,003,-0.03484054331104476,0.024373714973282425,0.44568879868490907,-0.19197864479325646,0.2874333610668476,-0.08867932672345819,-0.21395693983503808,-0.2107497363667117,0
296,2024-09-14 19:41:56.467439941,0,003,-0.009758972376760202,0.01528706209494356,0.26707358877561904,-0.13687739022763457,0.29635126089735975,-0.08809851735661714,-0.2730666853418632,-0.19792023602257178,0
297,2024-09-14 19:41:56.530050049,0,003,0.017250981475186732,0.005062838161545452,0.10280584168222463,-0.08892918090352157,0.30205983087957883,-0.08581353417742954,-0.3348406327224201,-0.18400175888529038,0
298,2024-09-14 19:41:56.592087891,0,003,0.04577800518292533,-0.006002226072629408,-0.0434438695893806,-0.05015684095540475,0.30392458110456666,-0.08176196144090389,-0.39761908143922414,-0.1685643432704912,0
299,2024-09-14 19:41:56.669261963,0,003,0.07541056750411455,-0.017637775283614824,-0.16875817369580562,-0.022026015785237784,0.30134986184951074,-0.07591792243371026,-0.45912283147894734,-0.15139268157066046,0
300,2024-09-14 19:41:56.738890869,0,003,0.10572308309098798,-0.029599960539505924,-0.2712161749999781,-0.0053147946485609015,0.293847886765242,-0.06829428550360027,-0.5165206718575752,-0.13249627097657665,0
301,2024-09-14 19:41:57.677921143,0,003,0.1362557925678345,-0.041663868871049274,-0.3500862466543032,-5.7946531213447786e-05,0.28113034636707496,-0.05895184668435426,-0.5666943491809111,-0.11204775810122367,0
302,2024-09-14 19:41:57.749835938,0,003,0.16650741955012555,-0.053615618646066995,-0.40596651787598304,-0.005557814444259633,0.2631958550975262,-0.04801008710934858,-0.6066522527725906,-0.09030539829057384,0
303,2024-09-14 19:41:57.802885010,0,003,0.19595347192279916,-0.06524755446622889,-0.44079351569681896,-0.020451910693132475,0.2403751637023082,-0.03565158488295401,-0.6338991964615123,-0.06756990800398073,0
304,2024-09-14 19:41:57.880204834,0,003,0.22407724902744902,-0.07635456267858357,-0.457589504266111,-0.042840187027614586,0.21330718883513933,-0.02211679049025085,-0.6465802597603776,-0.04419594333815357,0
305,2024-09-14 19:41:57.942691162,0,003,0.25038753794893676,-0.08672950113236098,-0.459926277877223,-0.07047146116780086,0.1828528494120322,-0.00769225317493029,-0.6433950889462094,-0.02065087473323489,0
306,2024-09-14 19:41:58.020503905,0,003,0.27441563203444064,-0.09616053809428769,-0.45128469287166106,-0.10096254746879899,0.14998860245577145,0.007302863297881505,-0.6234402878042539,0.0024124565525967022,0
307,2024-09-14 19:41:58.082541992,0,003,0.29570388352786187,-0.10443503000988007,-0.43457573205682004,-0.1320016491988545,0.11572699796510252,0.022528129619349052,-0.5861193172502034,0.024114293392154595,0
308,2024-09-14 19:41:59.024322998,0,003,0.3137943083083122,-0.11135010043241923,-0.412006372311225,-0.16148922149569475,0.08108393919964788,0.03762926947600463,-0.5311562103306888,0.043369829009148084,0
309,2024-09-14 19:41:59.086704102,0,003,0.32822294880285985,-0.11672594769328577,-0.3852865703249107,-0.1875999460988907,0.04707743394245866,0.05224392464887195,-0.4586949322433858,0.05898229777522638,0
310,2024-09-14 19:41:59.168423828,0,003,0.33853489847548884,-0.12041890095676279,-0.35594847546037933,-0.20879707178595885,0.01472716915817874,0.06601015781952423,-0.3694580324802323,0.06979368054247466,0
311,2024-09-14 19:41:59.236232910,0,003,0.34432936832718525,-0.12233337061152276,-0.3254952766876844,-0.2238519316277516,-0.014965884737852656,0.07857941568173922,-0.2649481917656293,0.07486338801086291,0
312,2024-09-14 19:41:59.302921143,0,003,0.3453187646442633,-0.12243052766185654,-0.29534940330407766,-0.23188707175100676,-0.041058669121209555,0.08963237617993502,-0.14764790377355017,0.07363387240678498,0
313,2024-09-14 19:41:59.365407959,0,003,0.3413717973729196,-0.12072954641831213,-0.2668006522870184,-0.23241274492228053,-0.06271122055830608,0.09889590288120491,-0.02110481567221273,0.06603528674281381,0
314,2024-09-14 19:41:59.427488037,0,003,0.3325254891134028,-0.1172999682100206,-0.2410478293592837,-0.22532400554907098,-0.07923339073095897,0.10616098149644931,0.11019368328376922,0.052493821623402964,0
315,2024-09-14 19:42:00.356827881,0,003,0.31897255737735924,-0.11224852350451615,-0.21924962887467808,-0.21085885594644732,-0.09013948082397889,0.11130241144056478,0.24114947618015112,0.03384910192476998,0
316,2024-09-14 19:42:00.424667969,0,003,0.30103445612263424,-0.105704130563305,-0.202545195006277,-0.1895398314429163,-0.0952146065500678,0.11430047178354291,0.36651981352985613,0.011225826808708884,0
317,2024-09-14 19:42:00.492448975,0,003,0.2791248410435326,-0.0978030586468608,-0.19208144864636995,-0.16211956703634978,-0.09458617437812017,0.11526228984785679,0.4814616096425846,-0.014095198128909444,0
318,2024-09-14 19:42:00.560211914,0,003,0.25370942637776767,-0.08867738739391907,-0.18902678407656032,-0.12953459710625817,-0.0887833446670645,0.11443630851575386,0.5820668431109519,-0.04079019812322914,0
319,2024-09-14 19:42:00.627963135,0,003,0.22527180402368446,-0.07845048476339675,-0.1945228740008955,-0.092854999270886,-0.07876279205106532,0.11221145163317169,0.665708534335515,-0.06758222420677365,0
320,2024-09-14 19:42:00.682860107,0,003,0.19429232762318963,-0.06723906076705151,-0.20961539053750683,-0.05321782342908775,-0.06588698440037846,0.10909710938817262,0.7310382498483158,-0.0932896205354952,0
321,2024-09-14 19:42:00.763577881,0,003,0.16123968173501796,-0.055157385641882745,-0.23524229884065026,-0.011750706189964119,-0.05184948934669131,0.10568593913693056,0.7776837594123311,-0.11682744707244565,0
322,2024-09-14 19:42:01.695287109,0,003,0.12656876479060183,-0.04232102214211105,-0.272251246352182,0.03049087462782701,-0.03854122888933882,0.10260286991734527,0.8058231424661123,-0.1371854994900126,0
323,2024-09-14 19:42:01.763098877,0,003,0.09071998941785704,-0.028850732723344277,-0.32132700517627977,0.0725528929738359,-0.02786535011589735,0.10044508316000925,0.8157638712618821,-0.15341798369230938,0
324,2024-09-14 19:42:01.827922119,0,003,0.054122682673455116,-0.014877578849653223,-0.3827824175226402,0.11357637572904776,-0.02153658071086231,0.09972263309417109,0.8076461014779115,-0.16466781352606055,0
325,2024-09-14 19:42:01.890879883,0,003,0.017210022409902895,-0.0005502714684441754,-0.4562945788391007,0.1527638427234398,-0.020906609830741642,0.10081068967258006,0.7814000466693064,-0.17022278208197994,0
326,2024-09-14 19:42:01.953221191,0,003,-0.01955465896443568,0.013954955468039452,-0.5406711307643748,0.1893309843368764,-0.026839177785819405,0.10391935579276651,0.7369624264249596,-0.1695789483309465,0
327,2024-09-14 19:42:02.030867188,0,003,-0.055654005393999034,0.028426072040664826,-0.6336594120058654,0.22246295276699446,-0.03964204670837997,0.10908254056179295,0.6746129916606142,-0.16248592270072407,0
328,2024-09-14 19:42:02.093352051,0,003,-0.09050629648375744,0.042614705249345804,-0.7318358094582975,0.25129978256201435,-0.05905029709988091,0.11616524621402075,0.5952543175946194,-0.148960026248448,0
329,2024-09-14 19:42:03.054177979,0,003,-0.1234627841592594,0.0562444033730204,-0.8306838162183365,0.27496721272603436,-0.08424764426805814,0.12488522915722895,0.5004837728166781,-0.12926167257693144,0
330,2024-09-14 19:42:03.124885986,0,003,-0.15380747444794707,0.06902472888911988,-0.9249239312846294,0.292648300964404,-0.11391881214725304,0.13484313101254963,0.3924201225432711,-0.10384872258026855,0
331,2024-09-14 19:42:03.192665039,0,003,-0.1807752460177902,0.08067054543464117,-1.0090463080539778,0.30367560073797306,-0.1463373742743395,0.14555773744770847,0.2734270824408112,-0.07333170554968474,0
332,2024-09-14 19:42:03.255187988,0,003,-0.20360891945147308,0.09092672303210339,-1.0779335289322622,0.30762410809653973,-0.1794927030929932,0.1565045035713646,0.14594262804598607,-0.038452883547496895,0
333,2024-09-14 19:42:03.328207031,0,003,-0.22165058376655958,0.09959363295320106,-1.1274175503809971,0.30438816257591855,-0.21125447563993704,0.16715442241633785,0.01254693687927413,-9.721362546490072e-05,0
334,2024-09-14 19:42:03.396008057,0,003,-0.23443732814467969,0.106546613366011,-1.1546100207246532,0.2942216423113568,-0.23956937717112375,0.17701095924280713,-0.12370793454596082,0.040668990984193375,0
335,2024-09-14 19:42:03.463758057,0,003,-0.2417666065159126,0.1117454895642998,-1.1579538078390401,0.2777217292901315,-0.2626596773754464,0.1856418672601038,-0.258845899018584,0.08255564394411474,0
336,2024-09-14 19:42:04.406825928,0,003,-0.2437054774115351,0.1152307340258897,-1.1370854467051796,0.25575594869129514,-0.27916509085390195,0.19269941972356036,-0.38768903058154186,0.1240441438875833,0
337,2024-09-14 19:42:04.474664062,0,003,-0.24053992368560898,0.11710260157714387,-1.0926423374710814,0.22936246149530434,-0.28819551399954574,0.19792586491670042,-0.503976940502075,0.16344782826511575,0
338,2024-09-14 19:42:04.527204102,0,003,-0.23268674625548083,0.11748579712808573,-1.0260866436307445,0.19966255064693916,-0.289319471861246,0.2011489078325855,-0.6008118261059329,0.19902575728342192,0
339,2024-09-14 19:42:04.605343018,0,003,-0.22059910445393308,0.1164906273888848,-0.9395599518129399,0.16780389056891765,-0.28252415538469855,0.20227290723347674,-0.6711802809065156,0.22911273536025026,0
340,2024-09-14 19:42:04.677951904,0,003,-0.20469027152055422,0.11418341690611775,-0.8358044151352325,0.1349322691819975,-0.2681578730787868,0.20126743510261164,-0.7084425857138354,0.25223776652695745,0
341,2024-09-14 19:42:04.745738037,0,003,-0.18529133267529568,0.11057343613966349,-0.7181642066444108,0.10217272203214503,-0.24686272551838934,0.19815578181118493,-0.7068880902287777,0.26721895516004385,0
342,2024-09-14 19:42:04.807089111,0,003,-0.16264244760653288,0.10561528313117226,-0.5905526522040548,0.0705858308081917,-0.219514680268874,0.19300813513355236,-0.6624163425209031,0.27322246884641027,0
343,2024-09-14 19:42:05.731976074,0,003,-0.13690314265610048,0.0992204430254789,-0.45724564538389995,0.0410830354794659,-0.18717584039497343,0.18593968550692827,-0.5732132574807691,0.26978319140668683,0
344,2024-09-14 19:42:05.795592041,0,003,-0.10817168873059416,0.09127304084794546,-0.3225160286079549,0.014332555725787312,-0.15104585562114864,0.17710850891290927,-0.44022502523579804,0.2568088987445168,0
345,2024-09-14 19:42:05.867770996,0,003,-0.07651030608445299,0.08164865095690127,-0.19023638696859424,-0.00929791513187214,-0.11240141667678168,0.1667090120576779,-0.2673480190411935,0.23459293292240221,0
346,2024-09-14 19:42:05.928457031,0,003,-0.04197019434016956,0.07023583821328194,-0.06356201696731563,-0.029749251569381917,-0.07252704323868123,0.15496020943346178,-0.06140605640954214,0.2038459895851386,0
347,2024-09-14 19:42:05.990063964,0,003,-0.004618198979610068,0.05695886581604168,0.05521867880446369,-0.04724264727931814,-0.03264948693660854,0.1420911814324993,0.16799203258878379,0.16574315380026516,0
348,2024-09-14 19:42:06.067322021,0,003,0.035422735619077,0.0417991632895647,0.16460411759805577,-0.06222253606879361,0.006118976052368558,0.12832913654647263,0.40875546330550705,0.12195601712537223,0
349,2024-09-14 19:42:06.138951172,0,003,0.07792106006813222,0.024812406083054298,0.26360460675125047,-0.07527361127702202,0.042834833613526316,0.11389418556271386,0.6469323208977178,0.0746170770765673,0
350,2024-09-14 19:42:07.067570068,0,003,0.12248913751321243,0.006139001842549635,0.35142196230247735,-0.08702449365161415,0.07677240834211271,0.09899874976278726,0.8677303172060417,0.02618427297718082,0
351,2024-09-14 19:42:07.150000977,0,003,0.16854710919219087,-0.013990820355306346,0.42726210199579956,-0.09806027205758167,0.10745053074893993,0.08384572705372322,1.056792435758362,-0.020772283798504706,0
352,2024-09-14 19:42:07.217818115,0,003,0.2152974682227421,-0.03525526701480288,0.4903773121589141,-0.10886470342358974,0.13463291137116673,0.06862122083294668,1.2014107318527123,-0.06380208730002149,0
353,2024-09-14 19:42:07.285629150,0,003,0.2617242372925493,-0.057244374037572904,0.5402893386871012,-0.11979557742321573,0.1583174688385585,0.05348201621746174,1.291433020746312,-0.10077501494107331,0
354,2024-09-14 19:42:07.349502197,0,003,0.3066287837812709,-0.07947198308871169,0.577051953176572,-0.13107909877899526,0.1787208583762894,0.03854313466504353,1.319867162036424,-0.13003585963704886,0
355,2024-09-14 19:42:07.420698975,0,003,0.348690287696528,-0.10139591722233134,0.6014592411166226,-0.14281327026121898,0.19624602238635447,0.023873613102842757,1.2833021712504362,-0.15050707881208464,0
356,2024-09-14 19:42:07.483436035,0,003,0.38653605790001705,-0.12244349660872537,0.6151850663496563,-0.1549801397626582,0.21142311588932364,0.009504301440584558,1.1821588293220098,-0.16172646521218534,0
357,2024-09-14 19:42:08.424902100,0,003,0.418820676949113,-0.1420403182465875,0.6208149669710088,-0.16746034585882816,0.22482852841015583,-0.004556822795929589,1.0207177673000958,-0.16382763669720712,0
358,2024-09-14 19:42:08.486951904,0,003,0.4443056277576359,-0.1596387415392894,0.6217062913303765,-0.18004211043895524,0.23699385428346614,-0.018308675047821247,0.8069084638309914,-0.15749253991073556,0
359,2024-09-14 19:42:08.564766113,0,003,0.46192216458505375,-0.17474170390678648,0.6216952070450892,-0.19243249318181335,0.24831587456775048,-0.03174286727594153,0.5518209684568792,-0.14387959960642174,0
360,2024-09-14 19:42:08.637166016,0,003,0.4708184499483331,-0.18692232150880406,0.6247412072623428,-0.20428247955346904,0.2589735321777236,-0.04483076062682869,0.26891285951435145,-0.12451042309351454,0
361,2024-09-14 19:42:08.703947021,0,003,0.4704062845441339,-0.19584263939130278,0.63457378375704,-0.21522507856512113,0.2688576701030317,-0.057512297486199085,-0.026976619000740724,-0.10112453933040602,0
362,2024-09-14 19:42:08.765158936,0,003,0.46041125778239855,-0.2012702561917126,0.6543606083391638,-0.22491889717781824,0.27753398060559226,-0.06968865887111496,-0.32062639045583624,-0.07553122199683676,0
363,2024-09-14 19:42:08.827219971,0,003,0.4409179840438626,-0.20308769235041768,0.6863995474255175,-0.23308684295980733,0.2842701677420934,-0.08122102986288439,-0.5973628776313221,-0.049470592544174505,0
364,2024-09-14 19:42:09.781400879,0,003,0.41239840421802837,-0.2012922136342951,0.7318457318258327,-0.23954005994079536,0.2881383582190847,-0.09193705162435657,-0.8439005191876624,-0.024483407222430094,0
365,2024-09-14 19:42:09.843943115,0,003,0.3757067349034349,-0.195987519804807,0.7905232282134032,-0.2441879138944781,0.2881707871165786,-0.10164507786313189,-1.0490501196524933,-0.0017976003980282498,0
366,2024-09-14 19:42:09.906428955,0,003,0.33202956033487835,-0.18736900643914642,0.8608817726069982,-0.2470393758652049,0.28352999669177825,-0.11015307707487906,-1.204251800762717,0.01775048159130831,0
367,2024-09-14 19:42:09.983092041,0,003,0.2827988609332455,-0.17570479988356472,0.9400983622069047,-0.24819091771774068,0.2736489584682986,-0.11728443528011163,-1.3039213813233355,0.03374507858594465,0
368,2024-09-14 19:42:10.052632080,0,003,0.2295909797562175,-0.1613166907520886,1.02425613108609,-0.24779045404352665,0.25829981551314146,-0.12288272132876947,-1.3456220111096953,0.04617505921034415,0
369,2024-09-14 19:42:10.106699951,0,003,0.1740342336693431,-0.14456497998636048,1.1085335572921133,-0.24597799054165048,0.23757841571169508,-0.12680459188152793,-1.3301214355644317,0.055398971310482555,0
370,2024-09-14 19:42:10.188227051,0,003,0.11773784542954356,-0.1258386057378972,1.1874261201522405,-0.24282708141081744,0.21183437764278282,-0.12890860111356273,-1.2613820279468018,0.06210168094860737,0
371,2024-09-14 19:42:11.132420898,0,003,0.062238439418051295,-0.10554854925305968,1.2551357738940634,-0.2383331692546048,0.1815957898804622,-0.12905094708980278,-1.1463626194455894,0.06721020798391918,0
372,2024-09-14 19:42:11.200247070,0,003,0.008947871599665458,-0.08412018953973906,1.3062239719016355,-0.2324822547889216,0.14751924077684264,-0.12709508692441168,-0.9944464248900845,0.07173995084534662,0
373,2024-09-14 19:42:11.268083008,0,003,-0.04090393181060539,-0.061981769943375745,1.3364074376608908,-0.22537356308995193,0.11036582619741024,-0.12293391036485679,-0.8165449062050091,0.07660910480868882,0
374,2024-09-14 19:42:11.328967041,0,003,-0.08631783411120621,-0.03955009433046601,1.3432431199956503,-0.21732076530162064,0.07099095015541096,-0.11651734128799925,-0.6241240381091282,0.08249679379868537,0
375,2024-09-14 19:42:11.390095947,0,003,-0.12655366220850792,-0.01721596228035223,1.3265057334769512,-0.20886987924319145,0.03033847027803448,-0.10787735658461713,-0.42829263038139964,0.08977838396186341,0
376,2024-09-14 19:42:11.466842041,0,003,-0.16113978814783206,0.0046688499599264926,1.288134875269286,-0.2007178696093893,-0.010566723369055939,-0.09714352225887878,-0.2389606195555415,0.0985197588374258,0
377,2024-09-14 19:42:11.528446045,0,003,-0.18986437754857188,0.025799866062346417,1.2317074893621414,-0.19355610207579452,-0.050632389116945925,-0.08454459590883223,-0.06413944187843111,0.10850928797344175,0
378,2024-09-14 19:42:12.482409912,0,003,-0.21273535162207657,0.04591872088034373,1.1615950982307428,-0.18789894922234263,-0.08872011929326935,-0.07039727947711893,0.09048191080582169,0.11931979123786869,0
379,2024-09-14 19:42:12.536562012,0,003,-0.22990639739087707,0.06480215934465591,1.0821490754919074,-0.18397071705860224,-0.12367125655362567,-0.05508829728401534,0.22162655775687612,0.13039272455343054,0
380,2024-09-14 19:42:12.618093994,0,003,-0.24159794174034607,0.08224859642306911,0.9971708838367072,-0.1816810824483142,-0.15433577819976071,-0.039055406698657,0.3281909293144394,0.14113730122629986,0
381,2024-09-14 19:42:12.685854980,0,003,-0.2480511007668892,0.09807106773746868,0.909670945711642,-0.18065612845040288,-0.17960542586913356,-0.0227694067925472,0.4107087224908542,0.1510366426273466,0
382,2024-09-14 19:42:12.753672119,0,003,-0.24952695379919224,0.11209916293847018,0.8218180300393436,-0.1802842599243152,-0.19845355027401812,-0.006717144544784825,0.47065765889874145,0.15973873559849916,0
383,2024-09-14 19:42:12.821553955,0,003,-0.2463334370150656,0.12418573516524724,0.73502822096945,-0.17977432689757694,-0.20998687309515598,0.008616299557786311,0.5098482282021278,0.16710549067617944,0
384,2024-09-14 19:42:12.874749023,0,003,-0.23885031549204266,0.13421196355837675,0.6501234128760873,-0.17823040345405844,-0.21351037170783718,0.02276800259023199,0.530045217329933,0.17321482910287317,0
385,2024-09-14 19:42:13.828731934,0,003,-0.22753399551034534,0.14208767392681115,0.5674544824686489,-0.17472561646340895,-0.2085893780328601,0.03531738926979604,0.5327944042610483,0.1783310295180811,0
386,2024-09-14 19:42:13.901155029,0,003,-0.21290996458372385,0.14774984286243265,0.48697098875421624,-0.16836829980718554,-0.1950901701309125,0.04590199966000877,0.5193660501461671,0.18286185834434712,0
387,2024-09-14 19:42:13.968032959,0,003,-0.19557264601611893,0.15116458499074747,0.4083133583048568,-0.15838078950677692,-0.17320461642559198,0.05423071794611437,0.4907633950928384,0.187319601172518,0
388,2024-09-14 19:42:14.036700928,0,003,-0.17619510720258627,0.1523336820951214,0.33097472539172385,-0.14419332684605932,-0.14347779385715909,0.06009959380223215,0.44775366116457627,0.19229603389981612,0
389,2024-09-14 19:42:14.091094971,0,003,-0.15553187448820682,0.1513011757142972,0.25450196703107136,-0.1255145991057846,-0.10683939095346355,0.06340950882744711,0.3909055766492512,0.198439052580319,0
390,2024-09-14 19:42:14.168256104,0,003,-0.13440049546740346,0.1481550351654057,0.17867928465432284,-0.10234345493949765,-0.06461540432850797,0.0641788112626844,0.32070724954316626,0.20639738497446683,0
391,2024-09-14 19:42:14.239960938,0,003,-0.11363512435087217,0.1430218237412094,0.10363974737760356,-0.07492765139215553,-0.018490026919983825,0.06254533459504638,0.23783361268209838,0.2167115743929052,0
392,2024-09-14 19:42:15.157625977,0,003,-0.09400631873227412,0.13605443458031383,0.02984797343462975,-0.043697066029728615,0.02959304855075953,0.05875754792372499,0.14347022269916826,0.22967412251913027,0
393,2024-09-14 19:42:15.225550049,0,003,-0.0761126403277463,0.12741602965313614,-0.04205834089986204,-0.009192315055078044,0.07756714743784116,0.05315819682517765,0.03950126247645256,0.2452156273389483,0
394,2024-09-14 19:42:15.293330811,0,003,-0.06027675365847884,0.11726765670115528,-0.11149415203904936,0.02799179769801752,0.12338067009633966,0.04616402558033906,-0.07151203661128488,0.26285466231241167,0
395,2024-09-14 19:42:15.346684814,0,003,-0.04649076263392935,0.10576574582376794,-0.17809943399913514,0.06722653071949047,0.16511685916130112,0.03824296487317158,-0.18645132748797863,0.281697961357864,0
396,2024-09-14 19:42:15.424314941,0,003,-0.03442929564445382,0.0930674723033069,-0.24173548189461722,0.1078246614055161,0.20109384023428314,0.02988826944759328,-0.3017071118662944,0.3004618136066642,0
397,2024-09-14 19:42:15.496685059,0,003,-0.02351592592089434,0.07933772783717911,-0.3022360406471196,0.14898090205170464,0.2299466281542757,0.021590809604555783,-0.4131599460899455,0.3175164336142608,0
398,2024-09-14 19:42:15.563599121,0,003,-0.01302646709436116,0.064755993663499,-0.3590081605139771,0.18970174056123082,0.25068561192836986,0.01381446206701425,-0.5162072921765205,0.3309837615044414,0
399,2024-09-14 19:42:16.482691162,0,003,-0.002218011225625634,0.04952369908818288,-0.41072854146279664,0.2287624571902516,0.2627219805054577,0.006978390321438794,-0.6059951122568046,0.33891223493782663,0
400,2024-09-14 19:42:16.539802002,0,003,0.009543172741380803,0.03386759902736782,-0.4553183486925439,0.26472173298271,0.2658647207465837,0.0014435986051330161,-0.6778201655277187,0.3395026866169649,0
401,2024-09-14 19:42:16.617436035,0,003,0.022692223272060743,0.018033043378849388,-0.49017468862678926,0.2959876309924754,0.26031135266767635,-0.002501102552913195,-0.7274753003230678,0.3313116566068455,0
402,2024-09-14 19:42:16.678937012,0,003,0.037432980651781717,0.0022670093198551176,-0.512525737958115,0.3209032942862556,0.2466413446544232,-0.004653515563682783,-0.7514111590060012,0.3133799737501452,0
403,2024-09-14 19:42:16.753923828,0,003,0.05375408025077624,-0.013204174507082013,-0.5198164674657595,0.33783920299636777,0.22579054571380763,-0.004907835321725643,-0.7468428968736557,0.28529807182391664,0
404,2024-09-14 19:42:16.818205078,0,003,0.07147849687652533,-0.028197462568989917,-0.5100995880235426,0.3453106848989121,0.1989860451321264,-0.003255341280723837,-0.7119621782776551,0.24723984986197514,0
405,2024-09-14 19:42:16.889555908,0,003,0.09033048273539702,-0.042592192882974445,-0.4824071637404219,0.34213492298759524,0.16765258200239613,0.00022354229723826983,-0.6462053454629368,0.19997012594299138,0
406,2024-09-14 19:42:17.833209961,0,003,0.10999415494646297,-0.05634143543390603,-0.4370472645844946,0.3276044372360941,0.1333162168442496,0.005370121289388411,-0.5504041607834129,0.1448136765815452,0
407,2024-09-14 19:42:17.901037842,0,003,0.13014037894338237,-0.06947182400501592,-0.3757776719070926,0.30163126943949803,0.09751905946918846,0.011955356197216655,-0.4267575420444067,0.08358550702497809,0
408,2024-09-14 19:42:17.964645020,0,003,0.15042903850796857,-0.08207209078924588,-0.3018345203114891,0.26482631885276325,0.06175000436190719,0.019684344637414548,-0.2787123046774562,0.01849451061543826,0
409,2024-09-14 19:42:18.027534912,0,003,0.17051727213051954,-0.09427539550019619,-0.21978485766460765,0.2184978925072658,0.02739374924577358,0.028201357810931686,-0.11085742647557904,-0.047969101086925314,0
410,2024-09-14 19:42:18.104443115,0,003,0.19008440864295958,-0.10623982905831338,-0.13519427021275573,0.16457340842116824,-0.004308506690150931,0.037098696803969364,0.07111974926682786,-0.11315260130567806,0
411,2024-09-14 19:42:18.172236816,0,003,0.20884929941037064,-0.11812667692201437,-0.054224792138016675,0.10547441335154695,-0.03229776805820678,0.04593022474773396,0.2604421126560852,-0.17435308733023008,0
412,2024-09-14 19:42:18.227958008,0,003,0.22655619490329554,-0.1300754552693259,0.016668946505240242,0.043981429244786624,-0.05574083141733421,0.05423116161906626,0.449331727715521,-0.22891705256226977,0
413,2024-09-14 19:42:19.168441895,0,003,0.24293464133099338,-0.14217786500873267,0.07096326804453316,-0.016908819201746247,-0.07407908476698291,0.06154735451681042,0.6293061227611688,-0.27433347261813984,0
414,2024-09-14 19:42:19.250727051,0,003,0.2576569319454755,-0.15445344278674342,0.1024423766550549,-0.07416309101832981,-0.08707245712752106,0.06747300643072164,0.7917087619187031,-0.3083402766467943,0
415,2024-09-14 19:42:19.318553955,0,003,0.2703134178127955,-0.16682958649999247,0.10589664945535628,-0.12494329292631684,-0.0948144740109392,0.07168741396030989,0.9284061809555026,-0.3290656162269332,0
416,2024-09-14 19:42:19.386360840,0,003,0.28041561035611284,-0.1791307523096703,0.07797853320033478,-0.1668614124440649,-0.0977058398557875,0.07398013900593806,1.032563060596627,-0.33519858447758266,0
417,2024-09-14 19:42:19.454170898,0,003,0.28742649287636085,-0.19108143199852862,0.017803435988362988,-0.19819530577929018,-0.09640275187564838,0.07426222831183645,1.0993829673327205,-0.32615063524646953,0
418,2024-09-14 19:42:19.522000000,0,003,0.29080798775204214,-0.20232303251422126,-0.07299708424962867,-0.21800071056026588,-0.09175621825324468,0.07256663858735701,1.126648841935081,-0.3021594176793204,0
419,2024-09-14 19:42:19.589852051,0,003,0.2900721349056389,-0.21244090964027876,-0.19071967260816702,-0.22608926648469144,-0.08473698435707762,0.06903978033080431,1.1149213484585851,-0.2643013215193472,0
420,2024-09-14 19:42:20.533552002,0,003,0.2848247028044116,-0.22099602530095064,-0.33024975115262023,-0.22290263216622572,-0.07634549059754993,0.06392627858988746,1.06738541377424,-0.21441319453651803,0
421,2024-09-14 19:42:20.595915039,0,003,0.2747915838080232,-0.2275544255829805,-0.4856442317813111,-0.20935927047251332,-0.06753068443696135,0.05755198710135342,0.9894492748254758,-0.15495878901768897,0
422,2024-09-14 19:42:20.658402832,0,003,0.259824427205677,-0.23171006987909393,-0.6504681429506334,-0.1867412754028174,-0.059136906290207125,0.050307504470499864,0.8882246439533326,-0.08887709637984463,0
423,2024-09-14 19:42:20.737000000,0,003,0.23989617602909252,-0.23310295268430092,-0.8178919481972223,-0.15663447098391378,-0.05186835702228164,0.04262675736273062,0.7719637439607288,-0.01942223887406382,0
424,2024-09-14 19:42:20.804837891,0,003,0.21510284347770725,-0.23143709435206877,-0.9806980613332974,-0.12088832293458698,-0.04625294244833371,0.034955366048579864,0.649422504655874,0.050015583908829604,0
425,2024-09-14 19:42:20.872649902,0,003,0.1856775738485872,-0.22649919935173318,-1.1313819685636248,-0.08155463159526312,-0.04260858708930791,0.02771295663120275,0.5291022195028288,0.11611008358836042,0
426,2024-09-14 19:42:20.935704834,0,003,0.1520129668012308,-0.21817577165197652,-1.2624616510215068,-0.04078531305211787,-0.041029323377080984,0.021258546548992816,0.41848286611973545,0.1757962898429348,0
427,2024-09-14 19:42:21.874959961,0,003,0.11468082141206659,-0.2064666445991115,-1.366989430646277,-0.000695561708506155,-0.041394921913121864,0.015863631449871705,0.32346556270979054,0.22643824310394836,0
428,2024-09-14 19:42:21.950396973,0,003,0.07442872456928569,-0.19149232530097932,-1.4391661630206078,0.03678542941282825,-0.04339088755208153,0.011693563645814786,0.24810764362740673,0.2659624872640636,0
429,2024-09-14 19:42:22.014612793,0,003,0.032133620559854435,-0.17349143521879212,-1.4749362976799572,0.07004802963490306,-0.04653700753583238,0.008800104349842177,0.19456797459533914,0.2929574390730118,0
430,2024-09-14 19:42:22.076158936,0,003,-0.011284865650092792,-0.15280611587642795,-1.4724637077224638,0.09789270084625958,-0.050243136350234814,0.00712995928949001,0.16316222319840992,0.30672727370514213,0
431,2024-09-14 19:42:22.153745850,0,003,-0.05495650065430859,-0.129858385240759,-1.4323894312347707,0.11956561191584987,-0.053903203865710764,0.006549268014210305,0.1524608788664106,0.30730218844568546,0
432,2024-09-14 19:42:22.218297119,0,003,-0.0981130825518561,-0.10512520970193007,-1.3577591220054426,0.13474692721922032,-0.0570112092836379,0.006876689142466976,0.15939899608724784,0.2954235470261222,0
433,2024-09-14 19:42:22.289318115,0,003,-0.14008801034870508,-0.0791190837420469,-1.2535447029725764,0.14349629812939746,-0.05926693643288445,0.007915678037442682,0.17945763479747684,0.2725073264783408,0
434,2024-09-14 19:42:23.227462891,0,003,-0.18028776310146602,-0.05237537320315483,-1.1258278107976007,0.1461565147531982,-0.06064298371787385,0.009480640778074874,0.20703851603679133,0.24056941684568073,0
435,2024-09-14 19:42:23.299877930,0,003,-0.21816561848056573,-0.02544289883267153,-0.9808850905273983,0.1432405509830628,-0.0614007489890159,0.01141612343381425,0.23607061077494862,0.20209791026454021,0
436,2024-09-14 19:42:23.367675049,0,003,-0.2532141244960893,0.001127949562556614,-0.8244291059584359,0.13533700131611032,-0.06206083464861633,0.01360865913925249,0.26072568679041125,0.15987373180519218,0
437,2024-09-14 19:42:23.427858154,0,003,-0.28498191490879987,0.026803841965481426,-0.6611257666741159,0.12304464854558116,-0.06333798393365905,0.015989190163336865,0.2760569920900062,0.1167619814153604,0
438,2024-09-14 19:42:23.503277100,0,003,-0.3131082701838178,0.05109304429312096,-0.49442596810019185,0.10693760553066914,-0.06604062025804633,0.018524829087494765,0.2784558160814223,0.07550595719920011,0
439,2024-09-14 19:42:23.566361816,0,003,-0.33735973858799595,0.07357036888309797,-0.3267175312102766,0.08756616697657771,-0.07093426755815067,0.02120207454080928,0.26588660577050127,0.03854844193021313,0
440,2024-09-14 19:42:23.628354004,0,003,-0.35765676019057563,0.09389663254393994,-0.15969649697038454,0.06547845489121025,-0.07858482049973642,0.024004552786374124,0.23785359509725537,0.007897570653139447,0
441,2024-09-14 19:42:24.575359131,0,003,-0.37408726510820745,0.11183046819184742,0.005243427603295158,0.041233318841853654,-0.0892126534332342,0.02688813316548787,0.19508881818268334,-0.014946288439394119,0
442,2024-09-14 19:42:24.650012939,0,003,-0.3869057432855341,0.12723390915485203,0.16673043236531804,0.015394390635431559,-0.10259471313242749,0.029759979571579456,0.13904255652119046,-0.02899814770525754,0
443,2024-09-14 19:42:24.717842041,0,003,-0.3965123547909136,0.14007287182077288,0.3232220256402867,-0.011484504404505488,-0.11805081926022913,0.03247071212514175,0.07134151663591497,-0.03375854250211573,0
444,2024-09-14 19:42:24.785619141,0,003,-0.4034121920412181,0.1504125859077507,0.47286810120576883,-0.03887081085266358,-0.13453003507951783,0.034823034394330724,-0.006566670956959274,-0.029192372464855215,0
445,2024-09-14 19:42:24.853415039,0,003,-0.40816711068298445,0.15840845629795441,0.6134680106733316,-0.06624911889446088,-0.15077086792374153,0.036591477474180976,-0.0934309262477547,-0.015730540404570025,0
446,2024-09-14 19:42:24.916095947,0,003,-0.4113520429552328,0.1642924064692789,0.742559260490573,-0.0930925960086614,-0.16548060631668235,0.037546319345368374,-0.18792976866267466,0.005739166075077528,0
447,2024-09-14 19:42:24.978581787,0,003,-0.41351749590167836,0.16835468017663807,0.8576141678314761,-0.11882059982138309,-0.1774936421790014,0.03747971068466814,-0.2883472403357987,0.03393448588513241,0
448,2024-09-14 19:42:25.903393066,0,003,-0.4151580430302622,0.17092253634563045,0.9562634165798477,-0.14276773771286633,-0.18589755294639065,0.03623472928472153,-0.39241631198057325,0.06730435893032631,0
449,2024-09-14 19:42:25.975225830,0,003,-0.4166870600268902,0.17233623788839608,1.0364594538989023,-0.16418324174535048,-0.19012110882732963,0.033734088495811276,-0.49740803631150965,0.10418272723183715,0
450,2024-09-14 19:42:26.043040039,0,003,-0.41841141720035296,0.17292069458866413,1.096541435545106,-0.1822634063912205,-0.1899729300057377,0.029999934577891456,-0.600376327695366,0.14291457385103162,0
451,2024-09-14 19:42:26.110831055,0,003,-0.42050519269253644,0.17295498584360378,1.1352168487478416,-0.1962045561876636,-0.18562632360593687,0.025157073243485963,-0.6983783504961996,0.18191827210198117,0
452,2024-09-14 19:42:26.165674072,0,003,-0.4229995897054739,0.1726481085998226,1.1515151126323693,-0.20525796377505934,-0.17755557835607746,0.019418388513759117,-0.7885506739826379,0.21968557332951877,0
453,2024-09-14 19:42:26.246545166,0,003,-0.425801169325875,0.17212715141891635,1.1447778936933493,-0.20877980042915636,-0.1664333522564499,0.013056944558145654,-0.8681071644606156,0.2547536993317147,0
454,2024-09-14 19:42:26.304543945,0,003,-0.42872287015074867,0.17143560908591016,1.1147158606227792,-0.20628295788413167,-0.1530081948323123,0.006372201539994711,-0.9344292014861171,0.2856993664575049,0
455,2024-09-14 19:42:27.232274170,0,003,-0.4315038608431509,0.17053662613268644,1.061533323720073,-0.19749001707382036,-0.13798945888217462,-0.00034161436340262,-0.9852968119909717,0.31118127607282864,0
456,2024-09-14 19:42:27.294354004,0,003,-0.4338141917669193,0.16932120050280317,0.9861051591920308,-0.1823700274578731,-0.12195696333272953,-0.0068198067493610735,-1.0191324510966449,0.3300148244514871,0
457,2024-09-14 19:42:27.356360840,0,003,-0.4352633914740513,0.16762575245178887,0.8901439116175455,-0.16114459246237037,-0.10530151587480148,-0.012843076395399396,-1.035117678733085,0.3412510438088092,0
458,2024-09-14 19:42:27.433542969,0,003,-0.4354353681268293,0.16526091952961006,0.7762759455047367,-0.13427080907534708,-0.0882082862357946,-0.018245344308627363,-1.0331635024946826,0.34425063796487093,0
459,2024-09-14 19:42:27.503542969,0,003,-0.4339475121293956,0.1620464209687144,0.6479934659820675,-0.10242255133051384,-0.07069095426903593,-0.022915009557499835,-1.0138008419967484,0.3387477921930387,0
460,2024-09-14 19:42:27.571375977,0,003,-0.4305045876948789,0.15784161184441262,0.5094692459299046,-0.06647615979658773,-0.05265880154762708,-0.0267936275025938,-0.9780296722996016,0.3248829689631854,0
461,2024-09-14 19:42:27.639195068,0,003,-0.42492079440183855,0.15256335444386188,0.36519432529770013,-0.02747899706136681,-0.03398767626827399,-0.029875571727433662,-0.927112858770349,0.3031878664022595,0
462,2024-09-14 19:42:28.577744873,0,003,-0.4171084257648313,0.14619040866517835,0.2194667924785844,0.013419344961408704,-0.014578692008286214,-0.03220788257404034,-0.8623400642005085,0.2745303956946442,0
463,2024-09-14 19:42:28.650227051,0,003,-0.4070502594781406,0.13875949677309166,0.07593232755074783,0.05505556092786384,0.005599589637564523,-0.03388628930196028,-0.784856188132317,0.24003912622896784,0
464,2024-09-14 19:42:28.717997070,0,003,-0.3947766554419886,0.1303587648344718,-0.06258085007375298,0.09631554430589695,0.02648487054277768,-0.03504460728218715,-0.6956076454254906,0.20101961365229135,0
465,2024-09-14 19:42:28.778742920,0,003,-0.38036168361619793,0.1211211192359031,-0.19388650794127033,0.1361477247820292,0.047907184076373996,-0.035838551379598224,-0.5953700878600313,0.15887048346871122,0
466,2024-09-14 19:42:28.843265137,0,003,-0.36394023970951067,0.11121708938504721,-0.31608531340996726,0.17354214229860235,0.06958490674742625,-0.03642730722468125,-0.484846604819594,0.115012955285245,0
467,2024-09-14 19:42:28.918889160,0,003,-0.34573326262904297,0.10084648833801865,-0.4272248351525724,0.20750331198320038,0.09113125856597713,-0.03695589196016313,-0.3648941524243906,0.0708460767456899,0
468,2024-09-14 19:42:28.981375000,0,003,-0.32605837357788364,0.09022839355806113,-0.5250910407614381,0.23703922068558675,0.11207067260151828,-0.037540379871229775,-0.23688407335826345,0.027723863627080778,0
469,2024-09-14 19:42:29.917385986,0,003,-0.3053124635510463,0.07958958566366844,-0.6071363591093281,0.26117900954531914,0.13186094172448798,-0.03825688665225264,-0.1030929745466911,-0.013055619285985988,0
470,2024-09-14 19:42:30.000337891,0,003,-0.2839336616799233,0.0691528262016801,-0.6704907128822379,0.27901748664359677,0.14992142169838055,-0.0391348930451778,0.03301399608156564,-0.050248589914572386,0
471,2024-09-14 19:42:30.068142822,0,003,-0.2623598183661616,0.05912666099810784,-0.7120782336818965,0.28977827403500794,0.16567580630447584,-0.04015717581812926,0.16670590464048957,-0.08265176446093736,0
472,2024-09-14 19:42:30.135922852,0,003,-0.24099931364868804,0.0496983704465081,-0.728928999653761,0.2928904113821141,0.17861009463070884,-0.041268138392651324,0.29217436767934674,-0.10909700907277252,0
473,2024-09-14 19:42:30.199331055,0,003,-0.22022721972098336,0.04103219309195832,-0.7186483956538974,0.2880679142516064,0.18832936036738793,-0.042387661021810394,0.40302961748399335,-0.1284847780366955,0
474,2024-09-14 19:42:30.271375000,0,003,-0.20040914162692455,0.033273712845721705,-0.6798508414986109,0.27537199984391403,0.19459902960763206,-0.0434253709138165,0.4930594180256257,-0.13986704986344797,0
475,2024-09-14 19:42:30.332905029,0,003,-0.18193450219275642,0.026557173003828413,-0.6124276890303352,0.2552413958924387,0.19737117991049308,-0.04429343140145456,0.5570383015749178,-0.14255906254284353,0
476,2024-09-14 19:42:31.282537842,0,003,-0.16523405969849728,0.0210104746939573,-0.5176692696763956,0.22849199431273506,0.19679717864933022,-0.04491738834705272,0.5913144322986589,-0.13624571220936663,0
477,2024-09-14 19:42:31.340527100,0,003,-0.1507762638024998,0.01675628658597397,-0.3982652133110064,0.19628948574518645,0.19321910853037455,-0.045241826616739214,0.5940497247667382,-0.12105972148406487,0
478,2024-09-14 19:42:31.418168945,0,003,-0.13905172843231547,0.01391046255396281,-0.2581586562305919,0.16008989217675465,0.18713516154430443,-0.04522820279711732,0.5651841109344018,-0.09762333504076029,0
479,2024-09-14 19:42:31.485933105,0,003,-0.13054436219187493,0.012576829129946713,-0.10228380147132787,0.12154717541448316,0.17914583464229608,-0.044847709480063724,0.5062359184174581,-0.06703920350922073,0
480,2024-09-14 19:42:31.540477051,0,003,-0.12568284585935888,0.012837289490759674,0.06371054358208254,0.08240412479338369,0.16989086646153262,-0.0440744265479472,0.41997250780398265,-0.03080848033727523,0
481,2024-09-14 19:42:31.617149170,0,003,-0.1247812621631422,0.01473952678259775,0.23367452573519787,0.044389496622801304,0.15998438404125429,-0.04288171266353735,0.31000347236184095,0.009311275185249237,0
482,2024-09-14 19:42:31.678716064,0,003,-0.1279860335348246,0.01828486181094472,0.40114134700799886,0.009130958242588737,0.14995881253677884,-0.04124317864841734,0.18045707091255347,0.05145048525925386,0
483,2024-09-14 19:42:32.620014893,0,003,-0.13524286595114168,0.0234177071085313,0.5595995478662588,-0.02192542303264806,0.1402278728648912,-0.039138831801779995,0.035854302632360426,0.0937312251502457,0
484,2024-09-14 19:42:32.697239014,0,003,-0.1462963026724195,0.03002023521624262,0.7029075092241381,-0.04759840834014935,0.13107027822816822,-0.036564314903505334,-0.11888728786612793,0.13433532178441673,0
485,2024-09-14 19:42:32.768299072,0,003,-0.16072568928367928,0.03791585855929665,0.8257504841194669,-0.0670495070647336,0.12263121874057153,-0.03353887667279937,-0.27845726107246954,0.17155549324276625,0
486,2024-09-14 19:42:32.835663086,0,003,-0.17799986791721872,0.04687937378413862,0.923978183149183,-0.07983777468909725,0.11493832973507591,-0.030108859092637753,-0.43725822488491445,0.20384196651178635,0
487,2024-09-14 19:42:32.903875000,0,003,-0.19752502085077417,0.05664837281533331,0.994715544479926,-0.08593522124311946,0.10792415251565679,-0.026346409441351797,-0.589670372520754,0.22986258490236014,0
488,2024-09-14 19:42:32.971664062,0,003,-0.21867441787426106,0.06693348852857951,1.0362507946177197,-0.08569351187266633,0.10144774244057143,-0.02234520015242805,-0.7304482699159413,0.24858898716027558,0
489,2024-09-14 19:42:33.039535156,0,003,-0.24080041865705346,0.07742731614341115,1.047861120027216,-0.07977524678872885,0.095314752905887,-0.018215153058170112,-0.8551208439690217,0.25939391630165726,0
490,2024-09-14 19:42:33.978626953,0,003,-0.26323171306442616,0.08781191396989661,1.0297982551922948,-0.06908521875456451,0.08929088594087063,-0.014076139767751192,-0.9602657744450119,0.26212393959610614,0
491,2024-09-14 19:42:34.040697998,0,003,-0.28526644771813225,0.0977675392163317,0.9834599716211125,-0.054717183268697914,0.08310235475795069,-0.010049075281317524,-1.043618205205339,0.2571223222613021,0
492,2024-09-14 19:42:34.104885986,0,003,-0.306174872030673,0.10698738950901507,0.91152707561669,-0.037892548662682234,0.07644003765475883,-0.006245252150697745,-1.104071093723339,0.24520799413048122,0
493,2024-09-14 19:42:34.186209961,0,003,-0.3252110065865259,0.11519773154190621,0.8178811584252081,-0.01987336587933857,0.06899727817357566,-0.0027582304056122556,-1.141670253349416,0.22762860625563947,0
494,2024-09-14 19:42:34.242533936,0,003,-0.34162410356873807,0.12217555408800779,0.7073142117496476,-0.0018661591646096662,0.06054337976040143,0.0003383772766266112,-1.1576470009342004,0.20598744312447068,0
495,2024-09-14 19:42:34.321875000,0,003,-0.3546767593620404,0.12775694574645907,0.5851128600249453,0.01506256147561422,0.05100046420734048,0.002988119561388993,-1.1544221706429358,0.18213192971401398,0
496,2024-09-14 19:42:34.389694092,0,003,-0.36368917563085634,0.13183546941445154,0.4566018133152446,0.030054158743851665,0.04049010784598291,0.005147002213438488,-1.1354883715657238,0.1580065664357125,0
497,2024-09-14 19:42:35.332726074,0,003,-0.3681068071948822,0.13435264809500447,0.32676216135968317,0.04250973550852631,0.029336896513574538,0.006778703956179326,-1.1051433996094326,0.13549463261351283,0
498,2024-09-14 19:42:35.400592041,0,003,-0.3675578863602934,0.1352838916033463,0.1999996927345659,0.0521266676901835,0.0180337299392717,0.007850188408833073,-1.0680951867150816,0.11626921378901334,0
499,2024-09-14 19:42:35.468404053,0,003,-0.36187145835843837,0.1346249805928967,0.08001298999579978,0.05892152083760908,0.007182674604329187,0.008328923234956362,-1.0289591574397596,0.10164849364022618,0
500,2024-09-14 19:42:35.536189941,0,003,-0.351056019913202,0.13238285164715144,-0.030349995492351876,0.06324095355195561,-0.0025749793081426653,0.008183935191610408,-0.9917066549907078,0.09245060089647933,0
501,2024-09-14 19:42:35.590903076,0,003,-0.3352551714904122,0.12857063718611447,-0.12926811914314984,0.06575322212308819,-0.010629037707192993,0.0073915781661989316,-0.9591858790048772,0.08888096943325227,0
502,2024-09-14 19:42:35.668155029,0,003,-0.3146974327421945,0.12320597837245478,-0.21601893847301776,0.06738915388103268,-0.016456659696261686,0.005943099048424528,-0.9328275552552574,0.09050506854191005,0
503,2024-09-14 19:42:35.730209961,0,003,-0.2896606920613105,0.11631336559926356,-0.29077968759999123,0.0691965253943708,-0.01965438224539356,0.003849236516403685,-0.9125618118094339,0.0963267545082617,0
504,2024-09-14 19:42:36.651489990,0,003,-0.26046659497775954,0.10793144765706623,-0.3541752948974419,0.07212150165480993,-0.019959387758491775,0.0011412373891679737,-0.8968780674963573,0.10493595670160606,0
505,2024-09-14 19:42:36.713954834,0,003,-0.2275011983160463,0.09812492735538272,-0.40678155349160455,0.07678843776524824,-0.01728080573156597,-0.002127296030267078,-0.882956855878101,0.11466682908988089,0
506,2024-09-14 19:42:36.792620850,0,003,-0.19124803801483573,0.08699912319985256,-0.4487561541366653,0.0833438443042008,-0.011733289559222392,-0.005876005691933657,-0.8669309831227098,0.12374552739196984,0
507,2024-09-14 19:42:36.854463135,0,003,-0.1523178858609606,0.07471155367307614,-0.47961151360259696,0.0913848617571701,-0.0036446548155818436,-0.009996224965706842,-0.8444001592294663,0.13045276182609125,0
508,2024-09-14 19:42:36.928301025,0,003,-0.1114557517493061,0.061472565723213024,-0.49810785299536536,0.09997627113059647,0.006467354687304742,-0.014356826225108503,-0.8111646429937334,0.1333142524158529,0
509,2024-09-14 19:42:36.996104980,0,003,-0.06951437567879726,0.04753269203124936,-0.5023268005894839,0.10776718513233151,0.01792253070148757,-0.018813671747163137,-0.7639642633230689,0.13128516842703758,0
510,2024-09-14 19:42:37.063958984,0,003,-0.027406692028647702,0.033163138042812165,-0.489988795772224,0.11319941770408319,0.02989492258361662,-0.02321735392883431,-0.7010402370476616,0.12387747270353729,0
511,2024-09-14 19:42:37.970298096,0,003,0.013938112801605982,0.01863806647067679,-0.4589758145960907,0.11476236675392743,0.041442061029512436,-0.02742113426148192,-0.622472966270759,0.11120018686908155,0
512,2024-09-14 19:42:38.047530029,0,003,0.05360718026192698,0.004222528149441536,-0.40793415188088994,0.1112361890760093,0.05157905481915691,-0.031294215411184025,-0.5302999742192572,0.09391074816262404,0
513,2024-09-14 19:42:38.109590088,0,003,0.09074332560929682,-0.009836893855848844,-0.33678939208637115,0.10187581486705131,0.05940035250908616,-0.03474048744961058,-0.4283644311849486,0.0730913352976922,0
514,2024-09-14 19:42:38.186733887,0,003,0.1246049593581387,-0.023323812866633327,-0.24702845285047614,0.08650268655114585,0.06421571436711047,-0.03771728588879426,-0.32181419566238656,0.05007073839135062,0
515,2024-09-14 19:42:38.249218994,0,003,0.1546274719358929,-0.0360651966236215,-0.14170969926588425,0.06549402729130802,0.06565135287313915,-0.04024728275606516,-0.21629359271665896,0.026225274831638442,0
516,2024-09-14 19:42:38.322527832,0,003,0.18045283767092118,-0.04793814506557449,-0.025252411027485887,0.03969223972632542,0.06368333009484742,-0.04241776468709105,-0.11705567631203731,0.0028037452084615604,0
517,2024-09-14 19:42:38.390319092,0,003,0.20191893894866209,-0.05886530080334921,0.09691394755885868,0.01027498575473413,0.05860365930218424,-0.044365146884911014,-0.02825040871654693,-0.019193443398361244,0
518,2024-09-14 19:42:39.324444092,0,003,0.21902898605096865,-0.0688031706243968,0.2187453122046808,-0.02137996478672489,0.050942063448256844,-0.046249183836309625,0.04750632660329062,-0.03908375486744863,0
519,2024-09-14 19:42:39.385992920,0,003,0.23192233308722443,-0.07773081333784118,0.3339626558201858,-0.05381397181490806,0.0413702828184699,-0.04822534038106756,0.10932374147237041,-0.05653854095595581,0
520,2024-09-14 19:42:39.462688965,0,003,0.24085096797935307,-0.08564119166492172,0.43645383626176754,-0.08558190748415748,0.030609056295413817,-0.05042084813715064,0.15802931134004755,-0.07158847732880337,0
521,2024-09-14 19:42:39.535334961,0,003,0.24615629525137703,-0.09253347291605342,0.5207671639229393,-0.115329131956718,0.019346368082738537,-0.052915379689856344,0.1958996683077099,-0.08457829641663558,0
522,2024-09-14 19:42:39.600527100,0,003,0.24824121470401617,-0.09840568542384398,0.5826687470611384,-0.14187092846965893,0.008166511699427238,-0.055726194916294554,0.22604833560153859,-0.09605092545375246,0
523,2024-09-14 19:42:39.662561035,0,003,0.2475348201695845,-0.10324835828335326,0.6196588830524071,-0.1642889058043456,-0.0025094800672270405,-0.05879875053070869,0.2515822693502147,-0.10657596286593264,0
524,2024-09-14 19:42:39.725045898,0,003,0.2444560800034104,-0.10703970086113483,0.6313832809418323,-0.18203789186097077,-0.012461607720294216,-0.062006346147179175,0.274840866076975,-0.11658029829057377,0
525,2024-09-14 19:42:40.676906982,0,003,0.2393890065564141,-0.1097432409705229,0.6199016025909031,-0.19503303175596295,-0.0216726253856434,-0.06516373724652592,0.29698137310159106,-0.12624676146160568,0
526,2024-09-14 19:42:40.738657959,0,003,0.23266914961462784,-0.11130844885395139,0.5897085787048767,-0.2036733524165383,-0.030295071346191513,-0.06805285949450403,0.317949927126474,-0.13550997687001828,0
527,2024-09-14 19:42:40.815876953,0,003,0.22457273224655563,-0.11167440430228681,0.5473832254303439,-0.20877094749573083,-0.038603813887182814,-0.07044888611379188,0.33672632771314615,-0.1441274550223407,0
528,2024-09-14 19:42:40.885592041,0,003,0.21531166649524455,-0.11077758828744862,0.500846386617214,-0.21139087637198858,-0.04694998491326143,-0.0721368792689723,0.35170549846845756,-0.15177342844990754,0
529,2024-09-14 19:42:40.953343018,0,003,0.20503978160916125,-0.10856471076968946,0.45833787569687934,-0.21263904501549302,-0.055715542907726526,-0.0729212011978677,0.3610950792794001,-0.1581077447420298,0
530,2024-09-14 19:42:41.016304932,0,003,0.19385633024359472,-0.1050077447039176,0.4273156603261301,-0.21345145169059115,-0.0652670009568125,-0.07263536681199538,0.36324495707391513,-0.16280088759070807,0
531,2024-09-14 19:42:41.088943848,0,003,0.18178839902184407,-0.10011517275593818,0.41350394584492317,-0.21443473129017376,-0.0759162971011514,-0.07115525964047557,0.3568664610214118,-0.16552232782310303,0
532,2024-09-14 19:42:42.032176025,0,003,0.16876145684619287,-0.09393658039844067,0.4202357081262039,-0.21577864135330532,-0.08789060144907347,-0.06841254218265054,0.34113512759271625,-0.16591312141951434,0
533,2024-09-14 19:42:42.085437988,0,003,0.15458932448237125,-0.08656345713820279,0.44809930825403366,-0.21722987413513986,-0.10129951980624449,-0.064403671510423,0.3157437030324588,-0.1635759610520256,0
534,2024-09-14 19:42:42.162643066,0,003,0.13900155679815404,-0.07812902885253231,0.4948262646153545,-0.21811369729070654,-0.1161007049595771,-0.05919101462663735,0.2810185230977575,-0.15811823990703727,0
535,2024-09-14 19:42:42.223812988,0,003,0.12170301656960893,-0.0688058617386374,0.5553857499601659,-0.21740282534717656,-0.1320912225202302,-0.05289330174020977,0.23812902057385368,-0.1492550167341198,0
536,2024-09-14 19:42:42.301427002,0,003,0.10245215610836794,-0.05879902224841607,0.6223079603704684,-0.21383513643316562,-0.1489514042605011,-0.0456649709161359,0.18930283302779602,-0.1369351385194177,0
537,2024-09-14 19:42:42.371271973,0,003,0.08113964591916968,-0.048334879984598525,0.6862690229504657,-0.20607044000620856,-0.16634185646922942,-0.037668202665795826,0.13793561376158076,-0.1214341293954776,0
538,2024-09-14 19:42:42.424523193,0,003,0.05784885023764093,-0.03764850092824763,0.7369408519093258,-0.19286282219105683,-0.18402501450960704,-0.029044769262335957,0.08851542840136298,-0.10337291006943264,0
539,2024-09-14 19:42:43.382236084,0,003,0.03289618161340104,-0.026974651000720377,0.7640562941907606,-0.17322288644654626,-0.20196027338096245,-0.01989648818820949,0.046308378235814386,-0.08365408772256627,0
540,2024-09-14 19:42:43.439300049,0,003,0.006856799798049361,-0.01654490652973715,0.758556282454711,-0.14655712561732076,-0.22032422667576296,-0.010281883689620946,0.016816435692775276,-0.06334250942037545,0
541,2024-09-14 19:42:43.516419922,0,003,-0.01943850612678359,-0.0065862576828318005,0.7136184975230394,-0.11277751318624661,-0.2394469828095892,-0.0002297500036772091,0.005129099285745257,-0.0435392711471003,0
542,2024-09-14 19:42:43.578708984,0,003,-0.04495563911034085,0.0026853577364038526,0.6253886426720338,-0.07235937352641195,-0.2597016949037487,0.010238140011335497,0.015320160058921272,-0.025280899877103243,0
543,2024-09-14 19:42:43.639853027,0,003,-0.06854767643197612,0.011075469356930389,0.4933460480164347,-0.026323529109758503,-0.2813937126255925,0.021083754531168456,0.049935330299223805,-0.009450280536964168,0
544,2024-09-14 19:42:43.717499023,0,003,-0.08904813784655659,0.01841836735553473,0.3203435920150063,0.023851393287745257,-0.3046739163884589,0.03223235661958362,0.10954518533344694,0.0033194882446010146,0
545,2024-09-14 19:42:43.778580811,0,003,-0.10534897717037493,0.02457830867140212,0.11238891948707702,0.07635756070636374,-0.3294808797542277,0.04355598867169726,0.1924264478578958,0.012721209885219272,0
546,2024-09-14 19:42:44.708213135,0,003,-0.11647423530441223,0.029447801884063388,-0.12179401174115863,0.1292024804392652,-0.355505467507421,0.05486230529472254,0.29453556101916883,0.018786968501582145,0
547,2024-09-14 19:42:44.784979004,0,003,-0.12166025614577322,0.032946042462989135,-0.3713962369070761,0.18035146345887215,-0.3821693928160237,0.06588906282800995,0.4098482408297488,0.021846513933384375,0
548,2024-09-14 19:42:44.855078857,0,003,-0.12042961236254089,0.035017393323189955,-0.6242944728873733,0.22785079817913811,-0.4086197452218538,0.0763044113765542,0.5309449734607925,0.022478410506344203,0
549,2024-09-14 19:42:44.922610107,0,003,-0.11263576554370003,0.03562894077702065,-0.8678888591834464,0.2699223617384378,-0.4337505564384333,0.08571568071898046,0.649704637241868,0.02147291525263274,0
550,2024-09-14 19:42:44.990204102,0,003,-0.09847332105826911,0.034768090078263675,-1.0899448282799733,0.3050327575088756,-0.4562585045516415,0.09369005471402016,0.7581022786658347,0.019777737554655193,0
551,2024-09-14 19:42:45.057958008,0,003,-0.0784692220541557,0.03244324359272136,-1.2793511094506032,0.33193960824825797,-0.4747305587383987,0.09978664815394843,0.8490810719291064,0.018397531800101955,0
552,2024-09-14 19:42:45.125731934,0,003,-0.05346624652954959,0.028689791899635133,-1.4266644931998549,0.3497099289969537,-0.48775061455990376,0.10359454851148522,0.9173005048196416,0.018255229880110916,0
553,2024-09-14 19:42:46.072346924,0,003,-0.024589402518936113,0.02358016256521656,-1.5243716055202545,0.3577127364016088,-0.49400340088017347,0.10476959440249833,0.959582535543685,0.020051553684661206,0
554,2024-09-14 19:42:46.150289062,0,003,0.006819356551522726,0.01723419450606133,-1.5669534457736114,0.35560636718715705,-0.4923613040846041,0.10306486758455506,0.9750787622464684,0.024159511511030043,0
555,2024-09-14 19:42:46.205518066,0,003,0.03929681392406687,0.009826396479736736,-1.550950656559006,0.343350031028622,-0.4819551633252868,0.09835252320096846,0.9652370861950055,0.030573876494261167,0
556,2024-09-14 19:42:46.282248047,0,003,0.0713743185147943,0.0015870142121278273,-1.4751856554549772,0.32125679629700893,-0.462232300670559,0.09063478751269481,0.9335071077465166,0.0389230325967154,0
557,2024-09-14 19:42:46.344288086,0,003,0.10170324323160468,-0.007207112717302947,-1.3411094507487056,0.2900679714748499,-0.43300487513077623,0.08004311226524503,0.8846998303427551,0.0485455792992218,0
558,2024-09-14 19:42:46.421025146,0,003,0.129167741827282,-0.016253577558849326,-1.1530658009464259,0.25099503510880944,-0.3944979556054122,0.06682839637139736,0.8241369880973415,0.05861605634326905,0
559,2024-09-14 19:42:46.489373047,0,003,0.15295718356725574,-0.025252046991714683,-0.9182842867571004,0.2056875686742275,-0.3473955382016699,0.051346072672769166,0.7569039271197106,0.06828003391637759,0
560,2024-09-14 19:42:47.398954102,0,003,0.1725935457671195,-0.0339294083001791,-0.6465861439957172,0.15613172220694463,-0.2928572992579519,0.03403594443070363,0.6873964628348971,0.07676207999442708,0
561,2024-09-14 19:42:47.475353027,0,003,0.18792842224600198,-0.04205647597734991,-0.3498882809873585,0.10451109906561931,-0.23247944692082825,0.01539579003791692,0.6190910986633456,0.08343361433463782,0
562,2024-09-14 19:42:47.537802979,0,003,0.19911469308725027,-0.04945523148740366,-0.041560102547527754,0.05305881000184667,-0.16819992561925298,-0.004047675416892174,0.5544419327630107,0.08783351701079449,0
563,2024-09-14 19:42:47.599852051,0,003,0.20654931535344048,-0.05599839020662668,0.26432259199268254,0.003926749772238669,-0.10216679025748127,-0.023764786105891996,0.49498744122200056,0.08963103309781384,0
564,2024-09-14 19:42:47.677539062,0,003,0.21079791775608425,-0.06160485841878143,0.5537516558347699,-0.04090410203465144,-0.03659647388530038,-0.043242892165824484,0.4417328928304639,0.0885448951879408,0
565,2024-09-14 19:42:47.739139893,0,003,0.21252062781627842,-0.06623495117045776,0.8135369248915284,-0.07967701235146091,0.026347112096191415,-0.06199970249919994,0.3956555374754201,0.08425865421014356,0
566,2024-09-14 19:42:47.814376953,0,003,0.21240177934428203,-0.06988598308793119,1.0320142011082458,-0.11091221573215143,0.08463827332298404,-0.07959088626308364,0.3581246129661715,0.07635884275536738,0
567,2024-09-14 19:42:48.747908203,0,003,0.21107358921604044,-0.0725855879963335,1.1996869534856638,-0.13348445583107835,0.13645586926667336,-0.0956154435120418,0.3311342410418111,0.06430840607438211,0
568,2024-09-14 19:42:48.810251952,0,003,0.2090385732814303,-0.07438199209845062,1.3097711278651167,-0.14671282110827152,0.1802535949011349,-0.10972299355668871,0.31729365976343615,0.04748291609458665,0
569,2024-09-14 19:42:48.887939941,0,003,0.20661195912373354,-0.07533404885357443,1.3586113104664934,-0.15042824730142074,0.2148377393732844,-0.12162330011653041,0.3195414404906442,0.025289471727380667,0
570,2024-09-14 19:42:48.949515136,0,003,0.20390131818927998,-0.07550427316071903,1.3459307066535853,-0.1449912728483656,0.23943736048249287,-0.1310949379097964,0.34061482958974487,-0.0026620221356131028,0
571,2024-09-14 19:42:49.027622070,0,003,0.20082648386426666,-0.0749563657885939,1.2748601700230853,-0.13125149611000225,0.2537503051225649,-0.13799188714999483,0.3823474482302076,-0.03639503182441869,0
572,2024-09-14 19:42:49.088643066,0,003,0.1971722195722624,-0.07375671431529049,1.151710919790684,-0.11046038745761294,0.25795735068469544,-0.14224953131541418,0.44492931514779455,-0.07545382423120094,0
573,2024-09-14 19:42:49.164423096,0,003,0.19266457590681674,-0.07197872942912434,0.9855400685171757,-0.08416771295874949,0.2527018552565024,-0.1438890261249784,0.526383591199607,-0.11886970137580394,0
574,2024-09-14 19:42:50.082639893,0,003,0.18706462957437708,-0.0697094608380112,0.7875673618459852,-0.054124014760178064,0.23903285789596965,-0.14301676420683954,0.622493729974712,-0.1652216559637877,0
575,2024-09-14 19:42:50.150512939,0,003,0.1802671060632164,-0.067056701029598,0.5704062349215792,-0.0221793183800789,0.21831723864783414,-0.13982031000316208,0.7271746651114898,-0.21277467428206762,0
576,2024-09-14 19:42:50.218250000,0,003,0.17237660820053893,-0.0641520277710584,0.3470720376961352,0.009842182398304545,0.19213556203285667,-0.13456557759792287,0.8331256422900708,-0.2596572013166382,0
577,2024-09-14 19:42:50.286041016,0,003,0.1637312250851198,-0.06114502219843475,0.12987560319981073,0.04028972178182851,0.16217409516608008,-0.12759408064588523,0.9326804287066962,-0.3040547412259909,0
578,2024-09-14 19:42:50.341535156,0,003,0.1548652549166145,-0.058187803643877566,-0.07056073057014374,0.06782674614801264,0.13012111761102266,-0.1193130360381208,1.0188139047510676,-0.34440911954928555,0
579,2024-09-14 19:42:50.421665039,0,003,0.1464289794245336,-0.055413765204967394,-0.24596055485363527,0.09152485711467455,0.09757665235692439,-0.11017536151216761,1.0861029846244692,-0.3795885180765777,0
580,2024-09-14 19:42:50.481086914,0,003,0.13908820982296863,-0.05291617487302193,-0.3906868108767586,0.11089046391255923,0.06598417799062008,-0.10065511346316561,1.1313189010520257,-0.4089716444981679,0
581,2024-09-14 19:42:51.419585938,0,003,0.1334202339012668,-0.05073209219463881,-0.5017457412390212,0.1258346102992887,0.03658695306236307,-0.0912248003590123,1.1535100501810147,-0.43242581363292093,0
582,2024-09-14 19:42:51.496777100,0,003,0.12982128691878347,-0.04883608348245954,-0.5785822803092268,0.13660464390106827,0.01040519011672795,-0.0823350194179147,1.1537437898108382,-0.45021858777084384,0
583,2024-09-14 19:42:51.568387939,0,003,0.1284355231059517,-0.047144319937787074,-0.622749506897544,0.14368932943294702,-0.011771525651829437,-0.07439375381168097,1.1347426832750074,-0.46290914227555474,0
584,2024-09-14 19:42:51.636178955,0,003,0.129110079417324,-0.045525334017782776,-0.63750454132293,0.14770781624460821,-0.029382381866084165,-0.0677445379155436,1.1004956863707713,-0.47123408635491554,0
585,2024-09-14 19:42:51.703974854,0,003,0.13138548195501554,-0.04381456032295939,-0.627310187811328,0.14929438330519323,-0.04208968067748865,-0.06264591484502598,1.0558494719963187,-0.4759914910736914,0
586,2024-09-14 19:42:51.759282959,0,003,0.13453064327932712,-0.041832637991853376,-0.5972377837417858,0.1489912923950138,-0.049771712838849,-0.05925775591931508,1.0061125479962063,-0.47793158898220556,0
587,2024-09-14 19:42:51.836105957,0,003,0.13761977291617947,-0.039405661791681375,-0.5523687987981245,0.1471656951439842,-0.052514410410509534,-0.05763923634573286,0.9566617125015467,-0.47766441034658774,0
