,time,MARKER,pid,L_O_DSI,L_D_DSI,L_O_DSphi,L_D_DSphi,R_O_DSI,R_D_DSI,R_O_DSphi,R_D_DSphi,trial_id
0,2024-09-14 20:02:39.669373952,TASK_BEGIN,003,-0.1452158613346519,-0.05110588379549712,0.16704373644962053,-0.33559539980895514,-0.33382564362376843,0.18616495778893957,-2.3467720420770863,0.5336620054989739,3
1,2024-09-14 20:02:39.726689280,TASK_BEGIN,003,-0.24669524904849396,-0.021920189662404013,0.9572189902066981,-0.5298461333619411,-0.39478085094507454,0.2074330649392596,-2.7244598104152247,0.6178642194565663,3
2,2024-09-14 20:02:39.804956928,TASK_BEGIN,003,-0.3445923872535332,0.0062446296744575564,1.7221925841730266,-0.7188255075954614,-0.4554620671828234,0.22856301995060788,-3.0956180321164144,0.6994485078046042,3
3,2024-09-14 20:02:39.862233856,TASK_BEGIN,003,-0.43535477082619023,0.032399890826960084,2.442295119949638,-0.897514287844835,-0.5147284369888873,0.24929705594328957,-3.4524189331257142,0.7755595097542124,3
4,2024-09-14 20:02:39.940339968,TASK_BEGIN,003,-0.5159138717068894,0.055710557933402446,3.1017547135943935,-1.0619656683668046,-0.571375133801365,0.2693761853280909,-3.7885050281182466,0.8440458912242481,3
5,2024-09-14 20:02:40.857956096,TASK_BEGIN,003,-0.5838086658830767,0.07553575613150522,3.6896048463609876,-1.2095780177072506,-0.6241507631886807,0.2885395006181977,-4.099382780452012,0.9036359487183974,3
6,2024-09-14 20:02:40.914188032,TASK_BEGIN,003,-0.6372499544277905,0.09144529251391141,4.199841538274091,-1.339139344719942,-0.6717890970790118,0.30652474939996727,-4.382415329049031,0.9539577061975413,3
7,2024-09-14 20:02:40.993542912,TASK_BEGIN,003,-0.6751524201452692,0.10321658543069985,4.630991366484286,-1.4506801167054133,-0.7130561370113472,0.32307165240428387,-4.636551036313989,0.9954339546420998,3
8,2024-09-14 20:02:41.061259008,TASK_BEGIN,003,-0.6971368676995378,0.1108149786177268,4.9853444992928955,-1.5452082210976783,-0.7468104054421298,0.3379289328761162,-4.86205782417849,1.0291083836243837,3
9,2024-09-14 20:02:41.115027712,TASK_BEGIN,003,-0.7035012310938834,0.11436204334676245,5.268078716254892,-1.6244046069189984,-0.7720633808009119,0.35086566608726194,-5.060412411249917,1.0564545399881435,3
10,2024-09-14 20:02:41.192200960,TASK_BEGIN,003,-0.6951733388953049,0.11410100090601191,5.486449831857367,-1.6903375419870308,-0.7880217741960897,0.36168364725539165,-5.234214925499385,1.0791867757360358,3
11,2024-09-14 20:02:41.254200064,TASK_BEGIN,003,-0.6736577821354021,0.11036799448028839,5.649179585782399,-1.7452309193103241,-0.794103374364067,0.3702257809239666,-5.386915260279528,1.0990723587588858,3
12,2024-09-14 20:02:42.207954176,TASK_BEGIN,003,-0.6409657458906735,0.10356981519959833,5.766087700158794,-1.7913092025245851,-0.7899399720379027,0.37638113766340486,-5.522369635383397,1.1177548182886603,3
13,2024-09-14 20:02:42.275768064,TASK_BEGIN,003,-0.5995063633305592,0.09416329064578276,5.847868307233235,-1.8307130831997818,-0.7753982905292262,0.38009318817257676,-5.64446329577285,1.1366113374764497,3
14,2024-09-14 20:02:42.343514880,TASK_BEGIN,003,-0.551938473506558,0.08263480024207422,5.905782578935107,-1.8654378067235748,-0.7506416376022008,0.3813756914890914,-5.756960685060045,1.1566640549655502,3
15,2024-09-14 20:02:42.411281920,TASK_BEGIN,003,-0.501002982186323,0.06948231071996111,5.951085697025955,-1.8972439887473354,-0.7162174207092589,0.3803323590680409,-5.863527631002854,1.178556621029842,3
16,2024-09-14 20:02:42.476756224,TASK_BEGIN,003,-0.44935370938454416,0.05519996812455981,5.994225034702071,-1.9275344269583878,-0.6731174341438936,0.37716845894984047,-5.967745655934344,1.2025861998121126,3
17,2024-09-14 20:02:42.546953984,TASK_BEGIN,003,-0.3993951593657269,0.04026124583234748,6.04399949637111,-1.9572254852780993,-0.6227565399781668,0.37218197961680405,-6.072951811897936,1.2287515401539502,3
18,2024-09-14 20:02:42.599954176,TASK_BEGIN,003,-0.35314450130561786,0.02509938817836557,6.1068366920757615,-1.9866484253925958,-0.5668616826099754,0.3657329938308755,-6.1818616896433225,1.2567808307947386,3
19,2024-09-14 20:02:43.558012928,TASK_BEGIN,003,-0.3121487303637782,0.010090757560055364,6.186269998746689,-2.0155126472917844,-0.5073234131206111,0.35820540927437616,-6.296109600553857,1.2861433033076994,3
20,2024-09-14 20:02:43.620551936,TASK_BEGIN,003,-0.27747631155566543,-0.004452082982297088,6.282707987093326,-2.042959002325488,-0.44608457352033626,0.34998054566695996,-6.41594575429388,1.3160793728999405,3
21,2024-09-14 20:02:43.682615040,TASK_BEGIN,003,-0.2497717514876952,-0.018275993302966705,6.393604398259098,-2.0677178650267463,-0.38510726819109986,0.3414316237624227,-6.540275134865385,1.3456791214275619,3
22,2024-09-14 20:02:43.761295104,TASK_BEGIN,003,-0.22934061188006272,-0.031175301517023628,6.514013980385613,-2.0883476792409397,-0.3263986824029564,0.33293229338046076,-6.6670194723701846,1.3740051218337446,3
23,2024-09-14 20:02:43.820472832,TASK_BEGIN,003,-0.2162410499234704,-0.04297584359512918,6.637340862726905,-2.103487283383782,-0.2720341704616888,0.3248641766273072,-6.793568908433177,1.4002176318966872,3
24,2024-09-14 20:02:43.882951936,TASK_BEGIN,003,-0.21038369095843001,-0.05351451928957259,6.756085604015434,-2.1120587986346115,-0.2241214390707233,0.3176122583431585,-6.917083721868161,1.4236534901382003,3
25,2024-09-14 20:02:43.960197120,TASK_BEGIN,003,-0.2116395368249097,-0.06261461414572575,6.862560555430899,-2.1134030050309964,-0.18469882166470142,0.31154775892979725,-7.034635409665418,1.4438436986834997,3
26,2024-09-14 20:02:44.878200064,TASK_BEGIN,003,-0.2199248239981717,-0.07006320097646991,6.949600879368592,-2.1073538559356235,-0.15560829532807433,0.3070070570164778,-7.143371777673306,1.4604988311447002,3
27,2024-09-14 20:02:44.941054208,TASK_BEGIN,003,-0.23522961608885565,-0.07559896820751186,7.011162509019096,-2.0942426499167306,-0.13838249540908618,0.3042756349479084,-7.240854995846469,1.4735040993306823,3
28,2024-09-14 20:02:45.018754816,TASK_BEGIN,003,-0.25759462630626634,-0.07891491113022722,7.042640112676501,-2.074820129253393,-0.13415347796966476,0.3035805387410866,-7.325530265290355,1.482935678963438,3
29,2024-09-14 20:02:45.086516224,TASK_BEGIN,003,-0.2870668620868123,-0.07967545552597483,7.0409107658710495,-2.0501212102869886,-0.14357919658056295,0.3050902094993849,-7.397129612787987,1.4890866294524334,3
30,2024-09-14 20:02:45.153344000,TASK_BEGIN,003,-0.3236487327416652,-0.07754409300852619,7.00424986861298,-2.021317913711961,-0.16679062347099163,0.30891821837465405,-7.456834787297668,1.4925034763367004,3
31,2024-09-14 20:02:45.222040832,TASK_BEGIN,003,-0.3672278500851208,-0.07221638653438908,6.932217913709232,-1.9895862627753687,-0.2033653227664211,0.31512681985003693,-7.507140382069559,1.4940259160244933,3
32,2024-09-14 20:02:45.289361152,TASK_BEGIN,003,-0.4174840334605412,-0.06345399111269284,6.825571662104371,-1.9560007759419626,-0.252333551092471,0.3237265131189103,-7.5514215501006765,1.4947742840392588,3
33,2024-09-14 20:02:46.233107200,TASK_BEGIN,003,-0.47380385542577075,-0.051116090086195706,6.686259494657089,-1.9214752005973967,-0.31222172270055565,0.3346682255767388,-7.593264932653903,1.4960259369867905,3
34,2024-09-14 20:02:46.300949248,TASK_BEGIN,003,-0.535237879161983,-0.03518485156899503,6.517466038438821,-1.8867456506753424,-0.38112940950729757,0.34782775562695617,-7.635746830801665,1.4990009945844411,3
35,2024-09-14 20:02:46.364698880,TASK_BEGIN,003,-0.6005101984565705,-0.01578238995391016,6.323554188878791,-1.8523577031508105,-0.45682559733840017,0.3629870933306816,-7.680917177725581,1.5046578509206459,3
36,2024-09-14 20:02:46.427686912,TASK_BEGIN,003,-0.6680752264751236,0.00682259049954861,6.109825373524594,-1.818631144038189,-0.5368503583232748,0.3798195702009891,-7.729639218681341,1.513587419104663,3
37,2024-09-14 20:02:46.504293888,TASK_BEGIN,003,-0.7362189625787063,0.0322211793196982,5.882193776071517,-1.785626012666739,-0.6186234170319639,0.3978861772601445,-7.781712343009421,1.5260032823728293,3
38,2024-09-14 20:02:46.572083968,TASK_BEGIN,003,-0.8031929943609395,0.05988546880162082,5.646894097048255,-1.7531578975686022,-0.6995739513461333,0.41664944007903504,-7.836048932667894,1.5417494222506478,3
39,2024-09-14 20:02:46.639855104,TASK_BEGIN,003,-0.8673485567908191,0.0892014109863356,5.410260411841624,-1.7208899863080613,-0.7772933687264295,0.43550442428785313,-7.890726965390992,1.560266834758502,3
40,2024-09-14 20:02:47.583211008,TASK_BEGIN,003,-0.9272380390785104,0.11950606505120019,5.178601447569889,-1.688492256244848,-0.8496825825285456,0.4538176618600758,-7.942951793418767,1.5805485682052933,3
41,2024-09-14 20:02:47.650204928,TASK_BEGIN,003,-0.9816764178654366,0.15012252792235942,4.958176166693436,-1.6558199821142026,-0.9150552813969588,0.47096503456200933,-7.989080430166786,1.6011598347165605,3
42,2024-09-14 20:02:47.718816256,TASK_BEGIN,003,-1.029772929534112,0.18038869783278372,4.75519820394224,-1.6230476483212777,-0.9721853613244551,0.4863667382599391,-8.024804415075902,1.6203567254661597,3
43,2024-09-14 20:02:47.786565888,TASK_BEGIN,003,-1.07093870270089,0.20967794601221895,4.575790883119524,-1.5907238125834686,-1.0203159078850368,0.49952027802783966,-8.045524533831678,1.6362756392851183,3
44,2024-09-14 20:02:47.853961984,TASK_BEGIN,003,-1.1048639949864278,0.23741066344232137,4.42581419587255,-1.5597462845130692,-1.0591455218830796,0.5100299269425476,-8.046907005583263,1.6471499183815792,3
45,2024-09-14 20:02:47.921852928,TASK_BEGIN,003,-1.131458900140272,0.26305729324424726,4.310445196692477,-1.5312562745651221,-1.0887860281996957,0.5176271359693413,-8.025476925928169,1.6515126747782747,3
46,2024-09-14 20:02:47.989947136,TASK_BEGIN,003,-1.1507636669701844,0.28613480449420037,4.233506993448314,-1.50645938717312,-1.1096726135289308,0.5221736709150638,-7.978955345227934,1.648334512718468,3
47,2024-09-14 20:02:48.927800064,TASK_BEGIN,003,-1.1628483183687213,0.3061993526837218,4.196777052088605,-1.4864260922259744,-1.1224245095760896,0.5236441388915366,-7.9061293913473,1.6370561456948822,3
48,2024-09-14 20:02:48.989412096,TASK_BEGIN,003,-1.1677316942376212,0.32284038368392,4.199564333513293,-1.4719423961639828,-1.127690308170127,0.5220958533357217,-7.806427360038797,1.6175335940249957,3
49,2024-09-14 20:02:49.068944896,TASK_BEGIN,003,-1.1653466097214382,0.33568228834715785,4.238691046429855,-1.4634418283472355,-1.1260250776254799,0.5176392859747369,-7.679658028016093,1.5899634100233202,3
50,2024-09-14 20:02:49.128568064,TASK_BEGIN,003,-1.155560186417623,0.3443963843371755,4.3088356631664055,-1.4610017957359893,-1.1178281435850284,0.5104185810520646,-7.52616854350526,1.5548369193898497,3
51,2024-09-14 20:02:49.190531072,TASK_BEGIN,003,-1.13824356973184,0.3487231509005843,4.403062943891837,-1.4643659751613347,-1.1033523645646817,0.500606267462458,-7.347229812359337,1.5129146210981075,3
52,2024-09-14 20:02:49.272318208,TASK_BEGIN,003,-1.1133696877947434,0.3485017812701883,4.513355304494318,-1.4729647328838207,-1.082783429322529,0.4884108744564724,-7.145329714030701,1.4651886048184681,3
53,2024-09-14 20:02:49.340081152,TASK_BEGIN,003,-1.081100145722945,0.34369869547686366,4.631130579910265,-1.4859463001068693,-1.0563621174289246,0.4740890252646238,-6.924291082345677,1.412826731253108,3
54,2024-09-14 20:02:50.275659264,TASK_BEGIN,003,-1.041832084432041,0.33442576659920153,4.74785697295178,-1.5022569065243807,-1.024496414254024,0.4579502290422318,-6.6893061147768105,1.3571205100125248,3
55,2024-09-14 20:02:50.337965056,TASK_BEGIN,003,-0.996209047637687,0.32094582341859573,4.855735849626953,-1.5207691996024912,-0.9878147698323554,0.44034806327101744,-6.446895457862716,1.2994548176298462,3
56,2024-09-14 20:02:50.418942976,TASK_BEGIN,003,-0.9451091243770037,0.303667152177305,4.948255045503731,-1.5404030778595712,-0.9471435900353734,0.42166022954804555,-6.204684909815588,1.241291889801093,3
57,2024-09-14 20:02:50.476793088,TASK_BEGIN,003,-0.8896102207965885,0.2831259733058791,5.020481006488491,-1.5601936249438546,-0.9034240427886129,0.4022638981086044,-5.970951264394256,1.184148207142701,3
58,2024-09-14 20:02:50.538944000,TASK_BEGIN,003,-0.8309372997734848,0.2599559325798325,5.069101998586711,-1.5793153518314298,-0.8576007704892653,0.38251235549229196,-5.7540324206978015,1.1295547317163108,3
59,2024-09-14 20:02:50.622121984,TASK_BEGIN,003,-0.7704066669572619,0.23484925154866257,5.092318108950586,-1.5970953997051986,-0.8105181803443651,0.36271761323789187,-5.561732680514505,1.0790026257670244,3
60,2024-09-14 20:02:50.689934080,TASK_BEGIN,003,-0.7093705374339773,0.2085171842766655,5.089751821735681,-1.6130336709045772,-0.7628530153861083,0.3431412291704598,-5.400803068254321,1.0338789456865753,3
61,2024-09-14 20:02:51.603400960,TASK_BEGIN,003,-0.6491582704750012,0.1816558661913217,5.062519868974439,-1.6268284628148155,-0.7151013174813966,0.32399458686820315,-5.276590945028332,0.9954125641614454,3
62,2024-09-14 20:02:51.675599104,TASK_BEGIN,003,-0.5910212515005768,0.1549206021277835,5.013383332129443,-1.6383940554790177,-0.6676243762680524,0.30545043075646944,-5.192943708857082,0.9646544637813358,3
63,2024-09-14 20:02:51.743372032,TASK_BEGIN,003,-0.536087557056502,0.12890787492383401,4.94673294466817,-1.6478582528489827,-0.620735951784841,0.2876622774573226,-5.152278785890476,0.9424741742740501,3
64,2024-09-14 20:02:51.803345920,TASK_BEGIN,003,-0.4853210773203874,0.10414189142012172,4.868266095907482,-1.655540257804384,-0.5747917162720627,0.27078017263284415,-5.155643114147692,0.9295292146487786,3
65,2024-09-14 20:02:51.878941184,TASK_BEGIN,003,-0.4394808863026824,0.08106336300630423,4.784406667818903,-1.6619073215342204,-0.5302448769113194,0.25495380867077844,-5.202731201774075,0.9262067290157724,3
66,2024-09-14 20:02:51.946672896,TASK_BEGIN,003,-0.39908831678772094,0.060020759219494624,4.701611313891274,-1.6674965871502694,-0.4876569780716714,0.24032553882428734,-5.291873978069352,0.9325657901480084,3
67,2024-09-14 20:02:52.004448000,TASK_BEGIN,003,-0.3644149401252925,0.04126530848762672,4.625678455931176,-1.672796580118791,-0.4476715175849012,0.22702054508623704,-5.419880742439347,0.9482744676981288,3
68,2024-09-14 20:02:52.951868928,TASK_BEGIN,003,-0.33549870836124174,0.024949708522607524,4.56108231931223,-1.6781026556987084,-0.41096344366228404,0.2151376101798779,-5.581679962484516,0.9725189001497637,3
69,2024-09-14 20:02:53.026030080,TASK_BEGIN,003,-0.3121827903078613,0.011129470783643888,4.5103117317377315,-1.6833763478244237,-0.37818504578840245,0.20474290140334123,-5.769950928678586,1.0039127758900264,3
70,2024-09-14 20:02:53.093747968,TASK_BEGIN,003,-0.29415779805506165,-0.00023323718565208503,4.47331507192805,-1.6881581828577155,-0.34992722475877397,0.1958698839554981,-5.975028931014607,1.040481430214464,3
71,2024-09-14 20:02:53.161530112,TASK_BEGIN,003,-0.28098726884103437,-0.009262562645994853,4.447319677812091,-1.691587446052523,-0.326690803510209,0.18852305339706654,-6.185250784350703,1.0797672110367136,3
72,2024-09-14 20:02:53.213830144,TASK_BEGIN,003,-0.2721195047483413,-0.01615833250653871,4.427230426225111,-1.692537869313866,-0.3088532655250598,0.18267986527107147,-6.387744732252528,1.1190396627564736,3
73,2024-09-14 20:02:53.297040128,TASK_BEGIN,003,-0.2669106315265855,-0.02118100398697876,4.406518968583364,-1.6898177265313796,-0.2966438503837445,0.178292629913699,-6.569528107658221,1.1555603815073432,3
74,2024-09-14 20:02:53.364768000,TASK_BEGIN,003,-0.26467274237286254,-0.024630681796216337,4.378331878878844,-1.6823719521812261,-0.2901492135137338,0.17529667400238771,-6.718668913398627,1.1868492770611794,3
75,2024-09-14 20:02:54.308590848,TASK_BEGIN,003,-0.264734333166513,-0.026819748131539197,4.336581886953489,-1.6694517121656487,-0.2893390679969103,0.17362254906279573,-6.8252566217034385,1.2109032480782251,3
76,2024-09-14 20:02:54.367312896,TASK_BEGIN,003,-0.2664946684058578,-0.028041558909699834,4.2768126804164615,-1.6507248529147602,-0.29408416630722667,0.17320327209356767,-6.88207191240161,1.2263347867209784,3
77,2024-09-14 20:02:54.441839872,TASK_BEGIN,003,-0.26946581891964183,-0.028540793661419563,4.196654542298566,-1.6263025651465788,-0.30415610985407127,0.1739727716785922,-6.885031162706732,1.2324280176061577,3
78,2024-09-14 20:02:54.503232000,TASK_BEGIN,003,-0.27329688546974773,-0.028492625996275008,4.0958651439612686,-1.5966958204192112,-0.31921246180520035,0.1758579204882799,-6.833495162417887,1.2291293976595277,3
79,2024-09-14 20:02:54.565244928,TASK_BEGIN,003,-0.277769953166003,-0.02799613071106218,3.976097998014517,-1.5627501605519694,-0.3387801334576234,0.1787680525379181,-6.7303850532132605,1.2169874992572736,3
80,2024-09-14 20:02:54.647620864,TASK_BEGIN,003,-0.28277089552165524,-0.027082387527527625,3.840515841637463,-1.5255844807139292,-0.36225681174913377,0.18258768946893,-6.581976773228134,1.197047001951028,3
81,2024-09-14 20:02:54.710002944,TASK_BEGIN,003,-0.2882542003569029,-0.025733146641465924,3.6933465827869547,-1.486520072289156,-0.388934215964575,0.18717803177245754,-6.397338203259446,1.1707035991481194,3
82,2024-09-14 20:02:55.633657088,TASK_BEGIN,003,-0.2942131791717845,-0.02390465064367974,3.5395159913830305,-1.4469955434864303,-0.41803358770456817,0.1923870303621269,-6.187489707509231,1.1395385740543797,3
83,2024-09-14 20:02:55.693058048,TASK_BEGIN,003,-0.30064902720683107,-0.021552161554485142,3.3844122551985807,-1.4084913505162393,-0.44875391966088146,0.19806167442164554,-5.964427073821297,1.1051651952095807,3
84,2024-09-14 20:02:55.754247680,TASK_BEGIN,003,-0.3075305608429425,-0.018651463739051546,3.2336989570602888,-1.3724811917415183,-0.48032688887896063,0.2040557056213759,-5.74019856683052,1.069123210660397,3
85,2024-09-14 20:02:55.837069056,TASK_BEGIN,003,-0.3147541925441578,-0.015212999123852284,3.093124938456507,-1.340404073483999,-0.5120499642475921,0.21023221979454149,-5.526222069025214,1.0328401674293977,3
86,2024-09-14 20:02:55.893062912,TASK_BEGIN,003,-0.3221289450674329,-0.011284596872505973,2.968392401029206,-1.3136350592103014,-0.5432851351883768,0.21646798504533515,-5.332885017204007,0.9976504771664114,3
87,2024-09-14 20:02:55.972678912,TASK_BEGIN,003,-0.3294012266524657,-0.0069438122395917455,2.8650924942947267,-1.293427494449064,-0.5734490017239734,0.22266605888742422,-5.169328923752631,0.9648525507236527,3
88,2024-09-14 20:02:56.040465152,TASK_BEGIN,003,-0.33630984002050296,-0.0022863378012506408,2.7886009126339157,-1.2808191276183767,-0.6020190014549018,0.22877447574108054,-5.0432884630219394,0.9357765125186448,3
89,2024-09-14 20:02:56.971321088,TASK_BEGIN,003,-0.34264875729839894,0.002585027930132177,2.7438402200358674,-1.276525883604611,-0.6285535028061234,0.23480104501666407,-4.960847545262553,0.9118096366282795,3
90,2024-09-14 20:02:57.049427968,TASK_BEGIN,003,-0.348312593161321,0.007570715782497635,2.7348780332390055,-1.2808519255393538,-0.6527149444999216,0.24081476595900914,-4.926029316646045,0.894327278949249,3
91,2024-09-14 20:02:57.111438080,TASK_BEGIN,003,-0.3533053797669772,0.012584118241905714,2.7643616735516834,-1.2936283919074993,-0.6742892360360251,0.24693088477946462,-4.940328589150745,0.8845409652731905,3
92,2024-09-14 20:02:57.173113088,TASK_BEGIN,003,-0.3577147661711153,0.017561599365570505,2.8328605360365344,-1.3141848906044018,-0.6931986555397613,0.25328487801306226,-5.0024187057106975,0.8833415292781748,3
93,2024-09-14 20:02:57.254935040,TASK_BEGIN,003,-0.36167338157945184,0.022473514358126452,2.9382782913776095,-1.3413541715125175,-0.7095097505252919,0.2600056297014839,-5.108150042609557,0.8911965407327225,3
94,2024-09-14 20:02:57.322706944,TASK_BEGIN,003,-0.3653295260649664,0.027331311535081906,3.0755348621544,-1.3735095716788446,-0.7234347255385661,0.2671957370520902,-5.250798693802963,0.9080913184471965,3
95,2024-09-14 20:02:57.388224000,TASK_BEGIN,003,-0.36883850275764435,0.032184258382172724,3.2367025939312386,-1.4086497919581418,-0.7353200715583293,0.2749206207530323,-5.421534484145302,0.933498111730512,3
96,2024-09-14 20:02:58.328315904,TASK_BEGIN,003,-0.37236893846064634,0.037107322748270666,3.411672862708803,-1.4445495777012523,-0.7456137626760357,0.28320293123939244,-5.610170735057116,0.9664143577948109,3
97,2024-09-14 20:02:58.401658880,TASK_BEGIN,003,-0.37610680026702625,0.042187215440650724,3.5891898839924736,-1.4789555387100826,-0.7547980543369596,0.29201678463659164,-5.806210608967778,1.0055013298661402,3
98,2024-09-14 20:02:58.467642112,TASK_BEGIN,003,-0.3802470350868256,0.047509960716396,3.7579069425305858,-1.5097627899779358,-0.763285875898488,0.30127992647048785,-5.999959175517305,1.0492626259637916,3
99,2024-09-14 20:02:58.529153024,TASK_BEGIN,003,-0.38497511767604525,0.053149524252029824,3.907242598869441,-1.535125774751622,-0.7713081750948181,0.3108480712682463,-6.183305706043939,1.0961633046800299,3
100,2024-09-14 20:02:58.605005056,TASK_BEGIN,003,-0.39044335368294425,0.05915878629639883,4.028098099755427,-1.553520092255709,-0.7788343532111227,0.32051713869250437,-6.349999969249808,1.1446670683062992,3
101,2024-09-14 20:02:58.668869120,TASK_BEGIN,003,-0.39674343349642627,0.06556595106107058,4.11357037631981,-1.5638012940308286,-0.7855528122725812,0.3300355779096756,-6.495656020279104,1.193259692436565,3
102,2024-09-14 20:02:58.730914048,TASK_BEGIN,003,-0.40387717804623285,0.0723769697467837,4.159621255293043,-1.5652793797351405,-0.790914075637957,0.33912583644943445,-6.617833784894271,1.2405260472889792,3
103,2024-09-14 20:02:59.683931136,TASK_BEGIN,003,-0.4117377570389219,0.07958102271202167,4.165518826090468,-1.557792698357467,-0.7942204207051391,0.3475116521025746,-6.716241372204454,1.2852686966430145,3
104,2024-09-14 20:02:59.746433024,TASK_BEGIN,003,-0.42012152807759917,0.0871554216558816,4.133904603382756,-1.5417544162230155,-0.794731991200364,0.3549436732669867,-6.792741481991903,1.3265947232075586,3
105,2024-09-14 20:02:59.807991040,TASK_BEGIN,003,-0.42877531146438413,0.0950674742319207,4.070463366535828,-1.518149747413789,-0.7917587586909828,0.361214539994708,-6.850893212771141,1.3639273330464952,3
106,2024-09-14 20:02:59.885222912,TASK_BEGIN,003,-0.43745477661701554,0.10327199216392086,3.983275260576699,-1.4884704832464701,-0.7847284718011701,0.36616141782714395,-6.895143102104405,1.3969778251226785,3
107,2024-09-14 20:02:59.955062016,TASK_BEGIN,003,-0.4459619172097308,0.11170457560037657,3.8820279564575775,-1.4545932835314872,-0.7732402122509349,0.36966273418500994,-6.9299509056758035,1.425729159511851,3
108,2024-09-14 20:03:00.009358848,TASK_BEGIN,003,-0.4541538429330949,0.12027271786720387,3.7772586803205743,-1.4186268763177947,-0.7571106076388469,0.37163664413851644,-6.958963688325614,1.450419009928959,3
109,2024-09-14 20:03:00.090657024,TASK_BEGIN,003,-0.46193988953039405,0.12884918587701588,3.6795944466154706,-1.3827438433293766,-0.7364084378385435,0.3720426396693139,-6.984264594143728,1.4714740919286982,3
110,2024-09-14 20:03:01.029272832,TASK_BEGIN,003,-0.46928052081383176,0.13727368047877872,3.598864129035794,-1.3490060957025936,-0.7114667577872777,0.37088247657763196,-7.0058803362493824,1.4893950088571195,3
111,2024-09-14 20:03:01.101769984,TASK_BEGIN,003,-0.4761841281371631,0.14536588027254918,3.54315439404352,-1.3192139233886149,-0.6828564746584074,0.3681955935932927,-7.02181098731144,1.5046470455669267,3
112,2024-09-14 20:03:01.169553920,TASK_BEGIN,003,-0.4826956558725056,0.15294681276959976,3.518056489669826,-1.2948084598173837,-0.6513125238563353,0.36404696645623796,-7.028653446922223,1.517600705190586,3
113,2024-09-14 20:03:01.229159168,TASK_BEGIN,003,-0.48888143226451963,0.1598622247472422,3.526302784326136,-1.2768226168803294,-0.6176341465899612,0.35851179108997594,-7.02259593023978,1.528513523374911,3
114,2024-09-14 20:03:01.305092096,TASK_BEGIN,003,-0.49481669497737196,0.16600223951463303,3.5678361992583065,-1.2658564316628977,-0.5826007510168238,0.3516666229755501,-7.000377860577693,1.5375148348072227,3
115,2024-09-14 20:03:01.370744832,TASK_BEGIN,003,-0.5005698951141536,0.17131143778749558,3.640178053468454,-1.2620648475009686,-0.5469228344915913,0.34359219862980533,-6.959859320226779,1.5445650349664535,3
116,2024-09-14 20:03:01.430323968,TASK_BEGIN,003,-0.5061672307335054,0.17578413083885053,3.7388907669449063,-1.2651646677217647,-0.511218382393789,0.33438315827023707,-6.900116192295691,1.5493939267280692,3
117,2024-09-14 20:03:02.357456128,TASK_BEGIN,003,-0.5115344140680476,0.17944703605065676,3.8580442541721034,-1.2744719118750625,-0.47600629409406553,0.32415618626242415,-6.82124043592248,1.551458812359743,3
118,2024-09-14 20:03:02.413393920,TASK_BEGIN,003,-0.5164471779179267,0.182340648399351,3.990690820071275,-1.2889648591731588,-0.4417139675912405,0.3130505155612417,-6.724076991472944,1.549976192429129,3
119,2024-09-14 20:03:02.493108224,TASK_BEGIN,003,-0.5205395745558244,0.18451043951789672,4.129344926840223,-1.3073589716595992,-0.408686998677791,0.30121786192931954,-6.610016001116224,1.5440423390976017,3
120,2024-09-14 20:03:02.552172800,TASK_BEGIN,003,-0.5233865904192065,0.18600981921870138,4.2664751946954125,-1.3281957692283564,-0.3771910748004399,0.28880380723008303,-6.480827626756229,1.532789422380564,3
121,2024-09-14 20:03:02.628707072,TASK_BEGIN,003,-0.5246189978565268,0.18690744867488723,4.395005784886829,-1.3499481817451553,-0.34741160097271256,0.27592851326386936,-6.338466713881851,1.5155035982662433,3
122,2024-09-14 20:03:02.696515072,TASK_BEGIN,003,-0.5240095452086592,0.1872898735784719,4.508719749147948,-1.3711149914769782,-0.3194605049054906,0.26267648189909315,-6.184820214034717,1.4916874810002654,3
123,2024-09-14 20:03:02.751107840,TASK_BEGIN,003,-0.5215105596744922,0.1872574997047559,4.602428699838352,-1.3902793547913466,-0.29339272335831507,0.24910146136029426,-6.021497499821022,1.4611106086754204,3
124,2024-09-14 20:03:03.707513088,TASK_BEGIN,003,-0.517266651167174,0.1869200564300494,4.671938472024427,-1.4061548573498461,-0.26922267815792905,0.23524468434689305,-5.849822053866536,1.4238800717016764,3
125,2024-09-14 20:03:03.775368960,TASK_BEGIN,003,-0.5116242424687371,0.1863983199676181,4.7139827027722605,-1.4176536232644994,-0.2469218198017556,0.22115687202269357,-5.671062398316048,1.3805008993189674,3
126,2024-09-14 20:03:03.840635904,TASK_BEGIN,003,-0.5051373900842661,0.18583191443717967,4.726221848886804,-1.4239629577028372,-0.22639856596687463,0.2069152098434497,-5.48678929075516,1.3318808144414958,3
127,2024-09-14 20:03:03.902236160,TASK_BEGIN,003,-0.4985621459813558,0.18538660307507113,4.707278085308266,-1.4245903462358869,-0.20749254627354174,0.19263516397930697,-5.299187837325934,1.2792864225385892,3
128,2024-09-14 20:03:03.964723200,TASK_BEGIN,003,-0.49282882110127857,0.18525422593615007,4.656770067731848,-1.4193626054683193,-0.19000385562478478,0.178480737105474,-5.111139843223363,1.224285533976349,3
129,2024-09-14 20:03:04.041879808,TASK_BEGIN,003,-0.48897864003487335,0.18564261396708484,4.575339222058216,-1.4083975055988867,-0.17374160756634535,0.1646707039155862,-4.926007018841321,1.168681765585468,3
130,2024-09-14 20:03:04.103430912,TASK_BEGIN,003,-0.4880670173562065,0.18675844694662855,4.46465214136454,-1.3920739518344853,-0.15856833883691523,0.1514737958658132,-4.747282567237053,1.114424269585042,3
131,2024-09-14 20:03:05.058211072,TASK_BEGIN,003,-0.4910531400261613,0.18878862155389228,4.327365695735744,-1.371013428379505,-0.14443569480784063,0.1391903773632586,-4.578323046645078,1.0634805529478586,3
132,2024-09-14 20:03:05.119104000,TASK_BEGIN,003,-0.4986881555806327,0.19188147457897123,4.167053942368247,-1.3460666384189979,-0.13141485271579004,0.12812477446915743,-4.42219424243321,1.0176792210193681,3
133,2024-09-14 20:03:05.180670976,TASK_BEGIN,003,-0.5114086182186212,0.19612564645405067,3.9881064736758556,-1.318286536321065,-0.11971134968871186,0.1185534652478601,-4.281596782798249,0.9785511150641136,3
134,2024-09-14 20:03:05.258526976,TASK_BEGIN,003,-0.5292645025148204,0.20153052425295667,3.7956110008926953,-1.2888650074224357,-0.10964072911786414,0.11069253226803759,-4.158903057214129,0.9472007459422969,3
135,2024-09-14 20:03:05.329335040,TASK_BEGIN,003,-0.5519236125012706,0.20801940890796458,3.5952114581820367,-1.2590239616963748,-0.10155230385861122,0.10466881171832042,-4.056287427199847,0.9242262392882135,3
136,2024-09-14 20:03:05.382098944,TASK_BEGIN,003,-0.5787532134699525,0.21544014793341487,3.3929279904468577,-1.229883939922078,-0.0957188170421007,0.10050144662806154,-3.975783457697565,0.9096911976267983,3
137,2024-09-14 20:03:05.459728896,TASK_BEGIN,003,-0.6089243507060376,0.22358446731297957,3.1949548730055537,-1.202354580741303,-0.09223157030625173,0.09809834882445949,-3.9191156875409763,0.9031373969063893,3
138,2024-09-14 20:03:06.408269824,TASK_BEGIN,003,-0.6414860264898654,0.23220554123494389,3.007436587827322,-1.1770743952447815,-0.0909359120388105,0.09726627721825049,-3.887374869991413,0.903629510672472,3
139,2024-09-14 20:03:06.473485056,TASK_BEGIN,003,-0.6754027479724486,0.24103186872311863,2.836174370114939,-1.1543927604701145,-0.09142139990183973,0.09772989853853213,-3.880753747727799,0.9098432094065679,3
140,2024-09-14 20:03:06.535053056,TASK_BEGIN,003,-0.7095771990479205,0.24977891352764423,2.6862742811526794,-1.1343790028468819,-0.09305981478325892,0.09915596675045668,-3.898477340019324,0.9202083344685199,3
141,2024-09-14 20:03:06.611644160,TASK_BEGIN,003,-0.7428784856075331,0.25815936964511405,2.5618686810630904,-1.116864931679943,-0.09506942071836132,0.10118059027758068,-3.938904611304923,0.9330913303943326,3
142,2024-09-14 20:03:06.679441920,TASK_BEGIN,003,-0.7741819345252305,0.2658947793133491,2.4659771002912794,-1.1015260705875687,-0.09658667948396917,0.10343837212387151,-3.999687647811071,0.9469727631944391,3
143,2024-09-14 20:03:06.734452992,TASK_BEGIN,003,-0.8024070421620292,0.2727292779044539,2.4003599721914703,-1.087967643588852,-0.09674378677409079,0.10559187829720561,-4.077871440931551,0.9605688973275001,3
144,2024-09-14 20:03:06.811764992,TASK_BEGIN,003,-0.8265421031187068,0.2784415258398008,2.3652426955192825,-1.0757754896809975,-0.09475498440009109,0.10735896840581027,-4.169924404103283,0.9728745458021735,3
145,2024-09-14 20:03:07.733330944,TASK_BEGIN,003,-0.8456700365512868,0.28285298231486383,2.359073093259183,-1.0645432884327353,-0.09000193780059136,0.10853446240981746,-4.271814378459064,0.9831476952794982,3
146,2024-09-14 20:03:07.801114112,TASK_BEGIN,003,-0.8590117848703384,0.2858339804331618,2.37858133440942,-1.0539099253981674,-0.08210221954112772,0.10900136756712966,-4.379194250852258,0.9908725226651965,3
147,2024-09-14 20:03:07.868921088,TASK_BEGIN,003,-0.8659752856516044,0.28730586705566113,2.4191990723511703,-1.0436037284159905,-0.07095288785269988,0.10872847997335697,-4.487594392830865,0.995722342675447,3
148,2024-09-14 20:03:07.936646912,TASK_BEGIN,003,-0.8661898949436491,0.2872363330293788,2.4756837206327607,-1.0334685045390364,-0.05674943814058406,0.10775749679116071,-4.592508318712154,0.9975239944952391,3
149,2024-09-14 20:03:07.989166080,TASK_BEGIN,003,-0.8595226416338809,0.28563015792505064,2.542751718060602,-1.023464646615652,-0.039973442055280216,0.10618502892648535,-4.689418729810488,0.996219876539026,3
150,2024-09-14 20:03:08.066319104,TASK_BEGIN,003,-0.8460764357322489,0.282518983899558,2.6155645962958602,-1.013652385210421,-0.021331247745560087,0.10414028850162554,-4.773907991770181,0.9918364668738794,3
151,2024-09-14 20:03:08.128354048,TASK_BEGIN,003,-0.8261664011358807,0.2779509935782764,2.6900211786946127,-1.0041711287256947,-0.0016494749224785783,0.10176141235778768,-4.841905291237884,0.9844735009535448,3
152,2024-09-14 20:03:09.075771904,TASK_BEGIN,003,-0.8002818875553611,0.2719836292054083,2.762937489133009,-0.9952376901688684,0.01822537583609511,0.09918084556917729,-4.889954541389991,0.9743100718152855,3
153,2024-09-14 20:03:09.137302016,TASK_BEGIN,003,-0.7690507675068841,0.2646844295039286,2.832171567360762,-0.9871681509683139,0.03748508699905295,0.09652488017921722,-4.915377840008095,0.9616115143877825,3
154,2024-09-14 20:03:09.219074048,TASK_BEGIN,003,-0.7332136432124576,0.2561383136572999,2.8965972131425555,-0.9803919631464684,0.05538933696564346,0.09391922042162155,-4.91636566995715,0.9467281682061115,3
155,2024-09-14 20:03:09.275670784,TASK_BEGIN,003,-0.6936023263152696,0.24645302166554475,2.955773107048079,-0.9754212737493269,0.07129649547000767,0.09149098573593421,-4.892092332945379,0.9300822690005717,3
156,2024-09-14 20:03:09.352541952,TASK_BEGIN,003,-0.651109432283389,0.23575697940020884,3.0093091283014406,-0.972769481957727,0.08469471754505975,0.0893659795991552,-4.8428823027436385,0.9121390685278301,3
157,2024-09-14 20:03:09.414102016,TASK_BEGIN,003,-0.6066447920125089,0.22419153645890277,3.0561697520045494,-0.9728441347118902,0.09521320702400278,0.08766373311363913,-4.770390912948954,0.8933677668788348,3
158,2024-09-14 20:03:09.476103936,TASK_BEGIN,003,-0.5610963188415224,0.21190503774300926,3.0942335498056,-0.9758498606649068,0.10261053086277747,0.08649082125494562,-4.677743444526872,0.8742164878154208,3
159,2024-09-14 20:03:10.428476160,TASK_BEGIN,003,-0.5153115992787906,0.19905482462694077,3.120297817885629,-0.981732873827708,0.10676629641586488,0.08593163076407113,-4.569578661218111,0.8551290282810016,3
160,2024-09-14 20:03:10.490541056,TASK_BEGIN,003,-0.4700886823664286,0.18581549998046865,3.130536917415755,-0.9901838138150136,0.10770956728356065,0.08603517964780835,-4.451937085602574,0.8365992468022336,3
161,2024-09-14 20:03:10.568157952,TASK_BEGIN,003,-0.42615872317492154,0.17238598791935925,3.1212867092102896,-1.0006968603137274,0.10567879962514205,0.08679858850979044,-4.331885805101155,0.8192213060571919,3
162,2024-09-14 20:03:10.636787968,TASK_BEGIN,003,-0.38416912349863347,0.15899027418982153,3.0899320932881693,-1.012669581531162,0.10115748466400556,0.08815491383824686,-4.216785440205112,0.8036940401670004,3
163,2024-09-14 20:03:10.691793920,TASK_BEGIN,003,-0.34468405641577327,0.14587101619591586,3.035672034925074,-1.0255215412375283,0.0948403710776216,0.08997546964766191,-4.113277228139245,0.7907646557498598,3
164,2024-09-14 20:03:10.772381184,TASK_BEGIN,003,-0.3081916261860079,0.133274633252305,2.9600362750002076,-1.038812996969392,0.08755172621211542,0.09208657915746227,-4.026283542461232,0.7811226775699268,3
165,2024-09-14 20:03:10.830706944,TASK_BEGIN,003,-0.2750903848209122,0.1214269222013023,2.867088857952382,-1.0523475303292997,0.08016914157554188,0.09429072711236702,-3.9583810265470323,0.7752762497705569,3
166,2024-09-14 20:03:11.779164160,TASK_BEGIN,003,-0.24565184697869585,0.11050495415057063,2.7632424588173286,-1.0662312629941484,0.07356871403164857,0.09638589582391434,-3.9097169725086016,0.7734470965091444,3
167,2024-09-14 20:03:11.841649152,TASK_BEGIN,003,-0.2199865810464105,0.1006157399035516,2.656650698779558,-1.0808571755346403,0.06856364050031295,0.09818492575283795,-3.8783215714436365,0.7755024193204643,3
168,2024-09-14 20:03:11.918817024,TASK_BEGIN,003,-0.19804297355787043,0.09178744876363254,2.556244387332133,-1.0968037971737226,0.06581900282992163,0.0995346859600068,-3.860531956111184,0.7809321277714466,3
169,2024-09-14 20:03:11.981342976,TASK_BEGIN,003,-0.1796424042170242,0.0839702588468883,2.470570059830867,-1.1146676496493724,0.06577135948245648,0.10032825132173444,-3.8513922974445043,0.788880556228853,3
170,2024-09-14 20:03:12.054818048,TASK_BEGIN,003,-0.16452782536443675,0.07704044591040515,2.406681678493847,-1.1348736060326776,0.06859424626925985,0.10050466279076001,-3.8450807116452883,0.7982246828648939,3
171,2024-09-14 20:03:12.121402112,TASK_BEGIN,003,-0.15240139118003437,0.07080596839348806,2.3693646765095293,-1.1575199008341737,0.07421237162115181,0.10003860347776461,-3.835418670142129,0.8076767665929454,3
172,2024-09-14 20:03:12.190421248,TASK_BEGIN,003,-0.14295072418993018,0.06501922184773204,2.3608506791688293,-1.1823007990283494,0.08233951420112716,0.09892730105279267,-3.816417828726482,0.8159062050407053,3
173,2024-09-14 20:03:13.102537984,TASK_BEGIN,003,-0.13587542750582518,0.05940298009381157,2.3809751975663938,-1.2085087431429165,0.09252474001310756,0.09718172337055567,-3.782765703868113,0.8216813488957142,3
174,2024-09-14 20:03:13.168638976,TASK_BEGIN,003,-0.1309053146381139,0.053686170200499775,2.4275786677019764,-1.2350813748278182,0.10419626999713132,0.09482584306838386,-3.7302016826076834,0.8240089120590833,3
175,2024-09-14 20:03:13.241839872,TASK_BEGIN,003,-0.12778952681119654,0.047638298222566336,2.4969191325866675,-1.2606581165165114,0.11669353857324005,0.09190218017979597,-3.6558511295974276,0.8222477940931636,3
176,2024-09-14 20:03:13.311040000,TASK_BEGIN,003,-0.1262628370962304,0.04109500038432736,2.5839573782041,-1.283636131348646,0.1293065733117461,0.08847646938824398,-3.5585643746341393,0.8161888602976328,3
177,2024-09-14 20:03:13.378816000,TASK_BEGIN,003,-0.12601994317211443,0.03397537080464204,2.682573556988696,-1.3022429509773754,0.14135792128274963,0.0846342620785412,-3.4391143386514997,0.8060817878145734,3
178,2024-09-14 20:03:13.442246912,TASK_BEGIN,003,-0.12671292824498562,0.026292668254534808,2.7859090436727065,-1.314653865107737,0.15232512370310847,0.08046843521729069,-3.300091201601226,0.7925905581478188,3
179,2024-09-14 20:03:13.514310912,TASK_BEGIN,003,-0.12796736455705743,0.018155679552218803,2.88691157739206,-1.319165419478693,0.1619524732268022,0.07606363304544529,-3.145571745494391,0.7766902535357648,3
180,2024-09-14 20:03:14.452742144,TASK_BEGIN,003,-0.12941736703562487,0.009757840991684228,2.97896655593644,-1.314416705689147,0.17028898540853638,0.07148598968401122,-2.9807528425952863,0.759534054835579,3
181,2024-09-14 20:03:14.525314816,TASK_BEGIN,003,-0.13075414254244844,0.001354948701764004,3.0564595893286173,-1.2996367955649861,0.17762168092600358,0.06678199993653254,-2.8115816592374516,0.7423113718386019,3
182,2024-09-14 20:03:14.591343104,TASK_BEGIN,003,-0.13175655388039298,-0.006766222576615401,3.115147894597686,-1.2748660199400312,0.18433281469374585,0.061982611564071526,-2.644280047700439,0.726114227206807,3
183,2024-09-14 20:03:14.653336832,TASK_BEGIN,003,-0.13228058760222286,-0.014324231474407235,3.1522742233154633,-1.2410780643365236,0.19075063624330266,0.05710510411292601,-2.484762814523105,0.7118364424983782,3
184,2024-09-14 20:03:14.715581696,TASK_BEGIN,003,-0.13223091188189742,-0.021075462308247247,3.1665039976653953,-1.2001608338292273,0.19704701943549338,0.05215002649765413,-2.338101053286848,0.7001255958685324,3
185,2024-09-14 20:03:14.792753920,TASK_BEGIN,003,-0.131550468197111,-0.02683451418942168,3.1578420457882497,-1.154768592858318,0.2031953554411045,0.04709806887738917,-2.2081401807214043,0.6913759207139537,3
186,2024-09-14 20:03:14.854306816,TASK_BEGIN,003,-0.1302348724044758,-0.03148059622614568,3.127566986155286,-1.1080835866491883,0.20899144702122932,0.04191217648216707,-2.0972517594209377,0.6857247883093096,3
187,2024-09-14 20:03:15.803284992,TASK_BEGIN,003,-0.12836185073783044,-0.03495241293309519,3.0781404705245006,-1.0635213842292146,0.21413932314199624,0.03654382382916381,-2.006185407123257,0.6830343240567154,3
188,2024-09-14 20:03:15.865760000,TASK_BEGIN,003,-0.12611976160281363,-0.0372371303846854,3.0131510128929744,-1.0244185759008424,0.21837247229032106,0.030940740711201658,-1.9340988308663725,0.6828866382341596,3
189,2024-09-14 20:03:15.943379968,TASK_BEGIN,003,-0.1238057019668797,-0.03836220129879299,2.9373756964592035,-0.9937541733623787,0.22155364983457274,0.02505634531819512,-1.8789026205861035,0.6846410355708465,3
190,2024-09-14 20:03:16.011183104,TASK_BEGIN,003,-0.12177599164248226,-0.038395390369871496,2.8568402838642983,-0.9739440827545695,0.22372298521335635,0.01885864841197084,-1.8379030431399261,0.6875646123287926,3
191,2024-09-14 20:03:16.066155008,TASK_BEGIN,003,-0.1203742333121637,-0.037448951113503375,2.7786416139213244,-0.9667190408814881,0.22511190429228584,0.012333008199852861,-1.8085063374284756,0.6909920176284097,3
192,2024-09-14 20:03:16.143311104,TASK_BEGIN,003,-0.1198789923604477,-0.03567908386331603,2.7104748519117607,-0.9730785144237074,0.22615113976826168,0.005477064097520642,-1.7887546036507118,0.6944545675170979,3
193,2024-09-14 20:03:16.205534976,TASK_BEGIN,003,-0.1204819208043273,-0.03327622917241319,2.660004714343406,-0.9933038802180776,0.2274765653524377,-0.0017083420144285897,-1.777643402418781,0.6977455019002262,3
194,2024-09-14 20:03:17.142785280,TASK_BEGIN,003,-0.12227171519068689,-0.03044992311021328,2.6341598606338548,-1.027001463747376,0.22990748973878902,-0.009225675612901857,-1.7752208743930455,0.7009130775079617,3
195,2024-09-14 20:03:17.219617024,TASK_BEGIN,003,-0.1251982364618565,-0.027416538894466252,2.638296162462509,-1.0731380568328892,0.23435895533783835,-0.017077154593775734,-1.7824229250469608,0.7041874851284107,3
196,2024-09-14 20:03:17.293641984,TASK_BEGIN,003,-0.1290225921850474,-0.02439534520800618,2.6752734852389506,-1.1300495100416617,0.24167443048338483,-0.025249092657901054,-1.8006939524700978,0.7078696604744514,3
197,2024-09-14 20:03:17.361404672,TASK_BEGIN,003,-0.1332967218213515,-0.021609413759241743,2.744715572455015,-1.1954413713285912,0.2524240260774716,-0.03369243954363148,-1.8315398109148562,0.7122160336791516,3
198,2024-09-14 20:03:17.419532032,TASK_BEGIN,003,-0.1374205561639214,-0.019280946085886153,2.8427368260844914,-1.2664188486603725,0.26675163336789914,-0.0423117135869473,-1.8760937026577793,0.7173386686336459,3
199,2024-09-14 20:03:17.497008128,TASK_BEGIN,003,-0.14078087928106708,-0.01761328440852234,2.9622012209042277,-1.3395653290520362,0.2843284420336061,-0.0509678907854173,-1.934711380416279,0.7231432348913439,3
200,2024-09-14 20:03:17.559526912,TASK_BEGIN,003,-0.14291757402444838,-0.016762902043361765,3.0934163153414413,-1.4110781792259837,0.3044069476456882,-0.059491852338678805,-2.00659379128219,0.7293200684851957,3
201,2024-09-14 20:03:18.469886976,TASK_BEGIN,003,-0.143640706009387,-0.016813653546865256,3.2251976568647645,-1.4769923839212182,0.3259341911647408,-0.06770214885696733,-2.089407266675367,0.7353560256319713,3
202,2024-09-14 20:03:18.547090176,TASK_BEGIN,003,-0.1430536818109896,-0.017763484954001603,3.3462600333202293,-1.533513560636134,0.3476965067958904,-0.07542272338973689,-2.1789580243353384,0.7405209304336118,3
203,2024-09-14 20:03:18.610002944,TASK_BEGIN,003,-0.1414877587216302,-0.01952535368919144,3.446719782580346,-1.5774066231245463,0.3684886466911155,-0.08249751459089348,-2.2691214825510784,0.7438406569394023,3
204,2024-09-14 20:03:18.686906112,TASK_BEGIN,003,-0.13938160947842226,-0.021940190964324462,3.519294250515124,-1.606326601511233,0.387293707485028,-0.0887999885603506,-2.3521782137599643,0.7441130837981125,3
205,2024-09-14 20:03:18.748214016,TASK_BEGIN,003,-0.13715226706457184,-0.024798385539368716,3.559837048882186,-1.61900542803743,0.40344241780674184,-0.09423809447411265,-2.4195286965723604,0.7399975229965621,3
206,2024-09-14 20:03:18.809729024,TASK_BEGIN,003,-0.13510882942049687,-0.027862014802782883,3.5671548204938186,-1.61528291384756,0.41671904946868316,-0.09875704263622749,-2.462684644546944,0.7301650776067684,3
207,2024-09-14 20:03:18.890126080,TASK_BEGIN,003,-0.1334356336029154,-0.03088058454332763,3.542353433853351,-1.596012360536797,0.42739058699351856,-0.10234206243907149,-2.4744166143318713,0.7134839990419903,3
208,2024-09-14 20:03:19.832044032,TASK_BEGIN,003,-0.13222220425926495,-0.03360132784576427,3.488062828142806,-1.562872950133205,0.43613966138104365,-0.10501998269192707,-2.4498407520025913,0.6892182820286666,3
209,2024-09-14 20:03:19.900904704,TASK_BEGIN,003,-0.13149052423912982,-0.035779759953674224,3.4078198613950494,-1.5181310218823438,0.4439016516583666,-0.10685450768466209,-2.387204215316511,0.6572194865797419,3
210,2024-09-14 20:03:19.968658944,TASK_BEGIN,003,-0.13118564673632188,-0.03719391581752023,3.3057372529377798,-1.4644088693750996,0.4516515902972762,-0.10793139706738145,-2.288278995232051,0.6180789962335673,3
211,2024-09-14 20:03:20.036413696,TASK_BEGIN,003,-0.1311317299418893,-0.03766265618179103,3.186402873771021,-1.404503830770653,0.4602067566970832,-0.10833625025455425,-2.1583572108474303,0.5731830771714136,3
212,2024-09-14 20:03:20.094528000,TASK_BEGIN,003,-0.13099179324681196,-0.03706396049265563,3.0548335318423505,-1.3412631430328639,0.4700795653297294,-0.10813236477825783,-2.005794734521521,0.5246210211634716,3
213,2024-09-14 20:03:20.156523008,TASK_BEGIN,003,-0.13027902862072516,-0.035344799697394284,2.916345905874484,-1.2774923902498765,0.4813809300513865,-0.10734573224687664,-1.841113679511282,0.47496482620586816,3
214,2024-09-14 20:03:20.233652992,TASK_BEGIN,003,-0.1284327899846167,-0.03251810721612587,2.7763327739966965,-1.2158650168758927,0.49377965305167093,-0.10596053425552308,-1.6758395190005393,0.427002745476961,3
215,2024-09-14 20:03:21.177541888,TASK_BEGIN,003,-0.12493260504083023,-0.02865028918110225,2.6399788511051,-1.1588109013750967,0.5065412541311841,-0.10392405812269616,-1.521322179599144,0.38349818745889364,3
216,2024-09-14 20:03:21.250996992,TASK_BEGIN,003,-0.11941451458350431,-0.023843623340016176,2.511905721769903,-1.1083841228575164,0.5186514229431088,-0.10115721430542772,-1.3877559937186632,0.3469889571919958,3
217,2024-09-14 20:03:21.315903744,TASK_BEGIN,003,-0.11175903178220255,-0.018214980547167837,2.395756295989184,-1.066127391206943,0.5289847458897559,-0.09756800396843773,-1.2835123923075675,0.3196081913025443,3
218,2024-09-14 20:03:21.378905088,TASK_BEGIN,003,-0.10213527231336055,-0.011873007960073715,2.293854287493761,-1.0329673260676415,0.5364619337561162,-0.09306846593714593,-1.2147605860639439,0.3029196249222951,3
219,2024-09-14 20:03:21.440444928,TASK_BEGIN,003,-0.09101533815707326,-0.0048980238961554325,2.2071134809681805,-1.0091794695844807,0.5401651513349093,-0.08759502910732501,-1.1852744569400655,0.29779156177323945,3
220,2024-09-14 20:03:21.522136064,TASK_BEGIN,003,-0.07918263598030299,0.0026721318283317915,2.1352253566524184,-0.9944298077677537,0.5394116873076066,-0.08112708313954982,-1.1963531545585964,0.3043423729585377,3
221,2024-09-14 20:03:21.579259904,TASK_BEGIN,003,-0.06773090411156052,0.010849936039623788,2.077013125033401,-0.9878670441173991,0.533789209762731,-0.07369638247998092,-1.2468340676697862,0.32196126962272875,3
222,2024-09-14 20:03:22.533214208,TASK_BEGIN,003,-0.058024642301193245,0.019699070010416687,2.0308274199973892,-0.9882453001642922,0.5231495808547183,-0.06538406074561069,-1.3331864991473465,0.34938002501991816,3
223,2024-09-14 20:03:22.601058048,TASK_BEGIN,003,-0.05160083389667595,0.029325870018353784,1.994843386899213,-0.9940571252143303,0.5075664034886767,-0.056306892877982455,-1.4496787660832866,0.3847743808160728,3
224,2024-09-14 20:03:22.668900864,TASK_BEGIN,003,-0.05001930223343096,0.03986152497676228,1.9671581588363465,-1.0036469696771757,0.4872761643461333,-0.04659806963576694,-1.5886305445686104,0.4258879407898206,3
225,2024-09-14 20:03:22.736607232,TASK_BEGIN,003,-0.05467806737606647,0.051438204131921586,1.9458054878879696,-1.0153042582103018,0.46262850270546657,-0.03639152653698077,-1.7407523616359175,0.4701740336598437,3
226,2024-09-14 20:03:22.791579136,TASK_BEGIN,003,-0.06661149324594498,0.06416109744311413,1.9288772229348392,-1.0273583856125101,0.43406027006725906,-0.025816454490040223,-1.8955590321010374,0.514950430728752,3
227,2024-09-14 20:03:22.869061888,TASK_BEGIN,003,-0.08631806502118922,0.07808071121472072,1.9147048366969732,-1.0382698455244748,0.40208740326806647,-0.01499896686563059,-2.041879308317219,0.5575627661014444,3
228,2024-09-14 20:03:22.932223232,TASK_BEGIN,003,-0.11368917542232117,0.09317554525246907,1.9019493599253938,-1.0466939689309342,0.3673006268689752,-0.004063752307470215,-2.168505225559175,0.5955516479527655,3
229,2024-09-14 20:03:23.858301952,TASK_BEGIN,003,-0.14806588227421721,0.10935082125293072,1.8896244913431124,-1.0515155211033649,0.3303634082818358,0.0068649733021063026,-2.2649804125683377,0.6268242434992323,3
230,2024-09-14 20:03:23.926152192,TASK_BEGIN,003,-0.18837151155985535,0.12644576533668356,1.8771491105611988,-1.0518704672282233,0.29202344789301093,0.017658133964915293,-2.3224554079226456,0.6498285580815356,3
231,2024-09-14 20:03:23.993963008,TASK_BEGIN,003,-0.2332480937955804,0.14423848316676197,1.8644019702197443,-1.0471711302190472,0.25314297989527024,0.02817046865289719,-2.3344523839403633,0.6636947347558314,3
232,2024-09-14 20:03:24.047322112,TASK_BEGIN,003,-0.28116430066731046,0.16244705455244293,1.8516887017298393,-1.0371428031458532,0.21473167609561275,0.03822792032408965,-2.2973577003494587,0.668285542229946,3
233,2024-09-14 20:03:24.125016064,TASK_BEGIN,003,-0.3304960871052674,0.1807334065546731,1.839579078289853,-1.021860947580092,0.1779491343526217,0.047619335647787156,-2.210589781488852,0.664137322282645,3
234,2024-09-14 20:03:24.197403904,TASK_BEGIN,003,-0.3795937270176409,0.19871605134137088,1.8286377847091448,-1.0017569017187773,0.1440528454424689,0.056095566791108095,-2.076539025269423,0.6523325539393889,3
235,2024-09-14 20:03:24.264146944,TASK_BEGIN,003,-0.4268512205485727,0.21599330096790328,1.8191320928735992,-0.9775639866348954,0.11430403704480062,0.06337685003470009,-1.9003599787741354,0.6343551186284309,3
236,2024-09-14 20:03:25.200414720,TASK_BEGIN,003,-0.47078378960060197,0.23217351350720908,1.8108083354261495,-0.9502106375587709,0.08987250999968846,0.06916727225385078,-1.6895825957114434,0.6119400040004703,3
237,2024-09-14 20:03:25.275614976,TASK_BEGIN,003,-0.5101122611477353,0.24690650864264868,1.8028024043864908,-0.9207035712568054,0.07176505550743986,0.07317486983279292,-1.4534804940708768,0.5869004072528605,3
238,2024-09-14 20:03:25.343368960,TASK_BEGIN,003,-0.5438530794978723,0.25991184778048465,1.793781216417192,-0.8900577189873331,0.060763931717933914,0.07513779723549575,-1.2022315510011912,0.560930792828324,3
239,2024-09-14 20:03:25.411144960,TASK_BEGIN,003,-0.5713940934155524,0.2710007454730752,1.7823994963958327,-0.8593059301165673,0.057356943107852186,0.07485648862420907,-0.9460498000862874,0.5354209877782058,3
240,2024-09-14 20:03:25.478012160,TASK_BEGIN,003,-0.5925173515347204,0.28008698322302394,1.7679548200135569,-0.8295571996792307,0.061668755565545665,0.07222754163866107,-0.6945180689975793,0.5113337604074701,3
241,2024-09-14 20:03:25.539700992,TASK_BEGIN,003,-0.6073566424221877,0.28718275435294655,1.7509235443222284,-0.8020224903981364,0.07341818301402628,0.06727254760812465,-0.456236028945112,0.48918405657220504,3
242,2024-09-14 20:03:25.614370048,TASK_BEGIN,003,-0.6163231168788431,0.2923803126656758,1.733128108626027,-0.7779546357423932,0.09191671143563876,0.06015594104826294,-0.23873486287328458,0.4691249064460547,3
243,2024-09-14 20:03:26.554617856,TASK_BEGIN,003,-0.6200312870633066,0.2958253316145306,1.717528865261612,-0.7585252210920359,0.11611668957853587,0.051186462293269,-0.048514872481546664,0.45110161350977834,3
244,2024-09-14 20:03:26.625705984,TASK_BEGIN,003,-0.619223613292517,0.2976885566439585,1.7077889842499065,-0.7447101275702448,0.1447110236851249,0.04079870454412404,0.10895737291045296,0.43500518857979914,3
245,2024-09-14 20:03:26.693520128,TASK_BEGIN,003,-0.6146884054664832,0.2981403109465654,1.7077692001993832,-0.7372370683408187,0.1762569830443353,0.02951832342544626,0.2294041409844929,0.4207703546669716,3
246,2024-09-14 20:03:26.754205952,TASK_BEGIN,003,-0.6071859884802315,0.297330604562605,1.7210548507099304,-0.7365880481388272,0.20927287441861867,0.017921519819426208,0.3100574162091151,0.4084079529050686,3
247,2024-09-14 20:03:26.829076224,TASK_BEGIN,003,-0.5973933293551441,0.2953756859074797,1.7505592018000868,-0.7430153759989663,0.2422809470147686,0.006597586916117064,0.3500415695856815,0.3979984353471971,3
248,2024-09-14 20:03:26.892563968,TASK_BEGIN,003,-0.5858592539141145,0.29235030717875204,1.7981956231155087,-0.7565429227358217,0.27381860188267626,-0.0038859237696893937,0.3506400419961689,0.3896772106730614,3
249,2024-09-14 20:03:26.955051008,TASK_BEGIN,003,-0.5729698131901554,0.2882856913517579,1.8645849480119214,-0.7769461688673415,0.3024625427429303,-0.013021768159251372,0.31535588285004557,0.38360756903324567,3
250,2024-09-14 20:03:27.908585984,TASK_BEGIN,003,-0.5589435137504181,0.2831752866911062,1.9488268811674543,-0.8037257901005779,0.3268971281157229,-0.020407020990290365,0.24983493646796007,0.37991631810299875,3
251,2024-09-14 20:03:27.976364032,TASK_BEGIN,003,-0.5438690261674114,0.27698964975530743,2.0484606916315498,-0.8361122330100543,0.346024781871851,-0.025783476174506662,0.16172043669686112,0.37860559511624503,3
252,2024-09-14 20:03:28.044172032,TASK_BEGIN,003,-0.5277657451480247,0.2696969903975657,2.1596874157191173,-0.8731298708637873,0.3590863825002552,-0.02906020310393985,0.060366073762221605,0.37949280301765587,3
253,2024-09-14 20:03:28.104353024,TASK_BEGIN,003,-0.5106352809198431,0.26128305756065734,2.2777632787038993,-0.9137011715795369,0.3657509427566102,-0.030310372297151434,-0.04377393417560091,0.3822170218355389,3
254,2024-09-14 20:03:28.165984000,TASK_BEGIN,003,-0.4924922065525795,0.2517661080046392,2.3974314673275985,-0.9567359645731125,0.36614925772770524,-0.029746637574403084,-0.1402189598213492,0.3863235367771699,3
255,2024-09-14 20:03:28.243359232,TASK_BEGIN,003,-0.473374283946113,0.2412041108570525,2.5133517870785473,-1.0011732577704848,0.3608589009918666,-0.027687463186600734,-0.2198930372048889,0.39142014858431534,3
256,2024-09-14 20:03:28.315284992,TASK_BEGIN,003,-0.45332398263365264,0.2296918956020379,2.620553710009235,-1.0459898424637402,0.3508670115567897,-0.024524118597249622,-0.27648076010205647,0.3973573381399179,3
257,2024-09-14 20:03:29.233620224,TASK_BEGIN,003,-0.43234410225582137,0.21735100992550305,2.714914687254691,-1.090196823324493,0.3375180144011973,-0.02068919429264599,-0.30720371836601695,0.4043442335623065,3
258,2024-09-14 20:03:29.301479936,TASK_BEGIN,003,-0.41036685497445896,0.20432068916271626,2.7935771398949925,-1.1328172801650735,0.322429635356304,-0.016625241937189776,-0.31282101530901807,0.4129457219703737,3
259,2024-09-14 20:03:29.360455168,TASK_BEGIN,003,-0.3872840360061584,0.19075643545120347,2.8551534744390987,-1.1728337397516608,0.30736773103672144,-0.012755596682839654,-0.2970359345635906,0.42398183480550355,3
260,2024-09-14 20:03:29.422043904,TASK_BEGIN,003,-0.3630351899272696,0.1768345671698912,2.899645636568565,-1.2091300014469688,0.29409035501563235,-0.009458315886454441,-0.26560740183990345,0.43837272639913694,3
261,2024-09-14 20:03:29.504892160,TASK_BEGIN,003,-0.33768927943361443,0.16275508157838028,2.928126652448993,-1.240475047799078,0.28418421535125493,-0.007042651176044793,-0.22538197609679117,0.4569502409999835,3
262,2024-09-14 20:03:29.560803072,TASK_BEGIN,003,-0.3114598840003398,0.1487369900355296,2.9422305019286714,-1.2655688540618968,0.27892210128241685,-0.005731380435908371,-0.18336967001183802,0.48025638277866994,3
263,2024-09-14 20:03:29.640450816,TASK_BEGIN,003,-0.2846650261327776,0.135007078118175,2.943496967336029,-1.2831335244106248,0.279161085370277,-0.005653889722202348,-0.1459222426258538,0.508370663082311,3
264,2024-09-14 20:03:30.569149952,TASK_BEGIN,003,-0.25768682781898283,0.12178673386622989,2.9327582557780243,-1.2920358486233616,0.2852908560822478,-0.006852295102596463,-0.1180526757135784,0.5408181126093433,3
265,2024-09-14 20:03:30.651520000,TASK_BEGIN,003,-0.23095230073717304,0.10927950070870997,2.9098717941208085,-1.2914483805393746,0.29724999101589894,-0.00930242673250473,-0.10294185010898552,0.5765839863860813,3
266,2024-09-14 20:03:30.719343872,TASK_BEGIN,003,-0.20491313026800265,0.09765887573291922,2.8739865071975292,-1.2810464175544425,0.3146187318887041,-0.01294730538365141,-0.10164883179094462,0.6142124980524895,3
267,2024-09-14 20:03:30.787110144,TASK_BEGIN,003,-0.18001201306469047,0.08705611001790983,2.8242296926123767,-1.2611926757581369,0.3367440071911381,-0.017729542966924416,-0.11306526424812813,0.6519558844487279,3
268,2024-09-14 20:03:30.846435072,TASK_BEGIN,003,-0.1566506742135642,0.0775511588668349,2.7604824681956344,-1.2330322218586012,0.3628280713161297,-0.02360753156978463,-0.13427458034438358,0.6879780548837235,3
269,2024-09-14 20:03:30.922697984,TASK_BEGIN,003,-0.13517177773357328,0.06917026352435461,2.6839092893308605,-1.198444544215892,0.39196278554844893,-0.030554146092120406,-0.16138445194048612,0.7206152961860167,3
270,2024-09-14 20:03:30.984850176,TASK_BEGIN,003,-0.11584951812933138,0.061887722839987676,2.5970546065837574,-1.1598559668421287,0.42314569330745716,-0.038547128812859176,-0.19049924202666307,0.7486211389135399,3
271,2024-09-14 20:03:31.933889024,TASK_BEGIN,003,-0.09888200523868475,0.0556254742474978,2.5035390172750804,-1.1199590359725151,0.4553131310065781,-0.0475578435359578,-0.21832422317969175,0.7712861056943289,3
272,2024-09-14 20:03:31.992983808,TASK_BEGIN,003,-0.08438584112883225,0.05024931403474598,2.4075388429960105,-1.081391722516645,0.4874001838629897,-0.057540048488588104,-0.242239118400231,0.7884005667208892,3
273,2024-09-14 20:03:32.069422080,TASK_BEGIN,003,-0.07239571346154974,0.04556844675915761,2.3131865286555544,-1.0464180415079027,0.5184183075901655,-0.0684193014754187,-0.2600859091780506,0.8001293735288834,3
274,2024-09-14 20:03:32.131767040,TASK_BEGIN,003,-0.06287261868655514,0.041346101499541,2.223936511800401,-1.0166512990724623,0.5475262298426093,-0.08008334188976741,-0.2699875196433786,0.8068863743120275,3
275,2024-09-14 20:03:32.192888832,TASK_BEGIN,003,-0.055723965170232495,0.037323165468160155,2.142004107767439,-0.9928631100281442,0.5740697232894366,-0.0923747616045983,-0.27035258156842545,0.8092452272905062,3
276,2024-09-14 20:03:32.270108928,TASK_BEGIN,003,-0.05083067856783168,0.03324940974917059,2.068053535198329,-0.9749086907978434,0.5975896735155077,-0.10509053742956591,-0.26003368638996593,0.807867443266346,3
277,2024-09-14 20:03:32.339638016,TASK_BEGIN,003,-0.048065781290256564,0.028912715027148463,2.001209751203201,-0.9617832127929705,0.6178167189663485,-0.11799133827113953,-0.23852103078685505,0.8034214680449246,3
278,2024-09-14 20:03:33.268457984,TASK_BEGIN,003,-0.04729324084771514,0.024159755690011952,1.939347199313968,-0.951815639165066,0.6346658325121222,-0.13081650823339047,-0.20610020961989522,0.7965005448334356,3
279,2024-09-14 20:03:33.348083968,TASK_BEGIN,003,-0.04836052231234355,0.018909857107945693,1.8795476222203913,-0.9429766663953721,0.6482307670004288,-0.14329860073400205,-0.16396558058799074,0.7875665808921701,3
280,2024-09-14 20:03:33.419503872,TASK_BEGIN,003,-0.05111424243979623,0.013166558833577922,1.8185430524854802,-0.9332168006091562,0.6587686807204599,-0.1551756647568038,-0.11427965868059861,0.7769364235957513,3
281,2024-09-14 20:03:33.487265024,TASK_BEGIN,003,-0.05544404376812402,0.007024825624953692,1.7529796345784545,-0.9207261415557613,0.6666634664096891,-0.16620232518791878,-0.06013555010105782,0.764814735904603,3
282,2024-09-14 20:03:33.555077120,TASK_BEGIN,003,-0.061321254069098476,0.0006673539807929707,1.6795031737464996,-0.9040624444030898,0.6723629831073539,-0.17615887613330752,-0.005335114375572465,0.7513620187164279,3
283,2024-09-14 20:03:33.622886912,TASK_BEGIN,003,-0.06879584105410011,-0.005651874717989523,1.5947882912564006,-0.8821734507527113,0.6762981785043195,-0.1848560508082069,0.0460990576741276,0.7367573285655298,3
284,2024-09-14 20:03:33.690700032,TASK_BEGIN,003,-0.07794478711079957,-0.01163245549409038,1.4956646132465994,-0.8543878652891329,0.6788058588002941,-0.19213623242211725,0.09061786198548405,0.7212099416067639,3
285,2024-09-14 20:03:34.608886016,TASK_BEGIN,003,-0.08879115058893847,-0.01695560527975364,1.379515995437838,-0.820458238302158,0.6800763279114751,-0.19787440119431904,0.12581462010971567,0.7049145181642497,3
286,2024-09-14 20:03:34.676709888,TASK_BEGIN,003,-0.10122143387020115,-0.0213126698422712,1.245022719136492,-0.7806899001745622,0.6801355423507448,-0.2019805881581799,0.15084785468529335,0.6879856873627977,3
287,2024-09-14 20:03:34.741208064,TASK_BEGIN,003,-0.11492823102830496,-0.024432472956333995,1.0930139503143579,-0.7360953581824534,0.6788720406242359,-0.20440599145611488,0.1665422337175253,0.6704141476154917,3
288,2024-09-14 20:03:34.803254016,TASK_BEGIN,003,-0.12939841361462148,-0.026103946731679362,0.9270006744412853,-0.6884621636553424,0.6761182816153712,-0.20515654064168815,0.17518997188573104,0.652068439922839,3
289,2024-09-14 20:03:34.865309952,TASK_BEGIN,003,-0.14394835346554932,-0.026190003640722492,0.7531373828545609,-0.6402696095338692,0.6717704166481919,-0.20431311432953525,0.18014370246748365,0.6327401740656984,3
290,2024-09-14 20:03:34.942509056,TASK_BEGIN,003,-0.1577855341116217,-0.024634055134960555,0.5796930575542308,-0.5944732136786903,0.6659091259733776,-0.2020501718668914,0.18534902492482003,0.6122170427753925,3
291,2024-09-14 20:03:35.015538176,TASK_BEGIN,003,-0.1700717032850815,-0.02146620032151964,0.4162171078293082,-0.554210089334212,0.6588903751142539,-0.19864286870602818,0.19491904963618328,0.5903766267727064,3
292,2024-09-14 20:03:35.950732032,TASK_BEGIN,003,-0.1799832615221371,-0.01681178365461662,0.27250511986342285,-0.522466891241777,0.6513765883846169,-0.1944550648242309,0.21277255255946967,0.5672871682903962,3
293,2024-09-14 20:03:36.026232832,TASK_BEGIN,003,-0.18678040200924642,-0.010895553747430562,0.1574841011112391,-0.5017434627269818,0.644274956384319,-0.18990419131611502,0.2423477755312041,0.5432717163684316,3
294,2024-09-14 20:03:36.090913024,TASK_BEGIN,003,-0.1898788581112476,-0.004034614853393386,0.07824030954461371,-0.4937555988934097,0.6385880485314813,-0.18540867439861494,0.2863669537136198,0.5189001897723152,3
295,2024-09-14 20:03:36.152965120,TASK_BEGIN,003,-0.18889946558528253,0.003378709610310934,0.03940317148926172,-0.49923890176641217,0.6352401480295352,-0.1813350044665169,0.34653685204500284,0.49493120510041744,3
296,2024-09-14 20:03:36.214972928,TASK_BEGIN,003,-0.18368617425139303,0.010899704146786465,0.042919710102110556,-0.5179037625059754,0.6349435756111925,-0.17796045013135736,0.42314971502360926,0.47225173312300583,3
297,2024-09-14 20:03:36.292600064,TASK_BEGIN,003,-0.17430412847740018,0.01805827635439838,0.08808287160236009,-0.5485337259429646,0.6381192999929177,-0.17545575624944781,0.5148021506991987,0.45182230677725155,3
298,2024-09-14 20:03:36.365014272,TASK_BEGIN,003,-0.16102952248657193,0.024390982154117995,0.17173014730721275,-0.5891807867116976,0.6448574588678812,-0.17388427231348969,0.6185164174827686,0.43459669180342314,3
299,2024-09-14 20:03:37.297636096,TASK_BEGIN,003,-0.1443345031145909,0.02947750920098991,0.2886665677763781,-0.6374189998932206,0.654912015605059,-0.17321235620669395,0.7303217029601309,0.4213971529656097,3
300,2024-09-14 20:03:37.368960000,TASK_BEGIN,003,-0.12486663884057028,0.032978189764439246,0.4322909263765911,-0.6906164873676788,0.6677310241433455,-0.17332513446980732,0.8460982582031968,0.41276304890252374,3
301,2024-09-14 20:03:37.437474816,TASK_BEGIN,003,-0.10342289080800103,0.034667400650674335,0.5952718709037584,-0.7461802171006828,0.6825190493077634,-0.17404330360030626,0.9623368861903753,0.4088213351194898,3
302,2024-09-14 20:03:37.499842816,TASK_BEGIN,003,-0.0809151605499031,0.03445610409774861,0.7702147645209239,-0.8017593107580758,0.6983248285719381,-0.1751413769580796,1.0764537639814633,0.40923972108255624,3
303,2024-09-14 20:03:37.577473024,TASK_BEGIN,003,-0.05832072446054299,0.03239646951858071,0.9503508180575897,-0.8554124011289843,0.7141398956878324,-0.17636875311520947,1.1865356879718558,0.41330107152162643,3
304,2024-09-14 20:03:37.646479104,TASK_BEGIN,003,-0.036615098981587595,0.028667024548568676,1.1301212501761462,-0.9057163736752633,0.728988354071559,-0.17747106300390866,1.290746535526335,0.4200860443975922,3
305,2024-09-14 20:03:37.714263808,TASK_BEGIN,003,-0.016691167388752495,0.02354421715952773,1.305417562383009,-0.9517826394330525,0.7420022286195345,-0.17820793598083773,1.386799297398818,0.4286967354181332,3
306,2024-09-14 20:03:38.658169856,TASK_BEGIN,003,0.000724591134185427,0.017367901796495295,1.4734424861361797,-0.9931834759588554,0.7524912733278354,-0.17836703533410303,1.4718250859135706,0.43842587052366255,3
307,2024-09-14 20:03:38.710947072,TASK_BEGIN,003,0.015131229994435938,0.010506778327876573,1.6324161514045128,-1.0298236238187974,0.7600085015747962,-0.17777761269887607,1.5427364715298433,0.44880547170299945,3
308,2024-09-14 20:03:38.793773056,TASK_BEGIN,003,0.026256041235336352,0.0033286950341745772,1.7813419451989907,-1.0617927734426962,0.7643980522421417,-0.17632570152030264,1.5968948719469362,0.4595477116763983,3
309,2024-09-14 20:03:38.861537792,TASK_BEGIN,003,0.034002609916944246,-0.003822899426942821,1.9198468971377696,-1.0892185170136033,0.7658056097962499,-0.1739687347821213,1.6327734309006643,0.47044267374127735,3
310,2024-09-14 20:03:38.929316864,TASK_BEGIN,003,0.03838344171542301,-0.010647778781832195,2.047989602341024,-1.1121283494733727,0.7646373931151708,-0.17074353191437097,1.650431215761915,0.4812622091850683,3
311,2024-09-14 20:03:38.997113088,TASK_BEGIN,003,0.039479556185564535,-0.016902579955453297,2.1659803381781,-1.1303374491854186,0.761473645996052,-0.16676143436887683,1.6517551309517815,0.4916879033280009,3
312,2024-09-14 20:03:39.064940032,TASK_BEGIN,003,0.037454322085275084,-0.022409672827268193,2.27385519768048,-1.143390600770603,0.7569618936091093,-0.16218965468702354,1.6404763717440314,0.5012695978990394,3
313,2024-09-14 20:03:40.004774144,TASK_BEGIN,003,0.03262421266066027,-0.027065893512701028,2.3711421718326795,-1.1505765599206355,0.7517145201263665,-0.1572246569312559,1.6220292011802382,0.5094105666928191,3
314,2024-09-14 20:03:40.067577856,TASK_BEGIN,003,0.025544220494789792,-0.030851813488699965,2.456545911625592,-1.1510145583966043,0.7462210691749599,-0.1520648192833644,1.6033080107524715,0.5153747589654629,3
315,2024-09-14 20:03:40.143758080,TASK_BEGIN,003,0.017038171158880237,-0.03383273242748337,2.5277775233222677,-1.143803315461178,0.7407819862709545,-0.146887411239737,1.5922131775913906,0.5183309446458392,3
316,2024-09-14 20:03:40.207891968,TASK_BEGIN,003,0.008135397482038446,-0.03614371534563813,2.58169370027716,-1.12820925708771,0.7354748169523772,-0.1418336035462099,1.5968323201997796,0.5174484255775158,3
317,2024-09-14 20:03:40.279287040,TASK_BEGIN,003,-7.312268673424054e-05,-0.03796160866853781,2.6147652210083567,-1.1038485664786075,0.7301513278080342,-0.13700251900512467,1.624346916455919,0.512025817268016,3
318,2024-09-14 20:03:40.331953152,TASK_BEGIN,003,-0.006620084519629784,-0.039473159339010334,2.6237324881671125,-1.0708141978539678,0.724447073660858,-0.13245148420980685,1.679983780469663,0.501615052020954,3
319,2024-09-14 20:03:40.409161984,TASK_BEGIN,003,-0.010834715169271978,-0.040848206947705926,2.6062374635975205,-1.029728736482243,0.7177969199626867,-0.12819914221876053,1.766274033319448,0.4861182499215505,3
320,2024-09-14 20:03:41.321155072,TASK_BEGIN,003,-0.012442924205817309,-0.04222421895998658,2.561246576125107,-0.9817354135222224,0.7094752360917076,-0.12423027805411702,1.882689852963737,0.4658516782143023,3
321,2024-09-14 20:03:41.396150016,TASK_BEGIN,003,-0.011565295902916406,-0.043703087226918194,2.4892021551240626,-0.9284372864281225,0.6986776257332584,-0.12050339341441561,2.0256418027236704,0.44157326766236416,3
322,2024-09-14 20:03:41.458188032,TASK_BEGIN,003,-0.008636206823948183,-0.0453560495872809,2.3919551892108966,-0.8717772556411367,0.6846351071705823,-0.11696270779516511,2.188794717439696,0.4144811252092774,3
323,2024-09-14 20:03:41.535876864,TASK_BEGIN,003,-0.004289715618221505,-0.04723189546832473,2.272552898766942,-0.8138641999093332,0.6667363496493817,-0.1135537008969753,2.36362188965421,0.3861912756910672,3
324,2024-09-14 20:03:41.597460992,TASK_BEGIN,003,0.0007616292321152752,-0.049365917297742104,2.1349489047655505,-0.7567882954912968,0.6446371920358701,-0.11023784977347127,2.5401433155941664,0.3586615247923037,3
325,2024-09-14 20:03:41.672240896,TASK_BEGIN,003,0.0058447947139045,-0.051788265999238324,1.9837107727428005,-0.7024759478178145,0.6183413752445784,-0.10700352762319836,2.7078516886839687,0.33400965051253134,3
326,2024-09-14 20:03:41.740060160,TASK_BEGIN,003,0.010412684925485458,-0.05452876069945629,1.8238011374855405,-0.6525945442924685,0.5882401189858579,-0.10387513873199439,2.8567925060543735,0.31423701343746113,3
327,2024-09-14 20:03:42.683367936,TASK_BEGIN,003,0.01406101763156513,-0.05761381875060363,1.6604803551044829,-0.6084841204856758,0.5551073739220167,-0.10092210973642866,2.9786251965801984,0.30094374568206456,3
328,2024-09-14 20:03:42.738756096,TASK_BEGIN,003,0.01648136445045316,-0.06105435626244885,1.4992786508116505,-0.5711039571512657,0.5200598224633805,-0.09826280004249718,3.06740147796939,0.29512915970560977,3
329,2024-09-14 20:03:42.818968064,TASK_BEGIN,003,0.01740690996901426,-0.06483099824873903,1.3458920143331756,-0.5410055395655642,0.4844968277802821,-0.09605760799072313,3.119925765750798,0.29711787130365686,3
330,2024-09-14 20:03:42.877465088,TASK_BEGIN,003,0.016598040753576914,-0.06888759882100498,1.2059454074050535,-0.5183522626689735,0.4500193339599454,-0.09449131726996564,3.135783616367145,0.30658971260343254,3
331,2024-09-14 20:03:42.940687104,TASK_BEGIN,003,0.013865234864987554,-0.07313831126773519,1.084752483828827,-0.5030022222220062,0.41830471354761756,-0.09374744324923134,3.117149727160889,0.3226675450070473,3
332,2024-09-14 20:03:43.020390912,TASK_BEGIN,003,0.00910098865916208,-0.07748255728653555,0.9871631861907084,-0.49463923660687303,0.3909348854948533,-0.09397883468340003,3.0683724956770386,0.3440356289885701,3
333,2024-09-14 20:03:43.079432960,TASK_BEGIN,003,0.002303779845134519,-0.08181936507038107,0.9173823410329044,-0.4928963274753859,0.36922341004183534,-0.09528253360629037,2.9953403823986067,0.36908383383521876,3
334,2024-09-14 20:03:44.029272832,TASK_BEGIN,003,-0.006406445556899325,-0.08605744620591776,0.8786195421639728,-0.4974201444856792,0.3540954247161528,-0.09768569582536026,2.9047559813553567,0.39607298916008865,3
335,2024-09-14 20:03:44.102873088,TASK_BEGIN,003,-0.016780397788196018,-0.09012020786782497,0.8726054246870742,-0.5078689252445069,0.34603771246041143,-0.10114268428945455,2.8034609267749775,0.42330494149424114,3
336,2024-09-14 20:03:44.168252928,TASK_BEGIN,003,-0.028448146783615326,-0.09394463653629527,0.8991703120579689,-0.5238711861155562,0.3451083185545528,-0.10554047512568566,2.6978587449515468,0.4492747542240739,3
337,2024-09-14 20:03:44.230737152,TASK_BEGIN,003,-0.04095811910885645,-0.09747414704270052,0.9561084599864764,-0.5449755587072578,0.35098784063147365,-0.11071064872333852,2.593468853736001,0.4727787877679473,3
338,2024-09-14 20:03:44.306278144,TASK_BEGIN,003,-0.053845853776905456,-0.10064789368608955,1.0393699522741275,-0.5706016516206006,0.3630473696796951,-0.11644502435685536,2.4947095831518236,0.492952125495142,3
339,2024-09-14 20:03:44.370497024,TASK_BEGIN,003,-0.06670656568472719,-0.10339103810805196,1.1433862451812706,-0.5999896363172765,0.38041095513864254,-0.12250995232290686,2.404948415618713,0.5092294283437256,3
340,2024-09-14 20:03:44.432094976,TASK_BEGIN,003,-0.07923270430226975,-0.10561153736641579,1.2613506213578873,-0.6321591248976662,0.402012289045477,-0.12865722049631287,2.3266920611586253,0.5212630597720375,3
341,2024-09-14 20:03:45.358943744,TASK_BEGIN,003,-0.09119529815581304,-0.10720663594198994,1.3854942079635362,-0.6658986924072255,0.426663561862702,-0.13463618015526146,2.261765512197385,0.5288540627879244,3
342,2024-09-14 20:03:45.426728960,TASK_BEGIN,003,-0.10238799804808359,-0.1080765047175351,1.5075083808080556,-0.6998059961565319,0.45315439035953853,-0.14021423767216962,2.211475323891177,0.5319245608165019,3
343,2024-09-14 20:03:45.494505984,TASK_BEGIN,003,-0.11257474639361961,-0.10813942021450793,1.619177087031899,-0.732393746438121,0.48037837903928243,-0.14520704820400754,2.1768055381324194,0.5305124528394781,3
344,2024-09-14 20:03:45.556460032,TASK_BEGIN,003,-0.12146238847809966,-0.10734487892862485,1.7131394547299255,-0.7622488038822647,0.5074537282750233,-0.14951093259285542,2.1585872439576135,0.524755841565132,3
345,2024-09-14 20:03:45.617500928,TASK_BEGIN,003,-0.12869159462304414,-0.10568391070217757,1.783632569802496,-0.7881927685815064,0.5337959820967312,-0.153125723544425,2.157541901055923,0.5148631316712639,3
346,2024-09-14 20:03:45.694748160,TASK_BEGIN,003,-0.1338364192465461,-0.10319774731117509,1.8270649774094254,-0.8093943291082389,0.5591247078171118,-0.15615820347860435,2.1741859027546773,0.501097072506533,3
347,2024-09-14 20:03:45.760258048,TASK_BEGIN,003,-0.13641640883916623,-0.09998625177578568,1.842268833240522,-0.8254144814126536,0.5834137809766057,-0.15880410885151192,2.2086283385869714,0.48379884476038754,3
348,2024-09-14 20:03:46.708738048,TASK_BEGIN,003,-0.1359324552305151,-0.09621370737786453,1.8303064974854757,-0.8361794438095864,0.6068167751020732,-0.16131791522371944,2.2602669366077506,0.46344015858654564,3
349,2024-09-14 20:03:46.774355968,TASK_BEGIN,003,-0.1319195363730587,-0.09210694335260261,1.7938511363992748,-0.8418819581359188,0.6296074354266944,-0.16398496020870884,2.327442087389975,0.4406586627799661,3
350,2024-09-14 20:03:46.831293184,TASK_BEGIN,003,-0.12398487234792635,-0.08794631653594345,1.7363741350747082,-0.8428420167109791,0.652147705480859,-0.16710265604923888,2.407249178041912,0.4162371049820371,3
351,2024-09-14 20:03:46.908051968,TASK_BEGIN,003,-0.11181545075178351,-0.08405485528621498,1.6614767016725271,-0.8393990664368239,0.6748539651907862,-0.17096491966114555,2.495715125698023,0.3910223629341913,3
352,2024-09-14 20:03:46.969156096,TASK_BEGIN,003,-0.09517921169432789,-0.08078526459381542,1.5725641411270297,-0.8318984403380537,0.6981283130433995,-0.175841279838229,2.588319337138261,0.365823713031524,3
353,2024-09-14 20:03:47.047468032,TASK_BEGIN,003,-0.07395123190426764,-0.07849868898937379,1.4728291352419185,-0.8207611804264197,0.7222577412654682,-0.18195055701623483,2.680594256771981,0.3413509421412765,3
354,2024-09-14 20:03:47.107561984,TASK_BEGIN,003,-0.04816856137475309,-0.07753332645165838,1.3654402637442773,-0.8065723503190521,0.7473250317290164,-0.1894380001407294,2.7685252089654386,0.31822796907084644,3
355,2024-09-14 20:03:48.055000064,TASK_BEGIN,003,-0.018094156865086142,-0.07816864484031819,1.2538530745730736,-0.7901380267924498,0.773191118516684,-0.19836616340983418,2.8486858214570665,0.29705604186420265,3
356,2024-09-14 20:03:48.125245184,TASK_BEGIN,003,0.015735056210233914,-0.08059421999455157,1.1420812426729032,-0.772491113161611,0.7995761574382192,-0.20872194382980763,2.9182661980126747,0.2784529602758796,3
357,2024-09-14 20:03:48.192980992,TASK_BEGIN,003,0.052495087544012706,-0.08489026719002687,1.0346907291408882,-0.7548349068522837,0.8261996653190168,-0.2204314350612771,2.9751582147042184,0.26301924660791465,3
358,2024-09-14 20:03:48.260756992,TASK_BEGIN,003,0.09110012172610038,-0.09102145031776862,0.9364131821761209,-0.7384208477183748,0.8528966652199214,-0.23337117181643818,3.0181259962833638,0.2512562835865843,3
359,2024-09-14 20:03:48.328527872,TASK_BEGIN,003,0.1302557447164802,-0.0988414655106594,0.8515680642160434,-0.7243833787302834,0.87964371843064,-0.24737059996333063,3.0470473688694297,0.24348522612788176,3
360,2024-09-14 20:03:48.396243968,TASK_BEGIN,003,0.16853597918038554,-0.10810704128089804,0.7836485111869983,-0.7135963629219065,0.9064883455654665,-0.2622082107133054,3.063237524756178,0.23977077770162983,3
361,2024-09-14 20:03:48.454172160,TASK_BEGIN,003,0.2044896049453356,-0.11850200660170326,0.7352275145185514,-0.7066098394105329,0.9334377766211107,-0.277608081077665,3.0697469031845053,0.23983553838554153,3
362,2024-09-14 20:03:49.393844992,TASK_BEGIN,003,0.23676822628167493,-0.12966955198561939,0.7079742502691392,-0.7036470743179813,0.9603864748462626,-0.2932452280464998,3.0713496813250334,0.24299823753772296,3
363,2024-09-14 20:03:49.471951872,TASK_BEGIN,003,0.26424888222918075,-0.1412468653076285,0.7025250147711988,-0.7046029006175083,0.9871249566457481,-0.3087656494874598,3.0740427323316344,0.24819903306381647,3
364,2024-09-14 20:03:49.533586944,TASK_BEGIN,003,0.28612554125925843,-0.15289610502751866,0.7182683318513953,-0.7090418273809068,1.0134163436206507,-0.32381961120892166,3.0842440617783398,0.25411921430949874,3
365,2024-09-14 20:03:49.610318080,TASK_BEGIN,003,0.301961596366178,-0.16432741368695086,0.7532633353050183,-0.7162335384034062,1.0391051010600507,-0.33810018364813293,3.108060008422433,0.25933073663609574,3
366,2024-09-14 20:03:49.672434176,TASK_BEGIN,003,0.3117053995820166,-0.17531032294664617,0.8043413216066372,-0.7252339041861954,1.0642214775605707,-0.3513774670588881,3.150771102285359,0.26242183506939926,3
367,2024-09-14 20:03:49.746459904,TASK_BEGIN,003,0.3156703284616829,-0.1856726531349378,0.8673387078625326,-0.7349990949255553,1.0890404947952719,-0.363520806563349,3.2164055137198746,0.2621050684666535,3
368,2024-09-14 20:03:49.811232256,TASK_BEGIN,003,0.3144872341740529,-0.19529295542089442,0.9374792247889475,-0.7445213674653013,1.1140626453609797,-0.374504276834331,3.307246674204516,0.25733452732008333,3
369,2024-09-14 20:03:50.752702976,TASK_BEGIN,003,0.3090416175710626,-0.20409564895780316,1.0098593322040135,-0.7529563485296498,1.1399170068299271,-0.3843944062955385,3.423296569295029,0.24743210132345994,3
370,2024-09-14 20:03:50.813145088,TASK_BEGIN,003,0.3003966622676741,-0.21205113420098148,1.079832694962314,-0.7596976844841726,1.1672294519763051,-0.3933239629156917,3.5619076845168762,0.23218581178869524,3
371,2024-09-14 20:03:50.890304256,TASK_BEGIN,003,0.28969844962882946,-0.21917546566713314,1.143140881897233,-0.7643821818896982,1.1965152707206177,-0.4014601403427733,3.7178348806039883,0.21187138558606142,3
372,2024-09-14 20:03:50.952387840,TASK_BEGIN,003,0.27807039034705455,-0.22552475427885937,1.1958581068512806,-0.766851378104903,1.2281242650250708,-0.4089755346423946,3.8837752728267816,0.18718225578065506,3
373,2024-09-14 20:03:51.014875904,TASK_BEGIN,003,0.2665087907573595,-0.2311826784315911,1.2343543076328987,-0.7671096287501122,1.2622181769705567,-0.41602436386275954,4.0512712899446255,0.15909552395306809,3
374,2024-09-14 20:03:51.096864000,TASK_BEGIN,003,0.2557894922094526,-0.23624045982570524,1.255437060096936,-0.7652984428372406,1.298750936049297,-0.4227207548787474,4.2117821916741365,0.12871584994139862,3
375,2024-09-14 20:03:51.164645120,TASK_BEGIN,003,0.24639935262019316,-0.24077256868287766,1.25666507298637,-0.7616801359516178,1.337450706425742,-0.4291185934691017,4.357680851496933,0.09714153422981596,3
376,2024-09-14 20:03:52.069731072,TASK_BEGIN,003,0.23850928603566918,-0.2448170911191652,1.236689265255786,-0.7566154876115324,1.3778187760252807,-0.4351988672840338,4.482975358783028,0.06538175047588461,3
377,2024-09-14 20:03:52.151863040,TASK_BEGIN,003,0.23199741555125933,-0.24836817194871877,1.1955029242402757,-0.7505290341226564,1.4191468961255702,-0.4408694537862332,4.583720853418895,0.034317758536852185,3
378,2024-09-14 20:03:52.209178880,TASK_BEGIN,003,0.22651731770223998,-0.2513805552085111,1.1346081438946742,-0.7438675845264667,1.4605400859870492,-0.445975856586504,4.658164753340129,0.004684253401988508,3
379,2024-09-14 20:03:52.286384896,TASK_BEGIN,003,0.2215952169431121,-0.25378211034010534,1.0571782252178203,-0.7370650093609598,1.500936205112228,-0.4503187320634388,4.706667637671398,-0.022947343486067934,3
380,2024-09-14 20:03:52.355112960,TASK_BEGIN,003,0.21672949075173395,-0.2554894496717434,0.968235219660948,-0.7305283355097001,1.5391270783870297,-0.45367519638124776,4.731474829842545,-0.04819493808056936,3
381,2024-09-14 20:03:52.422929920,TASK_BEGIN,003,0.21146202347572865,-0.25642023218444077,0.8747078889439113,-0.7246503643475993,1.5737928949795834,-0.4558213490655631,4.736374427432958,-0.07089117643877021,3
382,2024-09-14 20:03:52.490676992,TASK_BEGIN,003,0.20541075601435624,-0.256497904595391,0.7851571475966734,-0.7198320167057315,1.6035603112281087,-0.4565530639774073,4.726203391397853,-0.09107365457264366,3
383,2024-09-14 20:03:53.435543040,TASK_BEGIN,003,0.19828583017479826,-0.2556529244836993,0.7090724297587964,-0.7164867257585774,1.6270824490580629,-0.45570230884822244,4.706218738972441,-0.10891463107304736,3
384,2024-09-14 20:03:53.503336960,TASK_BEGIN,003,0.18992103637958394,-0.2538290078289727,0.6558252986169886,-0.7150117661707257,1.6431207450763134,-0.4531471505797872,4.681468887505932,-0.12460623479580392,3
385,2024-09-14 20:03:53.564537088,TASK_BEGIN,003,0.180329272150794,-0.25099661890287533,0.6334548316205502,-0.7157269643466746,1.65061408751747,-0.44881568224927526,4.656330742684677,-0.13825539295613046,3
386,2024-09-14 20:03:53.626552064,TASK_BEGIN,003,0.1697642739504185,-0.24716720752365515,0.6475009047696091,-0.7187912569014825,1.64874720769865,-0.44268718865924356,4.634282244828318,-0.1498407408891971,3
387,2024-09-14 20:03:53.706754816,TASK_BEGIN,003,0.1587617809845354,-0.2424004245931344,0.7001330245138705,-0.7241151817678259,1.637028688107888,-0.4347940092380112,4.617854948102524,-0.15924126341426809,3
388,2024-09-14 20:03:53.770181888,TASK_BEGIN,003,0.14813430243345374,-0.23680038388969332,0.7897528046448044,-0.7312860215693622,1.6153548718024568,-0.42522280207262314,4.6086902436517105,-0.16630679922641398,3
389,2024-09-14 20:03:53.842345984,TASK_BEGIN,003,0.13889980107391958,-0.23050074594510683,0.9111044821993831,-0.7395229529278885,1.5840274464650912,-0.41411131513474003,4.607685905139161,-0.170934687065832,3
390,2024-09-14 20:03:54.782728960,TASK_BEGIN,003,0.13214538913665694,-0.2236419561798312,1.0558190203994187,-0.7476855518326703,1.5437263874469191,-0.4016409883307245,4.615266397335795,-0.17313715829259796,3
391,2024-09-14 20:03:54.844250880,TASK_BEGIN,003,0.12885244435104587,-0.21634644540369738,1.2132413688223052,-0.7543412971131142,1.4954603361530545,-0.38802841448098274,4.631753101579035,-0.173096205588419,3
392,2024-09-14 20:03:54.906105088,TASK_BEGIN,003,0.12972153905180087,-0.2086976752233929,1.3713600514466977,-0.7578676678258462,1.4405015011873585,-0.3735150922429282,4.657654344776843,-0.17118903507633595,3
393,2024-09-14 20:03:54.982800128,TASK_BEGIN,003,0.13504119593346106,-0.20072885769343074,1.5177545807860238,-0.7565754889426239,1.3803083623618984,-0.3583542467480542,4.693661228793125,-0.1679611239650858,3
394,2024-09-14 20:03:55.044811008,TASK_BEGIN,003,0.14464000358381454,-0.19242664783702437,1.6406052538297555,-0.7488756777055048,1.3164575763865913,-0.3427986420640699,4.740344678318532,-0.1640482124427305,3
395,2024-09-14 20:03:55.122179072,TASK_BEGIN,003,0.15793156861767874,-0.18375036423304134,1.7297707424413384,-0.7334992711818296,1.2506054725909201,-0.32709430537464146,4.797754476220821,-0.16007372910275913,3
396,2024-09-14 20:03:55.184039168,TASK_BEGIN,003,0.17402558197741871,-0.17465994987305547,1.777813694006406,-0.7097284625702855,1.1844736534429365,-0.31147981266272506,4.865071937708425,-0.15654186440174928,3
397,2024-09-14 20:03:56.106923008,TASK_BEGIN,003,0.19186228170310476,-0.1651418947721376,1.7808203556663675,-0.6775767122553811,1.1198327630638103,-0.2961868086951228,4.940287553606225,-0.15372444511837668,3
398,2024-09-14 20:03:56.166739968,TASK_BEGIN,003,0.2103309427925197,-0.15522353753791227,1.7388270281867653,-0.6378782238642209,1.0584606288730076,-0.28143754361746304,5.019866388063448,-0.1515461803477973,3
399,2024-09-14 20:03:56.228856832,TASK_BEGIN,003,0.22835378842268414,-0.1449718261122771,1.6556553279962127,-0.5922673751535841,1.002067135023286,-0.26743673079929586,5.098533497538061,-0.14950349053167772,3
400,2024-09-14 20:03:56.310350080,TASK_BEGIN,003,0.24494803430235093,-0.13448220145114786,1.5381588197020457,-0.5430388239416705,0.9521876354778701,-0.2543566932771014,5.169377031711205,-0.14665780131389206,3
401,2024-09-14 20:03:56.378135040,TASK_BEGIN,003,0.25929073630086313,-0.12387023347404076,1.3951159423900445,-0.49289874195720684,0.9100539896260789,-0.24231899409523283,5.2243362767832275,-0.14171616058559733,3
402,2024-09-14 20:03:56.431371776,TASK_BEGIN,003,0.2707902609266431,-0.11327428365190119,1.2360201003354612,-0.44464387148864887,0.8764724928190618,-0.23138148275595272,5.255015726651561,-0.13318983047047261,3
403,2024-09-14 20:03:56.508634112,TASK_BEGIN,003,0.2791419326175391,-0.10286501769510623,1.0699676556568043,-0.4008213229417276,0.8517513151229061,-0.22153972625158322,5.253738515807363,-0.11962025301644254,3
404,2024-09-14 20:03:57.449101056,TASK_BEGIN,003,0.2843412864604404,-0.09285066701393721,0.9048413718252819,-0.36342831696948286,0.8357044058669918,-0.21274486512747626,5.21469680002656,-0.09984752087522757,3
405,2024-09-14 20:03:57.526077952,TASK_BEGIN,003,0.28664546315780626,-0.08347211199022328,0.7469051423641344,-0.3337103557652037,0.8277227097094111,-0.20493170252639906,5.134977731710867,-0.07326145406783521,3
406,2024-09-14 20:03:57.593915136,TASK_BEGIN,003,0.28649401301099686,-0.07499017080933242,0.6007661955147444,-0.31209764693932335,0.8268699625310697,-0.19804516860319873,5.0152743892388125,-0.03996714450761128,3
407,2024-09-14 20:03:57.650538752,TASK_BEGIN,003,0.2844102358384592,-0.06766823449383358,0.4695612313561632,-0.2982796225265434,0.831959908196496,-0.19205447018992164,4.860165617537048,-0.0008292367558267763,3
408,2024-09-14 20:03:57.729445120,TASK_BEGIN,003,0.28090707169040624,-0.061751043160015,0.35521594467696016,-0.29137466961136466,0.8416120476904109,-0.18695291566809422,4.67787330571531,0.04260349620630305,3
409,2024-09-14 20:03:57.797226752,TASK_BEGIN,003,0.2764244576685403,-0.05744400188422706,0.2586432247009156,-0.29013107271155747,0.8543179607332457,-0.18274908131942938,4.479475604063669,0.08826563523859347,3
410,2024-09-14 20:03:57.865040896,TASK_BEGIN,003,0.2713152824253802,-0.054900844973617406,0.17980381198877354,-0.29311237686310154,0.8685371354745275,-0.17945588033997595,4.277687434314565,0.13379753450724277,3
411,2024-09-14 20:03:58.807918080,TASK_BEGIN,003,0.26586905664863875,-0.054221855470107126,0.11772638234079409,-0.2988666662605494,0.8828060002359435,-0.1770815154742066,4.085404450469304,0.1767999487863289,3
412,2024-09-14 20:03:58.875712000,TASK_BEGIN,003,0.26034217517352964,-0.05545736717252601,0.07070814302052301,-0.30609902751826146,0.8958344138600194,-0.17562366663244292,3.914267433468028,0.21510562993206483,3
413,2024-09-14 20:03:58.943523072,TASK_BEGIN,003,0.2549713297720289,-0.05860981463865591,0.03676261419873433,-0.3138247963205738,0.9065705386448893,-0.1750643459354569,3.773589153573171,0.24702319878134635,3
414,2024-09-14 20:03:59.001998080,TASK_BEGIN,003,0.2499665288186325,-0.06362899597494853,0.014118401726320333,-0.32144645885913836,0.9142141378760222,-0.17535874461635736,3.6699429374413404,0.27147990520548954,3
415,2024-09-14 20:03:59.065536000,TASK_BEGIN,003,0.2454949238615265,-0.07040013835414471,0.0015653406458219902,-0.3287415105839267,0.9181781800607666,-0.17641570017112376,3.607416403071584,0.28802248789335455,3
416,2024-09-14 20:03:59.146871040,TASK_BEGIN,003,0.24167630946510008,-0.07873405532312107,-0.001340206990424319,-0.3358128726863256,0.918041252152985,-0.17808024315047902,3.588173176837892,0.2967163364653853,3
417,2024-09-14 20:03:59.204845056,TASK_BEGIN,003,0.2386041121688714,-0.08837069277733593,0.005868454256140881,-0.3430409406670134,0.9135381751728447,-0.180132663675161,3.6128729063382528,0.29802264496718356,3
418,2024-09-14 20:04:00.153505024,TASK_BEGIN,003,0.23637732340228357,-0.09899551628868941,0.024571207140278745,-0.35101362001117126,0.9045935801118226,-0.18230704871721926,3.680738257318929,0.2926939426479571,3
419,2024-09-14 20:04:00.226202880,TASK_BEGIN,003,0.23511252291375406,-0.11025824440476263,0.05678074475329966,-0.3603975755929057,0.8913703733056414,-0.18432172322290435,3.7893623415496336,0.2816855315451706,3
420,2024-09-14 20:04:00.292081920,TASK_BEGIN,003,0.23492039717787444,-0.12178707193113064,0.10461010040358966,-0.3717694017264612,0.8743053034186663,-0.18591379225661836,3.9344945101715387,0.2660825489400509,3
421,2024-09-14 20:04:00.354693888,TASK_BEGIN,003,0.23585368680769167,-0.13319964192824546,0.16969717288710762,-0.38547527410933075,0.8541165538720065,-0.18687173255777145,4.110008424054127,0.2470505303531182,3
422,2024-09-14 20:04:00.416281088,TASK_BEGIN,003,0.23784661397519552,-0.1441138546195368,0.2527685771457243,-0.401569959511439,0.8317775862843635,-0.18705864277099987,4.308124274888308,0.2258075220722345,3
423,2024-09-14 20:04:00.497350144,TASK_BEGIN,003,0.240672911260339,-0.1541596792240584,0.35336174354931127,-0.41982306237822276,0.8084531524239714,-0.18641905299533237,4.519852827187486,0.2035982195443357,3
424,2024-09-14 20:04:00.554627840,TASK_BEGIN,003,0.2439411752723838,-0.1629927202541297,0.469665634843077,-0.4397504685523338,0.7853957146117768,-0.1849676109317069,4.735625505025205,0.18163481850021843,3
425,2024-09-14 20:04:01.508457984,TASK_BEGIN,003,0.24712190393415648,-0.1703093123035399,0.5985421450876238,-0.46065797124210944,0.763817689718862,-0.18276525712478317,4.946073891812586,0.16098177888313647,3
426,2024-09-14 20:04:01.570510080,TASK_BEGIN,003,0.24958927652902563,-0.1758605238198026,0.7358002207986072,-0.48170673708112577,0.7447782250542397,-0.17989355124927386,5.142820832578915,0.1424174971604144,3
427,2024-09-14 20:04:01.644032000,TASK_BEGIN,003,0.25067010308259535,-0.17946292705392422,0.8766177387664845,-0.5019859122830451,0.7291210058622308,-0.17643808951985918,5.319064027608251,0.12635356040881468,3
428,2024-09-14 20:04:01.709656064,TASK_BEGIN,003,0.24969390342983425,-0.18100540626316292,1.0159058466173552,-0.520560670189817,0.7174636463329728,-0.17248495553118764,5.46982401149388,0.11286540838181988,3
429,2024-09-14 20:04:01.770667008,TASK_BEGIN,003,0.24602856900244527,-0.18044937941925623,1.1485229356501274,-0.5364951025635033,0.7102074133888774,-0.16812438637758012,5.59190767440148,0.10180756919304039,3
430,2024-09-14 20:04:01.847440896,TASK_BEGIN,003,0.2390983627890727,-0.17782144226601512,1.269388283940467,-0.5488785548390162,0.7075421669441412,-0.1634538664008919,5.6837470393657785,0.09293778854995738,3
431,2024-09-14 20:04:01.910408960,TASK_BEGIN,003,0.22840915935248834,-0.17320472106949972,1.373585996920163,-0.5568678654963614,0.7094508879283642,-0.15857973875094108,5.7452658779127965,0.08599114449757173,3
432,2024-09-14 20:04:02.859043072,TASK_BEGIN,003,0.21359851549530173,-0.16673502239847854,1.4565413543499068,-0.5597322800470466,0.7157355734252926,-0.15362197008463868,5.777824116151361,0.08069185222697225,3
433,2024-09-14 20:04:02.926848768,TASK_BEGIN,003,0.19449333917784528,-0.15859977437579334,1.5143418178418735,-0.5568950751733075,0.7260747569211565,-0.14872458694755006,5.784153212036441,0.07673495619288612,3
434,2024-09-14 20:04:02.983589888,TASK_BEGIN,003,0.1711531475576898,-0.14903608872588966,1.5442104700434816,-0.5479869681122364,0.7400945426135216,-0.1440682748974554,5.7681253149293426,0.07379075314345344,3
435,2024-09-14 20:04:03.060844032,TASK_BEGIN,003,0.14389058862053825,-0.1383273130154324,1.5449988462765532,-0.5329150094126502,0.7574199772272022,-0.13987798650337382,5.734275246720976,0.07155630148298497,3
436,2024-09-14 20:04:03.130072064,TASK_BEGIN,003,0.1132544619781873,-0.1267950993119926,1.517489727875726,-0.51191096394135,0.7776840389173572,-0.13641884293643253,5.687184649931493,0.06982290395928423,3
437,2024-09-14 20:04:03.184420096,TASK_BEGIN,003,0.0799657114615643,-0.1147825655026851,1.4643845218660934,-0.485516034656181,0.800491352928836,-0.1339765752636619,5.630984805842835,0.0685060690830979,3
438,2024-09-14 20:04:03.262065920,TASK_BEGIN,003,0.044831575144677234,-0.10263115988906514,1.389970543294808,-0.45450611333812657,0.8253535358181193,-0.13282346905498385,5.569200787898715,0.06761110264078547,3
439,2024-09-14 20:04:04.193105920,TASK_BEGIN,003,0.008671019583428054,-0.09065878598985369,1.2995402788506476,-0.4198049652909034,0.8516293660878251,-0.1331760549153758,5.504944282551148,0.0671518051140828,3
440,2024-09-14 20:04:04.270977024,TASK_BEGIN,003,-0.027740305194345706,-0.07914179684339415,1.1987192491875298,-0.38242819179668763,0.8785009990874852,-0.13515484268146705,5.441194801168337,0.06707583730976627,3
441,2024-09-14 20:04:04.333091072,TASK_BEGIN,003,-0.063696839411461,-0.06829993923322596,1.0928835802958055,-0.34346746292276825,0.9049974359784136,-0.13875812816882233,5.380823386575705,0.0672547347067452,3
442,2024-09-14 20:04:04.412068096,TASK_BEGIN,003,-0.09854137394047019,-0.058287717868848114,0.9867333877458485,-0.3040888495562992,0.9300561084743318,-0.14385799389029844,5.326282678809488,0.06754398221897329,3
443,2024-09-14 20:04:04.471847168,TASK_BEGIN,003,-0.1315988699349942,-0.049198625195912504,0.8839811032255239,-0.2655048093528095,0.952599768625237,-0.1502160558566875,5.27928024225066,0.06784479030739636,3
444,2024-09-14 20:04:04.533388032,TASK_BEGIN,003,-0.16210102477131336,-0.04108402631910684,0.7871571969052304,-0.22890579447725695,0.9716050952957437,-0.15750897855995138,5.2407940135250906,0.06809369046221052,3
445,2024-09-14 20:04:04.611136000,TASK_BEGIN,003,-0.18914151414122066,-0.03397969959991038,0.697608757266732,-0.19537464676357422,0.9861607072268452,-0.1653580918301445,5.211434398812421,0.06818194112223694,3
446,2024-09-14 20:04:05.559273984,TASK_BEGIN,003,-0.2116958998180101,-0.027927154087959708,0.615687062109149,-0.16580925103210437,0.9955327842864562,-0.17336402910909415,5.191852692034274,0.06786650112296094,3
447,2024-09-14 20:04:05.627091712,TASK_BEGIN,003,-0.22872176168054564,-0.022980142794028005,0.5409837111159717,-0.14086401542950097,0.9992399945443879,-0.1811435763345872,5.182955401559751,0.06671736266444754,3
448,2024-09-14 20:04:05.686981888,TASK_BEGIN,003,-0.2393100326771166,-0.019198255338815334,0.4725131275707215,-0.12092492099886558,0.9971086298991381,-0.18836052046187948,5.18592457257058,0.06411391873732891,3
449,2024-09-14 20:04:05.762595840,TASK_BEGIN,003,-0.24282331195083443,-0.016638551138173505,0.4088706334187546,-0.10613126768506997,0.989291057094182,-0.19474803412102112,5.202122204116254,0.059304912356450884,3
450,2024-09-14 20:04:05.826278912,TASK_BEGIN,003,-0.23897176710839746,-0.01535328649172984,0.3484020009567761,-0.09642923820896422,0.9762693813779949,-0.20012766136793614,5.232869493696906,0.05153728757475242,3
451,2024-09-14 20:04:05.898210816,TASK_BEGIN,003,-0.22782076219180677,-0.015390402360408496,0.28938234780235816,-0.09162777866117953,0.9588658544387029,-0.20442578534460068,5.279062735857671,0.04022031734064384,3
452,2024-09-14 20:04:05.965954048,TASK_BEGIN,003,-0.20975461255004238,-0.016787215936544572,0.23022660957823615,-0.09144060936224303,0.9382506109813494,-0.20768165413772416,5.340714604555728,0.02506386766701212,3
453,2024-09-14 20:04:06.883371008,TASK_BEGIN,003,-0.18542740474848535,-0.0195541902262121,0.16974616547619553,-0.09550609442608045,0.915925373609455,-0.21004366157929089,5.416659828174862,0.0061362105853779055,3
454,2024-09-14 20:04:06.944431872,TASK_BEGIN,003,-0.15572186729752385,-0.023655807850624502,0.10740712749303395,-0.10338004259847301,0.8936636156527394,-0.21175411163620722,5.5046062889108525,-0.0161706534280243,3
455,2024-09-14 20:04:07.019535104,TASK_BEGIN,003,-0.12171811791177012,-0.028997280827909866,0.043514264109084294,-0.1145178737420571,0.873394192686444,-0.21312122264821548,5.601452675120102,-0.04122183301712951,3
456,2024-09-14 20:04:07.083653888,TASK_BEGIN,003,-0.08465628799236057,-0.03542142451274377,-0.020737107006317722,-0.12827792819222847,0.8570415141510358,-0.21447993870279713,5.703593323477586,-0.06819450724963735,3
457,2024-09-14 20:04:07.155095296,TASK_BEGIN,003,-0.04587689128922634,-0.042716441955161784,-0.08334644525664273,-0.14395789525592984,0.8463602329442262,-0.21614985888899177,5.806988466913252,-0.09606903734962312,3
458,2024-09-14 20:04:07.221986048,TASK_BEGIN,003,-0.006742010524833397,-0.05063152031990306,-0.1416907726126771,-0.16084873628603188,0.842801870138317,-0.21839980332378714,5.907057243620734,-0.12358371691285504,3
459,2024-09-14 20:04:07.283180032,TASK_BEGIN,003,0.03144743391402462,-0.05889440695853117,-0.19279020369102332,-0.17828262650738352,0.8474376446306086,-0.22142464168862933,5.998650712693469,-0.14921475646323787,3
460,2024-09-14 20:04:08.205967104,TASK_BEGIN,003,0.06752828345674698,-0.06722703470104936,-0.2337229643575652,-0.19564926925267945,0.8609399664616698,-0.2253352359456106,6.076285387911586,-0.1712258930389544,3
461,2024-09-14 20:04:08.267996160,TASK_BEGIN,003,0.10053303044166162,-0.07535688171799401,-0.26224516704474715,-0.21236143063966773,0.8835932794138529,-0.23015796055136403,6.134665164964953,-0.18780638625402804,3
462,2024-09-14 20:04:08.329152000,TASK_BEGIN,003,0.12970860817477486,-0.08302127098787325,-0.2774810689263068,-0.22778524824777605,0.9152948839330705,-0.23583948321560486,6.1694284656547005,-0.19729232265818364,3
463,2024-09-14 20:04:08.412311040,TASK_BEGIN,003,0.154496654091291,-0.0899660245410583,-0.2803494035175061,-0.2411903523789534,0.9555362247642853,-0.24225563450272677,6.17796046928749,-0.19842626842213346,3
464,2024-09-14 20:04:08.468965120,TASK_BEGIN,003,0.1745087973125489,-0.09594656569391818,-0.27341499268925074,-0.2517751293041804,1.0033878521430828,-0.2492243474937282,6.160081869881583,-0.19059012814572393,3
465,2024-09-14 20:04:08.547900928,TASK_BEGIN,003,0.18952440475724355,-0.10073814885386145,-0.2601480564961982,-0.2587772997686753,1.0575131342772854,-0.2565207345084477,6.1184497429593545,-0.17396109976076216,3
466,2024-09-14 20:04:08.608248064,TASK_BEGIN,003,0.19950338086084946,-0.10415315507954248,-0.2439410678230538,-0.26162489073370865,1.1162220740058943,-0.26389324816476456,6.058450474657962,-0.14954716824440364,3
467,2024-09-14 20:04:09.558907904,TASK_BEGIN,003,0.2045949996347396,-0.10605830188298787,-0.22738123523517265,-0.2600603939437668,1.1775661029027797,-0.27108296442734625,5.987439863425498,-0.11907243645183949,3
468,2024-09-14 20:04:09.615304960,TASK_BEGIN,003,0.20513758026608753,-0.10638700616007982,-0.2120876734084607,-0.2541926187660503,1.2394600459053735,-0.277846188705378,5.9135531102712005,-0.08474382862926114,3
469,2024-09-14 20:04:09.692735744,TASK_BEGIN,003,0.20164825422585786,-0.10514622536581106,-0.19905560956229948,-0.24446827772843416,1.2998031159828904,-0.2839748969398068,5.844581745464755,-0.048982578996093665,3
470,2024-09-14 20:04:09.762305792,TASK_BEGIN,003,0.19479735723781352,-0.10241831978490859,-0.1891661710625658,-0.23158602321906635,1.356577880977365,-0.289308581847813,5.787252477727934,-0.014182783139181775,3
471,2024-09-14 20:04:09.817225216,TASK_BEGIN,003,0.18536619742263355,-0.09835736344116232,-0.183477219919306,-0.21640067860079584,1.4079256613844422,-0.29373583333549624,5.746860975663696,0.017494271027834848,3
472,2024-09-14 20:04:09.896764928,TASK_BEGIN,003,0.17418846769409838,-0.09317831723932314,-0.1831049546247854,-0.19986620780949854,1.4522023920814797,-0.2971879111117843,5.727053153123964,0.044292431212556146,3
473,2024-09-14 20:04:09.965673728,TASK_BEGIN,003,0.16207225717149795,-0.08713943226486742,-0.18881673954252232,-0.18302114415055695,1.4880190408512863,-0.2996283593365164,5.729707757824808,0.0649787260786207,3
474,2024-09-14 20:04:10.901645056,TASK_BEGIN,003,0.149714368792848,-0.08052300783232433,-0.20065890212045118,-0.16696994413274766,1.5142822225310328,-0.3010439472024661,5.755010032035317,0.07889534857320277,3
475,2024-09-14 20:04:10.975126016,TASK_BEGIN,003,0.13763590115263935,-0.07362055444762063,-0.21784272502334456,-0.1528178050983696,1.530250740844373,-0.3014396363103521,5.801706327779174,0.08596686887825615,3
476,2024-09-14 20:04:11.040725760,TASK_BEGIN,003,0.12615115478801253,-0.0667211848733339,-0.23885265319657314,-0.1415607485171046,1.5355989583516056,-0.30083485673154453,5.867424457753658,0.08667681224443748,3
477,2024-09-14 20:04:11.102838016,TASK_BEGIN,003,0.11535311842659551,-0.06009612870845779,-0.26166665705935604,-0.1339592061458022,1.53046660672813,-0.29925885710613787,5.948997492053886,0.08199551124703923,3
478,2024-09-14 20:04:11.180239872,TASK_BEGIN,003,0.10510516373343279,-0.053978318006832005,-0.28408844178320874,-0.1304233737965957,1.5154882666397849,-0.29674812027669994,6.042805362849237,0.07324107037494351,3
479,2024-09-14 20:04:11.240837888,TASK_BEGIN,003,0.0950543570590162,-0.04854456549256504,-0.30421688507876143,-0.13093599456229402,1.4917905432062484,-0.2933467666438998,6.145139789815629,0.06188508954952964,3
480,2024-09-14 20:04:11.315897088,TASK_BEGIN,003,0.08468334458824715,-0.04390525049739624,-0.3209558028142921,-0.13503280967438133,1.4609258258368112,-0.289104098289327,6.2525569332903626,0.049338599064021195,3
481,2024-09-14 20:04:12.258121984,TASK_BEGIN,003,0.07340117867836375,-0.0401004762158352,-0.3343557423767744,-0.14184959587152574,1.42473300749554,-0.28406644562130956,6.362203239282364,0.036758625537156295,3
482,2024-09-14 20:04:12.325967104,TASK_BEGIN,003,0.06066290141564352,-0.03710273356152884,-0.3456345954891747,-0.15023272690713638,1.385162733667911,-0.2782691866287562,6.472125232402445,0.024911814411843005,3
483,2024-09-14 20:04:12.393836032,TASK_BEGIN,003,0.04610014190990667,-0.034827417358818044,-0.35691653591409644,-0.15889018862792886,1.3441127790165281,-0.2717343722765177,6.581482207766788,0.014122707552766912,3
484,2024-09-14 20:04:12.461555968,TASK_BEGIN,003,0.029635548786586925,-0.033149453270136596,-0.3708442621747418,-0.16653847330530652,1.3032903818030404,-0.2644732185312884,6.690507098074697,0.004313531256135662,3
485,2024-09-14 20:04:12.516585216,TASK_BEGIN,003,0.011549032590083516,-0.031922549300447606,-0.3901828229718999,-0.1720080190160608,1.2641018839812665,-0.2564916824622621,6.800158632325718,-0.004884578172292168,3
486,2024-09-14 20:04:12.597181952,TASK_BEGIN,003,-0.007530155069541452,-0.030998207429763086,-0.4174958834989746,-0.1743025083995474,1.2275765717361613,-0.24779890913123037,6.911549282073793,-0.013983899389567482,3
487,2024-09-14 20:04:12.655766016,TASK_BEGIN,003,-0.026710309133487733,-0.030241088193242168,-0.45494209216410453,-0.17263066104977218,1.1943440206345277,-0.23841767655080948,7.025346974463751,-0.02349288640605241,3
488,2024-09-14 20:04:13.602631168,TASK_BEGIN,003,-0.04498056593333513,-0.029536782229140603,-0.5041195495480078,-0.16643435055523026,1.164684186280765,-0.22839578662745139,7.141433117125949,-0.03380675649179027,3
489,2024-09-14 20:04:13.664237056,TASK_BEGIN,003,-0.061373824025884434,-0.028790916871880103,-0.5658488180574063,-0.15542586083467239,1.1386387533423366,-0.21781750186919274,7.258977174724398,-0.04516287264408357,3
490,2024-09-14 20:04:13.741457920,TASK_BEGIN,003,-0.07511334409317247,-0.02792365296217021,-0.63992473441819,-0.13962259765310556,1.1161331638700072,-0.20681243904759028,7.376792817570385,-0.05765555412319148,3
491,2024-09-14 20:04:13.811518720,TASK_BEGIN,003,-0.08571453900550302,-0.02686581133872468,-0.7249369665896217,-0.11935940658016697,1.0970628236207784,-0.19555962423126141,7.493737694336295,-0.07128340197361867,3
492,2024-09-14 20:04:13.879326208,TASK_BEGIN,003,-0.09302775533151503,-0.02556038551924181,-0.8181919110483113,-0.09527694109668439,1.0813312833162274,-0.1842867670341717,7.6090743299512535,-0.08601753802850517,3
493,2024-09-14 20:04:13.947117312,TASK_BEGIN,003,-0.09722303327003043,-0.023969467633990507,-0.9157767509738014,-0.06829594066483204,1.068841682497249,-0.17326430924956365,7.7227803607139265,-0.10188448459077357,3
494,2024-09-14 20:04:14.014944000,TASK_BEGIN,003,-0.09872770397512534,-0.022084078411932415,-1.012883971228162,-0.03957821705330919,1.0594512329771284,-0.1627931604270697,7.835681951172692,-0.1190230968707169,3
495,2024-09-14 20:04:14.958323968,TASK_BEGIN,003,-0.09813355228885362,-0.01993391020417276,-1.1044693301311608,-0.010461020304278154,1.0529285259894898,-0.15318835535592656,7.949255214974359,-0.13766301187057825,3
496,2024-09-14 20:04:15.012144896,TASK_BEGIN,003,-0.09608869622501597,-0.017595724552176152,-1.1861205225222178,0.017653648716070523,1.0489641984144626,-0.1447646698876508,8.065088050666258,-0.15801785744594116,3
497,2024-09-14 20:04:15.093893120,TASK_BEGIN,003,-0.09319031564203817,-0.015199608317065384,-1.2548300986849876,0.04345283601395989,1.047246264364457,-0.13782873232183454,8.1841764848941,-0.18013817654363143,3
498,2024-09-14 20:04:15.150891008,TASK_BEGIN,003,-0.0899029427769921,-0.0129303806569922,-1.309377566435015,0.06587136488205216,1.0475595198623089,-0.1326745526887203,8.306333797645607,-0.20377938297493453,3
499,2024-09-14 20:04:15.229389824,TASK_BEGIN,003,-0.08651477439905378,-0.011022684375290612,-1.350223119021957,0.08420714016506213,1.0498523598008473,-0.12957405869617583,8.429908536079125,-0.22831426833271604,3
500,2024-09-14 20:04:15.297120000,TASK_BEGIN,003,-0.08311687557582445,-0.009752355703730018,-1.3790058085963168,0.09816502802665747,1.05423710384071,-0.1287582034519387,8.551799544003076,-0.25269928310881346,3
501,2024-09-14 20:04:15.364872192,TASK_BEGIN,003,-0.07959254752838503,-0.009425690875533447,-1.3978271405993283,0.10782057883822663,1.06092406390096,-0.13039176001668265,8.667673979069649,-0.27551167001936916,3
502,2024-09-14 20:04:16.306402816,TASK_BEGIN,003,-0.07562758578962937,-0.01036342389796112,-1.4085165289172006,0.11351027845830665,1.0701169483184265,-0.1345482638632355,8.772363506480737,-0.2950743615598628,3
503,2024-09-14 20:04:16.376168960,TASK_BEGIN,003,-0.07075376578313783,-0.012876730239089031,-1.4120469009770973,0.11568242221368245,1.081909121340087,-0.14119065290387292,8.860441313291064,-0.3096514851380294,3
504,2024-09-14 20:04:16.430244864,TASK_BEGIN,003,-0.06442040252820455,-0.017238258200146912,-1.4082544461429285,0.1147681393124176,1.0962102929108424,-0.1501609050048956,8.9268993853724,-0.31766150160586026,3
505,2024-09-14 20:04:16.507890944,TASK_BEGIN,003,-0.05607923445393249,-0.023653418806577894,-1.3959921090334426,0.11112075004038026,1.1127115763534523,-0.1611810454692023,8.967758580165462,-0.3178522945660658,3
506,2024-09-14 20:04:16.569897984,TASK_BEGIN,003,-0.045272485996633305,-0.03223412752112844,-1.3737255780790687,0.10503195331729145,1.130888026150844,-0.17386918574561033,8.98048632550315,-0.30941451060934383,3
507,2024-09-14 20:04:16.631891968,TASK_BEGIN,003,-0.03171737602208483,-0.0429763209393803,-1.3404212160135807,0.09681004058390942,1.1500453870765417,-0.18777325194518335,8.96426860527847,-0.29205598899859025,3
508,2024-09-14 20:04:16.715101184,TASK_BEGIN,003,-0.015366736822931465,-0.055746677777515054,-1.2964662983187505,0.08689436688472824,1.1694107238678797,-0.20241734348075782,8.920306120517518,-0.2660844090076434,3
509,2024-09-14 20:04:17.631148288,TASK_BEGIN,003,0.0035882046115386767,-0.07028570848434962,-1.244320923921586,0.07595930195252633,1.188235026414804,-0.21734719476611256,8.852182309455,-0.2325082968637388,3
510,2024-09-14 20:04:17.693191168,TASK_BEGIN,003,0.02478504929714278,-0.08622931925572157,-1.1886615900389168,0.06495298439105265,1.2058614283818698,-0.23216180574249853,8.766085100443725,-0.19309307309641424,3
511,2024-09-14 20:04:17.769018880,TASK_BEGIN,003,0.04779139944304444,-0.10314379363881422,-1.1359536775676096,0.05503632040315235,1.2217443322272195,-0.24652754756402231,8.670623583327815,-0.15029504254751458,3
512,2024-09-14 20:04:17.836828928,TASK_BEGIN,003,0.07218261856933095,-0.12056477172818511,-1.0936234139156977,0.047427426127316596,1.2354495291067549,-0.26018027424285917,8.576212872375285,-0.10706979512238206,3
513,2024-09-14 20:04:17.892962816,TASK_BEGIN,003,0.09757018145927149,-0.13803147846745462,-1.0691287200186284,0.04320416808624916,1.2466719227595806,-0.2729240164513354,8.494151397771347,-0.06661852137318326,3
514,2024-09-14 20:04:17.970920192,TASK_BEGIN,003,0.12360084355156885,-0.15511336239422602,-1.0691349953489195,0.04313468386422002,1.2552770488738227,-0.28463246055069236,8.435477121834548,-0.032125684361662105,3
515,2024-09-14 20:04:18.040186112,TASK_BEGIN,003,0.14995792399223803,-0.17143203230233048,-1.0988413719324792,0.04758013576159489,1.2613406413677806,-0.2952537395445063,8.409707248437117,-0.0064980609082344945,3
516,2024-09-14 20:04:18.954834944,TASK_BEGIN,003,0.17637247930119626,-0.18668087312321668,-1.1614923214169606,0.05648946836271771,1.2651470100075188,-0.30481140717894245,8.423711960725102,0.007887723046157155,3
517,2024-09-14 20:04:19.016396032,TASK_BEGIN,003,0.20262874209143403,-0.20064030089156618,-1.2581527335118077,0.06948706058151906,1.2671316766723248,-0.3133928411053611,8.481011080013648,0.00939155159502463,3
518,2024-09-14 20:04:19.093662208,TASK_BEGIN,003,0.2285508692386868,-0.21318598973209954,-1.387729784072189,0.08600635324242575,1.2678028000296735,-0.32112621019169346,8.5815964917269,-0.0027721048656162766,3
519,2024-09-14 20:04:19.155596800,TASK_BEGIN,003,0.2539857225834006,-0.22429231629158428,-1.5471041490334827,0.10538779499949136,1.2676882578594875,-0.32815779673566087,8.722193836937523,-0.02851993335901622,3
520,2024-09-14 20:04:19.229257984,TASK_BEGIN,003,0.2788063054267918,-0.2340347877343936,-1.7312701071212837,0.12690302939975365,1.2673230783061868,-0.334640634596319,8.896852246309429,-0.06697947816713326,3
521,2024-09-14 20:04:19.293481216,TASK_BEGIN,003,0.30292793341938556,-0.24258804865212602,-1.9335075389572476,0.1497425035834346,1.2672594116550426,-0.34073426622877484,9.09775791666349,-0.1166341796437881,3
522,2024-09-14 20:04:19.364887040,TASK_BEGIN,003,0.32631056913033024,-0.25021107866095726,-2.1456757153450505,0.17301883268638127,1.2680674189727152,-0.34660488145027507,9.316123754840941,-0.1754997131351866,3
523,2024-09-14 20:04:20.294331136,TASK_BEGIN,003,0.3489505796546533,-0.25721841691395636,-2.358690319472334,0.1957969485528999,1.270308080659939,-0.35241679965031214,9.543009754175662,-0.24131016138581102,3
524,2024-09-14 20:04:20.375886080,TASK_BEGIN,003,0.3708843644600688,-0.2639468602956492,-2.563174964688712,0.217138165739826,1.274487111810945,-0.35831723356176476,9.769965392977118,-0.3116908360933622,3
525,2024-09-14 20:04:20.434034176,TASK_BEGIN,003,0.3921990349172467,-0.2707264322331915,-2.7502401913522228,0.23615983391651704,1.2810044367395588,-0.3644209818379031,9.989422839510683,-0.38428020353029396,3
526,2024-09-14 20:04:20.511458048,TASK_BEGIN,003,0.41302204223457173,-0.27785559236374574,-2.9122827695035114,0.2521121586880205,1.2901007854086668,-0.37079790287441505,10.194885148341797,-0.45678884568691847,3
527,2024-09-14 20:04:20.572352768,TASK_BEGIN,003,0.43348753913013677,-0.28558016709810535,-3.0435960545804925,0.2644448320413019,1.3018095535511445,-0.37746532926082665,10.38102512751793,-0.5270299209849233,3
528,2024-09-14 20:04:20.647048192,TASK_BEGIN,003,0.4537147504862657,-0.2940821519010055,-3.1406147602977597,0.27283474375528083,1.3159374942495567,-0.3843903047244095,10.54367326843105,-0.5929526066436818,3
529,2024-09-14 20:04:20.711659008,TASK_BEGIN,003,0.47381865156259073,-0.3034807137241177,-3.201805065326973,0.2771800319771575,1.332094273461819,-0.39150353520484865,10.679578858856948,-0.6526787705919663,3
530,2024-09-14 20:04:21.657918976,TASK_BEGIN,003,0.49393192452978246,-0.3138372897639823,-3.227348671138466,0.2775802056558305,1.3497762639508233,-0.39872006173238517,10.786016361296115,-0.7045420272513269,3
531,2024-09-14 20:04:21.717914112,TASK_BEGIN,003,0.5142191759564955,-0.3251582224291084,-3.2187921739951473,0.27430883261032013,1.3684875186849697,-0.40595908873490033,10.86053794533399,-0.7471343556478632,3
532,2024-09-14 20:04:21.793639936,TASK_BEGIN,003,0.534889139258296,-0.3373967747284232,-3.178762235236738,0.2677765244378633,1.3878479639839132,-0.4131567895049944,10.901151343451934,-0.7793539114870689,3
533,2024-09-14 20:04:21.861379840,TASK_BEGIN,003,0.5562025170239918,-0.35045643176471203,-3.110692153231782,0.25848107124456504,1.407631592529918,-0.42026802508885897,10.906926510055962,-0.8004471412287556,3
534,2024-09-14 20:04:21.918256128,TASK_BEGIN,003,0.5784489041288495,-0.3641931637277941,-3.0184636235901245,0.24694610884804757,1.427723554095609,-0.42725772371244464,10.87873716382357,-0.8100512931879882,3
535,2024-09-14 20:04:21.996824064,TASK_BEGIN,003,0.6018707990469474,-0.37841503550194777,-2.9060569240806062,0.2336707388170904,1.4480407961322819,-0.4340894195395409,10.819801542731902,-0.8082456907293969,3
536,2024-09-14 20:04:22.056952832,TASK_BEGIN,003,0.6265507714605099,-0.3928816358852132,-2.777415154143523,0.21912683382177764,1.4684681568394249,-0.44071967942969553,10.735832039910491,-0.7956012242749189,3
537,2024-09-14 20:04:22.999558912,TASK_BEGIN,003,0.6523138161372332,-0.4073087242002278,-2.6365382339224386,0.20380714763102772,1.4888312189108943,-0.44710040107765925,10.634702131056848,-0.7731902684151476,3
538,2024-09-14 20:04:23.075954944,TASK_BEGIN,003,0.6786908504848971,-0.4213820121594294,-2.4876043797561347,0.18827303068117002,1.5089044953529431,-0.4531846386283272,10.525651508826119,-0.7425300475778275,3
539,2024-09-14 20:04:23.137444096,TASK_BEGIN,003,0.704946005622394,-0.43477789996773064,-2.334957458405722,0.17315165907202176,1.5284421743789862,-0.4589308319330389,10.418251230507726,-0.7054904223997676,3
540,2024-09-14 20:04:23.201600000,TASK_BEGIN,003,0.7301428361237758,-0.4471855689577931,-2.1829775504413798,0.15908766642765387,1.5472068328639723,-0.4643009084472915,10.321469424044581,-0.6642266106973517,3
541,2024-09-14 20:04:23.277196800,TASK_BEGIN,003,0.7532387808335215,-0.4583281208279451,-2.035891498743162,0.1466795240403546,1.5649785156100953,-0.46925068828053446,10.24307195595317,-0.6211514263331525,3
542,2024-09-14 20:04:23.346920960,TASK_BEGIN,003,0.773206871051076,-0.4679814762004904,-1.8974985026256042,0.13640798505018525,1.5815499227729313,-0.473718869905258,10.189356485503504,-0.5789024859839658,3
543,2024-09-14 20:04:23.414704128,TASK_BEGIN,003,0.7891523771242184,-0.4759838988187574,-1.770838476357166,0.1285602006883604,1.5967197122026813,-0.4776240009341751,10.165069253783013,-0.5402530141763708,3
544,2024-09-14 20:04:24.357879808,TASK_BEGIN,003,0.8003729151414897,-0.4822288870704007,-1.657981009865993,0.12318341457022129,1.6102941458736615,-0.4808720371569483,10.173345249134018,-0.5079372987167127,3
545,2024-09-14 20:04:24.411028992,TASK_BEGIN,003,0.8063560091774546,-0.4866464319379136,-1.5600556169728137,0.12010199258323856,1.6221179646199124,-0.4833709214630168,10.21557189037923,-0.4843898826423424,3
546,2024-09-14 20:04:24.488691968,TASK_BEGIN,003,0.8067602435720119,-0.48918585707354256,-1.4774213233919102,0.11898916951779936,1.6321467691622173,-0.4850488914197359,10.291197589072244,-0.4714448318438671,3
547,2024-09-14 20:04:24.550723072,TASK_BEGIN,003,0.8014133101863251,-0.48980555306112916,-1.4098373701825857,0.11946536489732902,1.640530884790797,-0.4858728330592487,10.397603304451483,-0.47007465618164984,3
548,2024-09-14 20:04:24.628189952,TASK_BEGIN,003,0.7903185901934373,-0.48846484722330163,-1.3566315507961384,0.1212072603128592,1.6476536919881466,-0.4858592670497942,10.530121384384113,-0.4802319891589364,3
549,2024-09-14 20:04:24.696912128,TASK_BEGIN,003,0.7736534105551108,-0.4851158021556481,-1.3168608310085488,0.12404188309157493,1.6540905361455023,-0.48507211962177693,10.682226661360934,-0.5008235961306756,3
550,2024-09-14 20:04:24.764723200,TASK_BEGIN,003,0.7517561612037701,-0.47970040138093717,-1.2893742504992007,0.12797742150933958,1.6605015453364986,-0.483610397600403,10.845907295313264,-0.5298185881732161,3
551,2024-09-14 20:04:25.702753792,TASK_BEGIN,003,0.7251068653661922,-0.4721586959478012,-1.2727619619641823,0.13314513588815105,1.6674963407960153,-0.4815920736053982,11.012174603453053,-0.5644568973662939,3
552,2024-09-14 20:04:25.775819008,TASK_BEGIN,003,0.694309895267808,-0.46244790343549114,-1.2652999266802083,0.13968851421319,1.6755017578967975,-0.47913380686553875,11.17164827892278,-0.601499486941645,3
553,2024-09-14 20:04:25.841330944,TASK_BEGIN,003,0.6600854924142384,-0.45056802374280125,-1.2649866028885757,0.14767553747503173,1.684655846891165,-0.4763247496136758,11.315193944253798,-0.6374791873450837,3
554,2024-09-14 20:04:25.902885120,TASK_BEGIN,003,0.6232614699983766,-0.4365872689318419,-1.2697004139590347,0.15709233568726322,1.6947524210284066,-0.4732012067453791,11.434587528368889,-0.668946830149694,3
555,2024-09-14 20:04:25.964970240,TASK_BEGIN,003,0.5847476828277002,-0.4206598709199911,-1.2774528421099092,0.16791219412816932,1.7052545365569733,-0.46973380649899005,11.523167587871527,-0.6927224493818683,3
556,2024-09-14 20:04:26.042658816,TASK_BEGIN,003,0.5454861981548776,-0.40302975827117177,-1.2866503292236007,0.18017373994515512,1.7153814515279888,-0.46583461998081815,11.576458648782248,-0.706149750021707,3
557,2024-09-14 20:04:26.114650880,TASK_BEGIN,003,0.5063895799331577,-0.3840182126019541,-1.2963133621259277,0.19400992912845114,1.7242524073842216,-0.46138357042028816,11.592678253976482,-0.7073228150865132,3
558,2024-09-14 20:04:27.052176128,TASK_BEGIN,003,0.4682923297355717,-0.364002069335454,-1.3062664686120742,0.20962472424687034,1.731044431824747,-0.45626538683577605,11.572933986925843,-0.6952388379615179,3
559,2024-09-14 20:04:27.121664000,TASK_BEGIN,003,0.4319286293846106,-0.34339268593947825,-1.3172432578266908,0.22723989964824504,1.7351143611734714,-0.4504041204378619,11.52100179207876,-0.6698590404581284,3
560,2024-09-14 20:04:27.193688064,TASK_BEGIN,003,0.39792567884736896,-0.322619928308019,-1.3308450564132512,0.2470332121558882,1.7360573162051216,-0.4437840534669198,11.442801248436309,-0.6320933542022953,3
561,2024-09-14 20:04:27.253330176,TASK_BEGIN,003,0.36679578999872076,-0.3021182413937997,-1.3494083210673966,0.2690893121875502,1.7337025645998705,-0.43645215540216603,11.345775732233642,-0.5837172679626172,3
562,2024-09-14 20:04:27.314963200,TASK_BEGIN,003,0.3389187407338459,-0.2823104879018704,-1.3757960787158563,0.293369249811697,1.728065995748175,-0.42850572618904864,11.238277419406751,-0.5272152455686165,3
563,2024-09-14 20:04:27.391654912,TASK_BEGIN,003,0.3145184717076633,-0.2635880811744847,-1.4130347837826165,0.3196904314933196,1.7192843868850474,-0.42007431443282905,11.128966155381827,-0.46556974638928966,3
564,2024-09-14 20:04:27.464876032,TASK_BEGIN,003,0.29365167210686866,-0.24628976594829174,-1.463792462262633,0.34771533828975454,1.70755072455572,-0.4113034253131805,11.026241105147458,-0.4020388604017403,3
565,2024-09-14 20:04:28.384064000,TASK_BEGIN,003,0.2762212662787875,-0.23068408996025785,-1.529794155390619,0.37694909359971634,1.693062617127486,-0.4023433170976028,10.937648317311117,-0.3399303317237362,3
566,2024-09-14 20:04:28.442898944,TASK_BEGIN,003,0.26200323028741757,-0.2169598249185913,-1.6113171118239908,0.4067442644766911,1.675995882376444,-0.39334386979236496,10.869126366165004,-0.28234216388598277,3
567,2024-09-14 20:04:28.504525824,TASK_BEGIN,003,0.25066251984962207,-0.20522404613331602,-1.7069236588320182,0.43631508620562387,1.6565111230746878,-0.38445400327553675,10.82417441588207,-0.23189161803239886,3
568,2024-09-14 20:04:28.587468032,TASK_BEGIN,003,0.24175376055936876,-0.19550469950414356,-1.8134968012039667,0.464759802229767,1.6347856984681577,-0.37582116738318627,10.803344827247619,-0.19052835968062837,3
569,2024-09-14 20:04:28.643308032,TASK_BEGIN,003,0.23472981392160777,-0.1877563289071622,-1.9265060525488955,0.49108525879118475,1.6110484502866658,-0.3675867116921413,10.804367648140815,-0.15949280837521046,3
570,2024-09-14 20:04:28.723102976,TASK_BEGIN,003,0.22897780497432674,-0.18186876595996776,-2.040423435777079,0.5142353162239319,1.5855944927943877,-0.35987672106275476,10.822820206045831,-0.13937972715277905,3
571,2024-09-14 20:04:28.783716096,TASK_BEGIN,003,0.22387794634413552,-0.17767815074927726,-2.149310574654364,0.5331425074471118,1.5587810677661833,-0.3527926387169607,10.853075658871655,-0.13023955782909097,3
572,2024-09-14 20:04:29.708133120,TASK_BEGIN,003,0.21887098199868055,-0.1749819984990557,-2.2475884800519,0.5468300800158876,1.531032687218021,-0.346409356292346,10.889320886392154,-0.13169759095693112,3
573,2024-09-14 20:04:29.775981056,TASK_BEGIN,003,0.21351995357774822,-0.17355962230248612,-2.3308522605206674,0.5545684927414531,1.5028784489697267,-0.3407871015944308,10.926446909436708,-0.14308998020738262,3
