,time,MARKER,pid,L_O_DSI,L_D_DSI,L_O_DSphi,L_D_DSphi,R_O_DSI,R_D_DSI,R_O_DSphi,R_D_DSphi,trial_id
0,2024-09-14 20:02:39.669374023,TASK_BEGIN,003,-0.8844058993001355,0.20194654452889776,-2.5036420902421512,0.4065473416548168,-0.03582476374398739,0.04803779335599761,5.189065604487029,-0.8828838386405257,3
1,2024-09-14 20:02:39.726689209,0,003,-0.8732933491808934,0.2043580151543906,-2.536845748641021,0.4323293880911597,-0.0535284698255929,0.05122567953019923,5.163896169288481,-0.8669198812196228,3
2,2024-09-14 20:02:39.804957031,0,003,-0.861457147588727,0.2054792938305445,-2.568540016856763,0.4585665712029215,-0.07758767309696903,0.0559842630750369,5.128716966643818,-0.8553993834900716,3
3,2024-09-14 20:02:39.862233887,0,003,-0.8482891151059959,0.2052299498042325,-2.5962051292100634,0.4840554762402123,-0.10716584771088325,0.06229893436353943,5.082766557696211,-0.8483801582690401,3
4,2024-09-14 20:02:39.940340088,0,003,-0.8331243565081985,0.20355455536536096,-2.61738658865914,0.507479395902744,-0.14100172044307416,0.07005283138711871,5.025351467416436,-0.8455031336888338,3
5,2024-09-14 20:02:40.857956055,0,003,-0.8152791177057451,0.20042821421254908,-2.629615812682861,0.5274189323185478,-0.17749071800863783,0.07903012125302297,4.955842980238741,-0.8459792981864453,3
6,2024-09-14 20:02:40.914187988,0,003,-0.7940965621357036,0.19585866644918815,-2.6304766343472474,0.5424154150300057,-0.21478441635053708,0.08892667807793833,4.873787800308163,-0.8486480576859019,3
7,2024-09-14 20:02:40.993542969,0,003,-0.7690071356172664,0.18988493382070393,-2.617800115978708,0.5510872119689504,-0.2509037176531915,0.09936730125557838,4.779074488425921,-0.8520937848081096,3
8,2024-09-14 20:02:41.061259033,0,003,-0.739592792712533,0.18257170667432945,-2.5898871968295967,0.5522673830368205,-0.28385989179716736,0.10992844701659497,4.671990951895507,-0.8547863429485988,3
9,2024-09-14 20:02:41.115027832,0,003,-0.7056429046421561,0.17400030077174544,-2.5456671990499435,0.5451240327611122,-0.31177007968363796,0.12016539446197637,4.553095640516744,-0.8552134099993142,3
10,2024-09-14 20:02:41.192200928,0,003,-0.6672023080684317,0.16426086442578985,-2.4847262956640495,0.5292371184507564,-0.33295077199776313,0.12964003380642605,4.423032657431419,-0.8519960725442502,3
11,2024-09-14 20:02:41.254199951,0,003,-0.6246132255943248,0.15345059021567906,-2.407162355234407,0.5046196330557625,-0.3459813443944491,0.13794444035158765,4.282479522443362,-0.8439933280332702,3
12,2024-09-14 20:02:42.207954102,0,003,-0.5785367182312565,0.14167685131783486,-2.3132762335040797,0.4716782058437546,-0.3497471696311677,0.14471996280123448,4.132233203807439,-0.8303918357312525,3
13,2024-09-14 20:02:42.275768066,0,003,-0.5299333298189394,0.12906040945598887,-2.203210902681261,0.4311274077070978,-0.3434856818514545,0.14967625567767479,3.9732682929078997,-0.810766647580065,3
14,2024-09-14 20:02:42.343514893,0,003,-0.47999988544704736,0.11573665184308392,-2.0767368906457113,0.3839016410509342,-0.3268527647034214,0.15261331222477625,3.8066533047603266,-0.7851001894841756,3
15,2024-09-14 20:02:42.411281982,0,003,-0.4300773229522425,0.1018561244528955,-1.9333359060271562,0.3311075552300929,-0.2999982578588928,0.1534433186096705,3.6333730811931337,-0.753752812645386,3
16,2024-09-14 20:02:42.476756104,0,003,-0.381544063088344,0.08758412268938659,-1.7725568049014475,0.27402410266589144,-0.26361037596147996,0.1522032287695701,3.4541974088735454,-0.7173940667547105,3
17,2024-09-14 20:02:42.546954102,0,003,-0.33570323246215344,0.07309627853853938,-1.5944919264182673,0.2141283413916376,-0.21888829905827595,0.14904874865089518,3.2697225505013394,-0.676926037303279,3
18,2024-09-14 20:02:42.599954102,0,003,-0.29367936619465607,0.058569380362299577,-1.4002404167187412,0.15311820340907595,-0.16743820450019198,0.1442290636688276,3.0806138245514583,-0.6334272565342782,3
19,2024-09-14 20:02:43.558012939,0,003,-0.2563507570961682,0.04417204240487734,-1.1922785187982035,0.09290511921878367,-0.11113456755332977,0.1380536938884289,2.8879396305414446,-0.5881144892995914,3
20,2024-09-14 20:02:43.620552002,0,003,-0.22433443884487383,0.030060841629099718,-0.9746484306631114,0.03555212817843514,-0.05200589876066773,0.13086693587753107,2.6934051523415774,-0.5422957849339616,3
21,2024-09-14 20:02:43.682614990,0,003,-0.19801671595771775,0.016383504629139643,-0.752867453891254,-0.01685615544643117,0.007821822986876786,0.12303737467709142,2.4993369089315784,-0.4972918780911292,3
22,2024-09-14 20:02:43.761295166,0,003,-0.17760558906746998,0.003286636220595601,-0.5335564293894928,-0.062394881066598955,0.06613762462862983,0.11495761237393615,2.308426957618899,-0.45432895728630274,3
23,2024-09-14 20:02:43.820472900,0,003,-0.16318744936131102,-0.00907450120349023,-0.3239265802362895,-0.0994817617149524,0.1206602302263754,0.10704299307413308,2.123412040031183,-0.4144349469619364,3
24,2024-09-14 20:02:43.882951904,0,003,-0.15478962794898568,-0.020523657125171076,-0.13126776181345673,-0.1270137989297132,0.1690973132673599,0.09972098486797011,1.9468693139896114,-0.37837651127991073,3
25,2024-09-14 20:02:43.960197021,0,003,-0.15244852407107456,-0.03084884854060163,0.037540866191433514,-0.14444483103650607,0.20925392222692024,0.09341114279172573,1.7811362576568,-0.34664803390689297,3
26,2024-09-14 20:02:44.878199951,0,003,-0.15625949484554555,-0.03979001208820554,0.17651892221601614,-0.15180996128251942,0.23915799803897161,0.0885024329858095,1.6282135758482594,-0.319489799081479,3
27,2024-09-14 20:02:44.941054199,0,003,-0.16638318406662697,-0.04703541624048441,0.2809882172697844,-0.14969109210388326,0.2571717417549537,0.0853350123972235,1.4895379774925401,-0.29690271753583897,3
28,2024-09-14 20:02:45.018754883,0,003,-0.18301198030367472,-0.05223015507770636,0.3477636486262052,-0.13911654775843132,0.2620816377804066,0.08418932156648161,1.3656590273293285,-0.27865001542404055,3
29,2024-09-14 20:02:45.086516113,0,003,-0.20632049599378982,-0.054996223493884625,0.37513585491588597,-0.12141589205206205,0.2531691669906157,0.08528171519079425,1.2559721329811022,-0.26425425809996966,3
30,2024-09-14 20:02:45.153343994,0,003,-0.23641203920047174,-0.05496089248336151,0.3627581178246511,-0.0980671152451583,0.23025925087429266,0.08876398862451326,1.158644677035246,-0.2529886872142926,3
31,2024-09-14 20:02:45.222040771,0,003,-0.27325230844633364,-0.051789079762932795,0.3115139976399085,-0.07055817332404206,0.19374158906764363,0.09472363183512271,1.070781166798093,-0.24386857815927407,3
32,2024-09-14 20:02:45.289361084,0,003,-0.3165886866435579,-0.04521596348978258,0.22340738045916383,-0.040275169417335874,0.14456020795561458,0.10318184670972202,0.9888220308118354,-0.23568456675099694,3
33,2024-09-14 20:02:46.233107178,0,003,-0.3658792482847944,-0.035076666403150256,0.10152009988057617,-0.008432605229562011,0.08416789536858901,0.11408673290774314,0.9091262165694833,-0.22712195774410607,3
34,2024-09-14 20:02:46.300949219,0,003,-0.42025905269197855,-0.02133004305660216,-0.049990951842137955,0.023956699845393625,0.014449214555631976,0.1273014253253758,0.828590186370949,-0.21694882065041832,3
35,2024-09-14 20:02:46.364698975,0,003,-0.4785514022319199,-0.004074358807292418,-0.22597477738021504,0.05610132495720624,-0.06237590288134285,0.1425908295462006,0.7450990299202841,-0.20419421363184165,3
36,2024-09-14 20:02:46.427687012,0,003,-0.5393199621839445,0.016446708226044084,-0.42050695503706215,0.08746097406812314,-0.1438560911683383,0.15961240738318044,0.6576900874754364,-0.18824669398955104,3
37,2024-09-14 20:02:46.504293945,0,003,-0.6009587392484143,0.03984984158857398,-0.6271775066747854,0.11776871506030556,-0.22741964724741445,0.1779167147667195,0.5664819806594538,-0.16887388124322264,3
38,2024-09-14 20:02:46.572083984,0,003,-0.6618095687467641,0.0656308801336471,-0.8393543175421656,0.14700998129912676,-0.3105020990674225,0.19696254227072435,0.47254380973135035,-0.14622211417386058,3
39,2024-09-14 20:02:46.639854980,0,003,-0.7202805444197271,0.09319392992020596,-1.0503926929687353,0.17533867611852327,-0.39068983098964194,0.21614614672296648,0.3778416250285272,-0.12084069284942672,3
40,2024-09-14 20:02:47.583210938,0,003,-0.774938901829531,0.12188487042816822,-1.2537714929157404,0.2029396828431551,-0.4658563142148884,0.23483721878510838,0.2852379628619445,-0.09370812130265502,3
41,2024-09-14 20:02:47.650204834,0,003,-0.8245712667047062,0.15102370101849638,-1.4431533140817725,0.2298767045655691,-0.5342600600556351,0.25241432290330773,0.1984286447227686,-0.06620210059504168,3
42,2024-09-14 20:02:47.718816162,0,003,-0.8682182096887446,0.1799323730306876,-1.6124239302512624,0.2559766364597208,-0.5945941928507803,0.2682979178217332,0.12174514861368452,-0.0399884548147916,3
43,2024-09-14 20:02:47.786565918,0,003,-0.9051870210170642,0.2079562995033273,-1.7557712618378678,0.2807787240677426,-0.6460003839037376,0.2819812446817173,0.059800293363626175,-0.01685182032414228,3
44,2024-09-14 20:02:47.853961914,0,003,-0.9350378660030343,0.2344785253670748,-1.8678633502411934,0.3035500732205564,-0.688059236848461,0.2930575036584695,0.0169903322836565,0.0014963909602110296,3
45,2024-09-14 20:02:47.921853027,0,003,-0.957539088168295,0.25892691168362436,-1.9442129982403624,0.3233684570578868,-0.7207531278123167,0.3012388164576695,-0.00303013671672545,0.013598797634993354,3
46,2024-09-14 20:02:47.989947021,0,003,-0.9725971939825275,0.2807758219581373,-1.9817274697334453,0.33926524038114125,-0.744388084416902,0.3063605483788412,0.002329268919544959,0.018380100949777888,3
47,2024-09-14 20:02:48.927800049,0,003,-0.9801776801622466,0.29954448377107884,-1.9792603947981722,0.35038638828296576,-0.7594747834405821,0.3083684787699134,0.034638517268152105,0.015190236682719939,3
48,2024-09-14 20:02:48.989412109,0,003,-0.9802408731648299,0.3147961452698045,-1.937938245945604,0.3561155053051754,-0.7665965108203164,0.30729509619385664,0.09472645524395075,0.0037754080559487127,3
49,2024-09-14 20:02:49.068944824,0,003,-0.9727140890863731,0.3261427664423339,-1.8611531947949636,0.3561333236420262,-0.7663019529186076,0.3032354568897349,0.18284404414366856,-0.015771491747806392,3
50,2024-09-14 20:02:49.128568115,0,003,-0.9575074862452582,0.33325736677620404,-1.7542545560230332,0.35042534277806314,-0.7590463969061034,0.29633018618260737,0.29851679327057523,-0.0430431989367137,3
51,2024-09-14 20:02:49.190531006,0,003,-0.9345690325914885,0.33589385749348555,-1.624074531281343,0.33926628251949736,-0.7451904633668962,0.28675903939553593,0.4402332875759437,-0.07733927967264778,3
52,2024-09-14 20:02:49.272318115,0,003,-0.9039615903010033,0.3339118851646457,-1.4784351077743922,0.32320257995023316,-0.7250552299276767,0.27474415311181166,0.605216637436788,-0.11770015720053284,3
53,2024-09-14 20:02:49.340081055,0,003,-0.8659314536898102,0.3273000142056554,-1.3256542317675106,0.30302342202388605,-0.6990123292542123,0.26055656005057126,0.7893458015257808,-0.16295819655932237,3
54,2024-09-14 20:02:50.275659180,0,003,-0.8209451215987102,0.31618990533904384,-1.1739743785654497,0.2796917563476101,-0.6675673244144582,0.24451693906724667,0.9871595433363415,-0.21178856203474922,3
55,2024-09-14 20:02:50.337965088,0,003,-0.7696966422838073,0.30085941063669774,-1.0309437645226107,0.2542367450457015,-0.631398057028084,0.2269857819417244,1.191937675371387,-0.2627454839657335,3
56,2024-09-14 20:02:50.418942871,0,003,-0.7130952694328827,0.2817258010902238,-0.9029081696859822,0.22765145957080793,-0.5913343728515956,0.20834495428209,1.3959402789219282,-0.3142892748249514,3
57,2024-09-14 20:02:50.476792969,0,003,-0.6522333193585628,0.25932840257065626,-0.7947200428623852,0.20083156856348103,-0.5482907101161779,0.18897572382168087,1.590838913910799,-0.3648200589733602,3
58,2024-09-14 20:02:50.538944092,0,003,-0.5883381830215809,0.23430011365785872,-0.7096594688296401,0.1745489404021425,-0.5031769994859154,0.16923807394990795,1.7682623331177998,-0.4127251594680975,3
59,2024-09-14 20:02:50.622122070,0,003,-0.5227204265682579,0.2073316751120757,-0.6494952292614926,0.14943582151870272,-0.45681599361516134,0.14945506983118517,1.9203503332890832,-0.45643806488532135,3
60,2024-09-14 20:02:50.689934082,0,003,-0.4567210260934624,0.1791349324114181,-0.6145530649344061,0.12596617826472284,-0.4098897834035254,0.12990414420278062,2.040247756995193,-0.49450493200350604,3
61,2024-09-14 20:02:51.603400879,0,003,-0.39165562822740263,0.15041016143044772,-0.6036831846903952,0.10443547853563712,-0.36292980611301995,0.11081630102200786,2.122460542223219,-0.5256425358763475,3
62,2024-09-14 20:02:51.675599121,0,003,-0.32876178815122964,0.12182016317606253,-0.6141897430729838,0.08494936146970183,-0.3163537655439758,0.09238453010610286,2.163004845550187,-0.5487687398181708,3
63,2024-09-14 20:02:51.743372070,0,003,-0.26915446637917306,0.09397088063851469,-0.6419065643270133,0.06743031792667357,-0.27053530691923067,0.07477867423296587,2.1594136775611132,-0.5630189575610454,3
64,2024-09-14 20:02:51.803345947,0,003,-0.21378629229467158,0.06739632810418804,-0.6815259148118847,0.051641851836800576,-0.22587566410856863,0.058157736239831365,2.1107346999152266,-0.5677810642986612,3
65,2024-09-14 20:02:51.878941162,0,003,-0.16340988947216964,0.04254622553201868,-0.7271361314814555,0.03723077114717062,-0.18284876272234885,0.042672586073657884,2.0175424457712254,-0.5627488756973416,3
66,2024-09-14 20:02:51.946672852,0,003,-0.11854836190803883,0.019776615962597423,-0.772850808388192,0.023797048371723487,-0.1420106172791809,0.028460893003044163,1.8819551039473683,-0.5479718270687896,3
67,2024-09-14 20:02:52.004447998,0,003,-0.07948427424619595,-0.0006555103723101099,-0.8134315205561403,0.010994189023408332,-0.1039785247301474,0.015639808684012407,1.7077438142860246,-0.523904455416365,3
68,2024-09-14 20:02:52.951868896,0,003,-0.046272702421957995,-0.018593603408350135,-0.8448772384983873,-0.0013524272439165335,-0.06939015902867061,0.004299096752590049,1.5005727787594205,-0.4914719696269321,3
69,2024-09-14 20:02:53.026030029,0,003,-0.01877396239163146,-0.033979803554369414,-0.8649863952647563,-0.01313384353104518,-0.038858638332856146,-0.005503379007792285,1.268220165771548,-0.45212923066060073,3
70,2024-09-14 20:02:53.093748047,0,003,0.003309112953849911,-0.04685023115794224,-0.8738061891771832,-0.023891762410660447,-0.012938569267712478,-0.013741385753852033,1.020561445783586,-0.4078559209142676,3
71,2024-09-14 20:02:53.161530029,0,003,0.020405153238195126,-0.05732689920245309,-0.8737594808149645,-0.03284023212369505,0.007900455711011422,-0.0204170163510302,0.7691879823579856,-0.361052476958322,3
72,2024-09-14 20:02:53.213830078,0,003,0.03305753117710885,-0.06560607490765914,-0.8692928957265567,-0.038981238925357806,0.02330353599743174,-0.02555863345420522,0.52666243447786,-0.31435058324541354,3
73,2024-09-14 20:02:53.297040039,0,003,0.041898378074138785,-0.07194266309754999,-0.8661189541017867,-0.04127344412632389,0.033053063568995525,-0.02921873744280604,0.3055245635144908,-0.27037882086923243,3
74,2024-09-14 20:02:53.364768066,0,003,0.047603199068349956,-0.07662969528987926,-0.8702699797970243,-0.03880421403708193,0.03706707923995064,-0.03146700214863207,0.11724608351603127,-0.2315271281731008,3
75,2024-09-14 20:02:54.308590820,0,003,0.0508363804965721,-0.07997287744001244,-0.8871574398129232,-0.03093601655110285,0.03538135887978306,-0.03238023207249173,-0.028657639331402307,-0.19975053133681295,3
76,2024-09-14 20:02:54.367312988,0,003,0.05220221262070487,-0.08226241163176495,-0.920810451899471,-0.017404669873783238,0.02813633771086438,-0.032036174069897214,-0.1252626311371661,-0.17643952844766883,3
77,2024-09-14 20:02:54.441839844,0,003,0.052206804422302154,-0.08374670748145906,-0.9734441679479839,0.0016508982058059333,0.01557695084744868,-0.030514133805270148,-0.16866607493330016,-0.16236082637259083,3
78,2024-09-14 20:02:54.503231934,0,003,0.051235500043372004,-0.08461375412172892,-1.0453697719060124,0.025717785316478538,-0.0019373121117546206,-0.027900549671101782,-0.15827210320508125,-0.15765615137117067,3
79,2024-09-14 20:02:54.565244873,0,003,0.04955391009276812,-0.08498447374445954,-1.1351404676282575,0.05396017312444963,-0.023922181850483174,-0.024296453692351744,-0.09688629306412783,-0.16188809595359202,3
80,2024-09-14 20:02:54.647620850,0,003,0.04733004065526692,-0.08491844035577041,-1.239843149910342,0.08527233352295749,-0.049773400358193526,-0.01982234236857607,0.009479863154180104,-0.17412829277064418,3
81,2024-09-14 20:02:54.710002930,0,003,0.04466254350718583,-0.08442867960179277,-1.3554579519653427,0.11834332781360588,-0.07878940789056124,-0.01461615229375298,0.15211869161534275,-0.1930813965495902,3
82,2024-09-14 20:02:55.633656982,0,003,0.04160592394276004,-0.08350116381578782,-1.4771791268747037,0.1517358895928684,-0.11020441233692269,-0.008824486359983346,0.32038170505860925,-0.2172287456041645,3
83,2024-09-14 20:02:55.693058105,0,003,0.038197124103343756,-0.08211526747008964,-1.599651015272809,0.1839605057448325,-0.14323179589321874,-0.002592017576683527,0.5025643169132181,-0.24496520404678745,3
84,2024-09-14 20:02:55.754247803,0,003,0.034489135175379715,-0.08026198515335986,-1.7171788297790676,0.2135306666909949,-0.17711270654216718,0.003945645605276877,0.6867619369553506,-0.27469973486349103,3
85,2024-09-14 20:02:55.837069092,0,003,0.03058380318878604,-0.07795629391931265,-1.8239502100381653,0.23900324572007572,-0.21114759671343206,0.010665119740179143,0.8615444246684713,-0.30490414449822456,3
86,2024-09-14 20:02:55.893062988,0,003,0.026644512932386687,-0.07524037543601217,-1.9142179595984623,0.2590201097961873,-0.24470080445132633,0.01745954357252049,1.0164071040539522,-0.33411631423529253,3
87,2024-09-14 20:02:55.972678955,0,003,0.022877391387709164,-0.0721783864075264,-1.9824342604321994,0.27237095609263356,-0.27719762190902963,0.02424891401060974,1.1420666127871095,-0.36091299554912315,3
88,2024-09-14 20:02:56.040465088,0,003,0.0194885125136779,-0.06884772752923579,-2.0234155072359217,0.2780821673095269,-0.30813267621253243,0.030994606661929845,1.2306963696950703,-0.38387365253339445,3
89,2024-09-14 20:02:56.971321045,0,003,0.016634761505263676,-0.06533033327553193,-2.0326055673823387,0.2755123521556112,-0.33708782522642927,0.037710317087196576,1.2762030995867566,-0.4015761544749318,3
90,2024-09-14 20:02:57.049427979,0,003,0.014388099060979381,-0.061704231105397425,-2.006456432503383,0.26443140507230606,-0.36375115355496607,0.0444620662172582,1.2746039709971588,-0.41266413950504305,3
91,2024-09-14 20:02:57.111437988,0,003,0.01272848538678492,-0.05803544823253013,-1.9429194686774465,0.24507241548543324,-0.3879316790405523,0.0513550112490428,1.2244174888687964,-0.4159764550435987,3
92,2024-09-14 20:02:57.173113037,0,003,0.011564024558893996,-0.0543697505754039,-1.8419852491255189,0.21815242241115282,-0.4095674813020155,0.05851125162587896,1.1268876290983787,-0.4106780304831889,3
93,2024-09-14 20:02:57.254935059,0,003,0.010761646789608031,-0.05072381798676377,-1.70614044760097,0.18486123399815083,-0.42872829026088266,0.06604672850812819,0.9859499180808904,-0.3963455733690165,3
94,2024-09-14 20:02:57.322707031,0,003,0.010171163067582813,-0.0470797474693956,-1.540582942631548,0.14681863414652907,-0.4456113758688114,0.0740535697652129,0.8079719253162587,-0.3730149998598048,3
95,2024-09-14 20:02:57.388224121,0,003,0.009633828495362142,-0.043387881301764776,-1.3530517965035682,0.10598947052384487,-0.46052611309641694,0.08258942041884478,0.6012959832015512,-0.34120162736491694,3
96,2024-09-14 20:02:58.328315918,0,003,0.008979611680441625,-0.03957678853395447,-1.1532165866062505,0.06454373773413725,-0.4738609399753346,0.09167127325747185,0.37554437705951454,-0.30186198341856596,3
97,2024-09-14 20:02:58.401658936,0,003,0.008026335561265885,-0.03556497666994103,-0.9517584942743244,0.02467935519294024,-0.4860234612941165,0.10126976640796717,0.1406867392913205,-0.2562742087390624,3
98,2024-09-14 20:02:58.467642090,0,003,0.0065883657829110594,-0.031271630296364344,-0.7594176578061764,-0.01154115941345725,-0.4973531515280867,0.11130260211166973,-0.09394145135533666,-0.2058846859344236,3
99,2024-09-14 20:02:58.529153076,0,003,0.004493029230388404,-0.02662658411538889,-0.5861894859702154,-0.04230248442839382,-0.5080287256413674,0.1216304031031857,-0.32035540104359866,-0.15219821981637885,3
100,2024-09-14 20:02:58.605005127,0,003,0.0016008834122900936,-0.021578417211208498,-0.4406360468127703,-0.06610786109012634,-0.5180034928468127,0.13205939874803813,-0.5322287359213356,-0.09673050431189847,3
101,2024-09-14 20:02:58.668869141,0,003,-0.0021715769023451076,-0.016098217803590442,-0.32922165480161003,-0.08184376840089017,-0.5269901378158136,0.14235256102176,-0.7249648062587094,-0.04097199510958763,3
102,2024-09-14 20:02:58.730914062,0,003,-0.006828570139720842,-0.010178530452936823,-0.2557127712090507,-0.08885114195813532,-0.5344970302045018,0.15224831064629424,-0.8957960675312803,0.01368725431613522,3
103,2024-09-14 20:02:59.683931152,0,003,-0.012280658922731913,-0.003829737359767853,-0.22079070921183397,-0.08698977560904905,-0.5399033478803378,0.16148400072682056,-1.0439434958165152,0.06606168363761572,3
104,2024-09-14 20:02:59.746433105,0,003,-0.018354796625073087,0.002923321674626164,-0.22199386149945818,-0.0766746534161441,-0.5425491229478484,0.1698181598148023,-1.1705954591051593,0.11524635529390988,3
105,2024-09-14 20:02:59.807990967,0,003,-0.024832263578877616,0.010042587131085256,-0.25400791652398086,-0.058867172260077934,-0.5418156252699257,0.17704446129053292,-1.2785045696541937,0.16063128746783106,3
106,2024-09-14 20:02:59.885222900,0,003,-0.03149552154314291,0.017474870262475333,-0.30923950391940536,-0.03501119437778229,-0.537187337552428,0.1829957023129872,-1.3712960631568094,0.20188085759881505,3
107,2024-09-14 20:02:59.955062012,0,003,-0.03815906890512822,0.025146941061925398,-0.37853009047482633,-0.006919760910094468,-0.5283017831187051,0.18754285278239896,-1.4527154196598666,0.23891752487973672,3
108,2024-09-14 20:03:00.009358887,0,003,-0.04467796662043564,0.03295925322745711,-0.4518708266733961,0.023366838635435573,-0.5149917190479547,0.1905949019061838,-1.5259138444886526,0.27190119098489574,3
109,2024-09-14 20:03:00.090656982,0,003,-0.05094678776226322,0.04078179143410618,-0.519131315883427,0.05373767710231826,-0.49731578418708056,0.1921006005194785,-1.5928035559582048,0.3011683132832197,3
110,2024-09-14 20:03:01.029272949,0,003,-0.05689924138688572,0.04845666519536131,-0.5708866740148001,0.0821732740321255,-0.47556888192881747,0.19204920905611791,-1.6536326548295581,0.32713136494909156,3
111,2024-09-14 20:03:01.101770020,0,003,-0.06250559972642337,0.0558097769481002,-0.5992758587866218,0.10688817724040693,-0.4502599847280407,0.19046662091822292,-1.7069857764686198,0.3501823035380513,3
112,2024-09-14 20:03:01.169553955,0,003,-0.0677634576860434,0.06266909563393978,-0.5986916042259002,0.12642941398512497,-0.4220510088651881,0.18740539338781742,-1.7502645900101366,0.3706348385423049,3
113,2024-09-14 20:03:01.229159180,0,003,-0.07268536190282555,0.06888449059958657,-0.5661413213452465,0.13973316653768156,-0.39167396014678435,0.18293218533960243,-1.7804723078281322,0.38870016849166683,3
114,2024-09-14 20:03:01.305092041,0,003,-0.07728849207092375,0.07434452031789981,-0.5012411905562141,0.146157122878397,-0.3598589875159575,0.17712009145381902,-1.7949831918581551,0.40446774326961504,3
115,2024-09-14 20:03:01.370744873,0,003,-0.0815821673717388,0.07898550206787545,-0.40594562321603794,0.1454971967984485,-0.32728917880201436,0.17004995491771419,-1.7920157756972401,0.4178699525170986,3
116,2024-09-14 20:03:01.430323975,0,003,-0.08554094035461321,0.08278878441466338,-0.28417055641714334,0.13798339812221191,-0.2945755456144488,0.16181703244035445,-1.7707386189727186,0.4286348272934042,3
117,2024-09-14 20:03:02.357456055,0,003,-0.08906149097268462,0.08576794840923056,-0.14138569169605614,0.12424654306896675,-0.2622461747940594,0.15253649717517134,-1.7311421201810213,0.4362582470332521,3
118,2024-09-14 20:03:02.413394043,0,003,-0.09192783508343455,0.08795468016590287,0.015821387095163283,0.10525997036966694,-0.2307475066547758,0.14234311214751968,-1.6738529373834867,0.44003677316023887,3
119,2024-09-14 20:03:02.493108154,0,003,-0.0938224645849635,0.08939195029806393,0.18019963356324112,0.08226765618678737,-0.20044856460916494,0.13138284804150865,-1.599983265508671,0.43917207885405396,3
120,2024-09-14 20:03:02.552172852,0,003,-0.09439570741408557,0.09013606538994542,0.34430612694305013,0.056698297915024745,-0.17164050864274116,0.11979808102363808,-1.5110074261685928,0.432904958334645,3
121,2024-09-14 20:03:02.628707031,0,003,-0.09336037338749094,0.09026194871035118,0.5009856774834515,0.03006477679208158,-0.14453562941689813,0.10771252919905067,-1.4086124681310672,0.42062108628738426,3
122,2024-09-14 20:03:02.696515136,0,003,-0.09056410782610236,0.08986472464655783,0.6437703584829404,0.00387120456454779,-0.11927285719785097,0.09522346955711644,-1.294504400590323,0.40191343804807456,3
123,2024-09-14 20:03:02.751107910,0,003,-0.0860231613848806,0.08905606242404053,0.7670909690593574,-0.020452186766768545,-0.09593150740820114,0.08240592481534156,-1.170248495473371,0.3766331732831937,3
124,2024-09-14 20:03:03.707513184,0,003,-0.07993482721911598,0.087959948548696,0.8663204246302364,-0.041603137418907726,-0.07454564272731388,0.06932733690984674,-1.0372656155861892,0.34495230882400163,3
125,2024-09-14 20:03:03.775368896,0,003,-0.07268463704453064,0.08671303461114803,0.937779270523496,-0.05847581419796276,-0.05510445141645634,0.0560652189190076,-0.8970128914548805,0.30741403258690553,3
126,2024-09-14 20:03:03.840635986,0,003,-0.0648476653695787,0.08546937785398831,0.9787778993998666,-0.07023249283080633,-0.03753956882503965,0.04272081253640434,-0.7512601441590055,0.26493538194313065,3
127,2024-09-14 20:03:03.902236084,0,003,-0.057177935397156474,0.08440448143375752,0.987673403224017,-0.0763471459205656,-0.02172359380884789,0.029428387667881518,-0.6023277824574006,0.2187673997149696,3
128,2024-09-14 20:03:03.964723145,0,003,-0.0505779322875133,0.08371335961300022,0.9639137684319018,-0.07660967527018882,-0.007495419845038207,0.016362711063807458,-0.45314238074455243,0.17043944014875592,3
129,2024-09-14 20:03:04.041879883,0,003,-0.046038384943270984,0.08360060298596086,0.9080630705334075,-0.07110471091256139,0.005299916142602632,0.003742667656046675,-0.3070560820828023,0.12169298598709583,3
130,2024-09-14 20:03:04.103430908,0,003,-0.04455085417927631,0.08426480835458885,0.8217960637158065,-0.06018514965770655,0.0167752213766554,-0.008174367365211899,-0.16755865761982539,0.0743929164778924,3
131,2024-09-14 20:03:05.058211182,0,003,-0.047009297936812446,0.08588179534910913,0.7078523358831569,-0.04445055473958274,0.026972978697570947,-0.019109198268793582,-0.03804625303046126,0.030408404072298455,3
132,2024-09-14 20:03:05.119104004,0,003,-0.05411139564193795,0.08858786756537333,0.5699500187501008,-0.02472625447072917,0.035842817743765173,-0.028785128587455723,0.07832464527907253,-0.008529628011864127,3
133,2024-09-14 20:03:05.180670898,0,003,-0.06626616884523495,0.09246169218726584,0.41266740618531494,-0.0020293160777737017,0.04323272971431622,-0.03695561780970394,0.17872217798957868,-0.040970821327105736,3
134,2024-09-14 20:03:05.258527100,0,003,-0.08353147564843462,0.0975080506736033,0.2413035000835528,0.022495228495879035,0.04891190663682827,-0.043432267325158355,0.2606383354367362,-0.06586119846700159,3
135,2024-09-14 20:03:05.329334961,0,003,-0.10561396563069701,0.10365213524935138,0.06171238344983123,0.04767388004499375,0.0526343467023777,-0.048109334217944305,0.32181648338198615,-0.08261695069230282,3
136,2024-09-14 20:03:05.382098877,0,003,-0.1319321413890753,0.11074806864857123,-0.11989714418557804,0.07242090385498715,0.05422868157227091,-0.050979302792062864,0.3602343025823342,-0.09115250391553405,3
137,2024-09-14 20:03:05.459729004,0,003,-0.16170037020825886,0.11859490130894731,-0.2971823701160303,0.09583601286188946,0.053682799288858614,-0.052135844631028,0.3742578565003628,-0.09187082132565645,3
138,2024-09-14 20:03:06.408269775,0,003,-0.1939926719678177,0.12695194828642004,-0.46390531163523197,0.11726130401046103,0.05119545257406502,-0.051765073932888726,0.3629123942000887,-0.08562275950929922,3
139,2024-09-14 20:03:06.473485107,0,003,-0.2277804646365788,0.13555178993956535,-0.6142225392689711,0.1363020030957726,0.04718311703316619,-0.05012871246920799,0.326101601890507,-0.07362753495298796,3
140,2024-09-14 20:03:06.535052979,0,003,-0.26196021813104703,0.14411186197418663,-0.7430143032776867,0.15282223110760262,0.04224705142095937,-0.04754232360107762,0.26467047038409675,-0.05734668196145212,3
141,2024-09-14 20:03:06.611644043,0,003,-0.295386161600479,0.15234513867922453,-0.8461491109889064,0.16691116896838934,0.03711732572450821,-0.04435046776512211,0.18032797658572214,-0.03832538008612007,3
142,2024-09-14 20:03:06.679441895,0,003,-0.3269121957940834,0.15997184058581748,-0.9206305901355615,0.17881630601001994,0.032588840314952544,-0.0409000642724519,0.0755164143337508,-0.01803694046423629,3
143,2024-09-14 20:03:06.734452881,0,003,-0.3554323856296434,0.16673260999188405,-0.9647357882193819,0.18887058499006135,0.02945154369489712,-0.03751352206652668,-0.04668277960641553,0.002228657734433095,3
144,2024-09-14 20:03:06.811764893,0,003,-0.3799109023400977,0.17240001508112018,-0.9782359055172,0.19744478915198696,0.02841370338098596,-0.03446390233300591,-0.18259839802704841,0.021413348094300757,3
145,2024-09-14 20:03:07.733331055,0,003,-0.39941208962015057,0.17678685351929008,-0.9625732020924965,0.2049174134596419,0.03002678285742938,-0.031955145002260994,-0.3280606732371814,0.038691561703919755,3
146,2024-09-14 20:03:07.801114014,0,003,-0.41314272690937004,0.17975227341495492,-0.9207882360850647,0.21163700961463172,0.03462518929496213,-0.030111256459125466,-0.478582093449365,0.053450650453587656,3
147,2024-09-14 20:03:07.868921143,0,003,-0.4204969223204759,0.18120434655201734,-0.8571557480128295,0.21788012398740234,0.042287928579203896,-0.028977014122835418,-0.6295480791888624,0.06526791758273501,3
148,2024-09-14 20:03:07.936646973,0,003,-0.42108787305827355,0.1810969210000413,-0.776651191815327,0.2238244692807145,0.05282260428003636,-0.02852778745181419,-0.77632943055706,0.0738859415332146,3
149,2024-09-14 20:03:07.989166016,0,003,-0.41476338436390114,0.1794225168169186,-0.6844041629584977,0.22954285460491872,0.06577711190639515,-0.028684231262828087,-0.9143511095055573,0.07918389092435658,3
150,2024-09-14 20:03:08.066319092,0,003,-0.40160509476712997,0.17620413407764896,-0.5852647929069731,0.23501262326064035,0.0804922137063731,-0.02933102154040637,-1.0392257256178496,0.08115211191130095,3
151,2024-09-14 20:03:08.128354004,0,003,-0.38190859432240665,0.17148678077691193,-0.48352447584821745,0.24012990168905424,0.09618988652371183,-0.03033709225499523,-1.1469896014789909,0.0798812171984117,3
152,2024-09-14 20:03:09.075771973,0,003,-0.35615049125787507,0.1653312324544042,-0.38273280640233026,0.24471118687555715,0.11206035006256956,-0.031569174106097685,-1.2343504756766122,0.0755631098327467,3
153,2024-09-14 20:03:09.137302002,0,003,-0.32495549205536756,0.1578139555966684,-0.2855693962300029,0.24847863099958212,0.1273176587726198,-0.03289457290153893,-1.2988485728072743,0.0684917728750318,3
154,2024-09-14 20:03:09.219073975,0,003,-0.2890697389972894,0.1490319219678894,-0.19384404002916122,0.25105295342434764,0.1412333636082093,-0.034179291414616245,-1.338952149143285,0.05905708100713777,3
155,2024-09-14 20:03:09.275670898,0,003,-0.24933649660902377,0.1391059524813977,-0.10874017615190237,0.25198204133115004,0.15317022495435165,-0.03528877939007181,-1.3541603656214827,0.04772885366472967,3
156,2024-09-14 20:03:09.352541992,0,003,-0.20666452729887735,0.12817817749749058,-0.0312954228627503,0.2508093077921225,0.16261481897948557,-0.03609219908855345,-1.3451310939289995,0.035028370831998265,3
157,2024-09-14 20:03:09.414102051,0,003,-0.16198627862899756,0.1164050888126167,0.0370705057245214,0.2471617718673303,0.169193350869243,-0.036468259836042745,-1.313803727360385,0.021491906067950293,3
158,2024-09-14 20:03:09.476104004,0,003,-0.11621971628243924,0.1039518885203643,0.09423055575778004,0.24082952912596964,0.17266809945307354,-0.03631217133693863,-1.2634724696431128,0.00764502513938758,3
159,2024-09-14 20:03:10.428476074,0,003,-0.07024652702336247,0.09099278569890996,0.13737616847188264,0.23181158433734375,0.1729344532251765,-0.035544244737011524,-1.198767829566562,-0.005991135389621755,3
160,2024-09-14 20:03:10.490541016,0,003,-0.02489814701062798,0.07771593387028158,0.1634004887007506,0.22031471829061447,0.17004381832331933,-0.034121081322620594,-1.1255011517688902,-0.018864974962776494,3
161,2024-09-14 20:03:10.568157959,0,003,0.01906345357422906,0.06432724672788852,0.1695364544105081,0.2067070363236319,0.16424810352950392,-0.032048735255582106,-1.050292548540261,-0.030363173031624918,3
162,2024-09-14 20:03:10.636787842,0,003,0.06096357752102941,0.051049131282594286,0.15407097146167728,0.19143874429075455,0.15602291014361483,-0.02939183148117604,-0.9799165059882445,-0.03981520388281352,3
163,2024-09-14 20:03:10.691793945,0,003,0.10021833168920173,0.038113514992135805,0.11695300209563185,0.17494806688606826,0.14603495746354328,-0.02627085534582314,-0.9204341305378283,-0.046544814241962114,3
164,2024-09-14 20:03:10.772381104,0,003,0.13633210600546314,0.025748203147730613,0.060190348653703755,0.1575679371592616,0.13507045567216971,-0.022847709200790132,-0.876347135847222,-0.04995946946157395,3
165,2024-09-14 20:03:10.830707031,0,003,0.16890979070408305,0.014156043469604192,-0.012020791765276751,0.1394471465703064,0.12396595979767254,-0.019307346908787444,-0.8500581357340597,-0.04965213015070366,3
166,2024-09-14 20:03:11.779164062,0,003,0.19768619404048032,0.0034915658014498595,-0.09349365784178032,0.12050782846296758,0.1135547277304252,-0.015840475086159548,-0.8417745670241519,-0.04548633270134063,3
167,2024-09-14 20:03:11.841649170,0,003,0.22255145202957602,-0.006156613522436805,-0.17659845368638832,0.1004636529823027,0.10460826671016121,-0.012626201651913091,-0.8497463363665018,-0.03764940802941809,3
168,2024-09-14 20:03:11.918817139,0,003,0.24355010990790593,-0.014772971729824749,-0.25310169354476797,0.07890642587953059,0.09776093842586897,-0.0098150631700582,-0.8706187620092334,-0.026666622871134645,3
169,2024-09-14 20:03:11.981343018,0,003,0.26085110279452667,-0.022413931671389983,-0.31516494164050696,0.055444904164162714,0.09344039181530199,-0.007517831821572291,-0.8997926632403889,-0.01336906050329166,3
170,2024-09-14 20:03:12.054818115,0,003,0.2747064998729682,-0.02920322503533324,-0.3562980137301673,0.029860056632158037,0.09183593174820831,-0.005804367122420608,-0.9318242597748432,0.0011782707121489287,3
171,2024-09-14 20:03:12.121402100,0,003,0.28541804534355547,-0.035325146171888165,-0.3720409186342818,0.0022312060582861484,0.09290738118514091,-0.004710756698305912,-0.9609006585355377,0.01577033239805916,3
172,2024-09-14 20:03:12.190421143,0,003,0.2933122915410721,-0.04101150681229054,-0.36024429288607973,-0.027001694731530773,0.09641536871162387,-0.004249097458444515,-0.981349392714459,0.029172597043651993,3
173,2024-09-14 20:03:13.102538086,0,003,0.298715879928193,-0.0465179424964965,-0.32097999261164273,-0.05704227265854724,0.10196089904375995,-0.0044144101774385965,-0.9880995592091613,0.0402470932614444,3
174,2024-09-14 20:03:13.168638916,0,003,0.30193772048331724,-0.05209247091825701,-0.25623405023149126,-0.08678246238904672,0.10902548393206807,-0.005185712093044481,-0.977050725207293,0.04807511535069786,3
175,2024-09-14 20:03:13.241839844,0,003,0.303273993085109,-0.05794524246786029,-0.16956181736383508,-0.11486057081763117,0.1170040230095888,-0.006522570597988846,-0.9453951268392526,0.052057185758243196,3
176,2024-09-14 20:03:13.311040039,0,003,0.3030310277223169,-0.06422564222409857,-0.06581577871700428,-0.13972422064516757,0.12524435149176666,-0.008362585158966911,-0.8919236056044911,0.05198234536259721,3
177,2024-09-14 20:03:13.378815918,0,003,0.3015423210998557,-0.07100661001115055,0.0490944175758922,-0.1597103285720262,0.13311944357227787,-0.010625259415178764,-0.8172001658018733,0.04805144276886585,3
178,2024-09-14 20:03:13.442246826,0,003,0.29916784420959847,-0.07827521323730625,0.16855247966802211,-0.17316209569765284,0.14012963868898135,-0.01322297136908695,-0.7234805154718573,0.040840173159545336,3
179,2024-09-14 20:03:13.514311035,0,003,0.29627896788025515,-0.08593167674743765,0.28575017146835446,-0.1785896776730668,0.145994578416445,-0.016074310506338473,-0.6144347348932093,0.031212043694993044,3
180,2024-09-14 20:03:14.452742188,0,003,0.293228916145267,-0.09379907376004865,0.39426976999250696,-0.17486558878629163,0.15068580209681506,-0.019113261186194323,-0.4948217699812215,0.020204494667144402,3
181,2024-09-14 20:03:14.525314941,0,003,0.2903132505696015,-0.101642896042936,0.48860826648540373,-0.1614352154386455,0.1543761982756304,-0.022291164614263836,-0.37014559570476774,0.008905797382733312,3
182,2024-09-14 20:03:14.591343018,0,003,0.28774472544832613,-0.10919844140854845,0.5645427382813102,-0.13849936751471062,0.15732881033806215,-0.025574396019784933,-0.2462210189173282,-0.0016623992472288586,3
183,2024-09-14 20:03:14.653336914,0,003,0.2856603195927843,-0.11620244283735615,0.6192811813255196,-0.10711053945361555,0.15977938849158688,-0.028943413189500288,-0.1286556348259824,-0.01063649797665802,3
184,2024-09-14 20:03:14.715581787,0,003,0.28414277839833824,-0.12242182972704706,0.6514574819147596,-0.06914929723864587,0.16185489658497734,-0.03239525538229849,-0.022370111459719497,-0.017359875004341416,3
185,2024-09-14 20:03:14.792753906,0,003,0.28322914686346606,-0.12767291060679561,0.6610888112885321,-0.027190306190416114,0.16353942341208025,-0.03594577312226693,0.06875316342780954,-0.021397532386883033,3
186,2024-09-14 20:03:14.854306885,0,003,0.28290103053924304,-0.13182924859734785,0.6495248391275101,0.01571132441373016,0.16469013503298588,-0.03962754745028642,0.14210384644240592,-0.022544569920686805,3
187,2024-09-14 20:03:15.803284912,0,003,0.2830641236071253,-0.13481998494419073,0.6193571503485247,0.056284430353546425,0.1651044800893832,-0.043484352579137645,0.19648222190264117,-0.020842397481180372,3
188,2024-09-14 20:03:15.865760010,0,003,0.28352938530223726,-0.13662286358932887,0.5743352902272907,0.0913238212592779,0.16461529332060162,-0.04756429917826563,0.23208217596940103,-0.016581039465096665,3
189,2024-09-14 20:03:15.943379883,0,003,0.28401846635561534,-0.1372587013556929,0.5193535328569401,0.11794693534147857,0.16316932594920738,-0.05191157601372743,0.25021635388012764,-0.010251080657210167,3
190,2024-09-14 20:03:16.011183105,0,003,0.2842063216074309,-0.13679142771251937,0.46041813450293395,0.13379151467727005,0.16086505566018744,-0.05655861158899893,0.2528012411960032,-0.002437508344475536,3
191,2024-09-14 20:03:16.066155029,0,003,0.2837813238935821,-0.13533063360184014,0.4044170156691256,0.1371434742103579,0.1579623720076886,-0.06152302750316608,0.24178964695155122,0.006309368528646072,3
192,2024-09-14 20:03:16.143311035,0,003,0.28249019365844835,-0.13302988352168543,0.35865196469878585,0.12699870276706293,0.15488530373192666,-0.0668106961420604,0.2187337754647539,0.01557863816848234,3
193,2024-09-14 20:03:16.205534912,0,003,0.2801588900473959,-0.13007745166242035,0.3302457488806917,0.10307045712616106,0.1522205296339406,-0.07242197831936584,0.18452380098626073,0.025152384705864894,3
194,2024-09-14 20:03:17.142785156,0,003,0.2767077644103901,-0.12668243350233419,0.32549325373810034,0.06576443693733419,0.15069250235866918,-0.07835607139307985,0.13930631029181387,0.03500107925671923,3
195,2024-09-14 20:03:17.219616943,0,003,0.27218017318031645,-0.1230627280716689,0.3491258390996966,0.016150092327309597,0.15108649910587701,-0.08460773710681009,0.08261808340643871,0.04522544455254433,3
196,2024-09-14 20:03:17.293642090,0,003,0.2667797582321237,-0.11943916751077055,0.40353424645483316,-0.044056859832110724,0.15411050878493843,-0.09115492276891222,0.013695286562230227,0.05596705159604826,3
197,2024-09-14 20:03:17.361404785,0,003,0.2608829512490705,-0.11603324914358626,0.48816603905740347,-0.11251495712376927,0.16023221215804068,-0.0979437417380457,-0.06815832521947647,0.06731495891298825,3
198,2024-09-14 20:03:17.419531982,0,003,0.2549902220371946,-0.11306060683094349,0.5993215465466273,-0.1863086228771133,0.16955661142159958,-0.10488026502904188,-0.16321187966548267,0.07922477540508922,3
199,2024-09-14 20:03:17.497008057,0,003,0.24961374875122688,-0.11071446115675734,0.7304008732214484,-0.2620448891792774,0.18178961883832345,-0.11183345808224587,-0.2709756481537363,0.09146861453514837,3
200,2024-09-14 20:03:17.559526855,0,003,0.24514433706363034,-0.10914178043883194,0.8725248133633478,-0.33600056805846495,0.19628368312499342,-0.11864664974011999,-0.3899020644123016,0.10362849713792247,3
201,2024-09-14 20:03:18.469886963,0,003,0.24175751863563602,-0.10842178862938848,1.0154710697450346,-0.4043409421040012,0.2121335066264256,-0.12515263775475624,-0.5171027686124221,0.1151091337017851,3
202,2024-09-14 20:03:18.547090088,0,003,0.23939411046697756,-0.10855484908496622,1.148878213041589,-0.4634231103279255,0.2282993336316627,-0.1311889018596798,-0.6481300765155537,0.1251351767336099,3
203,2024-09-14 20:03:18.610002930,0,003,0.23781151449509152,-0.1094632065925277,1.2635355032591573,-0.5101389151919408,0.24375041023653635,-0.13661036099327156,-0.776978691524899,0.1327422376208199,3
204,2024-09-14 20:03:18.686906006,0,003,0.2366794261026901,-0.11100192655751272,1.3524256989423813,-0.5422065788613929,0.2576160328111212,-0.14129800286539265,-0.8964230042302097,0.13680439909256756,3
205,2024-09-14 20:03:18.748214111,0,003,0.23568336692470404,-0.11297718973861455,1.411231645934679,-0.5583415845430749,0.26931799608343004,-0.14516362954435838,-0.9986640212900879,0.13612094599004326,3
206,2024-09-14 20:03:18.809729004,0,003,0.2345955004028769,-0.11516577490931784,1.438257947221193,-0.5582954298797665,0.27865758732378604,-0.14815246476610763,-1.0761986136831057,0.12955143988980233,3
207,2024-09-14 20:03:18.890125977,0,003,0.23329133506372757,-0.11732995123738463,1.4339566247246132,-0.5427848125689002,0.28583809959083833,-0.15024522327310197,-1.1228063496236518,0.11617732878069315,3
208,2024-09-14 20:03:19.832043945,0,003,0.23172910077242034,-0.11922834162290186,1.4003284943617251,-0.5133367646648438,0.29140781060720583,-0.15145874951715385,-1.1344739124697127,0.09547096169966492,3
209,2024-09-14 20:03:19.900904785,0,003,0.2299293966434103,-0.12062689714563692,1.3404211553498944,-0.4720840466251546,0.29612469416256976,-0.1518413596760417,-1.110060269120754,0.06745404307607628,3
210,2024-09-14 20:03:19.968658936,0,003,0.227981033435466,-0.1213124111674362,1.2580286667060692,-0.42155832034380736,0.30077957128803806,-0.15146011525051614,-1.0516231723981353,0.03281804274897433,3
211,2024-09-14 20:03:20.036413818,0,003,0.22607136035268485,-0.12110867003851282,1.1575558502519754,-0.3645166083988086,0.3060303871755436,-0.15038229081600488,-0.9643958058364595,-0.007039111054738466,3
212,2024-09-14 20:03:20.094528076,0,003,0.22451164741242444,-0.11989192640065084,1.043916724147076,-0.3038077758607221,0.31227650870335677,-0.14865699364293664,-0.8563729328382564,-0.050098430263057714,3
213,2024-09-14 20:03:20.156522949,0,003,0.22372100279785645,-0.11759912951544958,0.92236500375671,-0.24226419721672163,0.3195753038328895,-0.14630258354111894,-0.7375201853622535,-0.09391229148055213,3
214,2024-09-14 20:03:20.233653076,0,003,0.22415921850114265,-0.11422543202172969,0.7982503516165896,-0.18259549477557266,0.3276066521586849,-0.14330265208262527,-0.6187509605938224,-0.1358388527309524,3
215,2024-09-14 20:03:21.177541992,0,003,0.22622982910438078,-0.10981365175409989,0.6767299602387398,-0.1272691117067039,0.33570377234229865,-0.13960982691239396,-0.5108747212601608,-0.17326093761261666,3
216,2024-09-14 20:03:21.250997070,0,003,0.23018199501082623,-0.10443918281437867,0.5624317416497407,-0.07837938655917705,0.34295391694136773,-0.13515447214585116,-0.42369500683482053,-0.20377476094770616,3
217,2024-09-14 20:03:21.315903809,0,003,0.23603609354343694,-0.09819171978369778,0.4590818601343138,-0.037520062895659664,0.34833772088950204,-0.12985615710276174,-0.36535690248399794,-0.225359728738422,3
218,2024-09-14 20:03:21.378905029,0,003,0.24354601379029836,-0.09115574104735584,0.36920431760570877,-0.005687746089496915,0.3508621967684344,-0.12363812205610393,-0.34193515797751856,-0.23653228574770577,3
219,2024-09-14 20:03:21.440444824,0,003,0.2521882647006015,-0.08339330869316082,0.29402878042045716,0.016753096231862753,0.3496623814342062,-0.11644446343334859,-0.35719228803257635,-0.23646303034559407,3
220,2024-09-14 20:03:21.522135986,0,003,0.2611603270356577,-0.07493194073778782,0.23362907530112823,0.03003818753066169,0.3440702650379541,-0.10825585126667332,-0.41245556032952446,-0.22503048116185478,3
221,2024-09-14 20:03:21.579260010,0,003,0.2693908511391284,-0.06575804277791406,0.1872049988316241,0.034924730529307835,0.33365240608404256,-0.09909795069334006,-0.5065987107030766,-0.20280782614718312,3
222,2024-09-14 20:03:22.533214111,0,003,0.2755838010107775,-0.055816504106663126,0.15340820746083578,0.032582682912690154,0.3182133762203661,-0.08903997503813357,-0.636120015757318,-0.17100122564273457,3
223,2024-09-14 20:03:22.601058105,0,003,0.27831113817611297,-0.04501835366919951,0.13060062011064594,0.024473021554514873,0.29776889697547937,-0.078184621294716,-0.7953102993539465,-0.13135666972114482,3
224,2024-09-14 20:03:22.668900879,0,003,0.27614710642773616,-0.03325621676576323,0.11696459223310772,0.01223748125760177,0.27250409130764114,-0.0666535099623832,-0.9765176040402669,-0.08604223337440335,3
225,2024-09-14 20:03:22.736607178,0,003,0.267829680404709,-0.02042491604040131,0.11055112410517087,-0.0023978950054541555,0.24273676719082873,-0.05457517049339628,-1.1705063717226074,-0.0375109149570692,3
226,2024-09-14 20:03:22.791579102,0,003,0.25243321532643886,-0.006445378481367651,0.10940858035934535,-0.017720860605219754,0.20889733812899203,-0.04208074261962393,-1.3668961855034967,0.011650022362025664,3
227,2024-09-14 20:03:22.869062012,0,003,0.22951418939882146,0.008711831605148187,0.11175458309495508,-0.032126981410501944,0.1715210992457682,-0.029305142357290818,-1.5546907555604657,0.058877822576228075,3
228,2024-09-14 20:03:22.932223145,0,003,0.1991737952362721,0.025011403053650606,0.11607397695118797,-0.044190533457037974,0.13124230412561247,-0.016388216402655354,-1.7229224929191707,0.10179498305289911,3
229,2024-09-14 20:03:23.858302002,0,003,0.16201599071862455,0.042351144753906396,0.12116034073434047,-0.05271010017320362,0.08878880576790286,-0.003475301793030139,-1.8614028072384075,0.13837020314403448,3
230,2024-09-14 20:03:23.926152100,0,003,0.11904101068243375,0.060567230915491536,0.12617349362140984,-0.056740750872356006,0.04498570686296615,0.009279029610478736,-1.9615127647959074,0.16707584239879222,3
231,2024-09-14 20:03:23.993962891,0,003,0.0715303723048893,0.07943849290940011,0.1306919722500286,-0.05562483022371526,0.0007717651469241051,0.02170293801171332,-2.0169033473401057,0.18701265452006155,3
232,2024-09-14 20:03:24.047322021,0,003,0.020949551422992815,0.09868868468680647,0.13469222411022413,-0.04902723071145927,-0.04278414496226413,0.033598731470254335,-2.0239577686042844,0.19795634317685853,3
233,2024-09-14 20:03:24.125016112,0,003,-0.031131119832673807,0.11799167204987242,0.1384235213815497,-0.0369666173150794,-0.08449191823428118,0.04473814772893808,-1.9819694560446977,0.20031126235189767,3
234,2024-09-14 20:03:24.197403809,0,003,-0.08310651105835609,0.13698409053920443,0.14219852593301377,-0.019818071388072248,-0.12309271583304147,0.05486396022912325,-1.893106380394788,0.1950032862441995,3
235,2024-09-14 20:03:24.264146973,0,003,-0.13340876690153294,0.1552865166255942,0.14616611872709967,0.0017339873586624743,-0.15734505213843963,0.06369858428122997,-1.7622231656323644,0.18335231431087082,3
236,2024-09-14 20:03:25.200414795,0,003,-0.1805846820397785,0.17253023991927605,0.15013968598672675,0.026786772703105546,-0.18611219759384523,0.07095867961135749,-1.596498927476752,0.16693544061242807,3
237,2024-09-14 20:03:25.275614990,0,003,-0.22337636597423588,0.18838480947630845,0.15353290332662328,0.054320052240125156,-0.20843105774183393,0.07637443776228639,-1.404859504228461,0.14743018310613237,3
238,2024-09-14 20:03:25.343368896,0,003,-0.2608031004079173,0.202582691442673,0.15547720348661312,0.083262612510393,-0.22357173796235014,0.07971358620645248,-1.19721954823409,0.12643921881964726,3
239,2024-09-14 20:03:25.411145020,0,003,-0.2922282300639681,0.2149382310277142,0.15518262899294652,0.1124983920227748,-0.23110083850269214,0.08080966556169865,-0.9836911152286741,0.10532590931258631,3
240,2024-09-14 20:03:25.478012207,0,003,-0.317380875835179,0.22535714767249293,0.1524476677468346,0.14083595423546408,-0.2309402010131979,0.07959088771981052,-0.7739438844741502,0.08510279399280815,3
241,2024-09-14 20:03:25.539700928,0,003,-0.33632299293951906,0.23383336342574693,0.1480699106051046,0.16700313248366216,-0.22340144887823563,0.07610397024934801,-0.576812906003866,0.06640355830121526,3
242,2024-09-14 20:03:25.614370117,0,003,-0.34938760495551946,0.24043389999548515,0.14396217055380867,0.18970760083778263,-0.20918416368639453,0.07052805394331833,-0.40012227319970506,0.04954256602047697,3
243,2024-09-14 20:03:26.554617920,0,003,-0.3571136971962015,0.24527657099486802,0.1429667046546054,0.20774537411565025,-0.18933124519796052,0.0631743535201445,-0.25061798167289184,0.03463183488848834,3
244,2024-09-14 20:03:26.625706055,0,003,-0.3601775343562437,0.24850581851562617,0.14848237044778959,0.22010163057554702,-0.1651406286361293,0.0544688302084407,-0.1338866218446252,0.021701244510053983,3
245,2024-09-14 20:03:26.693520020,0,003,-0.35931756923656605,0.2502705413438551,0.16402876639490596,0.22600223339210493,-0.13805528470291348,0.0449208098147175,-0.05417581179404871,0.010778550600056962,3
246,2024-09-14 20:03:26.754206055,0,003,-0.35526546438914064,0.2507063584778494,0.1928314330744911,0.22492071905153066,-0.10957177582667774,0.03508600474219455,-0.014108163740073214,0.0019200345675899721,3
247,2024-09-14 20:03:26.829076172,0,003,-0.3486920336487533,0.24992323200274089,0.23746777783473266,0.21657210690487752,-0.08118875481242953,0.025531112955841807,-0.014371158558652031,-0.00478875114955973,3
248,2024-09-14 20:03:26.892563965,0,003,-0.34016299303786945,0.24799809725812574,0.29957364586152846,0.2009151818109205,-0.05437936010296886,0.016800165902583934,-0.05352157906261436,-0.009239111376888303,3
249,2024-09-14 20:03:26.955051025,0,003,-0.3301048441649027,0.24497260253709194,0.37958975192216377,0.17816820909166395,-0.03055404743830325,0.009378310901354624,-0.12797529705300192,-0.011315524046325189,3
250,2024-09-14 20:03:27.908585938,0,003,-0.3187962575520009,0.24085755726454566,0.47657385136166297,0.1488267584694178,-0.01099067157440152,0.003652260892341112,-0.2321303369473762,-0.010940832049698151,3
251,2024-09-14 20:03:27.976364014,0,003,-0.3063945379236739,0.23564501131348456,0.5881763471139458,0.11365506875135208,0.003265593579907948,-0.00012516136305591792,-0.3585691996766408,-0.008139555056857092,3
252,2024-09-14 20:03:28.044172119,0,003,-0.29298182699484715,0.2293251286371531,0.7108344235181432,0.07362944026724239,0.011506788567352086,-0.0018551064807547418,-0.49839236835123535,-0.0030791770267695234,3
253,2024-09-14 20:03:28.104353027,0,003,-0.2786060919875777,0.2219027803457276,0.840113580624893,0.029849228103658948,0.013438844695594575,-0.0015911629371999456,-0.6418149713721778,0.003940139335871216,3
254,2024-09-14 20:03:28.165983887,0,003,-0.2633073252908047,0.21341034168680942,0.9710909684370265,-0.016541826368077685,0.009210110361637857,0.0004805108944627614,-0.7791241222460668,0.012555992426009034,3
255,2024-09-14 20:03:28.243359131,0,003,-0.247128606374047,0.20391430047792797,1.0987440997211513,-0.0643982932243263,-0.0006031293595659544,0.004069698455012244,-0.9019011839133446,0.022468415064590647,3
256,2024-09-14 20:03:28.315284912,0,003,-0.23010556868094847,0.19351380001919516,1.218358307859678,-0.11259009923611517,-0.015033945011221992,0.008811478246177696,-1.0041636749468166,0.033580607210684156,3
257,2024-09-14 20:03:29.233620117,0,003,-0.2122364733530285,0.1823331893493951,1.325948197219912,-0.16000987632506689,-0.032778922127626585,0.014295314138689369,-1.083028382677122,0.046087011989597144,3
258,2024-09-14 20:03:29.301479980,0,003,-0.19346302341134386,0.17051500807163705,1.4186213084948094,-0.20556562346440402,-0.05228097025367713,0.020094492966070018,-1.1387374765149443,0.06046610707007611,3
259,2024-09-14 20:03:29.360455078,0,003,-0.17369814842013828,0.15821839117132794,1.494764752489931,-0.24815049294983427,-0.07184672400750551,0.025793915273074633,-1.1741855282981781,0.07739407231291474,3
260,2024-09-14 20:03:29.422043945,0,003,-0.15289794227776404,0.14562164980846407,1.5539966755044694,-0.28660894809322524,-0.08978891610395877,0.031015131663815133,-1.1941813404090553,0.097613529324895,3
261,2024-09-14 20:03:29.504892090,0,003,-0.13112786235105914,0.13292317667004935,1.5969194930754584,-0.3197360804902353,-0.1045741037313638,0.0354387183587552,-1.2046200331772752,0.1217754047080438,3
262,2024-09-14 20:03:29.560802979,0,003,-0.10857681603500735,0.12033622896704271,1.624714080829233,-0.34632521382224224,-0.11495196092572775,0.03882118341975193,-1.2116723947920574,0.15027188765857682,3
263,2024-09-14 20:03:29.640450928,0,003,-0.0855272896934169,0.10807837705032146,1.6386167805717464,-0.3652506180560636,-0.12004927617775686,0.04100250773724251,-1.2210493010471946,0.18309496017337162,3
264,2024-09-14 20:03:30.569149902,0,003,-0.06232369817636188,0.09635928536671116,1.6394287431398458,-0.3755735702288038,-0.11942025058513286,0.041902541678210385,-1.237382646176525,0.2197619832988713,3
265,2024-09-14 20:03:30.651520020,0,003,-0.03935555134586723,0.08536902359169965,1.6272953896451072,-0.37667545999549523,-0.11303898845520555,0.04150500824375766,-1.2637677393494327,0.25932928895134844,3
266,2024-09-14 20:03:30.719343994,0,003,-0.017038977257180656,0.07526673372814752,1.6019009642995932,-0.3684138332754135,-0.10122796151121177,0.03983122345423962,-1.3014870050198575,0.3004765312970558,3
267,2024-09-14 20:03:30.787110107,0,003,0.004212504217517884,0.06616965692811035,1.5629897206236678,-0.3512624427120359,-0.08455712706994022,0.03691426177859942,-1.3499499565514679,0.3416350784994018,3
268,2024-09-14 20:03:30.846435059,0,003,0.024016069354092208,0.05814508479788565,1.5109545122130636,-0.32637452995529864,-0.0637672407732433,0.032785461810602545,-1.4069716420417215,0.38116169103458797,3
269,2024-09-14 20:03:30.922697998,0,003,0.04203687715249952,0.05120800935131125,1.4472305976722106,-0.2955281546710547,-0.03973222214783086,0.027474487850886523,-1.4694365259267033,0.41755665921697876,3
270,2024-09-14 20:03:30.984850098,0,003,0.05799823684967211,0.04532268248587517,1.3743470391428978,-0.2609568112538482,-0.013433888349965072,0.02101604437732424,-1.5340850845477667,0.44966792017996976,3
271,2024-09-14 20:03:31.933888916,0,003,0.07168972587387853,0.04040325826869374,1.2956591802715174,-0.2251032105316286,0.014077169099919658,0.013458094256156045,-1.5980261405179759,0.4767954025914275,3
272,2024-09-14 20:03:31.992983887,0,003,0.08297286350894946,0.036312641552592125,1.2149052972610654,-0.19034002772972095,0.04174139226110884,0.004870198746103543,-1.6588435038049885,0.4986699832117554,3
273,2024-09-14 20:03:32.069422119,0,003,0.09178215923505134,0.032864630872077895,1.1356981977830691,-0.15869345933868864,0.06856294071207006,-0.004648637430234149,-1.7144796841130934,0.5153593170322842,3
274,2024-09-14 20:03:32.131767090,0,003,0.09811883713372944,0.029835179801391852,1.0609935699020918,-0.13160510047228735,0.09367578321540486,-0.014963035325878244,-1.763137133583884,0.5271686468833463,3
275,2024-09-14 20:03:32.192888916,0,003,0.10203492998602541,0.026984080445633423,0.9926248479642298,-0.1097685096006936,0.11638384371174317,-0.025896372465470135,-1.803315326214097,0.5345657341121087,3
276,2024-09-14 20:03:32.270108887,0,003,0.10361172833762163,0.02408263104320332,0.9310451883674854,-0.09306609046739685,0.13617428416292424,-0.037231561845618696,-1.8339580522230132,0.5381167554686336,3
277,2024-09-14 20:03:32.339637939,0,003,0.10294470090481682,0.020939602281628986,0.8753372581889901,-0.08061844425821502,0.15271768880259928,-0.048719728734484484,-1.8546190921666832,0.5384144595581918,3
278,2024-09-14 20:03:33.268458008,0,003,0.10014362521178052,0.017420144160708938,0.8234554691677515,-0.07095023121544758,0.16586541787940595,-0.06009361484513357,-1.8655896720358625,0.5360056281049144,3
279,2024-09-14 20:03:33.348083984,0,003,0.09533779614861976,0.013458621024495581,0.7726155447512598,-0.062252202332518686,0.175644280431143,-0.0710809337467807,-1.8679791816633018,0.5313396067602915,3
280,2024-09-14 20:03:33.419503905,0,003,0.08866402114637723,0.0090685844507451,0.7196864713920111,-0.052671738972541515,0.18224144824949248,-0.08141616784418296,-1.8637407645451778,0.5247511456728827,3
281,2024-09-14 20:03:33.487265137,0,003,0.08023370516828658,0.004348157303852556,0.6614545227462277,-0.04054528572656127,0.18597131277775633,-0.09085146289390804,-1.8556090912388383,0.5164810000549075,3
282,2024-09-14 20:03:33.555077148,0,003,0.07010476480575359,-0.0005242215051229303,0.5947558087615524,-0.02452851165740493,0.18722128695262813,-0.09916590537085453,-1.846885613894905,0.5067253060589991,3
283,2024-09-14 20:03:33.622886963,0,003,0.058286320683225507,-0.0053050355484279225,0.5165671754061051,-0.003641641124475206,0.1863835132990618,-0.10617130932302166,-1.841013145855087,0.49568236125912496,3
284,2024-09-14 20:03:33.690699951,0,003,0.04478120453514973,-0.009708406522270594,0.4241696732392095,0.022714714774130597,0.18379002593558427,-0.1117150271788724,-1.8409921820622743,0.48356145541750944,3
285,2024-09-14 20:03:34.608885986,0,003,0.029650953362445207,-0.01343198713061852,0.31551465033800913,0.05471071238581511,0.17966841393325428,-0.11568224729098082,-1.8488234487526163,0.47054942655909204,3
286,2024-09-14 20:03:34.676709961,0,003,0.013081285348372445,-0.016183572677427187,0.18983914252142764,0.09198051628131251,0.17412592391619006,-0.11799908645366823,-1.8651527353072008,0.45676251909671933,3
287,2024-09-14 20:03:34.741208008,0,003,-0.00457347306360965,-0.017706791732353542,0.048344610696227926,0.13350519996883367,0.16716991864053768,-0.11863805396287706,-1.8891811079582905,0.44221600308868586,3
288,2024-09-14 20:03:34.803253906,0,003,-0.022783136482976127,-0.017802779514209725,-0.10539683697529889,0.17757185987611993,0.1587715349128536,-0.11762864909665915,-1.9188253465174026,0.42683016796123274,3
289,2024-09-14 20:03:34.865310059,0,003,-0.04087294975661088,-0.016344435476683693,-0.26550575644052266,0.22185849779300523,0.14895933338209044,-0.11507230517548496,-1.9510574932900695,0.4104707935733601,3
290,2024-09-14 20:03:34.942509032,0,003,-0.058077429455725915,-0.013284093293650287,-0.4242667562313271,0.2636290675495142,0.13791308550223436,-0.11115519449166185,-1.9823062730972565,0.3930114960408142,3
291,2024-09-14 20:03:35.015538086,0,003,-0.07359722711736949,-0.008659777250690672,-0.5728606350812673,0.29999553586531014,0.12603254429461455,-0.1061511608371968,-2.0088367381851757,0.3744115510403094,3
292,2024-09-14 20:03:35.950731934,0,003,-0.08665493902823425,-0.0026019711047563293,-0.702266849327515,0.3282113696628104,0.11395768885060155,-0.1004089675861753,-2.0270857238379656,0.3547974010810016,3
293,2024-09-14 20:03:36.026232910,0,003,-0.09655773677500963,0.004664337671575995,-0.8042319833877877,0.34596683730997474,0.10251485550553041,-0.09432098211931111,-2.0339385546327247,0.33451350657710893,3
294,2024-09-14 20:03:36.090913086,0,003,-0.10276122145832461,0.012827533038267684,-0.8721207076588031,0.35164871360190664,0.09259341130932788,-0.08827806490881579,-2.026961233580474,0.31411484810770757,3
295,2024-09-14 20:03:36.152965088,0,003,-0.10491477320176792,0.021506214226692712,-0.9014748013710239,0.344513524832309,0.08500275217454578,-0.08262425497422272,-2.004670870414079,0.29431761877438833,3
296,2024-09-14 20:03:36.214972900,0,003,-0.10288059652063565,0.030271439868507884,-0.8902457403403291,0.3247338659649659,0.0803603824541225,-0.07762402677328367,-1.9668667126242545,0.27594513132830895,3
297,2024-09-14 20:03:36.292600098,0,003,-0.09673491417903116,0.03867290604656593,-0.838800744180799,0.29332298852390226,0.0790236087453815,-0.0734458872719339,-1.9148519425486625,0.25987558072077155,3
298,2024-09-14 20:03:36.365014160,0,003,-0.08676009310578042,0.04626928563721676,-0.749765711313663,0.251974024805521,0.08105504489585634,-0.07015986372396728,-1.8513275477949147,0.2469689673486407,3
299,2024-09-14 20:03:37.297635986,0,003,-0.07343024363046782,0.05266185186868216,-0.6276670165520937,0.20284563413364995,0.08621810297566691,-0.06774500654305249,-1.7799161696948143,0.2379600663181715,3
300,2024-09-14 20:03:37.368959961,0,003,-0.05739008954245096,0.05752828268372893,-0.4783941260394704,0.14832766680388496,0.09400365442887616,-0.06610229921685329,-1.70447213464214,0.23333253068981413,3
301,2024-09-14 20:03:37.437474854,0,003,-0.039427319747935764,0.06065224383972538,-0.30860764764049115,0.09082503410734255,0.10368483521620547,-0.06506949611701575,-1.6284508697817273,0.2332128319637395,3
302,2024-09-14 20:03:37.499842773,0,003,-0.020436567785351637,0.06194320230935372,-0.12514696365524494,0.032573930251749796,0.11439391081665236,-0.0644379481687623,-1.5546194646999212,0.23733163273997818,3
303,2024-09-14 20:03:37.577472900,0,003,-0.0013704494599168305,0.06144083654587344,0.06557700713722377,-0.024510952201116414,0.1252092052073038,-0.06397218266116578,-1.48520718143098,0.24508239751243646,3
304,2024-09-14 20:03:37.646479004,0,003,0.016823509402240446,0.05930281289178948,0.25809837332487967,-0.07893882967666027,0.13523576232266069,-0.06343000381453741,-1.4223190978218267,0.25566654645217585,3
305,2024-09-14 20:03:37.714263916,0,003,0.03327624949221862,0.05578057323089553,0.4481338708334202,-0.1296678841009407,0.1436742742189792,-0.062579882300751,-1.368300870127965,0.26827214325996185,3
306,2024-09-14 20:03:38.658169922,0,003,0.047271590719569094,0.051189197052624084,0.6325115521107267,-0.1760547731384358,0.1498839235443654,-0.06121525359961285,-1.3257985755885766,0.2822112704381374,3
307,2024-09-14 20:03:38.710947021,0,003,0.05829977154773352,0.04587636919778469,0.8089621322767073,-0.21775631201149936,0.15343914908810613,-0.05916796755302731,-1.2974393268198259,0.29696411649994425,3
308,2024-09-14 20:03:38.793772949,0,003,0.06606531968061044,0.04019464988880568,0.9759392888846549,-0.25461217224490224,0.15416938589130935,-0.05632229701446697,-1.2852817299318822,0.31213881839928803,3
309,2024-09-14 20:03:38.861537842,0,003,0.07045051480530781,0.03447844682165456,1.1324840656436699,-0.2865256223827871,0.15216628807273824,-0.05262763423295281,-1.2902783330638237,0.3273967345664872,3
310,2024-09-14 20:03:38.929316895,0,003,0.07146468804788522,0.029024963272241872,1.2780558839987135,-0.31335105473647157,0.14774785418810407,-0.04810512652454338,-1.3118980940987428,0.34238164875999677,3
311,2024-09-14 20:03:38.997113037,0,003,0.06921220442499447,0.024079749213175693,1.4122922520315149,-0.3348030601738383,0.1413846204280485,-0.04284347566325442,-1.347948198454259,0.356667786118745,3
312,2024-09-14 20:03:39.064939941,0,003,0.06390024624698509,0.01982674968210731,1.5347337695094951,-0.35041021152089225,0.13360830334124144,-0.03698329024170838,-1.394593310659111,0.369732482889641,3
313,2024-09-14 20:03:40.004774170,0,003,0.05588829232678091,0.016379478506281263,1.6445485385191652,-0.35952834177013054,0.12492302117023932,-0.030694661807382867,-1.4465211240961284,0.3809511236837716,3
314,2024-09-14 20:03:40.067577881,0,003,0.04574656809702991,0.01377291902612019,1.7402814831984268,-0.3614130341426299,0.11572848784576564,-0.024153821961588565,-1.4972096110403894,0.3896110637875519,3
315,2024-09-14 20:03:40.143758057,0,003,0.03426981382795046,0.011962907631343415,1.8197287702062614,-0.35534297652090513,0.10626159485999702,-0.017523071227953366,-1.5393746683883551,0.39495558951406057,3
316,2024-09-14 20:03:40.207891846,0,003,0.022417005587752788,0.010838783615909757,1.8800640056813496,-0.3407746274226109,0.09656573584093191,-0.010937119797979428,-1.565707068857932,0.396268324199209,3
317,2024-09-14 20:03:40.279287109,0,003,0.011187841614659886,0.010246863716858968,1.9182296744451257,-0.31749139278552174,0.08648728843284481,-0.004496824304163546,-1.5698190737347526,0.392982750130782,3
318,2024-09-14 20:03:40.331953125,0,003,0.0014674247067034021,0.010017457936247592,1.9314802014220902,-0.2857078977703632,0.07568540812659186,0.0017317274500417367,-1.5471442290787119,0.3847864551348526,3
319,2024-09-14 20:03:40.409162109,0,003,-0.0061177235268871245,0.009988210642408754,1.9179087771223906,-0.24611307326964577,0.06365010159095333,0.007715302429208896,-1.4955774904291355,0.37170146718850416,3
320,2024-09-14 20:03:41.321155029,0,003,-0.0112845740631858,0.01001865617508593,1.8768091856798224,-0.19986044704108458,0.04974242730202102,0.013449694197282095,-1.4157921950194783,0.35413491219098636,3
321,2024-09-14 20:03:41.396149902,0,003,-0.014095885837794534,0.00999506787395192,1.808819196928016,-0.14851309888115272,0.03326889152138509,0.018953282597489764,-1.3112415684105012,0.3328963788881073,3
322,2024-09-14 20:03:41.458187988,0,003,-0.014897485321094436,0.009828658552922413,1.71588243608284,-0.0939383360100561,0.01358192912611269,0.02425684570010786,-1.1878761776561249,0.30918718331789413,3
323,2024-09-14 20:03:41.535876953,0,003,-0.014226046398470566,0.009450834138492578,1.6010840021393369,-0.03815745857537171,-0.00981364200505843,0.029390486919456955,-1.0536421316975333,0.28456777237950254,3
324,2024-09-14 20:03:41.597460938,0,003,-0.012708608623887877,0.008807513569255515,1.4684126838596083,0.016814760624974803,-0.03716568118541953,0.03437120213445239,-0.9178086557643541,0.2608786262390727,3
325,2024-09-14 20:03:41.672240967,0,003,-0.010963195428509794,0.007853641947837966,1.3225089998475732,0.06910052956314797,-0.0684050623543995,0.039193607827319364,-0.7901326100505097,0.2400766492561771,3
326,2024-09-14 20:03:41.740060059,0,003,-0.009523560764517885,0.006550237180775619,1.168459558776204,0.11704992800920451,-0.10311186223920639,0.043822438575485956,-0.679898302578398,0.22399790046199378,3
327,2024-09-14 20:03:42.683367920,0,003,-0.00881792478957397,0.004867315365637032,1.0116761547212334,0.15930837737798412,-0.14052045321756337,0.04818573194413431,-0.5949782768091271,0.21411541297085376,3
328,2024-09-14 20:03:42.738756104,0,003,-0.009197696129611124,0.002793539027990712,0.8578211665503725,0.19486893295649368,-0.17955668298355984,0.052172555382039944,-0.5411289387648592,0.21136659847829684,3
329,2024-09-14 20:03:42.818968018,0,003,-0.010972955402659556,0.00034766345576095893,0.712669350019704,0.2231001738138108,-0.21889517521294458,0.0556396440942013,-0.5216339852064672,0.21608349664987117,3
330,2024-09-14 20:03:42.877465088,0,003,-0.014418488487790088,-0.0024166999609819403,0.5818646862655711,0.24373406331160985,-0.2570366909949114,0.05842681200950024,-0.5372359876402936,0.2280103628583515,3
331,2024-09-14 20:03:42.940687012,0,003,-0.019752116303663882,-0.005417033705818245,0.470672988345527,0.25680180698205574,-0.2924217880050382,0.06037880038913652,-0.586272636244377,0.24637361870866115,3
332,2024-09-14 20:03:43.020390869,0,003,-0.02710693981959141,-0.008554217900737246,0.3838025945722019,0.2625300837582614,-0.32358107159336785,0.0613699901279851,-0.6650174597885822,0.2699823934531687,3
333,2024-09-14 20:03:43.079432861,0,003,-0.03651070317844349,-0.011724560054291856,0.3252072296414512,0.2612415181630936,-0.34928518808709125,0.06132552162234125,-0.7682154236101637,0.29735451487760106,3
334,2024-09-14 20:03:44.029272949,0,003,-0.0478729119141897,-0.014828636727945472,0.29776832475448706,0.2532999238804237,-0.36865154384973164,0.06023332567167776,-0.8897096377566691,0.3268624415926431,3
335,2024-09-14 20:03:44.102873047,0,003,-0.06097919200963122,-0.017776224658054424,0.3028882547449403,0.23910676148600726,-0.3811930443627411,0.05814676489277706,-1.0230410628192812,0.35688446979006794,3
336,2024-09-14 20:03:44.168252930,0,003,-0.07549970738067975,-0.020486468080096507,0.3401490887493083,0.2191282427336795,-0.3868161186330882,0.0551799787828263,-1.1619762107344436,0.38594186471289743,3
337,2024-09-14 20:03:44.230737061,0,003,-0.09102184103822314,-0.022883381255085725,0.40721117076474933,0.19392954410784308,-0.38578160057691935,0.05149728641794399,-1.3009296306702938,0.4128000212100893,3
338,2024-09-14 20:03:44.306278076,0,003,-0.10710622247481871,-0.024888674938461898,0.49998533295485764,0.16420794769511182,-0.3786480219527511,0.04729901494150661,-1.4352009160336834,0.43651214589716275,3
339,2024-09-14 20:03:44.370497070,0,003,-0.12334563979617214,-0.02641544590677333,0.6129299993518773,0.13082590836056482,-0.3662149581248163,0.0428077277560638,-1.56099412043966,0.4564004582373902,3
340,2024-09-14 20:03:44.432094971,0,003,-0.1393966400535249,-0.027367059235134432,0.7393341004119195,0.09483529596488964,-0.34946757321710137,0.03825660177156101,-1.6753161238189453,0.4720009467265981,3
341,2024-09-14 20:03:45.358943848,0,003,-0.1549673779383458,-0.027643667970381185,0.8716127790140094,0.05747603632877509,-0.3295096869979033,0.0338766515769774,-1.7758702045812953,0.4830147214920916,3
342,2024-09-14 20:03:45.426729004,0,003,-0.1697763008286121,-0.02715435017677228,1.0017259490737949,0.02013383248360224,-0.3074728906027247,0.02987760102280464,-1.8609507819829443,0.48928848654091495,3
343,2024-09-14 20:03:45.494506104,0,003,-0.18351336996938697,-0.025830442489027765,1.1217619021485763,-0.015754151149300694,-0.2844049627655445,0.02642169717424482,-1.9293050704632937,0.4908101366342093,3
344,2024-09-14 20:03:45.556459961,0,003,-0.19582067274932083,-0.023637134085929663,1.2246173940004923,-0.04883478319065871,-0.26116467600839055,0.023596536384184682,-1.9800090000692971,0.4876950683620256,3
345,2024-09-14 20:03:45.617500977,0,003,-0.20628786610350403,-0.020582571462233433,1.304650854753692,-0.0779747080960915,-0.2383562440851329,0.02139625071661479,-2.0124352905858096,0.48016043632299316,3
346,2024-09-14 20:03:45.694748047,0,003,-0.21445535711890587,-0.01672518521662196,1.358186268504351,-0.10235681133759014,-0.2163181081421092,0.01971879504563138,-2.026323968910307,0.4685091651640177,3
347,2024-09-14 20:03:45.760258056,0,003,-0.21982826106938694,-0.012180159628674248,1.3837455688295268,-0.12152176837388683,-0.19515881689565295,0.018380920076690246,-2.021930238734491,0.45314368596940086,3
348,2024-09-14 20:03:46.708738037,0,003,-0.2219094942306574,-0.007123097915570185,1.3819126330989422,-0.13535022860233023,-0.17481550718054573,0.017143646386260203,-2.0002436294262878,0.4346000416873677,3
349,2024-09-14 20:03:46.774355957,0,003,-0.220246392183818,-0.0017869956334399541,1.3548462648376403,-0.14398651003419988,-0.15510371707988974,0.01573685223609615,-1.9632295979155405,0.4135679623142644,3
350,2024-09-14 20:03:46.831293213,0,003,-0.21446640361459024,0.0035470737567947896,1.305626047577364,-0.14772849226203813,-0.1357481820701555,0.013877498996157497,-1.9139382671910823,0.39086658122126755,3
351,2024-09-14 20:03:46.908052002,0,003,-0.20428920489930222,0.008561440829634493,1.2376964310234595,-0.14693987685705534,-0.11641615904567978,0.011285655991554538,-1.8563227219320384,0.36737309506888094,3
352,2024-09-14 20:03:46.969156006,0,003,-0.1895333956736769,0.012915570308773277,1.1545677312496845,-0.14203356983792934,-0.09677768706282988,0.007704536818248581,-1.7947843200200788,0.3439350701501925,3
353,2024-09-14 20:03:47.047468018,0,003,-0.17014131491368803,0.016266465919721966,1.0597530993812962,-0.13351819036640228,-0.07658957730262425,0.002924322000245901,-1.7336519396923353,0.32131339911673595,3
354,2024-09-14 20:03:47.107562012,0,003,-0.14622428388508446,0.018296897052877334,0.9568636607597535,-0.12205784039541659,-0.055768615358009976,-0.0031973088323646406,-1.6768148337428603,0.3001835928340269,3
355,2024-09-14 20:03:48.055000000,0,003,-0.1181127006490356,0.01874668084693558,0.8497973106345651,-0.10850644483525902,-0.034407631011681115,-0.010726017002246398,-1.6275627609365582,0.2811756470110895,3
356,2024-09-14 20:03:48.125245117,0,003,-0.08639122656334541,0.01743973237477287,0.7428947860394585,-0.093900991783018,-0.012713581039757461,-0.019654980188383065,-1.5885169849010339,0.26489616198264543,3
357,2024-09-14 20:03:48.192980957,0,003,-0.051903966246300066,0.014301129866869242,0.6408806805943841,-0.07940528388717857,0.009101420312700274,-0.0299160230871151,-1.561528934349443,0.2518951945052934,3
358,2024-09-14 20:03:48.260757080,0,003,-0.015726889139197873,0.009362741548199743,0.5485111635143846,-0.06620225339634367,0.030911605833511095,-0.04138888667747246,-1.547526894660552,0.24259720734719398,3
359,2024-09-14 20:03:48.328527832,0,003,0.020884377543807137,0.00275922577546812,0.47007637187560636,-0.05535373617745955,0.05270012647957711,-0.053904580368529166,-1.5463238968119928,0.23723405317125082,3
360,2024-09-14 20:03:48.396243896,0,003,0.056567525780651565,-0.0052845011419100805,0.40903287253588555,-0.04767848987166819,0.0745073274124315,-0.06724460027873548,-1.5563813824533268,0.2357841399937908,3
361,2024-09-14 20:03:48.454172119,0,003,0.08995041473251515,-0.01447462255045813,0.3678897411295182,-0.043694691566651005,0.09634768966621482,-0.08114111499352146,-1.5746140141272682,0.23790796417002164,3
362,2024-09-14 20:03:49.393844971,0,003,0.11976467177124524,-0.02447685364265711,0.34819083699711456,-0.04361259010494636,0.11815663347636064,-0.09528446475624786,-1.5964530281537477,0.24290624619753254,3
363,2024-09-14 20:03:49.471951904,0,003,0.14495379560492674,-0.034947110821423155,0.35040022233412094,-0.047332773953432376,0.13980000002018858,-0.10934229209660751,-1.6163032563465887,0.24974913377614827,3
364,2024-09-14 20:03:49.533586914,0,003,0.16475475480857552,-0.04555938482041077,0.3737374493254446,-0.05444887587275016,0.1611356597767322,-0.12298891551753204,-1.628243778140831,0.2571816325686566,3
365,2024-09-14 20:03:49.610318115,0,003,0.17874591403611428,-0.05602714804191632,0.41613092488427167,-0.06428304989300195,0.18209926836684942,-0.13593844622275914,-1.626682068543451,0.26385489679100155,3
366,2024-09-14 20:03:49.672434082,0,003,0.18686214044171012,-0.0661152231850805,0.474327988521025,-0.07595976347906054,0.20278510824216686,-0.14797391033751578,-1.6068379611438586,0.2684407806260257,3
367,2024-09-14 20:03:49.746459961,0,003,0.18937804033936362,-0.07564127416433489,0.5441211776760314,-0.08850733853158024,0.2234895189123405,-0.1589661130087156,-1.5651486746987155,0.2697327271111364,3
368,2024-09-14 20:03:49.811232178,0,003,0.18686557563187398,-0.08447149546292605,0.620701003842418,-0.10097699411434798,0.24469130249955096,-0.16887839655009573,-1.4997042664414995,0.26675168382458103,3
369,2024-09-14 20:03:50.752702881,0,003,0.18013610459713422,-0.09251751625223292,0.6990953893648526,-0.11255471154802618,0.2669698557512521,-0.17775645884248223,-1.4106902392391654,0.2588553761516313,3
370,2024-09-14 20:03:50.813145020,0,003,0.17016865336694953,-0.09973632694024209,0.774535068638866,-0.1226308231672282,0.29089450058092403,-0.1857063031440349,-1.3006692697458642,0.24582134061131122,3
371,2024-09-14 20:03:50.890304199,0,003,0.1580228006277521,-0.10612917252345225,0.8426241739829348,-0.13081349235342132,0.31693154012342045,-0.19286699302215282,-1.1745076660803837,0.2278655944996538,3
372,2024-09-14 20:03:50.952387939,0,003,0.14474287829474938,-0.1117358158723294,0.8993649493179507,-0.13690549233594967,0.3453917079263755,-0.19938500893798722,-1.03889622731957,0.20558552358085755,3
373,2024-09-14 20:03:51.014875977,0,003,0.1312639994515887,-0.11662306885582399,0.941190849690046,-0.1408749630207297,0.37640365793946423,-0.20539249197090484,-0.9015673544567198,0.17984875426458444,3
374,2024-09-14 20:03:51.096864014,0,003,0.11832887878938109,-0.12086731310634001,0.9651289360914208,-0.14283554157128753,0.40989168490272426,-0.21098734610607686,-0.7703678876435653,0.15166152027226196,3
375,2024-09-14 20:03:51.164645020,0,003,0.10642711193586926,-0.12453377440842421,0.9690835543916924,-0.14303097082990412,0.44555736074979363,-0.21621515775493916,-0.6523860607656135,0.12205208091475007,3
376,2024-09-14 20:03:52.069730957,0,003,0.09577042892851195,-0.12765964218700354,0.9521279194599095,-0.14181288190762148,0.48287687559789694,-0.2210577205705212,-0.5532978204145744,0.09199292896240491,3
377,2024-09-14 20:03:52.151863037,0,003,0.08631068174333438,-0.13024691030321048,0.9147092389902723,-0.13960730943569616,0.5211155001166881,-0.2254321070103647,-0.47696897427672896,0.06235759951797354,3
378,2024-09-14 20:03:52.209178955,0,003,0.07779637386442334,-0.13226507139252408,0.8587692471479372,-0.13687470473425556,0.5593493106870603,-0.22919918530938016,-0.42528684262433264,0.0338947262922692,3
379,2024-09-14 20:03:52.286385010,0,003,0.06985451498236799,-0.1336605121966697,0.7878380513993508,-0.13407394981138485,0.5964874607645009,-0.23217831677680245,-0.3981921265123509,0.007205968110388983,3
380,2024-09-14 20:03:52.355113037,0,003,0.06207624150209964,-0.13436875581927046,0.7071138835249555,-0.1316423114865483,0.6312984710856132,-0.2341657350648326,-0.3938537615902107,-0.017280435357898402,3
381,2024-09-14 20:03:52.422929932,0,003,0.05408169025560885,-0.13432450673946356,0.6234253057443919,-0.12999561232708667,0.6624491926607223,-0.23495438523353726,-0.40895695925371034,-0.03933259355293329,3
382,2024-09-14 20:03:52.490677002,0,003,0.04555490768517066,-0.13346611570682734,0.5449152484251053,-0.129535953265,0.6885639192325058,-0.23435268422749414,-0.43912888425491714,-0.05890799237543443,3
383,2024-09-14 20:03:53.435542969,0,003,0.03626503039665319,-0.1317374355205203,0.4803786607078675,-0.1306459944914929,0.7083015516183166,-0.23219983897606217,-0.4794824079791981,-0.0760977061295278,3
384,2024-09-14 20:03:53.503336914,0,003,0.02609723979369841,-0.1290934794884285,0.43832929502824913,-0.13365852364746897,0.7204346358756633,-0.22837608888192137,-0.5251674190749631,-0.09103484034695294,3
385,2024-09-14 20:03:53.564537109,0,003,0.015099483715557104,-0.12551145894078175,0.425942172348896,-0.1388021987228396,0.7239181856927039,-0.22280788976228438,-0.5717960501005822,-0.10380969267749676,3
386,2024-09-14 20:03:53.626552002,0,003,0.0035307575160236824,-0.12100211251437236,0.44805175571121303,-0.14613231376250133,0.7179563751365997,-0.2154704637276343,-0.615682686602954,-0.1144325156975824,3
387,2024-09-14 20:03:53.706754883,0,003,-0.008110134266953511,-0.11561527767350925,0.5064088840720724,-0.1554614355417626,0.7020739731135903,-0.2063902879812716,-0.6539371594788294,-0.1228518810202186,3
388,2024-09-14 20:03:53.770181885,0,003,-0.01909530979424141,-0.10943664971522196,0.5993429497469077,-0.1663037327997618,0.6761735271156615,-0.19564650294674477,-0.6844677129124194,-0.12900582084097437,3
389,2024-09-14 20:03:53.842345947,0,003,-0.028532717813060954,-0.10257561803208103,0.721860872847271,-0.17784707841032818,0.6405530529146757,-0.1833682729368107,-0.7059041105142186,-0.13287797515544783,3
390,2024-09-14 20:03:54.782729004,0,003,-0.035483322845985175,-0.09514690006391313,0.8661253128043919,-0.18897108617568562,0.5958851848299274,-0.1697283808363974,-0.7174171230513713,-0.13454624695906398,3
391,2024-09-14 20:03:54.844250977,0,003,-0.03910870138560346,-0.08725066342448956,1.0221911661309024,-0.19831512127468898,0.5431747085266644,-0.15493543798587456,-0.7184554649824108,-0.13422074789741706,3
392,2024-09-14 20:03:54.906104980,0,003,-0.0388176359123722,-0.07895590674623876,1.1788523431771538,-0.20437680918919648,0.48370036699154095,-0.13922439207657344,-0.7085404853707603,-0.13225769894300202,3
393,2024-09-14 20:03:54.982800049,0,003,-0.03437605632815788,-0.07029177668923356,1.3245218505715342,-0.2056294165527341,0.4189441586736098,-0.12284454184894666,-0.6872834522463871,-0.12913174246436768,3
394,2024-09-14 20:03:55.044811035,0,003,-0.02594864053550223,-0.06125096955814297,1.4481652022249614,-0.2006729769602189,0.3505251973590103,-0.10604819231169497,-0.654628351610209,-0.1253681561021887,3
395,2024-09-14 20:03:55.122178955,0,003,-0.014064176774540787,-0.051805587300733834,1.540276799632954,-0.18842421110054924,0.2801543390401962,-0.08908382228068645,-0.6111642388053568,-0.12145612145708605,3
396,2024-09-14 20:03:55.184039062,0,003,0.0004746489818076972,-0.041930067931879825,1.5937937091850998,-0.16831026128517615,0.20960588446191936,-0.07219357908180007,-0.5583870496284418,-0.11775975867168723,3
397,2024-09-14 20:03:56.106923096,0,003,0.016703405237712837,-0.03162267755237669,1.6048164859317262,-0.14041634045729326,0.14068693440151275,-0.05561183879885744,-0.49892771794703716,-0.11442700495177474,3
398,2024-09-14 20:03:56.166739990,0,003,0.03359854382133551,-0.02091797060424789,1.5729847199824836,-0.10555491719027968,0.07518663045815688,-0.03956163359323201,-0.4367703872457336,-0.1113012900039643,3
399,2024-09-14 20:03:56.228856934,0,003,0.05015487016272413,-0.009887039392789171,1.5013522990272492,-0.06524064017520897,0.014800046459075653,-0.024246929206861074,-0.37735662079552934,-0.10786405158516708,3
400,2024-09-14 20:03:56.310350098,0,003,0.06544627142807997,0.0013701988285678426,1.3957668466903914,-0.021564354879738644,-0.03897094603147113,-0.00984005586694279,-0.3274239821942881,-0.1032399071950155,3
401,2024-09-14 20:03:56.378135010,0,003,0.07868741493851213,0.012731045625618786,1.2639411600322459,0.023023926917378458,-0.08493162691279481,0.0035331338860439014,-0.29453020390568435,-0.09627410588220231,3
402,2024-09-14 20:03:56.431371826,0,003,0.08929836032760546,0.02404808517063622,1.114421306230836,0.06599197762245917,-0.12229945600007588,0.015803435715115333,-0.28631461783708534,-0.08567393410087477,3
403,2024-09-14 20:03:56.508634033,0,003,0.09695413994428889,0.0351424933367465,0.9556196727624549,0.10501789861149594,-0.15076646283768652,0.026956891578128025,-0.30957381467253203,-0.07020376526294472,3
404,2024-09-14 20:03:57.449101074,0,003,0.10159848418983176,0.04580112627523063,0.79507767327163,0.13824895038371726,-0.17049773313123257,0.03702032775518656,-0.36927373376758904,-0.04891179266320791,3
405,2024-09-14 20:03:57.526077881,0,003,0.10341435974797163,0.05578195435132199,0.6390572519630863,0.16447845325033314,-0.182072968904288,0.046038765868797,-0.46768120472089625,-0.021339501095130633,3
406,2024-09-14 20:03:57.593915039,0,003,0.10276032803029074,0.06482599646239727,0.4924342984099318,0.1832079601723123,-0.18640431664379725,0.05405404222191451,-0.6037730208737537,0.012341029365534351,3
407,2024-09-14 20:03:57.650538818,0,003,0.10008971132467144,0.072673234488902,0.3587867319784709,0.19459394857905607,-0.18466430666693792,0.061093062145391765,-0.7730200043811406,0.051291270569572764,3
408,2024-09-14 20:03:57.729445068,0,003,0.09587199480090093,0.07908169499188394,0.24056142355017884,0.19931240914908668,-0.17822711564138474,0.06716739752132493,-0.967619139111794,0.09407134578232164,3
409,2024-09-14 20:03:57.797226807,0,003,0.0905380336633198,0.08384610902544988,0.13921463753835658,0.1983919829521169,-0.168599722377009,0.07227994802272057,-1.1771869794302048,0.13878426744142527,3
410,2024-09-14 20:03:57.865041016,0,003,0.08446285012153369,0.08680998558320203,0.05526512137375545,0.19305380769910613,-0.15732955191555995,0.07643358993677583,-1.3898199420387658,0.18326907845411503,3
411,2024-09-14 20:03:58.807917969,0,003,0.07797802809695645,0.08786926428587319,-0.01166890008769173,0.1845611593070395,-0.14590217153070678,0.07963864555111755,-1.5933572678931502,0.22532275127744536,3
412,2024-09-14 20:03:58.875711914,0,003,0.07138993433617043,0.08697148950718162,-0.0626835666346243,0.17406686861839402,-0.13564986815028826,0.08191800312380558,-1.7766333147052131,0.2629358952127129,3
413,2024-09-14 20:03:58.943522949,0,003,0.06498569224388989,0.08411561499828737,-0.09920778226841975,0.16247798793485035,-0.1276867166137269,0.0833117086577008,-1.93044175622853,0.294504843198127,3
414,2024-09-14 20:03:59.001998047,0,003,0.05902404950172689,0.0793564722335385,-0.12258148149818274,0.15038311180914982,-0.12288599856218514,0.08388595824460862,-2.0479711301456938,0.3189613792909847,3
415,2024-09-14 20:03:59.065535889,0,003,0.05371965262742754,0.07281413205067089,-0.1337551508338719,0.13805315120237382,-0.12190018674393836,0.08374809601186241,-2.1247029549433516,0.3357872972974267,3
416,2024-09-14 20:03:59.146871094,0,003,0.04923665096510839,0.06468097443381779,-0.13310712028142666,0.12547656866710735,-0.12519085892794754,0.08305943283407141,-2.1580445508534165,0.34494399256046987,3
417,2024-09-14 20:03:59.204844971,0,003,0.045702088240095584,0.05521779101811528,-0.12032199234093897,0.1123989513498584,-0.13303208503083333,0.08203472882382563,-2.1470426993715512,0.34677846403340873,3
418,2024-09-14 20:04:00.153505127,0,003,0.043227815750217,0.04473935789740968,-0.09439236001901984,0.0983840712453102,-0.14548350181146205,0.08092607612986531,-2.0923427972984108,0.3419377775383649,3
419,2024-09-14 20:04:00.226202881,0,003,0.04191722653580899,0.03359759051648569,-0.05385123687774831,0.08292312219608788,-0.1623546150137555,0.07999711491520467,-1.9963239031006133,0.3312915209947887,3
420,2024-09-14 20:04:00.292082031,0,003,0.04184490236652115,0.02216767364885935,0.002792276557261982,0.06557611336905216,-0.18318183998848275,0.0794938500664513,-1.8632279773363738,0.31586329881949216,3
421,2024-09-14 20:04:00.354693848,0,003,0.04301474097878343,0.010836375866026956,0.07657942890409043,0.046091203101687635,-0.20723003489965292,0.07961707141895279,-1.6991272334811056,0.2967783156587855,3
422,2024-09-14 20:04:00.416281006,0,003,0.045312406932860316,-9.662487960981636e-06,0.16773624189339395,0.024461456869569614,-0.2335229142987519,0.0805023723176577,-1.5116756265226647,0.27522639652256503,3
423,2024-09-14 20:04:00.497350098,0,003,0.04847340631850787,-0.009996428026103087,0.2754367637601332,0.0009270963966981006,-0.2609050421633124,0.08221342741630987,-1.309672431582166,0.25242624003430714,3
424,2024-09-14 20:04:00.554627930,0,003,0.0520815169647176,-0.018776254739377017,0.39766980047054434,-0.02404522217886076,-0.28813589085716346,0.08474989539176715,-1.102471228230527,0.22956471900200048,3
425,2024-09-14 20:04:01.508458008,0,003,0.05559343749230049,-0.02604244179044412,0.5312590161451692,-0.04979611981874754,-0.3140030028505523,0.08806557644978302,-0.8992705089628561,0.2076948566651603,3
426,2024-09-14 20:04:01.570510009,0,003,0.05837658191611652,-0.03154261835711705,0.6720914072718358,-0.07552712413483348,-0.3374234155919773,0.09208848461878641,-0.708400297233803,0.18761888515873634,3
427,2024-09-14 20:04:01.644031981,0,003,0.05975382597747086,-0.035089079943265634,0.8154720849097853,-0.10036240753937725,-0.35750437852693306,0.09673426151022149,-0.5367805450620142,0.16981902780312957,3
428,2024-09-14 20:04:01.709656006,0,003,0.05905006334179386,-0.036565430427907795,0.9564454279105142,-0.12339383233186561,-0.3735621992909942,0.10190975748829179,-0.38965554781419043,0.15447759413760695,3
429,2024-09-14 20:04:01.770666992,0,003,0.0556282144920806,-0.03592748062108925,1.090008078271926,-0.14370824320713363,-0.38512274078181297,0.10751114278219545,-0.2705687980743326,0.14156561771720072,3
430,2024-09-14 20:04:01.847440918,0,003,0.048911784797259855,-0.033197669217220074,1.211248791537819,-0.16041826911832302,-0.39192273077290235,0.11342249179330266,-0.18145691213519574,0.1309412823364484,3
431,2024-09-14 20:04:01.910408936,0,003,0.038412535285178864,-0.028457862464783924,1.315481862063436,-0.17270562702944484,-0.39390872880432964,0.1195155850381232,-0.12274483883807978,0.12241191049576026,3
432,2024-09-14 20:04:02.859042969,0,003,0.023776209536589325,-0.02184525406849207,1.3984344019339074,-0.1798662941824766,-0.3912174448541799,0.12564746786705344,-0.09340219022200696,0.11574909834714993,3
433,2024-09-14 20:04:02.926848877,0,003,0.004832645446101353,-0.01354991162185909,1.4565393664242723,-0.18135235752086717,-0.38413005990771487,0.1316539411754354,-0.09102463599997375,0.11068096217610268,3
434,2024-09-14 20:04:02.983589844,0,003,-0.018367099428561535,-0.0038112213261012576,1.4873357551438187,-0.17682128041498482,-0.37301499226822793,0.13734177635394249,-0.11205727117767877,0.1069014556042029,3
435,2024-09-14 20:04:03.060843994,0,003,-0.04553346190550242,0.007087212918147362,1.489869273313364,-0.16619459511607323,-0.35828506362179735,0.142485217075171,-0.15221726293566457,0.10411496326778251,3
436,2024-09-14 20:04:03.130072021,0,003,-0.07615236141775379,0.018826415649289323,1.4649289572293873,-0.14969786946009322,-0.3403868363157779,0.14683192586880014,-0.20702640510837025,0.10209195440348003,3
437,2024-09-14 20:04:03.184420166,0,003,-0.10953747957638696,0.03106787626887224,1.4150213157189222,-0.12784866742173104,-0.3198243515723405,0.1501211400970516,-0.2722515453237973,0.1006944385349398,3
438,2024-09-14 20:04:03.262065918,0,003,-0.14490104953786245,0.0434742035106888,1.344078822117661,-0.10139578193109772,-0.297203956610977,0.15211303759816924,-0.34407811272321004,0.09985061494218483,3
439,2024-09-14 20:04:04.193105957,0,003,-0.1814171147912672,0.05572861920744628,1.2569617328237188,-0.07124642295483749,-0.27327422688587605,0.15262413946211462,-0.4190090999820792,0.09949243408890636,3
440,2024-09-14 20:04:04.270977051,0,003,-0.21827017307215404,0.06755107473381551,1.1588792981431228,-0.03841476631902936,-0.2489365372215162,0.1515604113985007,-0.49368856914804343,0.09949766990779482,3
441,2024-09-14 20:04:04.333091064,0,003,-0.2546819891542959,0.0787114970487746,1.0548761641812217,-0.003999716332137734,-0.2252174026050474,0.14893844744799567,-0.5649147908385553,0.0996813939054384,3
442,2024-09-14 20:04:04.412068115,0,003,-0.2899010411736565,0.08903740200651228,0.9494417919559233,0.030827685492213066,-0.2032096870169843,0.1448882553445343,-0.6299014274721665,0.0998412613042743,3
443,2024-09-14 20:04:04.471847168,0,003,-0.3231580376937408,0.09841095328416015,0.8462178980686267,0.0648577221865583,-0.18400061485165312,0.13963943571033507,-0.6865443489231625,0.09980443926604414,3
444,2024-09-14 20:04:04.533387939,0,003,-0.35361499046766226,0.10675422781270565,0.7478100506602035,0.09690657304573533,-0.16860534353015746,0.13349849717717172,-0.7334198676519627,0.09941980375874748,3
445,2024-09-14 20:04:04.611135986,0,003,-0.38033900800758974,0.11400827108719386,0.6557630143624273,0.12589364404393186,-0.1579087305164993,0.12682193159534458,-0.7695120583391415,0.09849720549960118,3
446,2024-09-14 20:04:05.559273926,0,003,-0.4023270848000835,0.12011605988355188,0.5706968603560632,0.1509113632134529,-0.1526023482700938,0.11998476530832419,-0.7939013013594818,0.09674157024600849,3
447,2024-09-14 20:04:05.627091797,0,003,-0.4185934123401413,0.125016928697043,0.4924950908886983,0.17127851932659982,-0.15311639858157738,0.11334719400644713,-0.805601346642531,0.09371682663252459,3
448,2024-09-14 20:04:05.686981934,0,003,-0.4282960436834563,0.12865116364182583,0.42046406671592285,0.18656531476285004,-0.1595695816303862,0.1072260207852495,-0.8035479265965046,0.08884987826725937,3
449,2024-09-14 20:04:05.762595947,0,003,-0.430852492622162,0.13096643727187182,0.3534827467677683,0.19657994922175223,-0.17175052601730892,0.10187319987096664,-0.7866803871532568,0.08148557894967244,3
450,2024-09-14 20:04:05.826278809,0,003,-0.4260051968155725,0.13191991338932502,0.2901669750263298,0.20132829185927353,-0.18911463124509753,0.09745798877352353,-0.7541221193275324,0.07099585168371078,3
451,2024-09-14 20:04:05.898210938,0,003,-0.4138314134335009,0.13147850959894672,0.22904361925481942,0.20096964131653539,-0.21078025385666546,0.09405231635608657,-0.7054856315375544,0.05691577122591505,3
452,2024-09-14 20:04:05.965954102,0,003,-0.3947158216192143,0.1296245241968567,0.16874818903488722,0.19578154018157196,-0.23553160066674192,0.09162406477522271,-0.6412300464366644,0.0390581756711452,3
453,2024-09-14 20:04:06.883371094,0,003,-0.36930959890045284,0.1263688785941753,0.1082534923006875,0.18614045130717477,-0.2618446419567151,0.09004085828613032,-0.5628842547089341,0.01756362752634863,3
454,2024-09-14 20:04:06.944431885,0,003,-0.3384924024630674,0.12176642568298937,0.04709187796891666,0.17252228989204638,-0.2879506182193053,0.08908411786109187,-0.47299474306964195,-0.007124315649298035,3
455,2024-09-14 20:04:07.019535156,0,003,-0.30333913820149355,0.11592644479145925,-0.014490002825654014,0.15551031519100775,-0.3119462069796335,0.08847409226900527,-0.3748577395707098,-0.03432329826528605,3
456,2024-09-14 20:04:07.083653809,0,003,-0.2650798350260319,0.10901484006131597,-0.07548992966945756,0.13578614223228905,-0.33193899300251617,0.08790428113561652,-0.27225017180010763,-0.06316056844518794,3
457,2024-09-14 20:04:07.155095215,0,003,-0.22504093079875462,0.10124739098295894,-0.13422680413676025,0.1140948304601956,-0.3461975027983154,0.08707842488861924,-0.16933047180866861,-0.09257629895853019,3
458,2024-09-14 20:04:07.221986084,0,003,-0.1845710660743293,0.09287644636870522,-0.1885038481967795,0.0911962450907189,-0.3532753983374849,0.08574228650212257,-0.07066674846955613,-0.12130269358595605,3
459,2024-09-14 20:04:07.283179932,0,003,-0.14496392521944346,0.08417562078216727,-0.23584434719023498,0.06782102011972731,-0.35208973794485793,0.08370547738019274,0.01880308302757668,-0.14786587066138712,3
460,2024-09-14 20:04:08.205967041,0,003,-0.10738676444533496,0.07542564739393118,-0.2738463401634719,0.04465101507108278,-0.34195037941739365,0.08085234775103049,0.09401544954919389,-0.1706441263269432,3
461,2024-09-14 20:04:08.267996094,0,003,-0.07282508646992394,0.06690330460388644,-0.3006921105470399,0.02233887181168149,-0.32256233440616416,0.07714445394517949,0.1502471106133706,-0.1879958968834623,3
462,2024-09-14 20:04:08.329152100,0,003,-0.04205957334989034,0.058875652401075125,-0.31570270280851437,0.0015544560365038096,-0.2940308591057689,0.07261784075308239,0.18374815100977798,-0.19845160160447373,3
463,2024-09-14 20:04:08.412311035,0,003,-0.015675053431914904,0.05159855514707159,-0.31967580834746895,-0.01698426519334094,-0.25687641651915405,0.06737608492881794,0.19241114971519915,-0.20093238378535316,3
464,2024-09-14 20:04:08.468965088,0,003,0.005924130426336415,0.04531336058319546,-0.31476667360275934,-0.03253830402290606,-0.21204171239582018,0.06157924292690887,0.17632356626928705,-0.19494307664439567,3
465,2024-09-14 20:04:08.547900879,0,003,0.022513445421174144,0.04023670921927926,-0.30390047874882664,-0.04444002125297349,-0.16087166758624913,0.05543035651595381,0.1380704052727977,-0.1806984724271572,3
466,2024-09-14 20:04:08.608248047,0,003,0.03405670487228793,0.036545169057260414,-0.2899896900425057,-0.052215425857199176,-0.10505793500826131,0.04916054101619766,0.0826160666139032,-0.15914796744719698,3
467,2024-09-14 20:04:09.558907959,0,003,0.04070939066979093,0.03436032587951668,-0.2753450175352878,-0.05568370463842045,-0.04654799835402385,0.04301136403059823,0.016657660084285937,-0.131875722442632,3
468,2024-09-14 20:04:09.615304932,0,003,0.04281284799078271,0.03373815422793031,-0.26152278769253506,-0.05499801699710329,0.012569501795394053,0.037214647116812744,-0.052371893002014315,-0.1009017085823061,3
469,2024-09-14 20:04:09.692735840,0,003,0.04087891124401662,0.034663347344727036,-0.24956762638980962,-0.05062084610971706,0.0701803966982725,0.03197415506540288,-0.11725988471943165,-0.06844976970113383,3
470,2024-09-14 20:04:09.762305908,0,003,0.035561086293712206,0.03704829363836989,-0.24038870167169982,-0.043251389825684716,0.12424411384232048,0.027454311681565518,-0.1716610133870689,-0.03673338247887887,3
471,2024-09-14 20:04:09.817225098,0,003,0.027611791982624912,0.040737163354967,-0.23497310702089988,-0.03374212699737605,0.17287385500528205,0.0237773668955054,-0.2104613041262167,-0.007769044522850051,3
472,2024-09-14 20:04:09.896764893,0,003,0.01782651033179872,0.04551626025803761,-0.23428926099576042,-0.023042468471137726,0.2143998955659123,0.021027330948777005,-0.23001005390394583,0.01678165249591264,3
473,2024-09-14 20:04:09.965673828,0,003,0.006973379653991787,0.05113022202522116,-0.2389728069608966,-0.012173113078233435,0.24741837246418907,0.01925752448209351,-0.22825141868894278,0.03572300936012658,3
474,2024-09-14 20:04:10.901645020,0,003,-0.004281875432774323,0.05729996977780515,-0.24904444950592272,-0.002196283977216912,0.27083686026141374,0.018497598540351455,-0.2046861732399784,0.04837869390875704,3
475,2024-09-14 20:04:10.975125977,0,003,-0.015432689816319787,0.06373758179781239,-0.2638326532737616,0.0058498242270662,0.2839281273268584,0.018757834576935247,-0.16017238348557944,0.05460305101621181,3
476,2024-09-14 20:04:11.040725830,0,003,-0.026160161934612382,0.0701587758819485,-0.28207499896354593,0.011050035783373479,0.2863845378402963,0.02003266961635002,-0.09665572395421523,0.05476087677828732,3
477,2024-09-14 20:04:11.102837891,0,003,-0.03634561975712375,0.07629820075102045,-0.3021131648313032,0.012721756244972179,0.27835698592567654,0.02230503824239101,-0.016881303538605803,0.04966245371546108,3
478,2024-09-14 20:04:11.180239990,0,003,-0.04607499831308883,0.08192811827880728,-0.32217792514579635,0.01051204229702013,0.2604727373638594,0.025549162848216574,0.07591877881816192,0.04044130737701254,3
479,2024-09-14 20:04:11.240837891,0,003,-0.05562343584972469,0.08687452413904463,-0.3407785414039647,0.004461266029878723,0.233822909281654,0.029731014837497335,0.17836090629514606,0.028385572787673622,3
480,2024-09-14 20:04:11.315896973,0,003,-0.06540764095243125,0.09102676107300164,-0.3571168918295394,-0.0049829256019662165,0.19989628955358374,0.034810825782667594,0.28723585941249985,0.014752569095377244,3
481,2024-09-14 20:04:12.258122070,0,003,-0.07590662205739883,0.09434127444122621,-0.37136215326253186,-0.01700832883126715,0.16045323058594496,0.0407497283204511,0.39980875551151523,0.0006001801234630828,3
482,2024-09-14 20:04:12.325967041,0,003,-0.08755983236284716,0.09683943761467644,-0.3846657212466952,-0.030534613087700876,0.1173699104836098,0.04751596920190257,0.5140962345093097,-0.013334670226317024,3
483,2024-09-14 20:04:12.393835938,0,003,-0.10065783459505682,0.09859847295838535,-0.39894582264489065,-0.04434453878586698,0.07248974386979744,0.055086481975459754,0.6290552296932378,-0.026687601711801606,3
484,2024-09-14 20:04:12.461555908,0,003,-0.11524781519631656,0.09973693041860862,-0.4165622331205961,-0.057214245765804875,0.027496835880763012,0.06344435314649838,0.7445635035311179,-0.0394423839005743,3
485,2024-09-14 20:04:12.516585205,0,003,-0.13107968027479985,0.10039758440680503,-0.43997560070076086,-0.06801238111432648,-0.0161864630457672,0.07257357768665854,0.8611494334380522,-0.051846105695803654,3
486,2024-09-14 20:04:12.597181885,0,003,-0.14761322674304095,0.1007301757609059,-0.4714579396760433,-0.07576299360773314,-0.057471306429217085,0.08245136598301112,0.9795393818123744,-0.06429170313967573,3
487,2024-09-14 20:04:12.655766113,0,003,-0.16408989893574383,0.10087683407532338,-0.5128950573532772,-0.07968531080577133,-0.09562793948848711,0.09303881007352215,1.1001796601178788,-0.07719761620381163,3
488,2024-09-14 20:04:13.602631104,0,003,-0.17965092641731262,0.10096337777183646,-0.565629888980129,-0.07922780303257194,-0.1302504480504045,0.10427088657900857,1.222954437623966,-0.09091479795521513,3
489,2024-09-14 20:04:13.664237061,0,003,-0.1934721457372042,0.10109742378376162,-0.6302667405181334,-0.07410570169393789,-0.16117017037892223,0.11604667656154369,1.3472254837958708,-0.10568301159307653,3
490,2024-09-14 20:04:13.741458008,0,003,-0.20488616667009343,0.10137025782574273,-0.7064627331544253,-0.0643325697735242,-0.18835761254332758,0.12822196078301362,1.4720915326775825,-0.12163316011069342,3
491,2024-09-14 20:04:13.811518799,0,003,-0.21346837586009038,0.10185770854148612,-0.7927856048058964,-0.0502304407266639,-0.21184979121149064,0.14060609407701233,1.5966838277600437,-0.1388154022092109,3
492,2024-09-14 20:04:13.879326172,0,003,-0.21907464345867658,0.10261716411915224,-0.8866650922899842,-0.03241719277432589,-0.23171358672219128,0.15296321941995183,1.7204313240714022,-0.15724398505642376,3
493,2024-09-14 20:04:13.947117188,0,003,-0.22183084550644144,0.10368075350275714,-0.9844698546097942,-0.011778799891845522,-0.24804489606565033,0.16501819445956054,1.843282967097187,-0.17695350196542423,3
494,2024-09-14 20:04:14.014944092,0,003,-0.22208254995759596,0.1050466970129336,-1.0817984607476807,0.010572519256216075,-0.26099635791196957,0.1764680134681948,1.9657887693626734,-0.19803518986467983,3
495,2024-09-14 20:04:14.958323975,0,003,-0.22031829537472858,0.10667123056815633,-1.1740353781463404,0.03336369780829297,-0.2708032540616716,0.18699690778090577,2.088921738119322,-0.22061318168008057,3
496,2024-09-14 20:04:15.012145020,0,003,-0.2170791340978636,0.10846219603521151,-1.257070822928455,0.055262705826405877,-0.27776904833169425,0.1962903726754024,2.213638331019531,-0.24475617637332647,3
497,2024-09-14 20:04:15.093893066,0,003,-0.2128680840092016,0.11027502026679695,-1.3279419895301714,0.0750139108603042,-0.2822022508350829,0.20404451184606226,2.3403165157415424,-0.2703600850574451,3
498,2024-09-14 20:04:15.150891113,0,003,-0.2080796270109259,0.11191321667908634,-1.3851630059317253,0.09157600850007036,-0.2843362282269618,0.20997291030205228,2.4682911339730893,-0.297045496905739,3
499,2024-09-14 20:04:15.229389893,0,003,-0.202959821454293,0.11313453677498216,-1.4286650868975443,0.10422389406580261,-0.2842759474959145,0.21381730687998857,2.5956425974958437,-0.3240940738702511,3
500,2024-09-14 20:04:15.297120117,0,003,-0.1975862634262169,0.1136607425004457,-1.4594182992135079,0.11259180329835368,-0.28199798614797555,0.21536526445184279,2.719233713646194,-0.3504320141269013,3
501,2024-09-14 20:04:15.364872070,0,003,-0.19185862508485593,0.1131896490018768,-1.4788779008668413,0.11665052979493905,-0.2774034831266218,0.21447221240196473,2.834923319913488,-0.37467388665046797,3
502,2024-09-14 20:04:16.306402832,0,003,-0.18550803970757787,0.11141167799986962,-1.4884125543030362,0.11662420495583735,-0.2704021776903776,0.21108263059898494,2.9379347522266057,-0.3952390214207383,3
503,2024-09-14 20:04:16.376168945,0,003,-0.1781345085672253,0.10803270803663717,-1.4888505863270969,0.11287377152540247,-0.2609961736951664,0.20524583853206513,3.0233752837245502,-0.4105257051022335,3
504,2024-09-14 20:04:16.430244873,0,003,-0.16926783381185448,0.10280060569220353,-1.4802676367921432,0.10579400149634248,-0.2493395812429716,0.1971236311295257,3.0868372237839288,-0.4191004025820049,3
505,2024-09-14 20:04:16.507890869,0,003,-0.15843994839759892,0.09553107318797609,-1.462116623047799,0.09576209749001444,-0.23576692105081548,0.18698782581384055,3.1249442174950333,-0.4198568833739871,3
506,2024-09-14 20:04:16.569897949,0,003,-0.1452598060654288,0.08613074715588899,-1.433704061726507,0.08314509125527614,-0.22079034897060223,0.17520496515141568,3.1357389338141988,-0.41212471498348324,3
507,2024-09-14 20:04:16.631891846,0,003,-0.12948452846044314,0.07461617788677176,-1.394890807195405,0.06835469316720855,-0.20506051005437803,0.16220637480085737,3.118940524819701,-0.3957424962666451,3
508,2024-09-14 20:04:16.715101074,0,003,-0.11107028710625066,0.06112427502938481,-1.3468091877852928,0.05192918911834153,-0.18929176258643038,0.1484478351206169,3.076195312431543,-0.3711300723643509,3
509,2024-09-14 20:04:17.631148193,0,003,-0.09017643281405982,0.04590862418242759,-1.2923572040834579,0.034605660539709274,-0.17417695592525434,0.13436968325631551,3.011351897619518,-0.33936601491931584,3
510,2024-09-14 20:04:17.693191162,0,003,-0.06711358245587609,0.02932011932555761,-1.2362797476055556,0.01733997066328166,-0.16032806068681915,0.1203677058048361,2.9305906783485214,-0.3022210457047069,3
511,2024-09-14 20:04:17.769018799,0,003,-0.042263693469031936,0.011776011662297442,-1.1847872613059292,0.0012479737118470807,-0.1482546507203902,0.10677802911632665,2.842209369744177,-0.262088357698606,3
512,2024-09-14 20:04:17.836828857,0,003,-0.016016703490683692,-0.0062750477101530455,-1.1448459233803474,-0.012527319172574554,-0.13835781717181472,0.09387202375906989,2.756046985393445,-0.2218089976239061,3
513,2024-09-14 20:04:17.892962891,0,003,0.01125564405710667,-0.02438483947698771,-1.1233760865453475,-0.022980857631522533,-0.13091194506792828,0.08185478142468165,2.6826486010828803,-0.18444278620618174,3
514,2024-09-14 20:04:17.970920166,0,003,0.039203677952335765,-0.04213166524784186,-1.1265267745745864,-0.029387658642533468,-0.12602997299024526,0.07086246069590073,2.6322488986333354,-0.1530285216487005,3
515,2024-09-14 20:04:18.040186035,0,003,0.06750497973394311,-0.05914249385658266,-1.1590717284205572,-0.03138631912260097,-0.12363216266276818,0.06095810728814242,2.6136691094579874,-0.13034458718371772,3
516,2024-09-14 20:04:18.954834961,0,003,0.09587667566972202,-0.07511264296700333,-1.2239627131540056,-0.028987752487627458,-0.1234485517190194,0.05213136665741014,2.6333337423924896,-0.1186789196724051,3
517,2024-09-14 20:04:19.016395996,0,003,0.12408285445698967,-0.0898211702160759,-1.3221061534463294,-0.022508387675473376,-0.1250660926032952,0.04430867917738205,2.694640682839443,-0.1196402126492803,3
518,2024-09-14 20:04:19.093662109,0,003,0.15192721825159314,-0.10313973916741387,-1.4523541646162363,-0.012464360082398082,-0.12799369949826842,0.03737291784101327,2.797772213234836,-0.13404506037844727,3
519,2024-09-14 20:04:19.155596924,0,003,0.17924221819155683,-0.11503653614646783,-1.611606547558522,0.000509935593797254,-0.1317088260628957,0.031183236291069852,2.9398845949895405,-0.16189446222886864,3
520,2024-09-14 20:04:19.229258056,0,003,0.20589345672460393,-0.12557803621741648,-1.7949466180993978,0.015688892897361823,-0.13567380464605813,0.02558652670891781,3.1155893165197814,-0.2024325507329908,3
521,2024-09-14 20:04:19.293481201,0,003,0.23179330141674626,-0.13492602648119537,-1.995826582545346,0.03225604366718611,-0.1393352117319306,0.02042045804567698,3.3176399376460566,-0.25426499226499055,3
522,2024-09-14 20:04:19.364886963,0,003,0.2569034098772421,-0.14332359722598828,-2.2063680030287425,0.049317302298786544,-0.14213023082639115,0.015516169375976774,3.5377024194563345,-0.3155095287519364,3
523,2024-09-14 20:04:20.294331055,0,003,0.28122856918182687,-0.15106943631448172,-2.4178196578889097,0.06593530214987035,-0.1435143333233268,0.010707422235363757,3.767087489808034,-0.3839601822330755,3
524,2024-09-14 20:04:20.375885986,0,003,0.3048188772706949,-0.15848795560635967,-2.6211596600601097,0.08117465256871488,-0.14300296628750475,0.005844627073921849,3.997352000683022,-0.4572451927855461,3
525,2024-09-14 20:04:20.434034180,0,003,0.3277765501732829,-0.16590234496150966,-2.807797563037867,0.09415877130617019,-0.14021573546109906,0.0008085295783815788,4.220706755873295,-0.5329480678488353,3
526,2024-09-14 20:04:20.511458008,0,003,0.3502459630737311,-0.17361092662739158,-2.9702852056059967,0.10413870928579812,-0.13492126875854718,-0.004478780691117917,4.430258638915622,-0.60868100522084,3
527,2024-09-14 20:04:20.572352783,0,003,0.3723853514321237,-0.18186675423010143,-3.102867809785207,0.1105523332814899,-0.1270759588098916,-0.010047308856379672,4.620171574244418,-0.6821359047171571,3
528,2024-09-14 20:04:20.647048096,0,003,0.39434721077336116,-0.19086538512070347,-3.20173401305261,0.11305134805023276,-0.11683821663530815,-0.015880796686386676,4.785728420379299,-0.751136311932569,3
529,2024-09-14 20:04:20.711658936,0,003,0.41628298178674267,-0.20074273501835635,-3.2649699466492152,0.1114998199153889,-0.10454291560491052,-0.02192793709088689,4.923206180442776,-0.8136900333855006,3
530,2024-09-14 20:04:21.657918945,0,003,0.4383560044023225,-0.21157688173460135,-3.292331124379708,0.10595923845816357,-0.09063239454556281,-0.0281191811529563,5.029621768285071,-0.8680413158679611,3
531,2024-09-14 20:04:21.717914062,0,003,0.46074812566230877,-0.2233887903642948,-3.284965879102976,0.09666534693298245,-0.0755580085892697,-0.03438312912808401,5.102580326043498,-0.9127260103680193,3
532,2024-09-14 20:04:21.793639893,0,003,0.4836641557036168,-0.23614330317782692,-3.245171179216673,0.08399546253791394,-0.05969152439825843,-0.04065755755785091,5.1404398599204075,-0.9466243177801323,3
533,2024-09-14 20:04:21.861379883,0,003,0.5073323211449233,-0.24975178554150065,-3.1761439768836595,0.06842447269470847,-0.043290972966269534,-0.046891822725362624,5.14279244742824,-0.9690052875714026,3
534,2024-09-14 20:04:21.918256104,0,003,0.53198065166376,-0.26407460454750503,-3.0816595406504845,0.0504712712236393,-0.026529857394015283,-0.053041157723310486,5.111032340307873,-0.9795671025702113,3
535,2024-09-14 20:04:21.996823975,0,003,0.5577730838433311,-0.2789221653309483,-2.965752330065064,0.030653421422343386,-0.009555477870170687,-0.05905861588267291,5.048748144815335,-0.9784788773550707,3
536,2024-09-14 20:04:22.056952881,0,003,0.5847184762026397,-0.29405635208052594,-2.8325596583885497,0.009478496029213487,0.007463808943196625,-0.06489138580411342,4.961788636654895,-0.9664152988944428,3
537,2024-09-14 20:04:22.999558838,0,003,0.6125933434700573,-0.30919643562166,-2.6863421358322457,-0.012525450163469004,0.024319293478596956,-0.07048304329836551,4.857931334858161,-0.9445548772451655,3
538,2024-09-14 20:04:23.075954834,0,003,0.6409143266746051,-0.3240323325795365,-2.531527227617834,-0.03477949434059799,0.04076985908082772,-0.07577843575477629,4.746174084152523,-0.9145212472013812,3
539,2024-09-14 20:04:23.137444092,0,003,0.6689629198365673,-0.33824338866796955,-2.372652500159052,-0.056661942128551565,0.056567445634774956,-0.08072726678737792,4.635827539138895,-0.8782915864832329,3
540,2024-09-14 20:04:23.201600098,0,003,0.6958433605444443,-0.3515182009784987,-2.2142217978744627,-0.07755116491797547,0.07148109299454121,-0.08528291885134658,4.535679270385926,-0.8381190181720313,3
541,2024-09-14 20:04:23.277196777,0,003,0.7205648074697663,-0.3635734718262761,-2.0605186986363893,-0.09687966492077617,0.08530591547457618,-0.0893953641457829,4.453418914098839,-0.7964809256645188,3
542,2024-09-14 20:04:23.346920898,0,003,0.7421458470709906,-0.374170682902949,-1.915360494039235,-0.11419308618565902,0.09786121981086345,-0.09300303524071356,4.395331447465297,-0.7560200271880068,3
543,2024-09-14 20:04:23.414704102,0,003,0.7597153626276708,-0.3831250014711614,-1.7818166730469296,-0.12921061787741328,0.10898686770541724,-0.09603090429635208,4.366148916691386,-0.7194400439517522,3
544,2024-09-14 20:04:24.357879883,0,003,0.7725693653048954,-0.390300862124122,-1.662029918617003,-0.14186032322129008,0.11854565545825385,-0.09839678133376564,4.368941997580858,-0.6893354925446107,3
545,2024-09-14 20:04:24.411029053,0,003,0.7801784309017473,-0.39559813993048554,-1.5572329020910227,-0.152263433921872,0.12644743069022069,-0.1000230479104549,4.404977237022681,-0.6679574014658037,3
546,2024-09-14 20:04:24.488691895,0,003,0.7821805486212327,-0.3989391853640935,-1.4678829523547952,-0.16067446962118634,0.13270381782452506,-0.10085116522508111,4.473558102227211,-0.6569535208050098,3
547,2024-09-14 20:04:24.550723145,0,003,0.7783847118202596,-0.40026100106967283,-1.3938075181540228,-0.1673994877068396,0.13748998164325338,-0.100855955658206,4.571941474367745,-0.6571471698512903,3
548,2024-09-14 20:04:24.628189941,0,003,0.7687789159282172,-0.39950914244475133,-1.334355094530385,-0.172705781604493,0.14116935524988017,-0.10005384061807002,4.695394629033623,-0.6684058711036964,3
549,2024-09-14 20:04:24.696912109,0,003,0.7535297215026573,-0.3966318144959128,-1.2885448967841138,-0.17674398742585443,0.144255326434525,-0.09850049620584359,4.8374108481214515,-0.689624221311586,3
550,2024-09-14 20:04:24.764723145,0,003,0.7329712678503262,-0.39157841335827165,-1.2551447289669015,-0.17952036898440532,0.14732055290747856,-0.09628033058077043,4.990086226005459,-0.7188227743456234,3
551,2024-09-14 20:04:25.702753906,0,003,0.707587364821951,-0.3843067639784689,-1.2326635275978217,-0.18093914421346358,0.1508840395532543,-0.09349272395506647,5.144621332989091,-0.7533358552050949,3
552,2024-09-14 20:04:25.775819092,0,003,0.6779934766541376,-0.3747989360088273,-1.2193414424730384,-0.18088691714491043,0.15530128089821796,-0.09023497546303358,5.291892245314366,-0.7900412766542042,3
553,2024-09-14 20:04:25.841331055,0,003,0.6449238578635804,-0.36308202567366465,-1.213210473023446,-0.1793005922442378,0.16067680122244918,-0.08658091328994033,5.423065035232948,-0.8255974472579007,3
554,2024-09-14 20:04:25.902885010,0,003,0.6092174560203955,-0.34924848701264133,-1.2122465982673818,-0.17617367640076773,0.1668188331047971,-0.08256062756166857,5.530225291214546,-0.8566802871289791,3
555,2024-09-14 20:04:25.964970215,0,003,0.5717895577775113,-0.33347003710614825,-1.2145922023786613,-0.1715054243746155,0.17325077224701893,-0.07815046111053248,5.606983899557928,-0.8802237804621468,3
556,2024-09-14 20:04:26.042658936,0,003,0.5335841867798198,-0.3159999520094255,-1.2187799516921805,-0.1652435963734276,0.17928270256209153,-0.07327904138915452,5.649037265671197,-0.8936591920267378,3
557,2024-09-14 20:04:26.114650879,0,003,0.4955172767388984,-0.2971622355124122,-1.223915897104921,-0.1572657923121116,0.18412932526339323,-0.06784876456866112,5.654607653894594,-0.8951259036699689,3
558,2024-09-14 20:04:27.052176025,0,003,0.4584303304724695,-0.2773327321959114,-1.2298296383416523,-0.1474019412032426,0.1870401469742858,-0.06176578817602642,5.624610761524127,-0.8836157869243503,3
559,2024-09-14 20:04:27.121664062,0,003,0.42306512449777267,-0.2569201445486699,-1.2371473615023332,-0.13548055784709473,0.18740230751935755,-0.0549682523283408,5.562466140931384,-0.8590354933338822,3
560,2024-09-14 20:04:27.193687988,0,003,0.39005167428407383,-0.23635040212971417,-1.2472405939321096,-0.12138189513123086,0.18479351721321005,-0.047443844913923595,5.473641141808449,-0.8221975593122727,3
561,2024-09-14 20:04:27.253330078,0,003,0.3598968449589166,-0.2160523506988499,-1.2620936301547347,-0.1050808935985177,0.1789850519497668,-0.039232772042502806,5.365092885698012,-0.7747468880161776,3
562,2024-09-14 20:04:27.314963135,0,003,0.33296730150939197,-0.19644166663732707,-1.2841037068533847,-0.0866747054014373,0.16990936928259748,-0.030418834953377792,5.244692708871384,-0.719019571084406,3
563,2024-09-14 20:04:27.391655029,0,003,0.3094701016620538,-0.17790208114553654,-1.3157581342097928,-0.06640038192013135,0.15761196811125722,-0.02111561777860533,5.120648987129863,-0.6578506403114139,3
564,2024-09-14 20:04:27.464875977,0,003,0.28944446233053306,-0.1607659375329294,-1.3591907672966732,-0.04464358952830057,0.14220289287533655,-0.011453678022024835,5.00095164136702,-0.5943662114690965,3
565,2024-09-14 20:04:28.384063964,0,003,0.27277464533642554,-0.145298152650281,-1.4156976970280433,-0.02193802084089776,0.12381782020797966,-0.0015714290702407787,4.89280389982193,-0.5317690482105555,3
566,2024-09-14 20:04:28.442898926,0,003,0.25921501637291133,-0.1316870132038378,-1.4853276657488013,0.00104338545005982,0.10259853724431714,0.008389405660811651,4.8019457803789365,-0.4730982268572689,3
567,2024-09-14 20:04:28.504525879,0,003,0.2484085950763839,-0.12004169939575092,-1.5666731045370252,0.0235070310503565,0.07869906624219311,0.01828485626818723,4.731943208630526,-0.4209829410126072,3
568,2024-09-14 20:04:28.587468018,0,003,0.2398955374832177,-0.11039415299454959,-1.6569142021397028,0.04456584372907517,0.05231161753927809,0.027969668941536654,4.683757229749563,-0.37746640621678473,3
569,2024-09-14 20:04:28.643308105,0,003,0.2331289046236244,-0.1027042395370128,-1.7520603483354973,0.06327024982843561,0.023694835176775755,0.037301340507989826,4.655831679804234,-0.34394847242586074,3
570,2024-09-14 20:04:28.723103027,0,003,0.2275122903774862,-0.09686796311568138,-1.8473243184866737,0.07864363741866895,-0.006813311477711111,0.046147500726025754,4.644631706529538,-0.32121734417011316,3
571,2024-09-14 20:04:28.783716064,0,003,0.2224552100867271,-0.09272812439961003,-1.9376386529122849,0.08973641205566336,-0.03879753216314087,0.05439329307761399,4.645422945133389,-0.3095186116183063,3
572,2024-09-14 20:04:29.708133057,0,003,0.21743467837586258,-0.09008855478903231,-2.018314319477704,0.0957182477811746,-0.07176089016178666,0.06194287279401636,4.653120167512008,-0.3086451898790536,3
573,2024-09-14 20:04:29.775980957,0,003,0.21205120726377383,-0.08873270509094887,-2.085726610608621,0.09601008381232135,-0.10509708275240841,0.06871025591457451,4.6630429441898045,-0.3180457789178867,3
574,2024-09-14 20:04:29.843812988,0,003,0.20606718851409933,-0.08844202195591537,-2.137895246681747,0.09043053868500793,-0.1380450352557449,0.07460042803012337,4.671422253434442,-0.3369235888784676,3
575,2024-09-14 20:04:29.911565186,0,003,0.19942827852756448,-0.08900831944052877,-2.174917161897597,0.07931423237365917,-0.1696490996837484,0.07948853251733012,4.675597497108336,-0.3642861718743474,3
576,2024-09-14 20:04:29.975804932,0,003,0.1922821390965432,-0.0902413545259737,-2.199189034070639,0.06355468704943251,-0.1987599268967146,0.08320857881565995,4.673939334276657,-0.39894259316124825,3
577,2024-09-14 20:04:30.037429932,0,003,0.18499650120035369,-0.09197696024997966,-2.2152391518920984,0.04454044915443672,-0.2241079613338745,0.08556043297269728,4.6655673454815725,-0.43948545304258235,3
578,2024-09-14 20:04:30.114590820,0,003,0.1781552822986354,-0.09408543441333288,-2.229028319183548,0.02398929329814948,-0.2444434797190682,0.08633489700074817,4.649976794273228,-0.48429730978547353,3
579,2024-09-14 20:04:31.048440918,0,003,0.17251258723000237,-0.09647375901583245,-2.2468375830463785,0.0037221808618296973,-0.2586894110423836,0.08534735761134941,4.6267298525481175,-0.5315953839220882,3
580,2024-09-14 20:04:31.125967041,0,003,0.16890704460452327,-0.0990782829013025,-2.2740979577321334,-0.014561377321886016,-0.26604001581388415,0.08246676456258092,4.595293265979095,-0.57950334830718,3
581,2024-09-14 20:04:31.187493164,0,003,0.16815670925393647,-0.10185191201706424,-2.3145097741014102,-0.029450476410662882,-0.26596672404584176,0.07762893699147931,4.554970810516432,-0.626124078680898,3
582,2024-09-14 20:04:31.261531006,0,003,0.17096181469613073,-0.10475260294570464,-2.369597616098534,-0.03990912792319548,-0.25814827734724405,0.07083193485177802,4.5048539299540495,-0.6695924993550609,3
583,2024-09-14 20:04:31.327298096,0,003,0.17784380347786524,-0.10773834852748844,-2.4386552566212165,-0.04530146903701639,-0.24239480048814885,0.06212357205163394,4.44380871951667,-0.7081127868986353,3
584,2024-09-14 20:04:31.397095947,0,003,0.18913117837519636,-0.11077039787970973,-2.5189422937012593,-0.04539656160646511,-0.218635196676827,0.05159563966151144,4.37056658590257,-0.7400034281019982,3
585,2024-09-14 20:04:31.451356934,0,003,0.20496559044679605,-0.11382055011358468,-2.605974177322003,-0.0403784248039273,-0.18697681157976836,0.03939060249950372,4.283919789514036,-0.7637755259482617,3
586,2024-09-14 20:04:32.408212891,0,003,0.22528950572170922,-0.11687568603181576,-2.6938471077094017,-0.030850457143177724,-0.14778364813425512,0.025713220439403415,4.182978180131906,-0.7782609586355012,3
587,2024-09-14 20:04:32.475987793,0,003,0.24981227930559935,-0.1199383549155322,-2.7757132216126696,-0.017795773182397216,-0.1017135544301494,0.010834171403748805,4.067485300389148,-0.7827797987172713,3
588,2024-09-14 20:04:32.542773926,0,003,0.27798454651855764,-0.12302697339113589,-2.844482912639992,-0.0024708779846707696,-0.04970249629351004,-0.004920047991427539,3.938202644298206,-0.7772993096056102,3
589,2024-09-14 20:04:32.604894043,0,003,0.30900277521596686,-0.12617567435048302,-2.8935743518271466,0.01374179157222358,0.007072594646107818,-0.021185026762027923,3.7972801030498426,-0.7625224724890708,3
