,time,MARKER,pid,L_O_DSI,L_D_DSI,L_O_DSphi,L_D_DSphi,R_O_DSI,R_D_DSI,R_O_DSphi,R_D_DSphi,trial_id
0,2024-09-16 17:22:38.676600830,TASK_BEGIN,005,-2.017135322240696,0.422691693777012,-2.8055273037213517,0.6136528490046683,-0.7423424326898969,0.3393095003925629,-1.4841990463834205,0.5698193968298257,3
1,2024-09-16 17:22:38.734720947,0,005,-2.0188916079990613,0.42536793963214037,-2.800232183895309,0.6232422770438829,-0.7329033168825666,0.3386229101647567,-1.5282988298949678,0.5329090905909375,3
2,2024-09-16 17:22:39.690990967,0,005,-2.032171282617602,0.42974788908817135,-2.8026751083125876,0.6341544309262523,-0.7157396535190266,0.33504586491308214,-1.578384406682661,0.506094917213653,3
3,2024-09-16 17:22:39.752423096,0,005,-2.055430038112201,0.43566276727969294,-2.8115977784222226,0.6463919520302835,-0.6915962347439516,0.32886054626091166,-1.6287039350966874,0.4890931286753069,3
4,2024-09-16 17:22:39.826643066,0,005,-2.086772421518145,0.4428558353866096,-2.826958410098076,0.6600489520980221,-0.6615481837105609,0.32044110452669217,-1.6736487718574415,0.481415074300044,3
5,2024-09-16 17:22:39.895468994,0,005,-2.124053481315333,0.45099095929362665,-2.8497448694975342,0.6753136376099899,-0.6268792595070497,0.3102198609556402,-1.7079344154265192,0.4823494995900236,3
6,2024-09-16 17:22:39.963318115,0,005,-2.164979972004126,0.459664875694393,-2.881639034853327,0.6924298098324171,-0.5889680284424772,0.2986537605354267,-1.7266939860209543,0.4909071959273687,3
7,2024-09-16 17:22:40.022430908,0,005,-2.2072190883681,0.4684288045679665,-2.924629135143513,0.7116234235688309,-0.5491838807721958,0.2861933490001294,-1.7255154784075302,0.5057460701740419,3
8,2024-09-16 17:22:40.092441162,0,005,-2.248496229316052,0.4768175361089384,-2.9805997063700684,0.7330129913407802,-0.5088012314495739,0.2732576376911848,-1.700631754311352,0.5251666408653107,3
9,2024-09-16 17:22:41.043129883,0,005,-2.286656386697575,0.4843770899867638,-3.050878077837982,0.7565350256829152,-0.46894823706282657,0.2602161608456889,-1.649358364657137,0.5472367378944218,3
10,2024-09-16 17:22:41.110876953,0,005,-2.31968246877773,0.49068290839769063,-3.135757829224163,0.7819092534145774,-0.4305946215649629,0.24737724832633823,-1.5705941578465714,0.5700052845992495,3
11,2024-09-16 17:22:41.178666992,0,005,-2.3456962785943523,0.4953499310920751,-3.234091184446591,0.808640816988177,-0.39456446427012976,0.23498241576694662,-1.465118856700741,0.5917062970686732,3
12,2024-09-16 17:22:41.246373779,0,005,-2.3629836413203043,0.4980433866791985,-3.343108817581672,0.8360495657017624,-0.3615594257714111,0.2232079445584433,-1.335561621136769,0.610880590851665,3
13,2024-09-16 17:22:41.311242188,0,005,-2.370064244434154,0.4984952579318838,-3.4586586080526396,0.8633370853077232,-0.33218205742466705,0.21217198564219686,-1.1860800594539713,0.626416310576497,3
14,2024-09-16 17:22:41.381851807,0,005,-2.3657934522998887,0.4965219106282575,-3.5759278890969903,0.8896930916802429,-0.30693773129327445,0.2019412214912566,-1.0218898184129839,0.6375574261829761,3
15,2024-09-16 17:22:41.448828857,0,005,-2.3494651866783154,0.49203493301927176,-3.6904290148965453,0.9143999775873389,-0.2861946504940755,0.19253230606651917,-0.8487933245294635,0.6439160205742172,3
16,2024-09-16 17:22:42.368360107,0,005,-2.3208839816483207,0.48504176472184113,-3.7988117217102353,0.9368815538840847,-0.2701101919980167,0.18390897997149605,-0.6727909405798435,0.6454833088587092,3
17,2024-09-16 17:22:42.424693115,0,005,-2.280387377058869,0.4756384772094279,-3.899121228478938,0.9566733615404339,-0.2585541193114489,0.17597800494992832,-0.4997982785816272,0.6426166750888052,3
18,2024-09-16 17:22:42.503901123,0,005,-2.2288186434293107,0.46399863294315985,-3.990436469489425,0.9733307622404372,-0.251060065943963,0.1685868903894161,-0.33545904584614533,0.6359949914105614,3
19,2024-09-16 17:22:42.563532959,0,005,-2.1674576228266997,0.45036003166277994,-4.072165827809063,0.9863190970765618,-0.24683038152238668,0.1615283353357632,-0.18501003035524094,0.6265493186462379,3
20,2024-09-16 17:22:42.639348877,0,005,-2.0979163820080817,0.4350096848522958,-4.143382233833423,0.9949372782098016,-0.24480085674941304,0.1545553027864216,-0.053141927655707404,0.6153697858429358,3
21,2024-09-16 17:22:42.707093994,0,005,-2.0220182635521713,0.4182686532080358,-4.202418182535729,0.9983057234703204,-0.24374464575943172,0.14740479843092713,0.05617968752180479,0.6035899845354794,3
22,2024-09-16 17:22:42.774843994,0,005,-1.9416951060955083,0.40047956351173364,-4.246746866441926,0.9954222706158743,-0.24238681780594312,0.13982540174061642,0.13991880214507138,0.5922751627733646,3
23,2024-09-16 17:22:43.712531982,0,005,-1.8589217556472812,0.3819979042362886,-4.2731137480700125,0.985272602230701,-0.23951485974604964,0.1316058503511885,0.19616352886634303,0.582344522871418,3
24,2024-09-16 17:22:43.786302002,0,005,-1.7756678274768312,0.36318505471309037,-4.277874947848239,0.9669688841651657,-0.2340834209279556,0.12260431720348715,0.22435318107458763,0.5745153267414146,3
25,2024-09-16 17:22:43.851406982,0,005,-1.6938366502257574,0.34440035438500755,-4.257475366752241,0.939887450276635,-0.22531147543966806,0.11277602398658723,0.22557842279183837,0.5692391813547468,3
26,2024-09-16 17:22:43.913052002,0,005,-1.6151917597443861,0.32599254197759014,-4.208995497107453,0.9037884994943857,-0.21276099817333718,0.1021923722065259,0.20274923451414473,0.5666600649341422,3
27,2024-09-16 17:22:43.974688965,0,005,-1.5412943074937815,0.3082933398808662,-4.130675640208098,0.8589047831655734,-0.19638141610684698,0.09104470312380376,0.16031811614155758,0.5666627150550027,3
28,2024-09-16 17:22:44.051870117,0,005,-1.473462850109081,0.29161407732427774,-4.022279372957531,0.8059773647877548,-0.17650422066447843,0.07963122241064154,0.10360383816744516,0.5690075974556734,3
29,2024-09-16 17:22:44.125058838,0,005,-1.4127437753831833,0.276241734251934,-3.885192980756602,0.7462232135004799,-0.15377195390315257,0.06833022547879436,0.038097191109507905,0.5734585895677854,3
30,2024-09-16 17:22:45.068597900,0,005,-1.3598722542324377,0.26242842631677143,-3.7222750626845387,0.6812433489449018,-0.12900718346711093,0.05756370740080045,-0.031023271500266368,0.5798278051672724,3
31,2024-09-16 17:22:45.136399902,0,005,-1.3152203163361507,0.25037275161583494,-3.5375454707232254,0.6128958030074532,-0.10307146395844188,0.0477553922461447,-0.0992264904659796,0.587946223310223,3
32,2024-09-16 17:22:45.196181152,0,005,-1.278760304698992,0.24020066181326433,-3.335814427662986,0.5431594631838198,-0.07677579691167478,0.03928905625283139,-0.16289052479034594,0.5976087506633948,3
33,2024-09-16 17:22:45.271903076,0,005,-1.2500788484602128,0.23195700608851005,-3.1223433897330874,0.474012338985505,-0.05085859213352986,0.03247533424900462,-0.21946093114734083,0.6085264149827515,3
34,2024-09-16 17:22:45.334989014,0,005,-1.2284428351186145,0.22561094550144092,-2.902573170692408,0.4073378482025407,-0.025995010315370888,0.027530993591775344,-0.267479401931703,0.6202942971702774,3
35,2024-09-16 17:22:45.397520020,0,005,-1.2128839550668526,0.22106748408385649,-2.6818734019241135,0.3448527707757926,-0.0027968697753517693,0.024565964119014592,-0.3065146198202315,0.6323701116557155,3
36,2024-09-16 17:22:45.475152100,0,005,-1.2022692453054662,0.2181751913295018,-2.4652753906052944,0.28804639019406786,0.01819573530731828,0.0235748652530125,-0.33703813056951915,0.644059479254986,3
37,2024-09-16 17:22:46.418614014,0,005,-1.1953561384023974,0.21672845089082116,-2.257280035411863,0.23814743435527955,0.03650006733728843,0.02443975802531589,-0.3602776238170352,0.654523364920428,3
38,2024-09-16 17:22:46.476871094,0,005,-1.1908543846449597,0.21647137392946836,-2.0619096174396034,0.19614438982611296,0.05164710901506838,0.026950511363804452,-0.3780842287978869,0.6628356051039013,3
39,2024-09-16 17:22:46.554157959,0,005,-1.1875040286655691,0.21710941219259458,-1.8830087558796753,0.16284021700440407,0.06314234272937733,0.030837161296817316,-0.39279938769291955,0.6680925740809548,3
40,2024-09-16 17:22:46.621895020,0,005,-1.1841525522665568,0.21832663691045942,-1.72454431592934,0.13888484640944995,0.07046873544315094,0.03580108635763014,-0.4070095593509896,0.669531785834524,3
41,2024-09-16 17:22:46.689593994,0,005,-1.179819027788264,0.2198038738348808,-1.5906076550411432,0.12474884227418602,0.07314059557962163,0.04153628553045528,-0.4230875899682876,0.666606148218459,3
42,2024-09-16 17:22:46.757333008,0,005,-1.1737499968256324,0.22123621841115834,-1.4849868799094292,0.12063825749520884,0.07078520682011966,0.047741583407017,-0.4425827332995095,0.6590005441917766,3
43,2024-09-16 17:22:46.814654053,0,005,-1.1654615188824162,0.22234852814875022,-1.4103911928489263,0.12636756182951656,0.06322149460144795,0.05412812782175087,-0.46569639377706423,0.6466189837179516,3
44,2024-09-16 17:22:47.734258789,0,005,-1.1547512999609868,0.2229057627843179,-1.3675829076689834,0.14122258947775942,0.05052072729885553,0.06042302189617059,-0.49108677142755547,0.629564769949139,3
45,2024-09-16 17:22:47.811299072,0,005,-1.1416817317887291,0.22271815448629426,-1.354723546576189,0.16386211990350563,0.03304313825831153,0.06636886957509623,-0.5160494058807146,0.6081016335622675,3
46,2024-09-16 17:22:47.873044922,0,005,-1.1265438068799072,0.22164460786155535,-1.3671607620617936,0.19230288454508151,0.01143872945332334,0.07172274017336548,-0.5369011833993251,0.5825784417742613,3
47,2024-09-16 17:22:47.935364014,0,005,-1.109797851174001,0.21959583944239652,-1.3977545407504997,0.22401049380723326,-0.013388630714814536,0.07625838149453042,-0.5493537689560793,0.5533337268172351,3
48,2024-09-16 17:22:48.013470947,0,005,-1.0919868360001734,0.2165352078052164,-1.4376979320963792,0.25609399872090394,-0.04032494395017249,0.0797704130911338,-0.5488415827634474,0.5206274316852773,3
49,2024-09-16 17:22:48.082280029,0,005,-1.0736419080624757,0.21247480841954555,-1.477655983380863,0.28557778214053986,-0.06806739958716855,0.08207605281318783,-0.5309860283249629,0.48464840080187,3
50,2024-09-16 17:22:48.150000977,0,005,-1.055212341530724,0.20746716552357755,-1.5090015626079167,0.3097056959730964,-0.0951304600635879,0.08301231217411324,-0.49235161588364357,0.4456140711616597,3
51,2024-09-16 17:22:49.092931885,0,005,-1.0370303494371462,0.20159487253221978,-1.524965461289833,0.3262261821304038,-0.11986600870269871,0.08243020029175094,-0.4313455615632659,0.4039173699377791,3
52,2024-09-16 17:22:49.160710205,0,005,-1.0192892953823895,0.19495905536010524,-1.5215601762103617,0.33361796787162235,-0.14050957678647763,0.08018851233087305,-0.34884047893300724,0.3602305728886794,3
53,2024-09-16 17:22:49.228523926,0,005,-1.0020161861018855,0.1876662851085782,-1.4981487671038234,0.3312374999911511,-0.15524828600673066,0.07614993792080581,-0.24820378663415157,0.3155120027983352,3
54,2024-09-16 17:22:49.287866211,0,005,-0.9850489798740428,0.17981548221432883,-1.4575399645185922,0.3193764971453248,-0.1623188406689714,0.07018381372105897,-0.13484857338569708,0.27095053803514785,3
55,2024-09-16 17:22:49.349895020,0,005,-0.9680342687495543,0.17148728457432538,-1.4055386174729108,0.2992075961124118,-0.16015774190523202,0.06218084913402467,-0.015723917105501632,0.2279212068020077,3
56,2024-09-16 17:22:49.427583984,0,005,-0.950443927397836,0.16273765611714683,-1.349970687057005,0.27260338847473303,-0.14760272710026268,0.05208169219760021,0.10097696486339151,0.18797878643191115,3
57,2024-09-16 17:22:49.499524170,0,005,-0.931608583081941,0.15359761476180878,-1.2993068541310937,0.24184926336725834,-0.12409516907009613,0.03991291223749229,0.20602458735848983,0.1528467434352598,3
58,2024-09-16 17:22:50.443237061,0,005,-0.9107690570319039,0.14407882013910914,-1.2611165949206682,0.20930138761628847,-0.08980919965715009,0.02581614820390974,0.2896816455370755,0.12433164314615015,3
59,2024-09-16 17:22:50.498789062,0,005,-0.8871418873066073,0.13418191562295811,-1.2406824780187091,0.17705619402004563,-0.045663302210962535,0.0100571661181276,0.34281171910275826,0.10412866131264983,3
60,2024-09-16 17:22:50.578758057,0,005,-0.8599966020953824,0.12390607325088906,-1.24010101213652,0.14670094389855895,0.006777512344027228,-0.0069876533677937485,0.358367750464335,0.09355829422388583,3
61,2024-09-16 17:22:50.637973145,0,005,-0.8287401826822246,0.11325973921497517,-1.2580078155973757,0.11918858752464691,0.06547339045642217,-0.02486019536339176,0.33268865556633304,0.0933293225072268,3
62,2024-09-16 17:22:50.700483887,0,005,-0.792994146221181,0.10227033546088757,-1.28982382622554,0.09483240256309622,0.12811947020144548,-0.043056903277770855,0.26608327710540086,0.10341200676494325,3
63,2024-09-16 17:22:50.778052002,0,005,-0.7526516244300255,0.0909895084020219,-1.3283174510301707,0.07338714400920564,0.19235981921726208,-0.06106808405844616,0.16259597423153227,0.12304537229626171,3
64,2024-09-16 17:22:50.839611084,0,005,-0.7079117419513178,0.0794932190794712,-1.3643224430050502,0.05418343246690683,0.2559680117313449,-0.0784163382904263,0.029263716788099046,0.15084212681331946,3
65,2024-09-16 17:22:51.792892090,0,005,-0.6592896649531228,0.06787950957600564,-1.3875772212479154,0.0362939020796735,0.3169678916893217,-0.09468856015119327,-0.12468432253576926,0.1849216267301704,3
66,2024-09-16 17:22:51.849404053,0,005,-0.6075926952466598,0.056266527783426924,-1.3877405657811304,0.01871664691717039,0.37370357198111476,-0.10955863649414022,-0.2884257679350028,0.22301901142914377,3
67,2024-09-16 17:22:51.929511962,0,005,-0.5538535973810894,0.044789347983066906,-1.3555487906395436,0.0005529566731990763,0.4248900031417079,-0.12280277610898721,-0.45010230776087773,0.26259085178867975,3
68,2024-09-16 17:22:51.997209961,0,005,-0.4992382992321469,0.03359345432506806,-1.2839025662627,-0.01885639477622601,0.46964888128744064,-0.13430685863163389,-0.5977181168633843,0.30098663498549844,3
69,2024-09-16 17:22:52.064923096,0,005,-0.44496730929246703,0.02282722896916652,-1.1686462969813625,-0.039864443407561574,0.5074980957805585,-0.14405892274556859,-0.7204520889569774,0.33570807240085226,3
70,2024-09-16 17:22:52.129173096,0,005,-0.3922658738125614,0.012636395845203884,-1.008956670407,-0.0625172989521519,0.5382757372421764,-0.15212308765530594,-0.8100042329577799,0.36469139688443153,3
71,2024-09-16 17:22:52.189644043,0,005,-0.3423170254733286,0.003157956956002959,-0.8074066217086943,-0.08658341749717072,0.5620296284026333,-0.15860313366963347,-0.861551402485479,0.3865201330923201,3
72,2024-09-16 17:22:53.119519043,0,005,-0.2961946232012623,-0.005490051557075416,-0.569786014252662,-0.11157654829859108,0.5789286140142702,-0.16361117196629854,-0.8741221191224665,0.4005145447656032,3
73,2024-09-16 17:22:53.187325928,0,005,-0.25478812714171495,-0.013220188334650438,-0.3046836836290612,-0.13677715225236103,0.589226551248904,-0.16725185027215583,-0.8503743157021441,0.40669895992179056,3
74,2024-09-16 17:22:53.254643799,0,005,-0.21874713252057001,-0.019981172666625396,-0.022817101332745785,-0.16129186817789123,0.5932701743228893,-0.1696205905453373,-0.7959024688359033,0.40568354022396436,3
75,2024-09-16 17:22:53.314276855,0,005,-0.18846232994267872,-0.025753691952336955,0.26378923291303946,-0.18416508715424906,0.5915305318298503,-0.17080720335423114,-0.7183440278294168,0.3985048772228924,3
76,2024-09-16 17:22:53.390518799,0,005,-0.16407816647039272,-0.03054040396066891,0.5425749402975675,-0.204505671091645,0.5846470397103298,-0.1708994646669264,-0.6265382632366615,0.386466821226163,3
77,2024-09-16 17:22:53.452824951,0,005,-0.14551996105775783,-0.03435730777691398,0.8010580685760325,-0.22158427142081538,0.5734682012480544,-0.1699873011435509,-0.5298244047856545,0.3710189264482274,3
78,2024-09-16 17:22:53.525974121,0,005,-0.13252521898211678,-0.037230168294067396,1.027367875124479,-0.23488346994870468,0.5590585791652649,-0.1681692272607014,-0.43743833595035125,0.3536880570227526,3
79,2024-09-16 17:22:54.469012939,0,005,-0.12467557848773227,-0.03919534552077127,1.2107902726835786,-0.24409969259425585,0.5426555122759792,-0.1655613389581644,-0.3579623985632017,0.33603902062189905,3
80,2024-09-16 17:22:54.522028809,0,005,-0.12142012505571219,-0.04030285777995804,1.342304581643279,-0.2491031404928821,0.5255969848425052,-0.16230867925334355,-0.2988576822869495,0.3196236862485211,3
81,2024-09-16 17:22:54.604584961,0,005,-0.1220894006274401,-0.04061796819839538,1.4150563791845217,-0.2498761615768844,0.5092573556681103,-0.15859714572248723,-0.2661513860435708,0.3059081135405491,3
82,2024-09-16 17:22:54.659887939,0,005,-0.1259178171618422,-0.04021725379008836,1.4247672332007364,-0.24645994850117584,0.4950024936297068,-0.15466117953737443,-0.2642778310606785,0.29619900071981414,3
83,2024-09-16 17:22:54.737757080,0,005,-0.13208106170225414,-0.03918004880548097,1.370074790968769,-0.23892802412058634,0.48414102669236964,-0.1507804280340603,-0.29598055957982067,0.29157935597202467,3
84,2024-09-16 17:22:54.807805176,0,005,-0.13972691528541556,-0.037582098910178705,1.2527244272057305,-0.22738366040954852,0.4778441975837837,-0.14726015124474615,-0.36221100611974844,0.29283923484667757,3
85,2024-09-16 17:22:54.860843018,0,005,-0.14797545613894914,-0.03549819985136386,1.0775246396809692,-0.21196656665150015,0.4770377794783551,-0.14439781330351656,-0.46203396173715683,0.3003912175341268,3
86,2024-09-16 17:22:55.818947021,0,005,-0.15588713026535717,-0.03301528444910763,0.8520574156940004,-0.19285654584910897,0.4822997799866694,-0.14244776545526447,-0.5925670259576259,0.31417760619521085,3
87,2024-09-16 17:22:55.886740967,0,005,-0.16242140150514925,-0.030251248659299384,0.5862047243666538,-0.1702748854892407,0.4937997933891558,-0.14159770203558428,-0.7489710522610712,0.33358758175839276,3
88,2024-09-16 17:22:55.954514893,0,005,-0.16642562971206631,-0.02736995300760578,0.2915644222587505,-0.14449566126892005,0.5113000099966993,-0.14196253944750084,-0.9245068367447764,0.3574070665193691,3
89,2024-09-16 17:22:56.022201904,0,005,-0.16668993276365832,-0.024582995681747634,-0.019169938328682908,-0.11587681398839891,0.5342191808598797,-0.14359148264775437,-1.1106975008553706,0.3838242421142105,3
90,2024-09-16 17:22:56.089970947,0,005,-0.16206631770252594,-0.02213683264664466,-0.3328014249560384,-0.08490724489079446,0.5617342109870002,-0.1464789895536455,-1.2976789548704724,0.4105191593238333,3
91,2024-09-16 17:22:56.150515136,0,005,-0.1516124352585157,-0.020291372991757366,-0.6362069243831064,-0.05224807526269032,0.5928707666560906,-0.15056984980856283,-1.4747743109144884,0.4348583308086507,3
92,2024-09-16 17:22:56.212104004,0,005,-0.13472730880887573,-0.019293855475436078,-0.9169754495266912,-0.018738715136486728,0.626551583398563,-0.15575247160695085,-1.6311692467305197,0.45416503139736397,3
93,2024-09-16 17:22:57.166826904,0,005,-0.11127101268529216,-0.019347706291977067,-1.164114146424447,0.014645145277599005,0.6616166622260695,-0.16184353122279774,-1.7564997652629188,0.46598751806806277,3
94,2024-09-16 17:22:57.235760010,0,005,-0.08165213256111188,-0.02058096239239316,-1.3687223707120646,0.046870053179371284,0.6968413165226851,-0.16857509496830858,-1.8413127938939728,0.4683042127732167,3
95,2024-09-16 17:22:57.294919922,0,005,-0.046851608552243657,-0.023024167285710433,-1.5245108140033712,0.07693269515749558,0.730956277376237,-0.1755940175828993,-1.8775495549720627,0.45966455794774247,3
96,2024-09-16 17:22:57.365572998,0,005,-0.008367891096218697,-0.026603103267400896,-1.6280485595744316,0.10392349651475606,0.7626700860942686,-0.18247501466402552,-1.8592162498046454,0.4393004143049952,3
97,2024-09-16 17:22:57.428504882,0,005,0.031909438134129484,-0.03114440665415621,-1.6786711954074507,0.12704409133533262,0.7907043263535983,-0.1887428312882511,-1.7832010887175045,0.40722428366418134,3
98,2024-09-16 17:22:57.505006104,0,005,0.0718858255940333,-0.036390936464715876,-1.6781191635130717,0.14558613728746603,0.8138485801556903,-0.1939013148788012,-1.6499390470140143,0.3642827580846336,3
99,2024-09-16 17:22:57.566147949,0,005,0.10948896987474419,-0.042026148363222014,-1.6300560440983234,0.15890345280144896,0.8310331756043332,-0.19747228051215893,-1.4636116636421217,0.31211720359919076,3
100,2024-09-16 17:22:58.481678955,0,005,0.14289973342470555,-0.04770647050919446,-1.5395712659324137,0.16641708359111837,0.8414100013215788,-0.19904332382097406,-1.2318264213849361,0.2530190682772247,3
101,2024-09-16 17:22:58.558853027,0,005,0.17074062989073455,-0.05309660348008192,-1.4127260131161037,0.1676778628396581,0.8444212211678993,-0.1983139194436371,-0.9649276872946587,0.18970825984686943,3
102,2024-09-16 17:22:58.620644043,0,005,0.19219389117675256,-0.05790030830194462,-1.2562028168233834,0.16247458890600272,0.8398391349207228,-0.19512778304165546,-0.6751051030025015,0.12508083028986763,3
103,2024-09-16 17:22:58.696511962,0,005,0.20705235618653392,-0.061883025208844374,-1.0770844312381676,0.15094119159775435,0.8277805832385364,-0.18948814741336728,-0.3754422411095954,0.061978012565669746,3
104,2024-09-16 17:22:58.764270020,0,005,0.21571975696274515,-0.06488732392275522,-0.8826957795970477,0.13360687759684436,0.8087073967695646,-0.18155979296696168,-0.0790316768407384,0.003013785424089679,3
105,2024-09-16 17:22:58.832065185,0,005,0.21916438443124803,-0.06684173371930759,-0.6803740865782342,0.11135695271621679,0.7834115487210764,-0.1716616073624768,0.20180567570981003,-0.049540099500005284,3
106,2024-09-16 17:22:58.899825195,0,005,0.21881796006399976,-0.06776157333761866,-0.47706333125303385,0.08531628571410418,0.7529756877028536,-0.1602500168321367,0.4562317397147684,-0.09383210227310929,3
107,2024-09-16 17:22:59.842697021,0,005,0.21642073811285636,-0.0677418503974218,-0.27877543801321325,0.05670171963477668,0.7187038123348195,-0.14789183143930199,0.6755045929302651,-0.12847527833760328,3
108,2024-09-16 17:22:59.910569824,0,005,0.21383213531281192,-0.06694453588771523,-0.09011216108129091,0.02669312970616611,0.6820182774802775,-0.1352255042652051,0.8533797867056536,-0.15255218908516333,3
109,2024-09-16 17:22:59.975912109,0,005,0.21283224771680187,-0.06558163368400151,0.08596123196918656,-0.0036516087518177844,0.6443272915801391,-0.12291146460120987,0.986235992012846,-0.16560045913173468,3
110,2024-09-16 17:23:00.046070068,0,005,0.21493842354554102,-0.06389372218600473,0.24804797270830758,-0.033444789377915195,0.6068913397706028,-0.11157546283900364,1.0729754514053775,-0.16761544878868692,3
111,2024-09-16 17:23:00.099920898,0,005,0.2212677337931352,-0.06212518309311746,0.3960692286240428,-0.06200248755188434,0.5707326621962885,-0.10175297598495571,1.1147641370325176,-0.15907272331723446,3
112,2024-09-16 17:23:00.181572021,0,005,0.23247439985745005,-0.06050082796391148,0.5309856015034765,-0.08887817376962412,0.5366200063203683,-0.09384586515328755,1.1146100679692796,-0.14093532182846918,3
113,2024-09-16 17:23:00.237974121,0,005,0.2487604872255907,-0.059209786600507575,0.6545469691396272,-0.1138950052873967,0.5051317952957906,-0.08810333609616573,1.0768012794133606,-0.11462261853812618,3
114,2024-09-16 17:23:01.192687012,0,005,0.2699238900883176,-0.05839931086538326,0.76900898208762,-0.13716161199163868,0.47676301084338873,-0.08463243635472703,1.0063630155950039,-0.08194914577853094,3
115,2024-09-16 17:23:01.260508057,0,005,0.295410648610622,-0.05817610053875755,0.8767692696938068,-0.15905266841776997,0.45200919782653104,-0.08342704439355918,0.9087331631027007,-0.04505040363045095,3
116,2024-09-16 17:23:01.328217041,0,005,0.32437216392491863,-0.058611092873072874,0.9799893838376392,-0.18014959062306551,0.43137622585687996,-0.08439434059464797,0.7896799325300908,-0.0063002579567879085,3
117,2024-09-16 17:23:01.392076904,0,005,0.35574166805545304,-0.059745466096376695,1.0803053836688048,-0.2011484511040583,0.4153292800292161,-0.0873683523771456,0.6552928089043131,0.03179392009502544,3
118,2024-09-16 17:23:01.463733887,0,005,0.38831934516677385,-0.06159627980356286,1.1786416194595541,-0.22273666268398495,0.40423735476865325,-0.09211720142532982,0.5118746005144663,0.066736394141864,3
119,2024-09-16 17:23:01.531366211,0,005,0.42083711795760703,-0.06415912547960434,1.2750853721498616,-0.24544666137907914,0.3983484895105572,-0.0983531346773996,0.3657031729131962,0.0962263611959389,3
120,2024-09-16 17:23:01.593688965,0,005,0.45200028742357407,-0.06740580120083187,1.3688395043365997,-0.2695258586005471,0.397790749602952,-0.10574685022264853,0.22276192568254155,0.11835321154504862,3
121,2024-09-16 17:23:02.531223145,0,005,0.48053874229633875,-0.07127858355131138,1.4583204168214228,-0.29487244202985446,0.40257200328854664,-0.11394330385432141,0.08856464627484953,0.13176720332669248,3
122,2024-09-16 17:23:02.608004150,0,005,0.5052889693761747,-0.0756858737432302,1.5414204261347981,-0.32105264981309556,0.41254520270741646,-0.12257509472831275,-0.03189268088285577,0.13578986554323588,3
123,2024-09-16 17:23:02.678288086,0,005,0.5252843172017194,-0.08050296597371744,1.6158671523526462,-0.3473794194023392,0.4273289109804672,-0.13127102344519398,-0.1341502340510572,0.13043574954463752,3
124,2024-09-16 17:23:02.746059814,0,005,0.5398185395910019,-0.0855776536455542,1.67955507342049,-0.37302706620997855,0.4462195436583104,-0.13966209957812636,-0.21438040784599513,0.11632858716638668,3
125,2024-09-16 17:23:02.807129883,0,005,0.5484808597588672,-0.09073871976199172,1.730747058628503,-0.397159096151003,0.4681490696716859,-0.14738881382431163,-0.26953087471186027,0.09451957577853783,3
126,2024-09-16 17:23:02.881566162,0,005,0.5511891334116082,-0.09580788341029901,1.7681546156288803,-0.4190426655998289,0.49171779349344497,-0.1541112704246288,-0.2974062288529553,0.06626341129319452,3
127,2024-09-16 17:23:02.949266113,0,005,0.548233132478389,-0.10061754320042657,1.7909706171404745,-0.43813059845098606,0.5153016418714698,-0.15952294283745752,-0.29669771291184643,0.03284662120642472,3
128,2024-09-16 17:23:03.861403076,0,005,0.5403071363268064,-0.10503335574017447,1.7988740881323912,-0.4541069714260646,0.5372033935365085,-0.16336627453778457,-0.26708669161611365,-0.004460538582451297,3
129,2024-09-16 17:23:03.935342041,0,005,0.5285043267781638,-0.10897569500027561,1.7920124500416794,-0.4668988472217323,0.5557973647529635,-0.16544439721682708,-0.20945010707250225,-0.04433980268795541,3
130,2024-09-16 17:23:04.003093018,0,005,0.5142640334490459,-0.1124331028326114,1.7710440070863303,-0.4766577072499042,0.5696373570495686,-0.16562733117624867,-0.1260000598076294,-0.08533558993062844,3
131,2024-09-16 17:23:04.063070068,0,005,0.4992700369967731,-0.11546319991772908,1.7373150991291437,-0.48371993924721135,0.5775348822408326,-0.16385949966810281,-0.02014290288349216,-0.12583825371133692,3
132,2024-09-16 17:23:04.138636963,0,005,0.4852882717223684,-0.11817829595105908,1.6931319289940123,-0.48856681344812347,0.5786216407662712,-0.16017370463937466,0.10399426741017206,-0.1641779033684477,3
133,2024-09-16 17:23:04.206406982,0,005,0.47394601082602733,-0.12071598739571969,1.6419960604689827,-0.49180093290031934,0.5723960583023957,-0.15470603917435072,0.24220972917908137,-0.19879363061830563,3
134,2024-09-16 17:23:04.261848877,0,005,0.46650415483083507,-0.12320266292613809,1.5886191671676386,-0.49412694353187964,0.5587542897371351,-0.14770228986925393,0.39080928771283824,-0.22841760836103261,3
135,2024-09-16 17:23:05.217664062,0,005,0.46370085611409984,-0.12572305030529055,1.5385454855110579,-0.49630219896308964,0.53801801919675,-0.13951419606802162,0.5469538529593083,-0.2522276916818283,3
136,2024-09-16 17:23:05.285502930,0,005,0.46570172871252424,-0.12830218500093796,1.4973655240743104,-0.4990370549133854,0.5109591216018262,-0.1305890230558095,0.7087185371403621,-0.2699312094010203,3
137,2024-09-16 17:23:05.350311035,0,005,0.4721303509406346,-0.13089570109283435,1.4697235791573267,-0.502857623114426,0.4787908947542855,-0.12144955992483943,0.8749193299027286,-0.2817493430307448,3
138,2024-09-16 17:23:05.420949951,0,005,0.48214954964524004,-0.13338598017353617,1.4584417629828916,-0.5079696887141136,0.44309714533595584,-0.11265876630629887,1.0447786634069676,-0.28829756363784526,3
139,2024-09-16 17:23:05.488657959,0,005,0.494596774278238,-0.13559047392593762,1.4640266930778216,-0.5141698085632092,0.40570543929998787,-0.1047737447605303,1.2174259660380553,-0.2903891318866856,3
140,2024-09-16 17:23:05.549503174,0,005,0.5081707076493297,-0.13728726559509724,1.4846246417599496,-0.52083481560321,0.36853325541234055,-0.0983018761502114,1.3912424643873378,-0.28880789654937344,3
141,2024-09-16 17:23:05.624183838,0,005,0.5216254347909691,-0.13825181997148042,1.5162928076805822,-0.5269911677245481,0.33343360773202335,-0.093666493099984,1.563214278328015,-0.2841082439820746,3
142,2024-09-16 17:23:06.559375000,0,005,0.5339196344142384,-0.1382935529807791,1.5534143637757516,-0.5314397147575041,0.30205835009701465,-0.09118142770004035,1.7285858221149746,-0.276501987746461,3
143,2024-09-16 17:23:06.632500977,0,005,0.544307125149386,-0.13728684196824587,1.5891708681455912,-0.5329014067788541,0.27574891953019104,-0.09103272130650457,1.881040686091149,-0.26586667889634163,3
144,2024-09-16 17:23:06.691654053,0,005,0.5523854542382927,-0.1351961406763089,1.6160581517581045,-0.5301535755265231,0.25545540709052406,-0.0932678017753786,2.0133745871304374,-0.2518614182172029,3
145,2024-09-16 17:23:06.769190918,0,005,0.558103646788246,-0.13209080533583578,1.626441765726409,-0.522137696102972,0.24168263795858252,-0.09779366634094684,2.1183799670736296,-0.2341002693767059,3
146,2024-09-16 17:23:06.830280029,0,005,0.5617099177946313,-0.12814233607184103,1.613082394024831,-0.5080245062396703,0.2344641122307129,-0.10438456639187399,2.189642327688783,-0.21232777017986568,3
147,2024-09-16 17:23:06.906501953,0,005,0.5636405374139316,-0.12360379120117049,1.5695096508867985,-0.4872243514079297,0.2333554447335222,-0.11269461344627207,2.2220775224321225,-0.18655037175379424,3
148,2024-09-16 17:23:06.974284912,0,005,0.5643869481454128,-0.11877984476203723,1.4902505790250289,-0.4593532739795453,0.23743087764694162,-0.1222684481230929,2.212174766662755,-0.15709474832973042,3
149,2024-09-16 17:23:07.917834961,0,005,0.5643868007508712,-0.11399645573236042,1.3710837578254436,-0.4241969946865812,0.24529428539913076,-0.1325517511462991,2.1580492616633995,-0.12459553380459448,3
150,2024-09-16 17:23:07.974706787,0,005,0.5639626749283821,-0.10957316217496174,1.2094216466729526,-0.38171503103930543,0.25515906820317713,-0.14291386067276693,2.059478326878476,-0.08994432567988618,3
151,2024-09-16 17:23:08.053396973,0,005,0.5633039453266635,-0.10579681559161032,1.0047081285105988,-0.33208878057086877,0.26504145543171204,-0.15269219110891108,1.9179791661962766,-0.05422581567537033,3
152,2024-09-16 17:23:08.113438965,0,005,0.5624775767030162,-0.10289742912293169,0.7585991439257217,-0.2757732078349092,0.2730359089966963,-0.16125401710645487,1.7368076904751395,-0.018633858020437485,3
153,2024-09-16 17:23:08.174626221,0,005,0.5614621714126223,-0.10102960765173781,0.47479749401647803,-0.21350740052874148,0.27757192418670107,-0.16805846087275944,1.5207502048806716,0.01565065008304649,3
154,2024-09-16 17:23:08.251499023,0,005,0.5602063983996484,-0.10026173613322592,0.15868254388374653,-0.1462851544497577,0.2775653176211064,-0.172700432842002,1.2757712596739208,0.047602231575380086,3
155,2024-09-16 17:23:08.312683105,0,005,0.5587050765153345,-0.10057289524577942,-0.18298337329695782,-0.0753284672860658,0.27245887869044205,-0.17492951573261495,1.0087677487971372,0.07644992776822894,3
156,2024-09-16 17:23:09.241554932,0,005,0.5570668414251732,-0.10185733194451062,-0.5421512890012212,-0.002097055889637412,0.26220387913395543,-0.17464894429168681,0.7276062289889554,0.10168023684324068,3
157,2024-09-16 17:23:09.311558105,0,005,0.5555418874177979,-0.10393676222966707,-0.909484783539812,0.07167196806585269,0.24721675944158747,-0.17190205239303255,0.44132435578236245,0.12295839776948048,3
158,2024-09-16 17:23:09.379270020,0,005,0.5545007958496957,-0.10657950633795749,-1.2744117686471625,0.14392862328088932,0.2283055676531874,-0.1668503093940119,0.16021033999760842,0.14002539057927552,3
159,2024-09-16 17:23:09.447002930,0,005,0.5543773903503791,-0.109522105304306,-1.6253471997427706,0.2123212537161065,0.2065595633217596,-0.15974785596425486,-0.10441752886648178,0.15260750769206596,3
160,2024-09-16 17:23:09.512281982,0,005,0.5555907733900237,-0.11248807229907072,-1.9501716260422493,0.2742836075437274,0.18321929919163957,-0.1509196463905094,-0.34070821682636865,0.160333080430601,3
161,2024-09-16 17:23:09.573842041,0,005,0.5584624703287838,-0.11520259085083831,-2.2369451279417616,0.32719686398468245,0.15955419747188895,-0.14074602725311192,-0.5369172197837737,0.16264494189992842,3
162,2024-09-16 17:23:09.650243164,0,005,0.5631533688330412,-0.1174065134698927,-2.474703460249726,0.3685999593856504,0.13676865083208126,-0.1296480806976886,-0.6821113920213516,0.15874518989475842,3
163,2024-09-16 17:23:10.593770020,0,005,0.5696456949407157,-0.118873489338086,-2.654172810312665,0.3964148771937228,0.11594035238828031,-0.11806414780217318,-0.7669950452973233,0.14764318382600264,3
164,2024-09-16 17:23:10.650557129,0,005,0.577771209323528,-0.11942977807255074,-2.7683519233440332,0.4091575829396855,0.09797088068959664,-0.10641362731632202,-0.7848780415493302,0.12832335940748543,3
165,2024-09-16 17:23:10.727253906,0,005,0.587252189124724,-0.11896969861012394,-2.812984451615994,0.40610747537649255,0.08352965110545439,-0.09505602674613362,-0.7325945305912163,0.09995884354960077,3
166,2024-09-16 17:23:10.796974854,0,005,0.5977143683785102,-0.11745833005282164,-2.786910152421148,0.38741169539083486,0.07299759688068344,-0.0842589349146254,-0.6110693722290057,0.06207986216175478,3
167,2024-09-16 17:23:10.850496094,0,005,0.6086602340046944,-0.11492047261511794,-2.6922386269589555,0.35411043530589326,0.0664231957380383,-0.07418227417958333,-0.4253537153845826,0.014661769859684561,3
168,2024-09-16 17:23:10.928118896,0,005,0.6194306887508824,-0.11142361209450102,-2.5342778744393923,0.30807740642444426,0.06349316542449387,-0.0648790128096383,-0.18416301663532522,-0.041858202578027436,3
169,2024-09-16 17:23:10.989680908,0,005,0.6291998970739162,-0.10706411451921478,-2.3211774451118474,0.2518822372069788,0.06352738303386203,-0.05631076216333134,0.10088981611739933,-0.10661543754483059,3
170,2024-09-16 17:23:11.943304932,0,005,0.6370262606126231,-0.10195980963905575,-2.063369991234434,0.1886073225512275,0.06551889874492728,-0.048373555652554204,0.4161009874696724,-0.17836620665992578,3
171,2024-09-16 17:23:11.998867920,0,005,0.6419524571374119,-0.09624697808679325,-1.7730031683846375,0.12165859512879212,0.06822743248142998,-0.04092552617627424,0.746325212495528,-0.2554971280562149,3
172,2024-09-16 17:23:12.076093018,0,005,0.6431406988582966,-0.0900806616287081,-1.4634572104603583,0.05458025573754868,0.07031448845108922,-0.03381074348467298,1.0754599931963835,-0.33597347237452746,3
173,2024-09-16 17:23:12.137698975,0,005,0.6400245189772766,-0.08363789783040104,-1.1488177011062626,-0.009140879002711296,0.07050168613511057,-0.02687836484081578,1.386903006191093,-0.41726391485695796,3
174,2024-09-16 17:23:12.214370850,0,005,0.6324413725834906,-0.07712039661456542,-0.843064548353118,-0.06628729365618052,0.06772770059047674,-0.019997373915803286,1.6641418886699741,-0.4963168746253184,3
175,2024-09-16 17:23:12.282068115,0,005,0.6207038632825861,-0.0707517376820244,-0.558898125004155,-0.11412608553342399,0.06127291551724921,-0.013067783565568208,1.8915752008970583,-0.569656836195422,3
176,2024-09-16 17:23:12.337177979,0,005,0.6055794135336895,-0.06476649757934735,-0.30645621104660614,-0.1506036866633394,0.050835235923875635,-0.006032786710789396,2.0555270283230143,-0.6336176908842271,3
177,2024-09-16 17:23:13.291354980,0,005,0.5881712138587898,-0.05939233290853847,-0.09237146625888172,-0.1744860633849749,0.03655635849570871,0.0011039367635059375,2.145261886057385,-0.6846619864406313,3
178,2024-09-16 17:23:13.361493164,0,005,0.5697250693764286,-0.0548290249572932,0.08052106342835313,-0.1854078677357098,0.018994761423226245,0.008260386528929702,2.1537724360752706,-0.719709248177588,3
179,2024-09-16 17:23:13.429138916,0,005,0.5514165278636008,-0.05122930391430161,0.21285123331191697,-0.1838169148486083,-0.0009553093308065468,0.015269337487294312,2.078209887510001,-0.7364199243930429,3
180,2024-09-16 17:23:13.496911133,0,005,0.5341784195116619,-0.04868551574777583,0.30800043369063884,-0.17083685012471428,-0.022185497286549644,0.02188946741236898,1.9199412027530267,-0.7334009442920588,3
181,2024-09-16 17:23:13.564649170,0,005,0.5185982799019483,-0.04722518276217695,0.37122580986985476,-0.14808858384129064,-0.04351868585136681,0.02783319113986248,1.6843023339602023,-0.7103093424978765,3
182,2024-09-16 17:23:13.632492920,0,005,0.5048738343754049,-0.04681612812824789,0.4087099118172221,-0.11750459478502984,-0.06386251427321414,0.03280614412965957,1.3801831999662646,-0.6678607620602472,3
183,2024-09-16 17:23:13.700135986,0,005,0.4928080159472216,-0.04737798217128717,0.42657065035500824,-0.08115443219508288,-0.08234866052022609,0.03655288805063545,1.0195875731096529,-0.6077788104360434,3
184,2024-09-16 17:23:14.614142822,0,005,0.48184615470066455,-0.04879426470831511,0.42991419863588565,-0.04108342381986744,-0.09842641825764159,0.03890184890058635,0.6172171547654786,-0.5327135689076491,3
185,2024-09-16 17:23:14.686013916,0,005,0.4711590973582306,-0.05091984069384113,0.4220759614060245,0.0008396300322555539,-0.11188293645723685,0.03979930965520231,0.18996697339040458,-0.4461132507145556,3
186,2024-09-16 17:23:14.752791016,0,005,0.4597552769011709,-0.05358241875825346,0.40420370686179535,0.04305838307031371,-0.12279002479810036,0.03932328237565887,-0.2438761661061748,-0.3519973709657077,3
187,2024-09-16 17:23:14.821490967,0,005,0.44659900248313666,-0.056582199885466034,0.3752895924989515,0.08442202569582559,-0.13140998472870355,0.03767567923317711,-0.6658062029607072,-0.2546178119813882,3
188,2024-09-16 17:23:14.875966064,0,005,0.4307225774849369,-0.05969587227429595,0.33267151732414724,0.12420097109019583,-0.13809805916862122,0.035157290659209424,-1.0584355770563778,-0.15807913451104982,3
189,2024-09-16 17:23:14.953604004,0,005,0.41132073505698324,-0.06268616113043901,0.27290706252462044,0.16200478126728765,-0.14322712729639914,0.032131294968514766,-1.4066629082227968,-0.06601056375159654,3
190,2024-09-16 17:23:15.024710938,0,005,0.3878133360928841,-0.0653121971496654,0.19282514824572333,0.19761450522853508,-0.1471559013930134,0.028983193526205004,-1.698442610622045,0.01866809370256974,3
191,2024-09-16 17:23:15.968082031,0,005,0.35987839630401525,-0.06733837706154772,0.09057322092887159,0.23077322611430703,-0.15024850141844098,0.026087431616071226,-1.9251344402311126,0.0938752079806844,3
192,2024-09-16 17:23:16.035870117,0,005,0.32747604766926086,-0.06854646115420975,-0.03343215388984009,0.2609922720021751,-0.15292239370357774,0.02378675959142196,-2.081558433428464,0.15837823628123374,3
193,2024-09-16 17:23:16.103635986,0,005,0.29087396639843127,-0.06875544606542475,-0.1757687662093687,0.2874302640142882,-0.15569172921729937,0.02238153354501686,-2.1658485739359374,0.2116858718592377,3
194,2024-09-16 17:23:16.171360107,0,005,0.25065931899240673,-0.06784519442890416,-0.3297339080152871,0.30889003787319724,-0.15919455581061456,0.022122014469687493,-2.1790827343867036,0.2538473080040424,3
195,2024-09-16 17:23:16.239105957,0,005,0.2077172305170496,-0.0657740335711733,-0.4857430111298568,0.323940114948507,-0.16419832449621832,0.02319925346425058,-2.1246960157294965,0.28521281242700985,3
196,2024-09-16 17:23:16.306847168,0,005,0.16317278843113178,-0.06258477485343052,-0.6323839352341003,0.33112280362991703,-0.1715600322906506,0.025733662946299887,-2.007841734175149,0.30623277668085136,3
197,2024-09-16 17:23:16.368025146,0,005,0.11830656436500464,-0.058401013716349,-0.7579096998403761,0.3292008549977957,-0.18212681736837816,0.02976339259143722,-1.834905583532916,0.3173629898830629,3
198,2024-09-16 17:23:17.318114990,0,005,0.0744516839826944,-0.053415729322883056,-0.8518611006968498,0.31740602102450355,-0.19660941336090154,0.03523872129146393,-1.6132191048027098,0.31908464790152447,3
199,2024-09-16 17:23:17.385870117,0,005,0.0328810931724061,-0.04787116190258564,-0.9065091814479823,0.2956526868901976,-0.2154876892203814,0.042030137992639084,-1.3508786824191645,0.31198157961629075,3
200,2024-09-16 17:23:17.451086914,0,005,-0.005291191874775562,-0.04203294645781305,-0.9178840772473656,0.2646724395311696,-0.23897846907859205,0.04995169546769841,-1.0566035100958167,0.2968010386170221,3
201,2024-09-16 17:23:17.521356201,0,005,-0.0391663214007419,-0.03616713935508099,-0.8862413933068285,0.2260301851825444,-0.2670430097873752,0.058790990451160485,-0.7396117717572857,0.27446266033017136,3
202,2024-09-16 17:23:17.574630859,0,005,-0.06807389252311538,-0.030524946493065905,-0.8158970866556279,0.18200850311250102,-0.2993883365896743,0.06833273277002516,-0.40948508616166523,0.24604098106723615,3
203,2024-09-16 17:23:17.651488037,0,005,-0.09157184241753097,-0.025331559838191138,-0.7144984566533246,0.1353869327900956,-0.3354434087704369,0.07837007194780476,-0.07604712747379135,0.21278190964142735,3
204,2024-09-16 17:23:17.724576904,0,005,-0.1094523435807453,-0.020774723347334878,-0.591944339089683,0.08916992756650835,-0.3743439355065016,0.08871008160443963,0.25063487309659416,0.17617881763820778,3
205,2024-09-16 17:23:18.668486084,0,005,-0.12174023149098737,-0.01699497704031457,-0.4592074942056141,0.046314294415669,-0.41498125931996627,0.09918299984758117,0.5601060822606723,0.1380554568592361,3
206,2024-09-16 17:23:18.736274902,0,005,-0.1286655837183856,-0.014082328037740384,-0.3272587033539477,0.009490925209502146,-0.456129475042885,0.1096554264834537,0.8414554592513155,0.1005685022259804,3
207,2024-09-16 17:23:18.804040039,0,005,-0.1306216243175164,-0.012078963328667794,-0.20621458241715354,-0.0190972137040035,-0.49660895998004906,0.12003879712307966,1.0836275321356592,0.06608527129996043,3
208,2024-09-16 17:23:18.860109131,0,005,-0.12814173379424842,-0.010981392139114724,-0.10472298368554223,-0.03783923677547522,-0.5354299911837811,0.13028630639658198,1.2761722510375497,0.036960407444370055,3
209,2024-09-16 17:23:18.937293945,0,005,-0.12191187851367266,-0.010736813883066063,-0.02948608728279191,-0.04580468892789354,-0.5718782237733009,0.1403795610138135,1.410147901343341,0.01527416351614975,3
210,2024-09-16 17:23:19.007245117,0,005,-0.11279193770772936,-0.011237256174595913,0.015169570461520135,-0.04280804733777308,-0.6055317727151935,0.15031276764455653,1.4788500338372965,0.002583935021541876,3
211,2024-09-16 17:23:19.060043213,0,005,-0.1018033945519979,-0.012320316669749247,0.027613865502904504,-0.02942106166726378,-0.636227456417739,0.1600818560324617,1.478256154972307,-0.0002896256784065335,3
212,2024-09-16 17:23:20.013186035,0,005,-0.0900710769961628,-0.013780269214282303,0.008985625105731266,-0.006902247914056878,-0.6639988821244046,0.1696779313157102,1.4072083600028513,0.006580922692476697,3
213,2024-09-16 17:23:20.086295898,0,005,-0.07873580751920216,-0.015386059364231099,-0.0370082285282657,0.022937561430045706,-0.6889936297570161,0.17907860615509827,1.2673942671726621,0.02216354406237775,3
214,2024-09-16 17:23:20.154068848,0,005,-0.06885064344954782,-0.016902338949747533,-0.10450441417849504,0.05789117440973212,-0.7113757948389179,0.18823526054841289,1.063260256742434,0.04449848001364988,3
215,2024-09-16 17:23:20.213197998,0,005,-0.06126740780774357,-0.01811186770848556,-0.18608522808359385,0.09551699839715062,-0.7312344227274524,0.1970621193048598,0.8019671430788362,0.07081929880988158,3
216,2024-09-16 17:23:20.274774170,0,005,-0.05653683313942086,-0.018835465304993745,-0.2735401684157204,0.13330927907567894,-0.7485173792553076,0.20543379594933792,0.4933181154779308,0.09777650061703835,3
217,2024-09-16 17:23:20.351578857,0,005,-0.0548572123446251,-0.01894294964210496,-0.35866482806248995,0.16887166146435603,-0.7629943727757892,0.2131917874376799,0.14948641398096627,0.12177171829528569,3
218,2024-09-16 17:23:20.425048096,0,005,-0.05608697615427238,-0.018352233312687566,-0.43392660221618234,0.20007815424269002,-0.7742461689572099,0.22015457125020965,-0.2155232719389126,0.13935219736257098,3
219,2024-09-16 17:23:21.343622803,0,005,-0.05980580649980842,-0.01702088187904577,-0.4928602090982157,0.2251912585953353,-0.781680442607633,0.22612662256139146,-0.5866359860876826,0.14758657113092666,3
220,2024-09-16 17:23:21.404912842,0,005,-0.06539593728354084,-0.01493665105904,-0.5302071377497244,0.2429148465644969,-0.7845750705117717,0.23090775086927834,-0.9486625775101128,0.1443800279567002,3
221,2024-09-16 17:23:21.465982910,0,005,-0.07212185739936332,-0.012110500241743143,-0.5420075429684461,0.2524012058843856,-0.782148089897023,0.23430644090473896,-1.287382168108507,0.12871301421157427,3
222,2024-09-16 17:23:21.542301025,0,005,-0.07919992964716281,-0.008573148401480988,-0.5258467931834436,0.25324949976854344,-0.773649158911634,0.23615553588994706,-1.5905313656202817,0.10076531022425472,3
223,2024-09-16 17:23:21.604013916,0,005,-0.08585727175831884,-0.00437646024217887,-0.4812363895199235,0.245504308839431,-0.7584556905338129,0.23632548875080175,-1.8484221038787516,0.061875484356501455,3
224,2024-09-16 17:23:21.682481934,0,005,-0.09137919112893342,0.00040033220197504627,-0.40991627792889956,0.22963859102277706,-0.7361535077238298,0.234735063280579,-2.054069735959148,0.014330880532377605,3
225,2024-09-16 17:23:21.750207031,0,005,-0.09514591151405287,0.005644884572062447,-0.3158361592039163,0.20650640611170598,-0.7065946510809991,0.23136188242034209,-2.203005381488087,-0.03893971191806266,3
226,2024-09-16 17:23:22.693116943,0,005,-0.09666184308623242,0.011214134034151054,-0.20469531455639925,0.17725804469810058,-0.6699332097875825,0.22624969044030416,-2.293077524189624,-0.094668913234642,3
227,2024-09-16 17:23:22.760915039,0,005,-0.09557399347844614,0.016945323675685228,-0.0831383503623844,0.14322534544593823,-0.6266376587863792,0.2195055761710782,-2.3243523096964016,-0.14950768450083268,3
228,2024-09-16 17:23:22.828669922,0,005,-0.09166823238948744,0.022667715028783595,0.04213724998109382,0.10581090745325303,-0.5774812362860993,0.21128694982777138,-2.2990020216255043,-0.2002664993621423,3
229,2024-09-16 17:23:22.896479980,0,005,-0.084842065990877,0.028208972451575696,0.1651498676122032,0.06641816529348533,-0.5235191016341929,0.20178704566415653,-2.2211291566762577,-0.24415866436956207,3
230,2024-09-16 17:23:22.964179932,0,005,-0.0750750746398152,0.033398515648296816,0.2812212482893824,0.026419998873977606,-0.4660622478628476,0.19122851501922947,-2.096653231552212,-0.2790014585429215,3
231,2024-09-16 17:23:23.020104004,0,005,-0.062423647927973336,0.03807298569114848,0.38738746175001004,-0.012874681488416565,-0.4066567620966232,0.17986861830259948,-1.933381258682975,-0.3033176558841187,3
232,2024-09-16 17:23:23.098201904,0,005,-0.04704652023373019,0.042085563514222775,0.48260622508869505,-0.0502865885433293,-0.347066952327045,0.16801181656750036,-1.741148545689897,-0.316329963181846,3
233,2024-09-16 17:23:24.029750977,0,005,-0.029246720401671734,0.045318587665254706,0.5677405083967441,-0.08485510813916933,-0.2892385769701529,0.15601824264744205,-1.531708419141879,-0.31788832883180274,3
234,2024-09-16 17:23:24.106952881,0,005,-0.009505840072247128,0.047698010093065485,0.6453317503386353,-0.11592197482930264,-0.23521716030219011,0.14429536273526616,-1.3181034273796142,-0.3083785972440392,3
235,2024-09-16 17:23:24.178541992,0,005,0.011515201590029318,0.049205407921523545,0.7191704565776961,-0.1431859152474018,-0.18703090879255888,0.1332695358758932,-1.1135133448179249,-0.288642125168814,3
236,2024-09-16 17:23:24.246315918,0,005,0.033018022611515506,0.049882802178625125,0.7936933597481238,-0.16671232970124947,-0.1465724687164822,0.12334603202094127,-0.9298349244025318,-0.25991163987790833,3
237,2024-09-16 17:23:24.306344971,0,005,0.05413242647973652,0.0498302970546304,0.8732776597469809,-0.18688304069825643,-0.1155005201834999,0.11487013427134793,-0.7763363051934561,-0.22376435139822576,3
238,2024-09-16 17:23:24.367875977,0,005,0.07398056062908048,0.04919928444850254,0.9614564795149045,-0.20427153096920506,-0.09515785976809271,0.10809896221570503,-0.6586219611455859,-0.18210466735006872,3
239,2024-09-16 17:23:24.449541992,0,005,0.09173066152446456,0.048181510879831906,1.0600395776364397,-0.2194456509644593,-0.08649208649116248,0.10318780154036251,-0.5780363614329315,-0.13716592524796561,3
240,2024-09-16 17:23:25.354038086,0,005,0.10663783480500581,0.046994601065129996,1.1682556510817255,-0.23274051256193123,-0.08997309346030319,0.10018899652959942,-0.5316470944988166,-0.0914668912201372,3
241,2024-09-16 17:23:25.431255127,0,005,0.1180646309287416,0.045868496853397396,1.2822296640294137,-0.24407758055859968,-0.10551855835593422,0.09905957294127267,-0.5129044266968077,-0.04765984007812046,3
242,2024-09-16 17:23:25.492006104,0,005,0.1254867597284261,0.04503502567264333,1.3951135137573638,-0.25289289652618924,-0.13244304490167372,0.09967308006931277,-0.5128677488743624,-0.008283018968685558,3
243,2024-09-16 17:23:25.568842773,0,005,0.12850617413596757,0.04471560467652816,1.4979336370943073,-0.2581899481585531,-0.16944019816361233,0.10182878034307659,-0.5216789912063607,0.024504826185027258,3
244,2024-09-16 17:23:25.631837891,0,005,0.1268814378179888,0.04510159741952617,1.5809046964214375,-0.25869220082467087,-0.214610534054248,0.10525464984434506,-0.5299328048064726,0.04913758142785346,3
245,2024-09-16 17:23:25.707565918,0,005,0.12055945518942886,0.046330021589479534,1.634850104242278,-0.2530595611269715,-0.26555104484769604,0.10961017096963234,-0.5297590542209907,0.06477872423973471,3
246,2024-09-16 17:23:25.772062012,0,005,0.10968476980693385,0.04846554937584568,1.6525029031545033,-0.24014193548287768,-0.31950631374908084,0.11449706900304954,-0.5155946175526812,0.07137632396012633,3
247,2024-09-16 17:23:26.703793945,0,005,0.09457507628725305,0.051499069864441464,1.6295817100767858,-0.21923426328224596,-0.3735576822250704,0.11947910722161431,-0.4846153210369672,0.06961891001297013,3
248,2024-09-16 17:23:26.781131104,0,005,0.07567354517828363,0.05536196981491033,1.5654944833523208,-0.19026865188469874,-0.42482448076416784,0.1241085457654031,-0.4367491707839589,0.06078767160340927,3
249,2024-09-16 17:23:26.842230957,0,005,0.05349618406887838,0.059945834373902405,1.4634869945858082,-0.15388285010737524,-0.47065964623181206,0.12795851763459604,-0.3742547247343045,0.046536573266159655,3
250,2024-09-16 17:23:26.918614014,0,005,0.02857662690635346,0.06512012627477898,1.3301851317043016,-0.11135517729534225,-0.5088192822030654,0.130658803419812,-0.3009827760634315,0.028649796875072457,3
251,2024-09-16 17:23:26.980718994,0,005,0.0014126429200881183,0.07074643952133644,1.174704378344445,-0.06444756426777154,-0.5375820967493604,0.13192743721385553,-0.22154924629435488,0.008826328063397292,3
252,2024-09-16 17:23:27.057534912,0,005,-0.027554188036124833,0.07668642789960009,1.00760563655475,-0.01521166569598089,-0.5558050621717864,0.1315892706933857,-0.14064931044524748,-0.01146574950828787,3
253,2024-09-16 17:23:27.125474854,0,005,-0.057907505637874786,0.08279947342413224,0.8398703344563728,0.03420826585232239,-0.562917136305629,0.12957768595944005,-0.06261365990284341,-0.0310501483164378,3
254,2024-09-16 17:23:28.066600098,0,005,-0.08920781388599013,0.0889330727474485,0.6819310532433155,0.08176364423572868,-0.5588632395631212,0.12592287181845524,0.008850594346327012,-0.049033884223167325,3
255,2024-09-16 17:23:28.136563965,0,005,-0.12096734739629011,0.09491472191078185,0.5427811161337178,0.12567033282063766,-0.5440190999332237,0.12073382655032426,0.07087725423276724,-0.0647545292528164,3
256,2024-09-16 17:23:28.204340088,0,005,-0.15265093107251063,0.10055126032731349,0.4292015063124535,0.1645460079980912,-0.5191029173630514,0.11418046477899982,0.1217276239830898,-0.07771422975182439,3
257,2024-09-16 17:23:28.269269043,0,005,-0.18369049629961443,0.10563533246757167,0.3451381604897693,0.1975108286792116,-0.485101057199074,0.106478847069229,0.16112071728939178,-0.08754161112532997,3
258,2024-09-16 17:23:28.339824951,0,005,-0.21350985441381592,0.10995594936397093,0.2913164828221336,0.22423907536936508,-0.44320851131366773,0.09787918024234984,0.19045294336977828,-0.09400412460076932,3
259,2024-09-16 17:23:28.407567139,0,005,-0.24155869117990872,0.11331222936975355,0.2652551503952443,0.2449283652035687,-0.3947809782211561,0.08865551495178606,0.21273119222643086,-0.09703892440324918,3
260,2024-09-16 17:23:28.465625977,0,005,-0.26734927838391764,0.11553103517176701,0.2618134341499301,0.2601624352239797,-0.34129866688296173,0.07909678920265595,0.23211991252930356,-0.09674417090575493,3
261,2024-09-16 17:23:29.419089111,0,005,-0.290487810640294,0.11648673396784646,0.2742371588082277,0.2706977708526859,-0.2843377351204429,0.06949844048792368,0.25315875498527646,-0.09332248754708518,3
262,2024-09-16 17:23:29.486931152,0,005,-0.3107018490213956,0.11611855820957744,0.29546060982447814,0.2772494535542706,-0.22554316687973872,0.06015337935821285,0.2799234597890735,-0.08703881389197099,3
263,2024-09-16 17:23:29.546032959,0,005,-0.32786756147401525,0.11444022807044696,0.31932702246051536,0.2803409561675731,-0.16659706229531646,0.05134052497027571,0.31548330026333166,-0.07825522302463687,3
264,2024-09-16 17:23:29.622471191,0,005,-0.3420192844431704,0.1115364445519064,0.3414368113677685,0.28023878876538066,-0.10916586046913775,0.043307195116701565,0.36175655945300983,-0.06752525816323601,3
265,2024-09-16 17:23:29.685556885,0,005,-0.353315137594329,0.10754449591222222,0.3594682117827273,0.27696055694086014,-0.05481141823978384,0.0362433613941214,0.419548126808669,-0.05566003850791698,3
266,2024-09-16 17:23:29.746718994,0,005,-0.36196134706073774,0.1026261135006537,0.3730094943533883,0.2703339377265477,-0.004887664476625312,0.03025474145151245,0.4885733284746341,-0.04370118130670083,3
267,2024-09-16 17:23:29.823562012,0,005,-0.36812482173092453,0.09693779751563653,0.3830990340219759,0.2600850916002069,0.03952227317777449,0.025349628750901895,0.5675097085666921,-0.03281952360489548,3
268,2024-09-16 17:23:30.754267822,0,005,-0.37185861224599087,0.09060636773653218,0.39167151846067066,0.24594223347304967,0.07759533649471058,0.021449491623750438,0.6541865398451026,-0.02419926336746154,3
269,2024-09-16 17:23:30.831934082,0,005,-0.37305387636633625,0.08371564980334348,0.4010183895815941,0.22774173044187468,0.10870944342352643,0.018418020241605666,0.7458427183123545,-0.018926097052958862,3
270,2024-09-16 17:23:30.893529785,0,005,-0.3714315919828979,0.07630797952265365,0.41334469301657917,0.20551273629188785,0.13239346893029902,0.016093147474645852,0.8392506133434622,-0.017856232203587962,3
271,2024-09-16 17:23:30.971637939,0,005,-0.3665770608860538,0.06839667406024232,0.43049041763105794,0.1795160705117257,0.148326536898519,0.014309370173043363,0.9306711419149963,-0.021472766934885618,3
272,2024-09-16 17:23:31.040225098,0,005,-0.35799656350655623,0.0599798456377745,0.4537768608638667,0.15024080316541394,0.15638663544629805,0.012907102284302615,1.0158702973651361,-0.0297769356147007,3
273,2024-09-16 17:23:31.107981934,0,005,-0.3451697467388108,0.051050059905122874,0.4838935739661669,0.11837961719808397,0.1567120761623447,0.011735143968421863,1.0904057012297266,-0.04223850979935934,3
274,2024-09-16 17:23:31.175718994,0,005,-0.32759839620670245,0.041602657020042705,0.5208438847629859,0.08478915155788715,0.14972723081684555,0.01065607076255594,1.1501292519981734,-0.05779701813053739,3
275,2024-09-16 17:23:32.093281982,0,005,-0.3048730370000429,0.031646245350615373,0.5640206604927399,0.05043295298174874,0.1361135470355529,0.009557280166684314,1.1917272497719062,-0.07493873500589991,3
276,2024-09-16 17:23:32.161084961,0,005,-0.27675778468427037,0.02121263654023089,0.612402439383916,0.01631758303622652,0.11675759107048957,0.008359858911704203,1.2132172036999826,-0.09190459506597354,3
277,2024-09-16 17:23:32.217493896,0,005,-0.24326819902565883,0.010362713948831108,0.6647648024291574,-0.016565111410305856,0.09272909001167942,0.007016474279064556,1.214362274704593,-0.10701147536527088,3
278,2024-09-16 17:23:32.295200195,0,005,-0.2047245968164941,-0.0008096300327849727,0.7198024300639407,-0.04729411710849084,0.06531100936539024,0.005496871488654512,1.1968854579950827,-0.11896697026765594,3
279,2024-09-16 17:23:32.356759033,0,005,-0.16177437058375913,-0.012173169036233635,0.7761447037390717,-0.07508708556498081,0.03604595695399598,0.003766646933962609,1.164383827013718,-0.12706329418465295,3
280,2024-09-16 17:23:32.432147949,0,005,-0.11537606250270695,-0.023557218663950153,0.8322994978158719,-0.09937189615987665,0.006730139550857584,0.0017696318258098428,1.1219871973305575,-0.1312307426682463,3
281,2024-09-16 17:23:32.494636963,0,005,-0.0667531414526256,-0.03475393400711122,0.8865262972418412,-0.11982564076991199,-0.02068275483434365,-0.0005767899352941609,1.07589817624106,-0.13200023462299412,3
282,2024-09-16 17:23:33.443093018,0,005,-0.01734147285153445,-0.045523646854634905,0.936649755951624,-0.13635732434842956,-0.0442391706941481,-0.0033725663780440835,1.0328936746625905,-0.1304228518297306,3
283,2024-09-16 17:23:33.510899170,0,005,0.03126414323939707,-0.05560313549737484,0.9799276577919812,-0.14905983474701978,-0.062148987522550894,-0.0067184642525866195,0.9997675204193364,-0.12796219578740994,3
284,2024-09-16 17:23:33.578668213,0,005,0.07738349495320228,-0.06471961332760028,1.0131124939473353,-0.1581739190781881,-0.0729197163989509,-0.010699524118840188,0.9827218559997245,-0.12635812542632813,3
285,2024-09-16 17:23:33.636553955,0,005,0.11935736992865036,-0.0726116443088325,1.0327316319050721,-0.16407410457972904,-0.07545133714188137,-0.015374020548369255,0.9867800333709924,-0.12745607590091687,3
286,2024-09-16 17:23:33.713770020,0,005,0.1556814306668115,-0.07905435098304074,1.0355129307590822,-0.16726182846488108,-0.0691003756644412,-0.020769031563649194,1.0152244526699905,-0.13299697392373055,3
287,2024-09-16 17:23:33.781907959,0,005,0.18514631380231603,-0.08388316731472767,1.0188629822437907,-0.16835358505754577,-0.05373051706602588,-0.026877376842622695,1.0690270847795575,-0.14438853459969245,3
288,2024-09-16 17:23:33.836466064,0,005,0.20694725538996664,-0.08700967625287591,0.981331427604475,-0.16805686988475338,-0.02974534893789906,-0.033649682264620374,1.146386159430794,-0.16251017696065873,3
289,2024-09-16 17:23:34.791465088,0,005,0.22073539936833006,-0.08842768105541329,0.9230358447610905,-0.16713145351592643,0.0019234099260057535,-0.04098286098230076,1.2426012129614923,-0.1875943891787367,3
290,2024-09-16 17:23:34.853010986,0,005,0.22662194030012067,-0.08821399865637893,0.8459907717876766,-0.1663394308228352,0.039878597128139216,-0.04871301643568063,1.3504428799712647,-0.21919561080674477,3
291,2024-09-16 17:23:34.914656006,0,005,0.22517338484242455,-0.0865289053337934,0.7542125772623003,-0.16638874106099982,0.08234712069696498,-0.05661852395515356,1.4609825910395118,-0.2562423907231181,3
292,2024-09-16 17:23:34.996464111,0,005,0.2174223058370643,-0.08361660366307054,0.6534889916824975,-0.16787449153569745,0.12728226401806242,-0.06443482354251802,1.5646841741486148,-0.29715926237173346,3
293,2024-09-16 17:23:35.064205811,0,005,0.2048774761373292,-0.07980242261597426,0.5507999433821428,-0.17122296734505507,0.17248779424166502,-0.0718813652044386,1.6525238748676,-0.3400316219543817,3
294,2024-09-16 17:23:35.131962158,0,005,0.18948429303034325,-0.07548251753407557,0.45348836956070043,-0.1766423676191175,0.21575972415206815,-0.07869622278107681,1.7169899153691277,-0.38278551858573656,3
295,2024-09-16 17:23:35.199716064,0,005,0.1734932827057685,-0.07110300854948907,0.36836244798086915,-0.1840850396166607,0.25501903672842874,-0.08466673706838908,1.7529130768751633,-0.4233669609305533,3
296,2024-09-16 17:23:36.107620117,0,005,0.1592433132685182,-0.06712828081896544,0.30092223063582274,-0.19323455380766721,0.28842449578358464,-0.08964622296386418,1.7581057513346103,-0.459917499436263,3
297,2024-09-16 17:23:36.185118896,0,005,0.14891440926218374,-0.06400176066096995,0.2548513977768459,-0.20353509204274206,0.3144852548869629,-0.09355732018097508,1.7337298888997483,-0.49093812733363507,3
298,2024-09-16 17:23:36.252864990,0,005,0.14430978763587324,-0.062105416023685196,0.2318180079157829,-0.21426322727088723,0.33218303236031554,-0.09638988738539941,1.684220029473127,-0.5154029475421738,3
299,2024-09-16 17:23:36.320642090,0,005,0.14669599696498312,-0.061724593261550234,0.23151009103768452,-0.22462038879202154,0.34106610089965955,-0.09819695724442853,1.616560531664807,-0.5327639748602625,3
300,2024-09-16 17:23:36.388364990,0,005,0.1567111492011254,-0.06302422616354862,0.2517676529235398,-0.23382127134433076,0.3412644675346111,-0.09908528894917519,1.538925721918172,-0.5428393193461933,3
301,2024-09-16 17:23:36.444148926,0,005,0.17435802972320794,-0.06604317332944384,0.2887192111570274,-0.24116246017198664,0.3334316851793218,-0.09920133114840687,1.4590985000882137,-0.5456675624719907,3
302,2024-09-16 17:23:36.521639893,0,005,0.1990847323632721,-0.0707090029367614,0.33694918750698316,-0.24606496423354052,0.3186621414158492,-0.09872083492951529,1.3832738950276693,-0.5414284749083773,3
303,2024-09-16 17:23:37.467534180,0,005,0.22991160077738249,-0.07686376165625133,0.3898128657764862,-0.24809229261735302,0.29840053765291497,-0.09784526684946424,1.3155898531969747,-0.5304530508746726,3
304,2024-09-16 17:23:37.520740967,0,005,0.26555564469626625,-0.08428708734702847,0.4400066853480913,-0.2469513994269871,0.2743203988433701,-0.09679745980855778,1.258339921900645,-0.513280336597508,3
305,2024-09-16 17:23:37.603123047,0,005,0.30454700506336596,-0.09271338177674465,0.4803818978537448,-0.24248540701016869,0.2481661098826207,-0.09580904109795238,1.2126272515936238,-0.4907174193681115,3
306,2024-09-16 17:23:37.659460938,0,005,0.34535746499920783,-0.10184913602463946,0.5048229205128197,-0.23466638383400817,0.22158970929199645,-0.09510101928265612,1.1791330288705348,-0.4638639338088567,3
307,2024-09-16 17:23:37.737081055,0,005,0.3865347809676759,-0.11139316707444384,0.5089612246036532,-0.22360185956374723,0.19601537669228378,-0.09486180352021613,1.158664218067626,-0.43405745956539704,3
308,2024-09-16 17:23:37.806461182,0,005,0.4268035530010073,-0.12105436146671547,0.49063057532142984,-0.2095693295254943,0.17254433618434575,-0.09522391237249077,1.152311296547392,-0.40272618793057074,3
309,2024-09-16 17:23:37.859271973,0,005,0.4651022183507358,-0.13056110228718218,0.4500768824773261,-0.19306496557593272,0.1519109034711472,-0.09624354793855933,1.1612596155861155,-0.37119297335147144,3
310,2024-09-16 17:23:38.810462891,0,005,0.5005617854523285,-0.13966322249498708,0.3898793705368859,-0.17482271583042677,0.13450134407397693,-0.0978913115844585,1.1863769913618283,-0.3405058506911743,3
311,2024-09-16 17:23:38.872302979,0,005,0.5324491592215629,-0.14813065476340018,0.3145506184876383,-0.15577820853342955,0.12041731366208226,-0.10005626025824967,1.2276921763981727,-0.31134187448217926,3
312,2024-09-16 17:23:38.953053955,0,005,0.5600978459774038,-0.15575085407961609,0.22995804090325386,-0.13699583078583139,0.10954215658261282,-0.1025580925573972,1.283875749358374,-0.2839724544780875,3
313,2024-09-16 17:23:39.011120117,0,005,0.5828553632768029,-0.16232654032233568,0.14276250327971876,-0.11958691986500872,0.10159068846797695,-0.10516361340895336,1.351815590014355,-0.25825299377526056,3
314,2024-09-16 17:23:39.088584961,0,005,0.6000723666947073,-0.16767676608992402,0.05991222394449766,-0.10462468656166819,0.09614844866752796,-0.10760554383432283,1.4263576994318437,-0.23362488937816134,3
315,2024-09-16 17:23:39.156337891,0,005,0.6111298262889111,-0.17164177824253282,-0.01189098506686608,-0.09304919862645261,0.09269823843968934,-0.1095993333898496,1.5003237904259326,-0.20915521191076997,3
316,2024-09-16 17:23:39.224076904,0,005,0.6154789570857345,-0.17408761696698044,-0.06680796835562318,-0.08556475585445936,0.09062401206725468,-0.11085497438869017,1.5649517945055815,-0.18364909683167943,3
317,2024-09-16 17:23:40.165703125,0,005,0.6126764733600805,-0.17490794821054162,-0.10051657565221121,-0.08254585778976324,0.08920079952262179,-0.1110869908472304,1.6107978836541168,-0.15584125172567392,3
318,2024-09-16 17:23:40.230636963,0,005,0.6024163760203295,-0.17402620123925233,-0.11076378780174853,-0.0839730677768819,0.08759874869905766,-0.11002825947908827,1.6289409790156006,-0.12463191103810078,3
319,2024-09-16 17:23:40.289016112,0,005,0.5845590313239635,-0.17140060759452053,-0.09765703237468842,-0.08941659838301771,0.08492513732902233,-0.10745018618907631,1.6122256476242676,-0.08931655904390699,3
320,2024-09-16 17:23:40.370860107,0,005,0.5591396594026432,-0.16702826253160355,-0.06362639849509936,-0.0980761849086901,0.0803070608112957,-0.10318707209422986,1.5562869451222787,-0.04976863137342299,3
321,2024-09-16 17:23:40.438596924,0,005,0.5263398712766562,-0.16094261318388814,-0.01309482908248173,-0.10886890838913607,0.07299760630462115,-0.09715888269525509,1.4601158010478388,-0.0065369616495371055,3
322,2024-09-16 17:23:40.503823975,0,005,0.48644286451630725,-0.15320573036465657,0.0480760816072386,-0.12054362933619417,0.06248309435771125,-0.08938730956340085,1.3259954826851053,0.0391823940754315,3
323,2024-09-16 17:23:40.574104980,0,005,0.4398198601649441,-0.14390325524266256,0.11327134409583316,-0.13180014925413797,0.04857626008378554,-0.08000408989271209,1.158892477924292,0.0856983380178874,3
324,2024-09-16 17:23:41.517807129,0,005,0.38697157790072445,-0.13314715779348943,0.17575699620808416,-0.14138649702914602,0.03148245117006791,-0.06925076832999373,0.9656697023729262,0.1310268901346095,3
325,2024-09-16 17:23:41.570479004,0,005,0.3286020609309359,-0.12108330628905094,0.22907165412666758,-0.14814580386504764,0.011817163462074603,-0.05746495768978683,0.7544828538919277,0.17305742083756448,3
326,2024-09-16 17:23:41.647232910,0,005,0.26568518952754827,-0.1078976592314865,0.2671559578025643,-0.15101227119243169,-0.009444524832608476,-0.04504889987968319,0.5344190991470852,0.2096640444618502,3
327,2024-09-16 17:23:41.709773926,0,005,0.19949705883572932,-0.0938179760378754,0.28438881938680344,-0.14899156768393432,-0.031076563249112208,-0.03242588597867656,0.3151815008009561,0.2387989845632467,3
328,2024-09-16 17:23:41.786864990,0,005,0.13159948721657228,-0.07911058387813713,0.2757257108190008,-0.1411678005259912,-0.05172856463852638,-0.020000261247239345,0.10661068252191476,0.2585994047861611,3
329,2024-09-16 17:23:41.856590088,0,005,0.06377132487237629,-0.06407213028297261,0.23703079766725652,-0.12676371719750842,-0.0700369255711142,-0.008135266412638786,-0.08202787788920367,0.2675169680905481,3
330,2024-09-16 17:23:41.924352051,0,005,-0.002097035394330734,-0.049017433433612916,0.16556713339886067,-0.10525291289481302,-0.0847208280880565,0.002850567536499203,-0.24292093679993157,0.26447339390892877,3
331,2024-09-16 17:23:42.831796875,0,005,-0.06412484891461952,-0.034265624578887724,0.060503663880542256,-0.07648500528282748,-0.09468442388308301,0.012679383517622813,-0.3705919206846558,0.24904093797663107,3
332,2024-09-16 17:23:42.909833984,0,005,-0.12057065214077836,-0.020125457087015353,-0.07675115870382254,-0.040770631911644255,-0.09913410118914323,0.021112635611616675,-0.4625929177806782,0.22162718278323354,3
333,2024-09-16 17:23:42.979520996,0,005,-0.1699668528716274,-0.00687910484636658,-0.24251956818181616,0.0010966271588187032,-0.09768946987980179,0.0279559609229732,-0.5198101461276807,0.18360578428236995,3
334,2024-09-16 17:23:43.032644043,0,005,-0.21123675614615475,0.005235429372660464,-0.4311251151151683,0.04787203462300828,-0.09044683448592303,0.033068933049902036,-0.5462919022051242,0.13731117093972495,3
335,2024-09-16 17:23:43.109924072,0,005,-0.24375770999728003,0.01604051622647717,-0.6353690317365183,0.0979396803272041,-0.0779626728474266,0.036374375557566736,-0.5486639752080582,0.08585193234472498,3
336,2024-09-16 17:23:43.182791016,0,005,-0.2673515660477798,0.025428935292415987,-0.8471209799954864,0.1494485526691723,-0.0611619214135115,0.03786075054147791,-0.5352498406765914,0.03277279144296757,3
337,2024-09-16 17:23:43.248315186,0,005,-0.28221805646762843,0.0333644885141366,-1.0579931052346498,0.2004994043485102,-0.04121250880450203,0.037577254052701396,-0.5149598889904736,-0.0183554141698639,3
338,2024-09-16 17:23:44.193697998,0,005,-0.28883972702792277,0.03987319007847635,-1.2600941771863003,0.24934900529234222,-0.019405238194206705,0.03562812037368186,-0.4960681159796042,-0.06432466963373934,3
339,2024-09-16 17:23:44.261511962,0,005,-0.2878741909409592,0.04502641818633666,-1.4467711127188319,0.2945820000471568,0.002955187805395603,0.03217087088679279,-0.4851610414544975,-0.10257163566355455,3
340,2024-09-16 17:23:44.317979980,0,005,-0.2800484042451122,0.04891949402593108,-1.6131329954135807,0.33520614855815534,0.02465964228239639,0.027416076931144433,-0.4865285050964068,-0.13131494228702745,3
341,2024-09-16 17:23:44.396972900,0,005,-0.2660829595429888,0.0516523869971061,-1.7562200818023654,0.37065881935081035,0.044698969625638886,0.02162286126579218,-0.5020049757567033,-0.1495896025056454,3
342,2024-09-16 17:23:44.464703125,0,005,-0.24666095778453243,0.05331719736914983,-1.8748734935067854,0.40075114607451917,0.06233412410246644,0.015087174088734794,-0.5310585431065429,-0.15724723897755835,3
343,2024-09-16 17:23:44.532451904,0,005,-0.22242548575022922,0.05399136236908029,-1.9694599791574265,0.4255843077637747,0.07710849595318736,0.008123760040761818,-0.5709780505540661,-0.15493722599430057,3
344,2024-09-16 17:23:44.600137939,0,005,-0.19398683526427377,0.05373482874121324,-2.041581092160019,0.4454561598246995,0.088814397697955,0.001042925930468498,-0.6172194869436249,-0.1440285356897971,3
345,2024-09-16 17:23:45.532676025,0,005,-0.16193922439700725,0.052592683459348616,-2.093816913886956,0.4607678167239607,0.09745173408315763,-0.005877690739366313,-0.6640693422543484,-0.12643147722008338,3
346,2024-09-16 17:23:45.609441895,0,005,-0.1268952510490456,0.05060477995536621,-2.129448697095862,0.4719371335443639,0.10319888310620133,-0.01242161690200651,-0.7056371875967564,-0.10432282487143064,3
347,2024-09-16 17:23:45.673497803,0,005,-0.08953161039159745,0.04781958209547367,-2.1520576352616736,0.47931904056508223,0.1063790386095877,-0.0184503847259812,-0.7369576844485872,-0.07984259272832206,3
348,2024-09-16 17:23:45.733423828,0,005,-0.0506150173684464,0.04430558350667002,-2.1649879106233882,0.48313799332602836,0.10740547318505514,-0.02389945184254659,-0.7548918717347266,-0.0548601423854692,3
349,2024-09-16 17:23:45.814979980,0,005,-0.010983360461042833,0.04015565423271374,-2.1707886524909186,0.4834521336993434,0.10672150829205532,-0.028757569316344236,-0.758601236581936,-0.030858545814261767,3
350,2024-09-16 17:23:45.872166992,0,005,0.028500042141741552,0.03548639127012238,-2.170753890511112,0.4801572955446907,0.10476129749675561,-0.03304286385387912,-0.7495203944018246,-0.008912747193767452,3
351,2024-09-16 17:23:45.950275879,0,005,0.06697905120707538,0.030437661340886137,-2.164638266500806,0.4730164301911655,0.10193151663139279,-0.03678385805589839,-0.7308861760912093,0.010281869697575573,3
352,2024-09-16 17:23:46.885235107,0,005,0.10361259088124453,0.02517338127687597,-2.15064968612898,0.4617070177133238,0.09858715174615827,-0.04000385421101821,-0.7069510862592258,0.026345105314265472,3
353,2024-09-16 17:23:46.960938965,0,005,0.13758099745020685,0.019879708281561284,-2.125774032517286,0.4458907722258219,0.09497788080356212,-0.04270414742542543,-0.6820670239638951,0.03911831703143429,3
354,2024-09-16 17:23:47.024198975,0,005,0.16811153531759632,0.014757257975935066,-2.0863401139010715,0.42530061630713706,0.09116834732137127,-0.0448457522154522,-0.6598702942041058,0.04857485317735779,3
355,2024-09-16 17:23:47.086230957,0,005,0.19451833251222125,0.010007692313352646,-2.0286805311041953,0.399835672796981,0.0869616424727028,-0.046335950979117344,-0.6426991885258121,0.054765521342280715,3
356,2024-09-16 17:23:47.165091064,0,005,0.21624359609477664,0.0058169420017734445,-1.9498052000458108,0.36965737659109865,0.08186857946425882,-0.04702989117042016,-0.631189640080188,0.05778437956931071,3
357,2024-09-16 17:23:47.232853027,0,005,0.2329005898673164,0.0023367094339375536,-1.848021496273193,0.33526763708627727,0.0751524515375712,-0.046751717346293936,-0.6239508563159131,0.057719150250075416,3
358,2024-09-16 17:23:47.300618896,0,005,0.24431865231385166,-0.0003331696986104516,-1.7233800215177333,0.29753617065172694,0.06593656201871902,-0.04532667307893242,-0.617331510894629,0.05457622124695985,3
359,2024-09-16 17:23:48.218916016,0,005,0.25056884315020583,-0.0021555395500090302,-1.5778138848908432,0.2576508483032164,0.05333050806395176,-0.04260944528284005,-0.605405806287986,0.04819611799923684,3
360,2024-09-16 17:23:48.286666992,0,005,0.25194851008115454,-0.003154588469234654,-1.4149539714815298,0.21699404369702271,0.03654389710971121,-0.0385005710689354,-0.580367511205993,0.038191529354376426,3
361,2024-09-16 17:23:48.347447021,0,005,0.24892948123623698,-0.0034037434020015027,-1.2397755770707373,0.17698640113838676,0.01498162494311257,-0.03295244281117598,-0.5334803742440153,0.023963031665887105,3
362,2024-09-16 17:23:48.409439941,0,005,0.2420803125473434,-0.0030076180798170463,-1.0582810082782763,0.1389547691952946,-0.011682493887166301,-0.025969740961876157,-0.45651753894159214,0.00483141845758768,3
363,2024-09-16 17:23:48.489854004,0,005,0.23196209528860107,-0.002079321972360225,-0.8772559286831478,0.10404846824018636,-0.04345940410351476,-0.01760759706056667,-0.34328190025910255,-0.01975288227595549,3
364,2024-09-16 17:23:48.548343018,0,005,0.21901573064108892,-0.0007134994678629567,-0.7039449573473908,0.07318417690800805,-0.08002219466068272,-0.007970495436366071,-0.19068488253530877,-0.050004912986091915,3
365,2024-09-16 17:23:48.625364014,0,005,0.20348855007878805,0.00103902128701948,-0.5455419262991452,0.04700202926799095,-0.12070417841151844,0.002785882011133332,0.0008382452606869721,-0.08564469855586548,3
366,2024-09-16 17:23:49.567436035,0,005,0.18543574263276924,0.003185305150318403,-0.4085844822639351,0.025842936122390626,-0.16452749914920572,0.014452252603048466,0.22742748811514737,-0.12578800101515794,3
367,2024-09-16 17:23:49.632302002,0,005,0.1647847439550581,0.005787207112355518,-0.29836055148004537,0.009749442320460567,-0.21026815729591472,0.02676821173252368,0.4821460937066224,-0.16890828179999,3
368,2024-09-16 17:23:49.702967773,0,005,0.1414248800063843,0.008942989884027742,-0.21833789659725306,-0.0015270910724842655,-0.2565433702960316,0.03943257423457127,0.7554063314244628,-0.21288953488701184,3
369,2024-09-16 17:23:49.755445068,0,005,0.1153002390274645,0.012759932913774948,-0.16971422950527748,-0.008506491772915141,-0.30189775303359995,0.052120193918068755,1.0354531193020489,-0.2551588896985188,3
370,2024-09-16 17:23:49.832637939,0,005,0.08650231455815692,0.017323543740784833,-0.15134125971557472,-0.011911110958324193,-0.34487302630132527,0.06450102642777114,1.3089504534473948,-0.292866203302353,3
371,2024-09-16 17:23:49.906251952,0,005,0.05535137222922613,0.02266815382720354,-0.16018826351174317,-0.012535098147379221,-0.38406461904085876,0.07625700433435903,1.5616754146652054,-0.323090638190985,3
372,2024-09-16 17:23:49.974004883,0,005,0.0224396177425921,0.02875482929733042,-0.19220650599733816,-0.011084859604912945,-0.41818425632294115,0.08709405003912905,1.779282598021391,-0.34307193496971367,3
373,2024-09-16 17:23:50.912095947,0,005,-0.011390584232470911,0.035463378857774785,-0.2432082067753789,-0.00804445703854554,-0.4461389942089116,0.09674809899843897,1.9480719585680832,-0.3504490246297621,3
374,2024-09-16 17:23:50.985295898,0,005,-0.04513453466368103,0.042601542842230694,-0.30940299990074227,-0.0036078761233820753,-0.46710893083801475,0.10498593136197698,2.0556986931403545,-0.34347201926036836,3
375,2024-09-16 17:23:51.053029053,0,005,-0.07774408404869707,0.04992599377566898,-0.38748912567970756,0.0023053865944040676,-0.48059812157803294,0.11160525654701989,2.091860179655176,-0.32116867028773827,3
376,2024-09-16 17:23:51.114537842,0,005,-0.10823462545995173,0.057165567274938385,-0.4743958637006968,0.00995876337906345,-0.4864569042878402,0.11644104993956171,2.0490261349983516,-0.28345474596230147,3
377,2024-09-16 17:23:51.176803955,0,005,-0.13576048789296893,0.06404156961396983,-0.5668287874073993,0.019656274936749266,-0.4848880885718197,0.11938134450789817,1.9231350706621788,-0.23116318156962035,3
378,2024-09-16 17:23:51.253148926,0,005,-0.15965660453409264,0.07028465926871619,-0.6607982748816823,0.031583270720502384,-0.4764386067135322,0.12038635285816356,1.714069526731546,-0.16597326059642512,3
379,2024-09-16 17:23:51.313875977,0,005,-0.17944712144225508,0.07564750540840924,-0.751322170795143,0.045664931911306425,-0.4619712517211337,0.11950085401944568,1.4257966815504723,-0.09026013553973536,3
380,2024-09-16 17:23:52.268132080,0,005,-0.19482841751820815,0.07991286139442798,-0.8324488742536642,0.06147736036009009,-0.44261240800664586,0.11685598488302193,1.0662247085190262,-0.006920420829381739,3
381,2024-09-16 17:23:52.335907959,0,005,-0.20564327072300312,0.08290062002423486,-0.8976572825986375,0.0782404133823475,-0.4196692045290835,0.11266253848942925,0.6469285163706656,0.08077133031866914,3
382,2024-09-16 17:23:52.390180176,0,005,-0.21185613729517125,0.08447763508674644,-0.9405563132453171,0.09490025313921226,-0.3945164794558119,0.10719780083930795,0.18282574036457755,0.16926792256969586,3
383,2024-09-16 17:23:52.471440918,0,005,-0.2135245585859428,0.0845682598450463,-0.9556743654959657,0.11027482255779081,-0.36847154172954905,0.10078724163649645,-0.30829716878976676,0.254867938363221,3
384,2024-09-16 17:23:52.539220215,0,005,-0.21076745757049584,0.08316107190309568,-0.9390969618855274,0.12321013188098104,-0.342681857434246,0.09378277705115745,-0.8065525958448443,0.33389990927233004,3
385,2024-09-16 17:23:52.606504882,0,005,-0.20375027875295915,0.08031151758506745,-0.8888302844711653,0.1327063891068885,-0.3180452031590458,0.0865397280503978,-1.2910522322081128,0.40296900201224795,3
386,2024-09-16 17:23:52.667035889,0,005,-0.1927037830629478,0.0761429753441034,-0.8049245605816512,0.13800233849877855,-0.29517541618574505,0.07939648640462038,-1.7413259224659292,0.45922769463060403,3
387,2024-09-16 17:23:53.594070801,0,005,-0.1779719013064035,0.07084681590461697,-0.6894275101243565,0.13861821642780972,-0.2744185986836307,0.07266155428053475,-2.138971844544055,0.5006290727696415,3
388,2024-09-16 17:23:53.661887939,0,005,-0.16007703664187609,0.06468079225600584,-0.5462052660758795,0.1343611751207671,-0.2559091529757444,0.06660858946184561,-2.4692158034537304,0.5261047952806588,3
389,2024-09-16 17:23:53.729621826,0,005,-0.1397904381939552,0.0579655530727872,-0.380681287451937,0.12530959914427675,-0.23963854500201343,0.06147545063646263,-2.721920870777685,0.5356095858147737,3
390,2024-09-16 17:23:53.797439941,0,005,-0.11817702396085711,0.0510775486459219,-0.19955251987967995,0.11179887619770801,-0.22550155076675668,0.05746137928568382,-2.8918476290279087,0.5300334024087595,3
391,2024-09-16 17:23:53.853229980,0,005,-0.09657771564723514,0.044435029607996425,-0.010471840791779511,0.09441271902757672,-0.2132948540444673,0.05471693154591036,-2.978378534624393,0.5110437053632529,3
392,2024-09-16 17:23:53.930931152,0,005,-0.0765267381981517,0.038475900856698046,0.1783703859215699,0.07396177307654625,-0.2026779586225072,0.05332685209311435,-2.98502765059842,0.4809128301352801,3
393,2024-09-16 17:23:54.000717041,0,005,-0.05963557006603744,0.03362889948917289,0.3587617792241213,0.05143793220982533,-0.193142972995382,0.05329499708345933,-2.9188619647158185,0.4423342963167544,3
394,2024-09-16 17:23:54.931855957,0,005,-0.04747098329061758,0.030280423832121803,0.523014145054665,0.027949997391417528,-0.1840370071685603,0.054541804230064495,-2.789784115495765,0.39820519718332636,3
395,2024-09-16 17:23:55.010248047,0,005,-0.04143148568796035,0.02874047548414341,0.66454826593231,0.004639697421992582,-0.1746370344444723,0.056915366417663746,-2.60958849877961,0.3513717493229855,3
396,2024-09-16 17:23:55.071841064,0,005,-0.042612717375075965,0.029212028693472503,0.778515525210983,-0.017428093513181163,-0.16424182820530533,0.06020834556145676,-2.3908007180819717,0.3043767024802513,3
397,2024-09-16 17:23:55.133052002,0,005,-0.051666377482922264,0.031767655433767354,0.862279789370502,-0.03738124920105035,-0.15225573806289086,0.06417403969797088,-2.1454844952487964,0.2592652686184157,3
398,2024-09-16 17:23:55.210273926,0,005,-0.06869477897562296,0.036338121877831475,0.9155655803617918,-0.05462238924962286,-0.1382662841136872,0.0685411982220183,-1.8842675323233395,0.21747884601892054,3
399,2024-09-16 17:23:55.272275879,0,005,-0.09323294047911103,0.04271867124116202,0.9402663283057395,-0.06885403502348655,-0.12212011797530874,0.07303026554705183,-1.6157814580476424,0.17983617773868255,3
400,2024-09-16 17:23:55.350145020,0,005,-0.12432600658076867,0.05059403097123237,0.9399998209070863,-0.08004845125942343,-0.10398128323857422,0.07737113160077484,-1.3466415849409799,0.14660246003551491,3
401,2024-09-16 17:23:56.282617188,0,005,-0.1606591093358197,0.05957377418096025,0.9195087331201647,-0.08837700819613001,-0.08433921165249494,0.08131760588284329,-1.0819690467365621,0.11763952901348998,3
402,2024-09-16 17:23:56.360340088,0,005,-0.20068684596808153,0.0692251228894747,0.8840798895724331,-0.09412998280854168,-0.06394918242322051,0.08465443009321738,-0.826243186575438,0.09259716125117178,3
403,2024-09-16 17:23:56.422416992,0,005,-0.24274060259813357,0.07909692364046819,0.839131475566454,-0.09765813572646495,-0.04372436554599102,0.08719930751130549,-0.5841114771433448,0.07109313572734886,3
404,2024-09-16 17:23:56.496617188,0,005,-0.28512828609349306,0.08873925524128516,0.7899490163630886,-0.09933903991167617,-0.024608672766094866,0.08880462954399415,-0.3608446400555395,0.052849776037717185,3
405,2024-09-16 17:23:56.564338867,0,005,-0.32624103230684554,0.09772544400261612,0.7415087831198481,-0.09955693354364771,-0.007442563701307544,0.0893583948835239,-0.16232589784086127,0.037765563428214355,3
406,2024-09-16 17:23:56.632059082,0,005,-0.3646527125958809,0.10567606288587526,0.698408502054661,-0.0987005950091888,0.00716489725087996,0.08878119063051239,0.0054167435986255215,0.025897569574718463,3
407,2024-09-16 17:23:56.699803955,0,005,-0.39918545872069827,0.11227797736998656,0.6648733909013899,-0.09718560697893949,0.018923025038396758,0.08702047129759158,0.1370696765320402,0.017350525483741146,3
408,2024-09-16 17:23:57.643495117,0,005,-0.4289320906854968,0.1172933015838858,0.6446938523478408,-0.09548606030487232,0.02787253451643413,0.08404730404966398,0.22907860221027052,0.01211311593696029,3
409,2024-09-16 17:23:57.711235107,0,005,-0.4532509899620542,0.12056036927636962,0.6410292477197638,-0.09415421995753188,0.034327703079247616,0.07985876053462442,0.2805402081548372,0.009910658787927129,3
410,2024-09-16 17:23:57.778989014,0,005,-0.47175437191139835,0.12199227003672351,0.6561756833146722,-0.09381616433132899,0.038779080521456996,0.07448531622519058,0.2936301903851586,0.010135432505719813,3
411,2024-09-16 17:23:57.846691895,0,005,-0.48429081241856686,0.12157421731564796,0.6913861862144667,-0.09513094234645442,0.04178300676036103,0.06800072561490911,0.27339079359763285,0.011893380803575219,3
412,2024-09-16 17:23:57.907810059,0,005,-0.4909017100437668,0.11935598249857464,0.7467124776048745,-0.09870488793891115,0.04385466700402156,0.06053053120850488,0.22687735499960612,0.014174738421522526,3
413,2024-09-16 17:23:57.969883057,0,005,-0.49174297945517004,0.11543805575557416,0.820820175938472,-0.10498037539969145,0.04538710121926083,0.05225483984645532,0.16193103064280842,0.01608946020674821,3
414,2024-09-16 17:23:58.047540039,0,005,-0.487000032311193,0.10995671168166507,0.9108198638190264,-0.11413929750818826,0.0466191081716625,0.04340171695358431,0.08606915129424163,0.01703949057474709,3
415,2024-09-16 17:23:58.968541992,0,005,-0.4768354551155791,0.10307366191351501,1.0122389509399436,-0.1260496930610857,0.04766003408995918,0.034228868219670174,0.005894346549785856,0.016728284491328745,3
416,2024-09-16 17:23:59.022589844,0,005,-0.46138193081307133,0.09497055010976257,1.1192520247759015,-0.1402607824364392,0.048558973864376125,0.024995471735378548,-0.07293222654945819,0.01503043475967093,3
417,2024-09-16 17:23:59.099731934,0,005,-0.44077129977205665,0.08584599087254098,1.2251806542365133,-0.15604047647454328,0.04938796075209488,0.01593218799464135,-0.1453917218166042,0.011825602822257303,3
418,2024-09-16 17:23:59.171834961,0,005,-0.415187201021842,0.07591382793977582,1.323154254476045,-0.1724467239988755,0.05030510724941846,0.007218575038307258,-0.20676226698306197,0.006876079951672132,3
419,2024-09-16 17:23:59.239542969,0,005,-0.3849212272418664,0.06540009967316068,1.4067856237819416,-0.18842287519023018,0.051580987732420425,-0.0010281067915283565,-0.2524162020835007,-0.00022422684244911717,3
420,2024-09-16 17:23:59.307334961,0,005,-0.35040856089857797,0.05453460519132689,1.4707558002999266,-0.20290853883513263,0.053592648553322506,-0.008753770914632636,-0.2778706878359268,-0.010012173238792029,3
421,2024-09-16 17:23:59.375085205,0,005,-0.312232317740432,0.043536611039683364,1.5112567445768221,-0.21496033226355557,0.0567950420376757,-0.01596016252113837,-0.27915790228503323,-0.023015089103267817,3
422,2024-09-16 17:24:00.319196045,0,005,-0.27110022656890503,0.03260036281423277,1.5262590188303475,-0.22387128668351952,0.06167706190509654,-0.02269119993752732,-0.2534859464502194,-0.039536613459953115,3
423,2024-09-16 17:24:00.386979980,0,005,-0.22779999821042762,0.02188601367237207,1.5155733429961893,-0.22926215557580276,0.06871127672487881,-0.029016317151545633,-0.1999806059141069,-0.05946015249732227,3
424,2024-09-16 17:24:00.454747803,0,005,-0.18314352725883407,0.01151570691366319,1.480700778508162,-0.23111390252520828,0.07830206005050476,-0.03501528175825937,-0.12019485862664497,-0.08217066742468374,3
425,2024-09-16 17:24:00.522495117,0,005,-0.1379247204022816,0.0015728404660772261,1.424528830195802,-0.2297325000957616,0.09072855308477999,-0.04076688079128867,-0.018204714679841544,-0.10661275174607908,3
426,2024-09-16 17:24:00.585378906,0,005,-0.0929174522538924,-0.007893527114142698,1.3509997731919472,-0.22566826017413677,0.10608944208774185,-0.04634021913589167,0.09968923676965655,-0.13141341906734363,3
427,2024-09-16 17:24:00.644164062,0,005,-0.04890567360484179,-0.01685712131048958,1.264858255679201,-0.21962055522883522,0.12427064904079176,-0.05178649347096073,0.2255739384820301,-0.15500614715088626,3
428,2024-09-16 17:24:00.721491211,0,005,-0.006698976341036972,-0.025300214822524304,1.1714731095419726,-0.21234281680733683,0.14494572747777984,-0.057132068152224096,0.3507427007797527,-0.175750702736797,3
429,2024-09-16 17:24:01.660114014,0,005,0.03290453802207633,-0.03320534977780079,1.0766565765197635,-0.20455829740212142,0.16759851587095462,-0.06237652729883342,0.4665502680687989,-0.19205554552045417,3
430,2024-09-16 17:24:01.735891113,0,005,0.06919909169586357,-0.04055707554545069,0.9863902324567098,-0.1969055620134931,0.19155399723142427,-0.06749781944142662,0.565166229813432,-0.20249140097378704,3
431,2024-09-16 17:24:01.798084961,0,005,0.10165740923019988,-0.047349659129484266,0.9063733567094434,-0.18991859986115048,0.2160149036180728,-0.07246314102674643,0.6401985265143019,-0.20588025932963647,3
432,2024-09-16 17:24:01.860458008,0,005,0.12999160680935992,-0.053593864463215735,0.8414001156863609,-0.18402320135717304,0.24011644989425623,-0.0772439431095385,0.6872079020616154,-0.2013583067852665,3
433,2024-09-16 17:24:01.939157959,0,005,0.1541724980814733,-0.05931820970130027,0.79472430526271,-0.17953325777742282,0.2630108265115741,-0.08183367273074985,0.7040959368049393,-0.18843018000318787,3
434,2024-09-16 17:24:02.006899902,0,005,0.1743983207804289,-0.06456279963908934,0.7676384027102992,-0.1766423311979517,0.2839678513138398,-0.08626264385328244,0.6912849348030995,-0.16702572263457344,3
435,2024-09-16 17:24:02.061300049,0,005,0.1910193326663171,-0.06936663986377188,0.7593815584148121,-0.1754036708232682,0.30245563245834794,-0.09060085439060368,0.6515983436644044,-0.13754344182966968,3
436,2024-09-16 17:24:03.018224121,0,005,0.20444551267666033,-0.07375300734876564,0.7672816557258871,-0.17569273709678945,0.318172804672418,-0.09494454928243694,0.5897953740859287,-0.10085259746875971,3
437,2024-09-16 17:24:03.078990967,0,005,0.21506964505355158,-0.07771930056051518,0.7869588366120669,-0.17716795304800445,0.33102841346167977,-0.09939192904758676,0.511794825005125,-0.05823660576529764,3
438,2024-09-16 17:24:03.144423096,0,005,0.22322042264913683,-0.0812352193292358,0.8125656790047266,-0.17926669211288512,0.34107961929776803,-0.10401700933690458,0.4237510522549242,-0.011291839722186012,3
439,2024-09-16 17:24:03.221553955,0,005,0.22913541426260292,-0.0842473042082077,0.8372274044072796,-0.18126504352807465,0.34844026504139336,-0.10884750346285997,0.33122087548472845,0.03817018541792566,3
440,2024-09-16 17:24:03.289305908,0,005,0.23294494946699892,-0.08668525256124543,0.8538397350282634,-0.18239734813983052,0.35318452776231496,-0.11385154185253335,0.2386271917568747,0.08817337535991793,3
441,2024-09-16 17:24:03.355880859,0,005,0.23469240864061935,-0.08847067113030521,0.8561743948275173,-0.1820066346869234,0.3552875441089513,-0.11894050888796465,0.14914023935912119,0.13658303339368874,3
442,2024-09-16 17:24:03.417427002,0,005,0.2344227894034361,-0.0895331054493492,0.8400292806031306,-0.17969183569005484,0.3546369778345618,-0.12399147957017657,0.06492509343740333,0.1811216453621496,3
443,2024-09-16 17:24:04.368891846,0,005,0.23230908065227832,-0.08983039270422773,0.8040868983815093,-0.1754165023426903,0.3511086793687541,-0.12888052794135418,-0.012491821100554456,0.21945731927265794,3
444,2024-09-16 17:24:04.432670166,0,005,0.2287314444448022,-0.08936027843047271,0.7502214928495897,-0.16955050920872644,0.34466481684860045,-0.13351130923939425,-0.08195360942406472,0.24937190797333095,3
445,2024-09-16 17:24:04.494206787,0,005,0.2242597138804603,-0.08815503729764816,0.6831657836673471,-0.16284240017858162,0.3354374911947491,-0.13783087635219152,-0.1425066701508419,0.26895545748879196,3
446,2024-09-16 17:24:04.571887939,0,005,0.21956540334807184,-0.08626571079410392,0.6096314259373082,-0.15633725773977417,0.3237921790416786,-0.1418367826371935,-0.19326621073207886,0.27677668908260517,3
447,2024-09-16 17:24:04.639919922,0,005,0.2153118308633334,-0.08374803611947541,0.5371495801023409,-0.1512503840132306,0.31037845348939064,-0.14558174082772787,-0.2333166392306083,0.27201569457792846,3
448,2024-09-16 17:24:04.707657959,0,005,0.21204924281980767,-0.08065480580162654,0.47300238427064556,-0.14881436919197152,0.2961551303997175,-0.1491738401932218,-0.2616708251997098,0.25455349672234817,3
449,2024-09-16 17:24:04.775425049,0,005,0.21013873251090767,-0.07703395541123706,0.4234929720783384,-0.15012992795440855,0.28236379597260214,-0.15276429054605373,-0.2772779728585297,0.22500040466973503,3
450,2024-09-16 17:24:05.694181885,0,005,0.2097351057100681,-0.07293361243859277,0.39351023916033434,-0.15603706755293287,0.27043712114376534,-0.1565195711255684,-0.27906823340153364,0.1846483041715828,3
451,2024-09-16 17:24:05.761987061,0,005,0.21082989531026924,-0.06841416892889483,0.38621222181082704,-0.16701038134875693,0.26184042351770975,-0.16058449486595736,-0.26603822980731706,0.13535043920180542,3
452,2024-09-16 17:24:05.820280029,0,005,0.21331644568148114,-0.06356053185214963,0.40277909309255666,-0.1830913906801127,0.257862116257823,-0.16504753239563677,-0.23744399777012984,0.07935606506100085,3
453,2024-09-16 17:24:05.897496826,0,005,0.2170412193902753,-0.05848609134813678,0.44233689468920045,-0.20386792420409824,0.25940422910505706,-0.16991800556503148,-0.19325347491383124,0.019155903527929116,3
454,2024-09-16 17:24:05.965239990,0,005,0.22183237257539612,-0.05332618213319314,0.5021647879367394,-0.2284994246923084,0.26683983999786165,-0.17511896816344574,-0.13488909651895362,-0.042613338719565554,3
455,2024-09-16 17:24:06.021399902,0,005,0.2275040768021095,-0.048223211507396904,0.5782099436407788,-0.25579567660618013,0.27997495928643795,-0.18049350671641426,-0.06593814316361853,-0.10322555864788828,3
456,2024-09-16 17:24:06.098993164,0,005,0.23383260770045536,-0.043305580761930404,0.6657699405195793,-0.2843492250201342,0.29810945175861386,-0.18581911523851224,0.00767797127285506,-0.15995902588555086,3
457,2024-09-16 17:24:07.031672119,0,005,0.2405202159651792,-0.03866512859611782,0.7600506641368897,-0.3126817378635606,0.32016091528641216,-0.19082447727174467,0.07834049042540617,-0.2102776590460992,3
458,2024-09-16 17:24:07.109798828,0,005,0.24718953040751032,-0.03434349863076684,0.8564099634905927,-0.33935844329087034,0.3447952726610704,-0.19520398229740019,0.13799405622131058,-0.2520736159416048,3
459,2024-09-16 17:24:07.178906982,0,005,0.2534368274438337,-0.03033624286666577,0.950402737508363,-0.36307286424812135,0.37050836095161926,-0.19862800626934435,0.17955857791507288,-0.28388396862637194,3
460,2024-09-16 17:24:07.233378906,0,005,0.2589179137773696,-0.02661094433756936,1.0378489999800382,-0.3827333930606822,0.3956411482266595,-0.20075097609835135,0.19801471088535377,-0.3049934913190063,3
461,2024-09-16 17:24:07.310787842,0,005,0.26340684371176726,-0.023125244597649017,1.1149666385974524,-0.3975544502305899,0.41836820038166617,-0.2012218498884051,0.1908852205437143,-0.31539995373964147,3
462,2024-09-16 17:24:07.372070068,0,005,0.2667927477029292,-0.019834578119443856,1.178467553106172,-0.4071152533305777,0.43672777673492635,-0.19970148890775596,0.1581112072491998,-0.31569107112473815,3
463,2024-09-16 17:24:07.448856201,0,005,0.26903201637589413,-0.016692033974642213,1.2255771972773906,-0.4113526658290835,0.4487416702889103,-0.19588923820966286,0.10156036905594334,-0.30690320976836055,3
464,2024-09-16 17:24:08.393322998,0,005,0.270098419790867,-0.013649471903244777,1.2540680865386291,-0.410496182984841,0.452618615008144,-0.18955611713011983,0.02445166474996427,-0.2904053063432566,3
465,2024-09-16 17:24:08.461136963,0,005,0.26995854185640855,-0.010664217611388523,1.2624405451495662,-0.40498965598395636,0.44697726858330256,-0.1805750169238486,-0.06916776867149226,-0.2678157693914198,3
466,2024-09-16 17:24:08.524616943,0,005,0.26857576312986703,-0.007707589266408442,1.250286799503968,-0.3954390808066101,0.4310090344110411,-0.16893709934235562,-0.17488745581405954,-0.24093103092937293,3
467,2024-09-16 17:24:08.596651123,0,005,0.2659374240899026,-0.004770148709823164,1.2187040327905556,-0.38258452799342674,0.4045466314788719,-0.15475244095539067,-0.2883680827527851,-0.21162525203601584,3
468,2024-09-16 17:24:08.664480957,0,005,0.26209124561339525,-0.00186298520646731,1.1705346511648003,-0.3672661391681155,0.3680582896713798,-0.138242020099077,-0.4057579867638476,-0.1816975135428072,3
469,2024-09-16 17:24:08.724420166,0,005,0.2571614677844095,0.0009832018713829454,1.1102582493606914,-0.35036257312309305,0.32259179616222483,-0.11972767094230653,-0.5240206323840215,-0.15269701575471764,3
470,2024-09-16 17:24:08.785548828,0,005,0.25132598588907157,0.003720616974922388,1.0434832846125315,-0.3327064556900027,0.2696673241368978,-0.09961943518020042,-0.6410428964392441,-0.12579066367308125,3
471,2024-09-16 17:24:09.741947021,0,005,0.2447776540364494,0.006288381695821701,0.9761577354664879,-0.31500411406593026,0.21111504919551405,-0.07839437449405214,-0.755465599278711,-0.10171401723918769,3
472,2024-09-16 17:24:09.809784912,0,005,0.237711887852164,0.008616934234764298,0.9137306217345686,-0.2977845690998226,0.1488790113704587,-0.056563492474202635,-0.8663186777976517,-0.08079318188518282,3
473,2024-09-16 17:24:09.866653076,0,005,0.23035114357385203,0.010631623528390708,0.8604522584233264,-0.2813808877916096,0.08483171676308872,-0.03463206667215278,-0.972667282732324,-0.06298506328712564,3
474,2024-09-16 17:24:09.947297119,0,005,0.2229734570861249,0.012256334238834909,0.8189042778202477,-0.2659368278996304,0.0206452730149835,-0.013064885827832565,-1.0734525879856256,-0.04789167222599955,3
475,2024-09-16 17:24:10.005089111,0,005,0.21590643485050717,0.013420143075221488,0.789812035367996,-0.2514325447067721,-0.0422517299807389,0.007733202595322742,-1.1674626585465988,-0.03476842665594523,3
476,2024-09-16 17:24:10.082315918,0,005,0.20948332549871815,0.014067995453120367,0.7721914012985492,-0.23772689190125695,-0.10263181034048027,0.027418445445707092,-1.2532127122080012,-0.022591990920858934,3
477,2024-09-16 17:24:10.144309082,0,005,0.20398816600024672,0.01417158401713561,0.7638596553213144,-0.22462510373458064,-0.15937394878138414,0.04569699044424716,-1.3287503124448299,-0.010200462644171158,3
478,2024-09-16 17:24:11.062790039,0,005,0.19961154436268375,0.013736515861091368,0.7622373381591816,-0.21197890163109406,-0.21136630640033394,0.0623104183192458,-1.3916470555021432,0.0035549712371051286,3
479,2024-09-16 17:24:11.135159912,0,005,0.19642125797248217,0.012806563840289642,0.765222506632936,-0.19980225430770815,-0.2574471144918137,0.07702348491940193,-1.4392746633941342,0.019685661806891006,3
480,2024-09-16 17:24:11.202913086,0,005,0.19434981822021796,0.01146705883078069,0.7718425050128157,-0.1883634429898133,-0.29639353890623893,0.08961513128746003,-1.4691897184385052,0.038946798205655914,3
481,2024-09-16 17:24:11.263040039,0,005,0.1932039177033699,0.009845104138320272,0.7824185157065308,-0.17820589440061407,-0.3269384043324786,0.09987285453964523,-1.479441650525152,0.06171052105321716,3
482,2024-09-16 17:24:11.338479980,0,005,0.19269369946504145,0.008102125865394098,0.7981581037866482,-0.17007284957328947,-0.34781174477687055,0.10759485259375273,-1.4687490002630128,0.08786429636438563,3
483,2024-09-16 17:24:11.406232178,0,005,0.19246965760059614,0.006419190295229725,0.8203890416553435,-0.16476414248898044,-0.3578478715359377,0.11260867592566698,-1.4365628702931934,0.11677674227931004,3
484,2024-09-16 17:24:11.473980957,0,005,0.19216028517758743,0.00497983485711549,0.8498001854978988,-0.16298004603414243,-0.3561794771718492,0.11480718589017429,-1.3830767992654083,0.1473455429975077,3
485,2024-09-16 17:24:12.417079834,0,005,0.19141617417779794,0.0039518165899970256,0.8859417327012407,-0.16518700448735918,-0.3424591426026486,0.11418583939309554,-1.3092632669736088,0.17812187733329848,3
486,2024-09-16 17:24:12.484884033,0,005,0.1899615147616052,0.003466039102561337,0.9270674026396547,-0.171524933238869,-0.3170157793349066,0.11086262017952267,-1.2169335528223708,0.2074886060712671,3
487,2024-09-16 17:24:12.540719971,0,005,0.18763763664633873,0.0035959301736670822,0.9702835972919487,-0.18176953368220639,-0.28090280937578227,0.10507737638427728,-1.1086806219049115,0.23384432214943374,3
488,2024-09-16 17:24:12.620416016,0,005,0.18442110158643382,0.004345834215877104,1.0118543082147304,-0.19533328937145666,-0.23584218726605902,0.0971775872297015,-0.9875868051989103,0.25574725334379705,3
489,2024-09-16 17:24:12.678073975,0,005,0.18041201568976925,0.005652758372078264,1.0475079572826136,-0.21127725928728058,-0.1840764590526105,0.0875948730240236,-0.8567955422793544,0.272009320759776,3
490,2024-09-16 17:24:12.754370117,0,005,0.17579929697293417,0.007396821645171307,1.0727536239716655,-0.22834729313514818,-0.128155412059535,0.07681502948682495,-0.7192032908565243,0.2817539864439954,3
491,2024-09-16 17:24:12.823708008,0,005,0.1708140253977206,0.009413246937102892,1.0832792412831798,-0.2450706136969469,-0.07070525085847724,0.06534644267956742,-0.5774184071904136,0.28444071889034067,3
492,2024-09-16 17:24:13.767190918,0,005,0.16568616569875083,0.011503535538760304,1.0753909298633684,-0.25990710254726057,-0.014214014629613816,0.05369024261117003,-0.4339018623321649,0.27984762067695457,3
493,2024-09-16 17:24:13.834989990,0,005,0.16061667596337723,0.013447231802795225,1.046428396027427,-0.2714163421120195,0.03915930425124157,0.04231358807800723,-0.29111802893892813,0.2680176879607778,3
494,2024-09-16 17:24:13.893718018,0,005,0.155759013172403,0.015015779900481911,0.9951941758899362,-0.2784217001412438,0.08773387491080505,0.03162924448067292,-0.15158752147479274,0.24918884999165278,3
495,2024-09-16 17:24:13.970540039,0,005,0.15119217023797404,0.015990607230779053,0.9224089696841324,-0.2801687330251203,0.1303812660681752,0.02198460970571093,-0.017795164815340575,0.22372203594395357,3
496,2024-09-16 17:24:14.038286865,0,005,0.14688017241270532,0.01618805873391822,0.8310370423196795,-0.276445211956446,0.16651918423599343,0.013658522314367405,0.10805732201408307,0.1920404634840521,3
497,2024-09-16 17:24:14.093679932,0,005,0.1426361958207692,0.015488843066263544,0.7262670087029471,-0.26760395405805376,0.19605248072888917,0.006861120462591151,0.2244008536153993,0.15460728678323712,3
498,2024-09-16 17:24:14.170413086,0,005,0.13811950015263733,0.013861717503229603,0.6150875745680812,-0.2544656358470473,0.2192836233741893,0.0017343753128525262,0.3306119329452599,0.11196151061649103,3
499,2024-09-16 17:24:15.114412109,0,005,0.13288057712956097,0.011370614335032165,0.5055957554110112,-0.238146720062193,0.23679569106884393,-0.001646182062770775,0.42707912665221504,0.06479900922158384,3
500,2024-09-16 17:24:15.177037109,0,005,0.12644552487607388,0.008163431237888753,0.40621857054432003,-0.2198810948556104,0.2493117497096687,-0.0032680779180989383,0.5148350261013265,0.014071865079902447,3
501,2024-09-16 17:24:15.239172119,0,005,0.11841883644177005,0.00444837841555332,0.3249569013824381,-0.2008791467402917,0.25754701303868194,-0.0031770654065867653,0.5947812831294756,-0.03891385683190312,3
502,2024-09-16 17:24:15.320998047,0,005,0.10858574241586529,0.00046402384049991596,0.2687238015011167,-0.18224715092240243,0.26208030211127936,-0.001470496452573289,0.6668614641738884,-0.09243999220745444,3
503,2024-09-16 17:24:15.388689941,0,005,0.09698935688267567,-0.0035513972272517035,0.24281921358908365,-0.16497019230089235,0.26327453624049413,0.0017112237373542508,0.7296637524087428,-0.1444211249869457,3
504,2024-09-16 17:24:15.456471924,0,005,0.0839528759095909,-0.007384486876571006,0.2504971189271227,-0.14992308313355193,0.2612631268403531,0.006193252982060143,0.7806816344949835,-0.19258196906291974,3
505,2024-09-16 17:24:15.515284912,0,005,0.07003751110921495,-0.01086086002243369,0.2925544146569914,-0.1378587205362754,0.25599419691406067,0.011771817792348267,0.8170258570678557,-0.23471135293982479,3
506,2024-09-16 17:24:16.443830078,0,005,0.05595557789418685,-0.013851930686700308,0.366991817103215,-0.12936093006696617,0.24731143719201526,0.018214460681306482,0.8361563806477063,-0.26888898830880514,3
507,2024-09-16 17:24:16.511153076,0,005,0.04246668366154258,-0.01627989178819098,0.4689346715047995,-0.12479218407772008,0.23505400930502474,0.02525665109028037,0.8363707113154036,-0.293628213962947,3
508,2024-09-16 17:24:16.578067139,0,005,0.030278115578572087,-0.018120408362187562,0.5909416086642242,-0.12426323547352533,0.21915878218904167,0.03260102244509678,0.8170727449554225,-0.30795455226519713,3
509,2024-09-16 17:24:16.639664795,0,005,0.019961760740039535,-0.019396352230297183,0.7236080857557843,-0.1276141745363054,0.19974193272395946,0.03992556051958226,0.7788790650843177,-0.31144835185631087,3
510,2024-09-16 17:24:16.714821045,0,005,0.011893267690352064,-0.02016015162001282,0.8562960407423463,-0.13438443206595582,0.1771431863786297,0.04689993272333054,0.7234835657848533,-0.3042403628460664,3
511,2024-09-16 17:24:16.782574951,0,005,0.006219631997337177,-0.020472852968666428,0.9779675601188395,-0.14378343163806032,0.15194117479126323,0.05320085875803379,0.6532273088008221,-0.2869399295639081,3
512,2024-09-16 17:24:16.850322021,0,005,0.0028640421176943623,-0.020390640979178216,1.0781606650329905,-0.15470214813085115,0.1249588709577841,0.05851795499744284,0.5704959998487248,-0.2605024607572638,3
513,2024-09-16 17:24:17.794212158,0,005,0.001567953550675082,-0.019961319095245948,1.1480159203595726,-0.16579289718109794,0.09725296038804662,0.06255193724711669,0.477170409037243,-0.2260735620480267,3
514,2024-09-16 17:24:17.851000000,0,005,0.0019587537793969902,-0.019226003976072315,1.1812211497286078,-0.17561868935127692,0.07006017538016467,0.06501555960897669,0.3743135384358479,-0.18485751101617506,3
515,2024-09-16 17:24:17.928826172,0,005,0.003632431076321204,-0.0182223274499972,1.1748117184841342,-0.18285293943428954,0.04468901014038578,0.06564518383646431,0.2621174098749921,-0.1380259016739623,3
516,2024-09-16 17:24:17.991311035,0,005,0.0062389294390262015,-0.016988071189845126,1.1297093912745928,-0.18648640364187424,0.022375590240906015,0.06422241385240889,0.13998648141991307,-0.08664262817629541,3
517,2024-09-16 17:24:18.065407959,0,005,0.009544053161206444,-0.015562841905836091,1.0508020428111584,-0.18598844100853024,0.004145378565270385,0.06059944696446434,0.0066666472695730205,-0.0315952193901898,3
518,2024-09-16 17:24:18.133102051,0,005,0.013444169531869797,-0.013985478037830998,0.9464496973818586,-0.18138517437588755,-0.009276862509204802,0.054721476837166876,-0.13953472815747803,0.02643336518699991,3
519,2024-09-16 17:24:18.200861816,0,005,0.017937268347439892,-0.012289862792326366,0.8274463848004493,-0.1732373930316639,-0.01749937503388359,0.04664283696859384,-0.3003328809798338,0.0869074386937271,3
520,2024-09-16 17:24:19.135427979,0,005,0.02307115602505398,-0.010504656997683902,0.7056079131339914,-0.16252538923227,-0.02046188020381809,0.03653607307473476,-0.4768259917176839,0.1492856070800467,3
521,2024-09-16 17:24:19.211595947,0,005,0.02888425490817391,-0.008657909668071935,0.5922881431844331,-0.15047613594469686,-0.018419363598274393,0.024692692859262396,-0.6687529817960963,0.21281611696672512,3
522,2024-09-16 17:24:19.279406006,0,005,0.03535411454130251,-0.006782164804396013,0.4971069593853378,-0.1383719809844442,-0.011911228799948026,0.011514291431607593,-0.8738532768254049,0.2763579420397919,3
523,2024-09-16 17:24:19.335817139,0,005,0.04237429938642402,-0.004916858724179738,0.42701198244850325,-0.12735969373331618,-0.001716114918493105,-0.00250592984440583,-1.0874846730235803,0.33829522769510767,3
524,2024-09-16 17:24:19.414927002,0,005,0.04976451510052785,-0.0031086595165033745,0.3856967450416961,-0.11827120556411594,0.011203796657849319,-0.01681162668031097,-1.302574027152521,0.39657348090031247,3
525,2024-09-16 17:24:19.474102051,0,005,0.0572934880677,-0.0014105548112568456,0.37341434309335503,-0.1114870303165033,0.025776590026078728,-0.03082286950742289,-1.5099514117278583,0.44884292183005153,3
526,2024-09-16 17:24:19.536094971,0,005,0.06469437410731461,0.00012122417447809239,0.38724410648087887,-0.10688836903119896,0.04092429963534879,-0.043984510700901445,-1.6991059477056816,0.49267605436710105,3
527,2024-09-16 17:24:20.494625977,0,005,0.07167244889845478,0.0014327112647057228,0.4218079880625623,-0.10391990653548963,0.05569061762750184,-0.05581597236566481,-1.859347935536561,0.5258348886729945,3
528,2024-09-16 17:24:20.549771973,0,005,0.07791228961335588,0.0024790140769980905,0.4703226920343982,-0.10174034017781072,0.0693672274783283,-0.06595344915978044,-1.9812297367353444,0.546554721254759,3
529,2024-09-16 17:24:20.630215820,0,005,0.08308120635473094,0.003232071919781594,0.5257799660359218,-0.09941303678551663,0.08158588478905908,-0.07417651892345548,-2.0578363604415926,0.5537777424792587,3
530,2024-09-16 17:24:20.697943848,0,005,0.08682162080346441,0.0036896759893832575,0.5820140397904292,-0.0960930283846211,0.09235405673827896,-0.08041528562219886,-2.0854317208650173,0.5472684225776804,3
531,2024-09-16 17:24:20.764395020,0,005,0.08873835495830253,0.003883915187138026,0.6344925524641475,-0.09118392959906986,0.10203542244131483,-0.08474126510587994,-2.0632528975874207,0.5275956306833588,3
532,2024-09-16 17:24:20.825464111,0,005,0.08839607466424494,0.0038855766649721086,0.680798602853953,-0.08445151891483983,0.11128014562319265,-0.08734604967581294,-1.9927527653051453,0.49602171086414837,3
533,2024-09-16 17:24:20.901232910,0,005,0.08533010710860581,0.0038036931020746967,0.7207878235233084,-0.07607933137336312,0.1208978202764441,-0.08850654798655745,-1.8767560712634257,0.45434928534454916,3
534,2024-09-16 17:24:21.815538818,0,005,0.07906249544534333,0.0037818663488848174,0.7563573262926309,-0.06665008037927968,0.13168612324636111,-0.08853845405723991,-1.718794077417985,0.4047537169002598,3
535,2024-09-16 17:24:21.886744873,0,005,0.06912912202343599,0.003989986874312238,0.7908340285020393,-0.057050297601420705,0.14426816678251922,-0.08775053797493115,-1.5226971153248852,0.34961263778885665,3
536,2024-09-16 17:24:21.939136963,0,005,0.055133749570362114,0.004607702788536302,0.8280734992783926,-0.048308448939318877,0.15899073401282265,-0.08641445999723439,-1.2924952401954513,0.29135334533475454,3
537,2024-09-16 17:24:22.022264893,0,005,0.03682167267766664,0.005800746320156911,0.8713692358478712,-0.04138561813955042,0.1758907519024144,-0.0847520438603322,-1.0326614681794157,0.23234740204187868,3
538,2024-09-16 17:24:22.090060059,0,005,0.014145200368393987,0.007696791295833876,0.9224147661790486,-0.03697196699563763,0.194699367766183,-0.08292911160836744,-0.7485983406428016,0.17485450717469664,3
539,2024-09-16 17:24:22.155085938,0,005,-0.012694791472167498,0.010367219643057885,0.9807376935823181,-0.035375107137941765,0.21485940869543826,-0.08104755822922098,-0.4471270668235968,0.12098397670805378,3
540,2024-09-16 17:24:22.225560059,0,005,-0.04322752069022823,0.013816916817051578,1.0438249851626809,-0.03654531575406649,0.2355688057335712,-0.07913959274508604,-0.13675901678590294,0.07264044256770667,3
541,2024-09-16 17:24:23.168401123,0,005,-0.07670015762607324,0.017979499117754382,1.107731483960047,-0.040194337221319945,0.2558711151643985,-0.07717172839841957,0.17237906565105857,0.0314275082402962,3
542,2024-09-16 17:24:23.236144043,0,005,-0.11206877112223579,0.02271384187288915,1.167830701853607,-0.04593199740759047,0.2747751655441409,-0.07505873020119658,0.4690734279223097,-0.0015080547693307467,3
543,2024-09-16 17:24:23.303919922,0,005,-0.148009456594833,0.027803381212901383,1.2195421916256282,-0.05338143858784896,0.2913599059698951,-0.07268276858189895,0.7420596448028827,-0.025674856502648783,3
544,2024-09-16 17:24:23.371650879,0,005,-0.18298615560901427,0.0329665658056466,1.259020400116251,-0.06227160327581617,0.3048469026318498,-0.06991445049155642,0.9813772767730532,-0.04141400265388687,3
545,2024-09-16 17:24:23.439400879,0,005,-0.21538586936902346,0.0378836317315288,1.2837993885782508,-0.07251309307178144,0.3146552726007341,-0.06663360825987867,1.1795592001298925,-0.0499570769962032,3
546,2024-09-16 17:24:23.498400879,0,005,-0.24368385813958093,0.0422342524741576,1.293315595782983,-0.0842538458535017,0.32044399306648036,-0.0627471392585958,1.3321909594149572,-0.05328191347862986,3
547,2024-09-16 17:24:23.574905029,0,005,-0.26659318354615247,0.04573526914708792,1.2891602871624546,-0.09789679830628516,0.3221179091501137,-0.05820068202352915,1.437762849290161,-0.05377965518138653,3
548,2024-09-16 17:24:24.517458984,0,005,-0.28318003191608626,0.04817042601731964,1.274953923338945,-0.11406044088580852,0.31977872200657986,-0.05298178424529664,1.4971289086233324,-0.053863874756591365,3
549,2024-09-16 17:24:24.585197021,0,005,-0.2929376886889937,0.0494078060720734,1.2559034652074936,-0.13348883893507235,0.3136430870560048,-0.04711624009924566,1.512988109043087,-0.055663623163626344,3
550,2024-09-16 17:24:24.652964111,0,005,-0.29580521878487903,0.04940267054305033,1.2382061919839003,-0.15694161610449217,0.303975349956109,-0.040663462044378734,1.4896189427526099,-0.06084516944711072,3
551,2024-09-16 17:24:24.711471924,0,005,-0.29212406781800854,0.04818700817159332,1.228345513073431,-0.18508007444834315,0.2910626118809203,-0.03371543377739211,1.4327772625214084,-0.07052029265388164,3
552,2024-09-16 17:24:24.788508789,0,005,-0.2825482439750928,0.04585210144944893,1.232202551629954,-0.21833853200144002,0.27522321478288214,-0.026398192494104845,1.349473026808741,-0.08518560630899812,3
553,2024-09-16 17:24:24.856254150,0,005,-0.2679430079051196,0.04253268640090333,1.2540606669167067,-0.25678156724453716,0.25682297608541277,-0.018871225541730496,1.2474753732694357,-0.1046847130797842,3
554,2024-09-16 17:24:24.911863037,0,005,-0.24930789432170153,0.03839853950516189,1.2958405340969827,-0.2999887410921761,0.23627991342688412,-0.011321904950701718,1.1346476137532864,-0.12823983521255003,3
555,2024-09-16 17:24:25.867229004,0,005,-0.2277367113570578,0.033653054985018686,1.3568906535137717,-0.34702227320425055,0.21405303771402007,-0.003956018608133084,1.01827310940601,-0.15458524677900953,3
556,2024-09-16 17:24:25.936227051,0,005,-0.20440150601348883,0.028533873342781783,1.4343489151062123,-0.39649619528782737,0.190623092557353,0.003013812838376928,0.9044642408557152,-0.18215931288334533,3
557,2024-09-16 17:24:26.004034912,0,005,-0.18053606569282613,0.023310057018122148,1.5238158047636787,-0.4467111307255399,0.16647797010244494,0.009381799883877676,0.7977399894519466,-0.2092755777190881,3
558,2024-09-16 17:24:26.063020996,0,005,-0.15739144255969106,0.018271097355266375,1.6200509353985504,-0.49579831763040255,0.14211623903279721,0.01496350351656929,0.7008925066852877,-0.23423797151541548,3
559,2024-09-16 17:24:26.125076172,0,005,-0.1361521847131725,0.013706140157557193,1.7175347811392412,-0.5418436679591269,0.118076195679892,0.019607391900873412,0.6151786371226213,-0.2554220042042948,3
560,2024-09-16 17:24:26.201827148,0,005,-0.11783990858067156,0.009878270525418266,1.8108761540839386,-0.5829996222610216,0.09496998798941578,0.023202660395098072,0.5406404135130893,-0.27134973667959805,3
561,2024-09-16 17:24:26.275114014,0,005,-0.10324697088784766,0.00700255612240196,1.8951239866403635,-0.6175994969170111,0.07347853470359884,0.02568768662148164,0.4762929420635805,-0.28077451338674625,3
562,2024-09-16 17:24:27.189232178,0,005,-0.09291241668816035,0.005232335093882275,1.9660340551591395,-0.6442685410958837,0.05429191921865639,0.027060314835648018,0.4201829081692652,-0.2827877198169403,3
563,2024-09-16 17:24:27.261837891,0,005,-0.08711760970447288,0.00465028539685462,2.0202650341138253,-0.662008708601993,0.03803193194055721,0.02738292811948897,0.3694823795338185,-0.2769203977191469,3
564,2024-09-16 17:24:27.329585938,0,005,-0.08588339960390667,0.005258957659848021,2.0554326643113168,-0.6702432111445604,0.02520125489243221,0.02677483966756282,0.3206296923322287,-0.26317149868095296,3
565,2024-09-16 17:24:27.389180908,0,005,-0.08897610961052362,0.006971865233158467,2.070029164598236,-0.6688326527861326,0.01617133179246636,0.02539297298043254,0.26946809708704356,-0.24193320132464324,3
566,2024-09-16 17:24:27.465106934,0,005,-0.09593297038261585,0.00961171818575022,2.063350700815609,-0.6580867510222124,0.011194913459579972,0.023408028477803336,0.21147671396483714,-0.21386047529807717,3
567,2024-09-16 17:24:27.532897949,0,005,-0.10609614648621214,0.01291945283436222,2.0355986312610304,-0.6387854862239041,0.010426687963009152,0.0209821517305338,0.14227020812937907,-0.17977306420023917,3
568,2024-09-16 17:24:27.588365967,0,005,-0.11863793442876368,0.016571743595357437,1.9881639600168348,-0.6122040577342605,0.013940593870378541,0.01825147153941464,0.058463943875154814,-0.14066229054702256,3
569,2024-09-16 17:24:28.532834961,0,005,-0.1325841991706564,0.020204212072503957,1.9238915094839149,-0.5801145647173946,0.021729688178654772,0.01531709173927433,-0.04128647682283623,-0.09778381851972832,3
570,2024-09-16 17:24:28.609551025,0,005,-0.14685669663678552,0.023439722138241584,1.847075065778397,-0.544727780885609,0.0336764382134995,0.012246938375817302,-0.15559114495076137,-0.0527174954227644,3
571,2024-09-16 17:24:28.679041992,0,005,-0.16033287695594953,0.025919744150610394,1.7631324473088203,-0.5085605272067965,0.04950672419776583,0.009084935641292617,-0.280384029870031,-0.007300023944487888,3
572,2024-09-16 17:24:28.732799072,0,005,-0.17190544629210222,0.027334801133600366,1.6781184555842115,-0.4742483168315452,0.06876059330710874,0.005860204178170159,-0.40961673195364323,0.03653942800954129,3
573,2024-09-16 17:24:28.814483887,0,005,-0.18053723804543248,0.02745100382400749,1.598244397862997,-0.4443326667163983,0.09078849320180692,0.0025944910157204596,-0.5361889260785117,0.07695370947400654,3
574,2024-09-16 17:24:28.882260986,0,005,-0.18531575697747207,0.026129812652748073,1.5294789456721645,-0.42104725664026427,0.11474706734972646,-0.0006867634324563422,-0.6528944361074032,0.1123326765842875,3
575,2024-09-16 17:24:28.950011963,0,005,-0.18550421712766338,0.023336655247727454,1.4772282132180194,-0.40612984047563905,0.13957788595972612,-0.0039368489503293575,-0.7533745935003506,0.14146217944700437,3
576,2024-09-16 17:24:29.893393066,0,005,-0.18058743663277513,0.019135830266358997,1.4460394645663712,-0.40068667014090964,0.16398954543768937,-0.007069102309961077,-0.8330357170119997,0.16368511272448374,3
577,2024-09-16 17:24:29.961126953,0,005,-0.17031759991767195,0.013673441872755772,1.4392738144075685,-0.40512227317936,0.18648146112632313,-0.009945294554493181,-0.8897506037652263,0.17901537014922908,3
578,2024-09-16 17:24:30.028871094,0,005,-0.15475926999066,0.007153136569049608,1.4587617498460899,-0.4191337584391743,0.20543432555222002,-0.012375122562598062,-0.9241576423113339,0.18815679759037748,3
579,2024-09-16 17:24:30.096575928,0,005,-0.13432388098004652,-0.00018793984320597992,1.5045430066687349,-0.44176513158241526,0.2192593977953972,-0.014126554628830133,-0.9395274881581528,0.192423022960062,3
580,2024-09-16 17:24:30.157785889,0,005,-0.10977545928316013,-0.008095681607264153,1.5748096368062865,-0.471510711536558,0.22657036689717086,-0.014946071513817034,-0.9413048665064758,0.1935869915879455,3
581,2024-09-16 17:24:30.219392090,0,005,-0.08218633899823907,-0.016307322037337174,1.6660373207359434,-0.5064387118961504,0.22633897800166292,-0.014586955889480658,-0.9364177813933451,0.1936888903140603,3
582,2024-09-16 17:24:30.296091064,0,005,-0.05283996193988106,-0.024557487183471595,1.7731301663946972,-0.5442976138341592,0.21800562894290565,-0.012839501674183367,-0.9323824500926855,0.1948219773708151,3
583,2024-09-16 17:24:31.231060059,0,005,-0.023101282539583216,-0.03258792666470323,1.8894648410300106,-0.5825967988148693,0.20152574786933852,-0.00955528303183177,-0.9362766468151384,0.19891422288562205,3
584,2024-09-16 17:24:31.298624023,0,005,0.005722446253171646,-0.040162506229217465,2.0069384647467623,-0.6186963256434259,0.1773575622629981,-0.004663914173228422,-0.953774314341907,0.207526422908883,3
585,2024-09-16 17:24:31.366390869,0,005,0.03251508068382052,-0.047085240118720235,2.116188210786717,-0.649938979190931,0.1464184286382664,0.0018137096528987177,-0.9884592294571486,0.22168720062148892,3
586,2024-09-16 17:24:31.426146973,0,005,0.056459624290674686,-0.053216484841587676,2.207044227999872,-0.6738159729810801,0.1100151727957608,0.009757074059506304,-1.0415195056313646,0.2417803904033853,3
587,2024-09-16 17:24:31.501856934,0,005,0.07709255453570865,-0.05848079849958087,2.2692230243361715,-0.6881400741192941,0.06972287769836344,0.018951621880999532,-1.1118228610382832,0.2675010887592569,3
588,2024-09-16 17:24:31.569646973,0,005,0.09429049699473474,-0.0628625585235996,2.2932131137459355,-0.6912065454102573,0.02720994834142052,0.02911234589322891,-1.1963471364753382,0.29789564688602527,3
589,2024-09-16 17:24:31.637391113,0,005,0.10821163554950948,-0.06639240738639081,2.2711488385245557,-0.6819118272688743,-0.015941632091254307,0.03991687203322154,-1.2908688817481264,0.33148219470884877,3
590,2024-09-16 17:24:32.568456055,0,005,0.11922626149785027,-0.06913108454508328,2.197427686846634,-0.6597936515191271,-0.05836448083301236,0.05103552368412766,-1.3907259679087018,0.36643815090180104,3
