,time,MARKER,pid,L_O_DSI,L_D_DSI,L_O_DSphi,L_D_DSphi,R_O_DSI,R_D_DSI,R_O_DSphi,R_D_DSphi,trial_id
0,2024-09-16 20:54:28.169116943,TASK_BEGIN,006,-0.30454121996311545,-0.16607198309885718,-0.08451671831238915,-0.6501657253688988,-0.01842624916220882,-0.008656806343029386,-0.19334721989494694,1.2555647300492598,2
1,2024-09-16 20:54:28.236916992,0,006,-0.2852847250614921,-0.1696798125906673,-0.11497588798008954,-0.6198481693541245,0.029431876175445626,-0.014155414614813228,-0.37007952788220005,1.2626114776786643,2
2,2024-09-16 20:54:28.304626953,0,006,-0.2595386513755123,-0.17286132529962864,-0.14804241799208515,-0.587601792744508,0.07814767745467857,-0.019999211372437608,-0.5495998063031848,1.263007775914916,2
3,2024-09-16 20:54:28.372347900,0,006,-0.22852310361496667,-0.17551783682335775,-0.18438958423501126,-0.553540011211864,0.1262614796775847,-0.026010537219808637,-0.729685187053979,1.2572564034725977,2
4,2024-09-16 20:54:28.440062988,0,006,-0.1936130640913853,-0.17757799726391868,-0.22433943519010105,-0.5178288721622775,0.17225649789332498,-0.03201244501897294,-0.908127246205881,1.2461896047015675,2
5,2024-09-16 20:54:28.507791992,0,006,-0.15631068992727026,-0.1789826850419372,-0.26781724289786135,-0.4806954312823751,0.2146099143484004,-0.03782647922767901,-1.0827169755229862,1.2308369725822328,2
6,2024-09-16 20:54:28.575493896,0,006,-0.11820985928987167,-0.17966889708060996,-0.3141441144099435,-0.44248926441234127,0.25183467618718186,-0.04327568335656463,-1.2512964793341628,1.2123029867740744,2
7,2024-09-16 20:54:29.515916992,0,006,-0.08093906302075611,-0.17956608997261692,-0.3617896850646361,-0.40376283975572286,0.2825297403614732,-0.04819344266571668,-1.411776909084117,1.1916484274042283,2
8,2024-09-16 20:54:29.578689209,0,006,-0.046090097441350404,-0.178609101772656,-0.4082094556866218,-0.365350526917409,0.30545690637523615,-0.0524376863344487,-1.562029060693502,1.169764871903582,2
9,2024-09-16 20:54:29.654820068,0,006,-0.01514084601910678,-0.17676120679504778,-0.44981582480556553,-0.3284485117994769,0.3196520292844343,-0.0559099772065218,-1.699726014474077,1.1472632774388811,2
10,2024-09-16 20:54:29.718668945,0,006,0.010635623125657264,-0.17403774188893098,-0.4821399812934068,-0.2946723508311524,0.324556566956827,-0.058576100610544725,-1.8222769232986638,1.1244207395105876,2
11,2024-09-16 20:54:29.790287109,0,006,0.030283774544020214,-0.17052338494916514,-0.5002117051459519,-0.2660372345337365,0.32013209692609146,-0.060481690899241276,-1.926944424411679,1.1012162950442892,2
12,2024-09-16 20:54:29.842974854,0,006,0.043282657741071706,-0.16637865145324746,-0.49909336030569107,-0.2448208686025168,0.3069112820605769,-0.06175613568383964,-2.0111358138068427,1.0774335996299556,2
13,2024-09-16 20:54:29.921081055,0,006,0.04962722514658674,-0.16183346364820264,-0.4745236516667685,-0.23330495083374767,0.28595885867112414,-0.06260064020607815,-2.0727035891457057,1.0527633338502576,2
14,2024-09-16 20:54:30.869297119,0,006,0.0498394507419149,-0.15716954189641957,-0.4236677872788385,-0.23342554983007738,0.258758243923712,-0.06326222429828689,-2.1101081586138823,1.026871876932622,2
15,2024-09-16 20:54:30.929179932,0,006,0.04489915790032684,-0.15269645647217803,-0.34585820190236877,-0.24640956128391675,0.22706709597399824,-0.06400104695751291,-2.122508475144522,0.999470607542564,2
16,2024-09-16 20:54:31.004914062,0,006,0.03610824905543782,-0.1487252799854648,-0.2430974753160616,-0.2725047292273506,0.19278104545940394,-0.0650600955605126,-2.109896747923673,0.9704121314984937,2
17,2024-09-16 20:54:31.067059082,0,006,0.024916196409665612,-0.14553992447330308,-0.1201628539839124,-0.31087711821670866,0.1578209611629324,-0.0666443396269962,-2.0732064889823056,0.9397699239553962,2
18,2024-09-16 20:54:31.128669922,0,006,0.01274025410274869,-0.14336595538350225,0.015706085360097866,-0.35968084471170003,0.12403141693478313,-0.0689103393190785,-2.0142229341193394,0.9078331480834496,2
19,2024-09-16 20:54:31.208175049,0,006,0.0008144188435673774,-0.14234185188121137,0.15545718723845325,-0.41625731753471307,0.09306906867158529,-0.07196036829248689,-1.935266991933631,0.8750054993548196,2
20,2024-09-16 20:54:31.267863037,0,006,-0.009908413690658693,-0.14249964730573395,0.2890628550661327,-0.47740046868371805,0.06628027145163369,-0.07583569749457089,-1.8388239106151696,0.8416721450718025,2
21,2024-09-16 20:54:32.194484863,0,006,-0.01879516118164156,-0.14375818236497526,0.40637781573222803,-0.5396235305892758,0.04459473637767189,-0.08051078179696687,-1.7273226486435436,0.8081152390753923,2
22,2024-09-16 20:54:32.262289062,0,006,-0.02552058736152071,-0.14593045801421758,0.4979469801837983,-0.5993943242823506,0.028469914413515922,-0.08589418946342929,-1.6031218342214135,0.7745055910284037,2
23,2024-09-16 20:54:32.330072021,0,006,-0.030022601984634495,-0.14874563604247995,0.5558010621926256,-0.6533501172034695,0.017908796959452754,-0.09184000230275753,-1.4686186426328076,0.7409403532664973,2
24,2024-09-16 20:54:32.397779053,0,006,-0.032445534723367336,-0.1518814383785398,0.5742090487118453,-0.6985093738458972,0.01255047506869143,-0.09816792643904973,-1.3264236027975613,0.7074939105653442,2
25,2024-09-16 20:54:32.460131836,0,006,-0.033077572312214566,-0.15499993529539113,0.5502048235546733,-0.7324679679625123,0.011798784050581303,-0.10468378239155786,-1.1795861863078951,0.6742724702186244,2
26,2024-09-16 20:54:32.533318115,0,006,-0.03227631720483069,-0.15778172945353536,0.48374176539027763,-0.753550502720966,0.014935311385891865,-0.1111909898689224,-1.0317640614784065,0.6414596244743804,2
27,2024-09-16 20:54:32.599117920,0,006,-0.03039265493098126,-0.15995459256394345,0.37749691760133314,-0.7608935971988019,0.021192176622159723,-0.11749348161147234,-0.8871718419855867,0.6093277696469105,2
28,2024-09-16 20:54:33.532445068,0,006,-0.027724570081503266,-0.16131254577820123,0.2364406786954453,-0.7544532346709784,0.029800828661793573,-0.12340002711330005,-0.7502470736334144,0.5781996494446862,2
29,2024-09-16 20:54:33.610061035,0,006,-0.02452201101812412,-0.16172393717824735,0.06733815664390139,-0.7349565415355084,0.040029202587410634,-0.12873581800439401,-0.6251382753617775,0.548373523924103,2
30,2024-09-16 20:54:33.677968018,0,006,-0.021029446449523852,-0.16113099954283627,-0.1216538856067872,-0.703836209016322,0.05119619395443606,-0.13335689343021342,-0.515242167917802,0.5200569963697277,2
31,2024-09-16 20:54:33.746093994,0,006,-0.0175329786504595,-0.15954478712501893,-0.32128283835811555,-0.6631570735449923,0.06265931791980742,-0.1371609869656461,-0.4229750474977021,0.493353634781113,2
32,2024-09-16 20:54:33.811414062,0,006,-0.014386468529856663,-0.1570376315187154,-0.5215041074557638,-0.6155078654229138,0.07379412572369409,-0.1400929389327425,-0.34976077952479645,0.4683023922554406,2
33,2024-09-16 20:54:33.881527832,0,006,-0.012003747518126183,-0.1537336280735801,-0.711805709261308,-0.5638477810378275,0.08398622464891,-0.142144619294673,-0.29607777370872695,0.44492515779222197,2
34,2024-09-16 20:54:33.949229004,0,006,-0.010816607425708924,-0.1497971039168776,-0.8814569563541921,-0.5113341472572748,0.09264268202365734,-0.14334768309408444,-0.2614458461570975,0.4232361762373537,2
35,2024-09-16 20:54:34.893048096,0,006,-0.011219763312693216,-0.14541788891663918,-1.0197288638885205,-0.46114876036260594,0.09922032641081999,-0.14375743574501923,-0.2443499881992279,0.4032084562563948,2
36,2024-09-16 20:54:34.960827148,0,006,-0.013531995034339191,-0.14079246159139347,-1.1163018021367472,-0.41631144933760766,0.10326786848138456,-0.1434301683006245,-0.2422126173637763,0.38473634138546,2
37,2024-09-16 20:54:35.017136963,0,006,-0.01798257623348661,-0.13610285260798777,-1.1619665056587012,-0.37947825728100637,0.10448085218386252,-0.14240220737844855,-0.2515681364376932,0.36763359244705845,2
38,2024-09-16 20:54:35.094276855,0,006,-0.024710187914577263,-0.1314975615652583,-1.1495035513580982,-0.3527504397427889,0.1027637555305632,-0.14068109671982448,-0.2684511061656918,0.3516647299816855,2
39,2024-09-16 20:54:35.164108154,0,006,-0.033755871191537015,-0.12707899991704313,-1.0745626461962114,-0.3375235477743153,0.09827805523452297,-0.13825388903682875,-0.2888261819354491,0.33658368659719207,2
40,2024-09-16 20:54:35.231908203,0,006,-0.0450346647964981,-0.12290034500904305,-0.936394392527827,-0.33438792283457586,0.09144456570868291,-0.13510664035688116,-0.30896203353003954,0.3221766059465106,2
41,2024-09-16 20:54:35.296654053,0,006,-0.05828209192644402,-0.11897176141462859,-0.7382864876489594,-0.3430765601202412,0.08288445661663016,-0.1312426446532264,-0.325833644651095,0.30831820686093214,2
42,2024-09-16 20:54:36.242979004,0,006,-0.07299887110598562,-0.11527293632828885,-0.48757297812226,-0.3624553469571977,0.07332208002374742,-0.12669223587530729,-0.33755592137886,0.2950189332498892,2
43,2024-09-16 20:54:36.297159912,0,006,-0.08843732544047127,-0.11176776959499787,-0.19516552899984055,-0.3905699662125417,0.06349629406897501,-0.12151696756016662,-0.3436483122725066,0.2824256433977634,2
44,2024-09-16 20:54:36.374852783,0,006,-0.10365101165135313,-0.10841883736790901,0.12533326205347298,-0.4247791345564255,0.05411283431724323,-0.1158140017487161,-0.3449856887193665,0.27078087715799876,2
45,2024-09-16 20:54:36.446281982,0,006,-0.1175889588419336,-0.10519997714991702,0.45876889989414477,-0.4619803909938234,0.04583940310392761,-0.10972152403879099,-0.3435180379844004,0.2603794069436897,2
46,2024-09-16 20:54:36.514032959,0,006,-0.12920933151641326,-0.10210261528338713,0.7896167209412329,-0.49889587017740966,0.03931887713808036,-0.10341960186955851,-0.34190384719347,0.2515376894848537,2
47,2024-09-16 20:54:36.581772949,0,006,-0.13760473831975062,-0.0991314390926644,1.103041418905695,-0.5323749904602664,0.03517070658370246,-0.09712120742597251,-0.34311028537687166,0.24456512259516827,2
48,2024-09-16 20:54:36.649075928,0,006,-0.14212960962696713,-0.09629140171994993,1.3857390982062463,-0.5596740164400651,0.03397328389447676,-0.09105571216441863,-0.34998116872333423,0.23973339724369092,2
49,2024-09-16 20:54:37.580239014,0,006,-0.14250214696932892,-0.09357428405561312,1.6265236891533803,-0.5786703844351935,0.03623516063813141,-0.0854511665833565,-0.3647653535841633,0.23724309399756469,2
50,2024-09-16 20:54:37.661432861,0,006,-0.1388554526409624,-0.09095253014966237,1.8166962450114206,-0.587983708219596,0.04235471605460411,-0.08051807128947751,-0.38863448975725284,0.23718292416535092,2
51,2024-09-16 20:54:37.729201172,0,006,-0.13173518879977136,-0.08838230753184755,1.9502813649086863,-0.5870057209415668,0.052576903067589886,-0.07643577479344711,-0.42133005495060105,0.23949741331815616,2
52,2024-09-16 20:54:37.796228027,0,006,-0.12205115842782227,-0.08581271870554058,2.0241522519872372,-0.5758625249484062,0.06697744270742208,-0.07334584233778903,-0.4611240205402476,0.24398885419730024,2
53,2024-09-16 20:54:37.864698975,0,006,-0.1109840004697988,-0.08319727474563923,2.038005085215918,-0.5553355192138446,0.08548821754505795,-0.07135615753779527,-0.505153412211861,0.2503495512524283,2
54,2024-09-16 20:54:37.918812988,0,006,-0.09985506770296178,-0.08050421445860657,1.9941895979560758,-0.5267560562167045,0.10794094280622514,-0.07055308857080762,-0.5500102502849431,0.2581980347969615,2
55,2024-09-16 20:54:38.000217041,0,006,-0.08998490822281106,-0.07772144733658763,1.8974150962245198,-0.4918722793355592,0.13409934627470485,-0.07101413666572953,-0.5923802271444626,0.26710523300007943,2
56,2024-09-16 20:54:38.918903076,0,006,-0.08256132511109264,-0.07485418930595732,1.754273187957665,-0.45268005611530904,0.16366210509502788,-0.0728143609398707,-0.6295461415705804,0.27660746332091724,2
57,2024-09-16 20:54:38.975223145,0,006,-0.07852439627898344,-0.07191935256355221,1.5725465833682435,-0.4112214240829406,0.19623149906133197,-0.07602376311013874,-0.6596338056947187,0.28620370040569826,2
58,2024-09-16 20:54:39.051904053,0,006,-0.07848663091871648,-0.06894265123115723,1.36042458550113,-0.3693726413164318,0.23126499202713005,-0.0806961709273268,-0.6815592202284524,0.29534836901238054,2
59,2024-09-16 20:54:39.122159912,0,006,-0.08271131564353085,-0.06596015782738222,1.1258197398206953,-0.3286587812907155,0.2680463039958,-0.08685286891589221,-0.694772589194444,0.3034633177156458,2
60,2024-09-16 20:54:39.189963135,0,006,-0.09113645792952482,-0.06302175762842359,0.8759561076125006,-0.2901437207520351,0.30570466164056176,-0.09446635832636996,-0.6990334757412427,0.3099845785086174,2
61,2024-09-16 20:54:39.257709961,0,006,-0.10340300966635414,-0.06019260165686653,0.6173326565089082,-0.2544361225241816,0.3432778400799671,-0.10344855208334225,-0.6944553244665285,0.31444514787413647,2
62,2024-09-16 20:54:39.314652832,0,006,-0.11886508014004477,-0.05754993846826269,0.3560107736830723,-0.2218087806345358,0.37978485495540626,-0.11364409178156107,-0.6818719235365504,0.316580392902402,2
63,2024-09-16 20:54:40.261207031,0,006,-0.1365889506763132,-0.055176748632038745,0.09799801590142278,-0.19237711191123472,0.41427825938022383,-0.12482939743774076,-0.6633318221701138,0.3164251136873977,2
64,2024-09-16 20:54:40.323251952,0,006,-0.15535901607350833,-0.05315687221972064,-0.15055345586137295,-0.16625058240159007,0.445876098771379,-0.1367207067330319,-0.6424080328227916,0.3143645800204664,2
65,2024-09-16 20:54:40.404370117,0,006,-0.17371660281408194,-0.05157412520031935,-0.383493684945599,-0.14358130874336278,0.4737901358577963,-0.14899200522566672,-0.624078519315476,0.3111137423804419,2
66,2024-09-16 20:54:40.472067139,0,006,-0.1900558224175138,-0.05051273669538082,-0.5951089639171814,-0.12450167912880193,0.4973599565113174,-0.16129905516988158,-0.6141195905931325,0.307615037478576,2
67,2024-09-16 20:54:40.539901123,0,006,-0.20277759057611086,-0.05005352092302296,-0.7806768696152905,-0.10901053013503496,0.5160905968371773,-0.17330549496519207,-0.6181618077452192,0.30486341408042683,2
68,2024-09-16 20:54:40.600804932,0,006,-0.2104774449104603,-0.050261112868061376,-0.9370224341543639,-0.09687606209635793,0.5296814120900798,-0.18470698396783555,-0.6406982350871728,0.30370308404541546,2
69,2024-09-16 20:54:40.675354004,0,006,-0.21212997871130587,-0.05116284440138262,-1.062937683906985,-0.0876058767025381,0.5380346460291647,-0.1952481623911964,-0.6843099937144101,0.3046667659959366,2
70,2024-09-16 20:54:41.605999023,0,006,-0.20722561213212148,-0.052727757079486584,-1.1592494027696674,-0.08051280452327259,0.5412485901950371,-0.20473115430368888,-0.7491848806411153,0.30789344017602366,2
71,2024-09-16 20:54:41.686224121,0,006,-0.19581337312346472,-0.054859122036438904,-1.2284404454138815,-0.07485289290505676,0.5396086276943682,-0.21301958126390735,-0.8328702073475833,0.3130998059226118,2
72,2024-09-16 20:54:41.745183105,0,006,-0.1784284206768698,-0.057409666993188134,-1.2739788146663649,-0.06996564894941786,0.5335825167396671,-0.22004084122838946,-0.9302461192396725,0.3195750470478198,2
73,2024-09-16 20:54:41.814634033,0,006,-0.15594266850892904,-0.06021532178021764,-1.2995958911203884,-0.065362435560468,0.5238244078489195,-0.2257864269920797,-1.0337632944821167,0.3262081179586481,2
74,2024-09-16 20:54:41.890161133,0,006,-0.12941804230039572,-0.06313185092025232,-1.3087043117038635,-0.06075004699899357,0.5111805225708975,-0.23030918303084943,-1.1339622046966835,0.33157338854611895,2
75,2024-09-16 20:54:41.946284912,0,006,-0.1000113196100221,-0.06606104742356776,-1.304075047192585,-0.05600312538799657,0.49665917655347425,-0.23371412618333992,-1.2202410343248529,0.3340768190914469,2
76,2024-09-16 20:54:42.023473145,0,006,-0.06891692447379245,-0.06896315978896653,-1.287765683200055,-0.051122892539739215,0.4813331870317012,-0.23613952295228163,-1.2817825212233172,0.33213262357622286,2
77,2024-09-16 20:54:42.969704102,0,006,-0.03731375197163376,-0.07185659392320849,-1.2612068269824466,-0.04621365960634945,0.46619656442690016,-0.2377312303649449,-1.3085169454886025,0.3243296389929346,2
78,2024-09-16 20:54:43.037476074,0,006,-0.006303276392455816,-0.07480633126934552,-1.2253825316257803,-0.04146665499512474,0.45203039344496765,-0.23861825674561282,-1.2920273610330881,0.3095626640562264,2
79,2024-09-16 20:54:43.105187988,0,006,0.023154002128319275,-0.077906216281485,-1.1810422824625273,-0.037129907760454946,0.4393155244959221,-0.23889573729628422,-1.2263382508450877,0.28712861330326434,2
80,2024-09-16 20:54:43.159385986,0,006,0.050287374878787816,-0.08126250584211574,-1.1288550887599158,-0.03346702084752244,0.4282012031647449,-0.23861738463184237,-1.1085075928526722,0.2567957651615223,2
81,2024-09-16 20:54:43.236525146,0,006,0.07452990906146688,-0.08498079707494695,-1.0694427254454133,-0.030714405850276183,0.4185275308024347,-0.23779779908610765,-0.9389163583242892,0.2188423101082849,2
82,2024-09-16 20:54:43.297674805,0,006,0.095490205428798,-0.08915236820268424,-1.00328053158793,-0.029044604434551598,0.40989527586483365,-0.23642470291351644,-0.7212074663631528,0.1740494392476484,2
83,2024-09-16 20:54:43.375783936,0,006,0.1129051334748648,-0.09383843465833151,-0.9305512809776342,-0.02854898623156151,0.40175957434818654,-0.23447767844464928,-0.46193713319030494,0.12364566090263239,2
84,2024-09-16 20:54:44.294118896,0,006,0.12661971245509482,-0.0990590532098756,-0.8511484866693307,-0.029241105988514548,0.3935072992648725,-0.2319452652110696,-0.170076442630004,0.06922848866017983,2
85,2024-09-16 20:54:44.361895996,0,006,0.13662215466456085,-0.10479485132186951,-0.7649652041441402,-0.031058170335004222,0.38448916515858084,-0.2288327975494573,0.1434922359599975,0.012706254091127503,2
86,2024-09-16 20:54:44.421520020,0,006,0.14311144008550444,-0.11100036291330787,-0.6723628015590253,-0.033841130604721284,0.37400598267525864,-0.22515799005913448,0.4664070972480923,-0.043721211661087576,2
87,2024-09-16 20:54:44.484004883,0,006,0.14654817785267138,-0.11762027784091054,-0.5745632505027285,-0.037300329580847225,0.3612729382886536,-0.22093632186682047,0.785225939896389,-0.09757912896802337,2
88,2024-09-16 20:54:44.565115967,0,006,0.14765619173177286,-0.12460268034328854,-0.4737892508610726,-0.04099091299205491,0.34541201186165826,-0.21616543192288257,1.085903101358802,-0.146197430399738,2
89,2024-09-16 20:54:44.632895996,0,006,0.1473635142371262,-0.13190661923571576,-0.3731099745481063,-0.04432759575166421,0.325528374222981,-0.21082276924094487,1.3544128891819718,-0.18687708489313107,2
90,2024-09-16 20:54:44.699021973,0,006,0.14668095156119518,-0.13949901660816327,-0.27602373948351894,-0.04666295765464546,0.3008706557878569,-0.20488332827527408,1.5775113714983284,-0.21710159180854194,2
91,2024-09-16 20:54:45.641802002,0,006,0.14653252643202697,-0.14733695064971905,-0.18591617055191345,-0.04741931545041,0.2710026064520527,-0.19834929512020835,1.7436248781162298,-0.23474692827431565,2
92,2024-09-16 20:54:45.711295898,0,006,0.147580563074862,-0.15534077275685362,-0.10562046316714972,-0.04621746430026549,0.23591746113581744,-0.19127714638592477,1.8438396729266153,-0.23827259762293276,2
93,2024-09-16 20:54:45.779222900,0,006,0.1501083665543963,-0.16337302561911884,-0.03722503883486328,-0.042936850379787714,0.19608935421954077,-0.18379188793855014,1.8728474431183604,-0.2268777220464999,2
94,2024-09-16 20:54:45.846731934,0,006,0.1540047322149862,-0.17123705425774002,0.017885271458417337,-0.03768759385327333,0.1524809778287087,-0.17608324495901242,1.829581620720046,-0.2005948946254107,2
95,2024-09-16 20:54:45.914894043,0,006,0.15883865103609773,-0.17869642494073137,0.05885915439529381,-0.030734548995489833,0.10650263739542132,-0.16838352009414306,1.7172980667079945,-0.16030109457664748,2
96,2024-09-16 20:54:45.982589111,0,006,0.16397127942246148,-0.18550290980020281,0.08522418928865494,-0.02243003875284194,0.05991464927254883,-0.16093470652643124,1.5430592963746537,-0.1076490572051193,2
97,2024-09-16 20:54:46.050358154,0,006,0.1686651863945975,-0.19141935657229994,0.09685569179078331,-0.013177223098589838,0.014694979815297708,-0.15395911989942246,1.3168615254590743,-0.0449470463312424,2
98,2024-09-16 20:54:46.986574951,0,006,0.17218867688995945,-0.1962334466994904,0.0940384495960582,-0.003410913399373267,-0.02709337473194103,-0.14764512512299932,1.050695122238614,0.024995118450057557,2
99,2024-09-16 20:54:47.061423096,0,006,0.1739209316156235,-0.19976678368114367,0.07751733511582529,0.006420423490906357,-0.06342460337361513,-0.142147367055585,0.7576253491521707,0.09906574740888269,2
100,2024-09-16 20:54:47.129190918,0,006,0.17344405243979966,-0.20188400876142162,0.04852305819015961,0.015874274811243472,-0.09243909186496786,-0.13759062062888966,0.45089913702166234,0.17409415639387973,2
101,2024-09-16 20:54:47.196951904,0,006,0.17060410028030853,-0.20250349952764407,0.008846660227312753,0.0245259684795693,-0.11259236424659182,-0.13406735671736125,0.1431764469952615,0.24709312108107767,2
102,2024-09-16 20:54:47.264677002,0,006,0.16553806935486726,-0.20160940407621225,-0.039016096937164936,0.03196536225690304,-0.12280149961859028,-0.1316277605596103,-0.15404277943838618,0.31545855631914893,2
103,2024-09-16 20:54:47.332420166,0,006,0.15867057375248078,-0.19926312613931793,-0.09175300892099063,0.03779765381723906,-0.12253870696255736,-0.13026843029614915,-0.4308267553594486,0.3771106905811668,2
104,2024-09-16 20:54:47.400177979,0,006,0.15068367004166078,-0.19561032618711835,-0.1453394819091962,0.04168815904300264,-0.11184497723771651,-0.12992626857991507,-0.6790664307337144,0.43056270459619694,2
105,2024-09-16 20:54:48.333358887,0,006,0.1424658737448322,-0.19087840108331172,-0.1955003899428076,0.043459437052775794,-0.09129795129854297,-0.13047645855050236,-0.8925282968157439,0.47489733913510795,2
106,2024-09-16 20:54:48.412149902,0,006,0.13504583493495764,-0.18535980231045562,-0.2384744822109537,0.043194554982941544,-0.06199136549395352,-0.13172797660471725,-1.0666791717175537,0.5096537789219882,2
107,2024-09-16 20:54:48.471771973,0,006,0.12951155850064813,-0.17937991450164303,-0.2717848783962877,0.041286770436383034,-0.02553774368829016,-0.1334160988037308,-1.1983635228284855,0.5346668233571028,2
108,2024-09-16 20:54:48.547632812,0,006,0.12691715512180946,-0.1732552233967263,-0.2946689933553647,0.03840488314938332,0.015944181089396693,-0.13519966905416622,-1.2855464491417101,0.54992948210637,2
109,2024-09-16 20:54:48.615376953,0,006,0.12818583453193624,-0.16725355913841722,-0.308042243572678,0.03538535051536825,0.05990054363955854,-0.13666923787935703,-1.3273374501755213,0.5555400450199884,2
110,2024-09-16 20:54:48.671329102,0,006,0.13401672918154922,-0.1615670366473008,-0.3141088969486709,0.03309372433613957,0.10349512820691618,-0.1373664888291948,-1.3242813494307195,0.5517365982194838,2
111,2024-09-16 20:54:48.750143066,0,006,0.14479678832997478,-0.15630066616377153,-0.3157467758389684,0.03229170503433037,0.14384134722595798,-0.13681489570142172,-1.2786498202808412,0.538962433528437,2
112,2024-09-16 20:54:49.665895020,0,006,0.16053023303875663,-0.15147315876473963,-0.3157469673931012,0.03351910486630649,0.17827600350625014,-0.13456117903223125,-1.1944660444178432,0.5178961719128329,2
113,2024-09-16 20:54:49.736557129,0,006,0.18081550131546437,-0.1470250843078392,-0.31609280404449286,0.0369979985735361,0.20460974733028262,-0.1302214094777364,-1.077181677298244,0.4894114366057503,2
114,2024-09-16 20:54:49.804953125,0,006,0.20488543881663,-0.14283027342995858,-0.3175338641085044,0.042574976392488105,0.22129556009496784,-0.12352074110432476,-0.9331121221477148,0.45447796028808723,2
115,2024-09-16 20:54:49.868138184,0,006,0.2316911514669423,-0.1387076013704844,-0.3195666872177156,0.04970211758988551,0.22749450904330903,-0.11431782665312741,-0.7688712210081703,0.41406195608150637,2
116,2024-09-16 20:54:49.940412109,0,006,0.2599962046984138,-0.1344333141221485,-0.32072800548443964,0.05744832475676502,0.22305218928732795,-0.10261105179365554,-0.5910332763724007,0.3690897760249987,2
117,2024-09-16 20:54:50.008152100,0,006,0.28846434245313257,-0.1297582120792053,-0.3190476645835374,0.0645596122655243,0.20840731004114085,-0.08852900005142643,-0.40606585442062154,0.32049226058437413,2
118,2024-09-16 20:54:50.068150879,0,006,0.3157482790131866,-0.12443535352209016,-0.3125619727785326,0.06959900455103676,0.18445831413068012,-0.07231159662032799,-0.22040276247742963,0.2692898479035326,2
119,2024-09-16 20:54:51.018503905,0,006,0.34059510150403144,-0.11825781062038604,-0.29981239633818796,0.07115484469404532,0.15242967009525593,-0.05429042933671128,-0.04047658762104004,0.21665559076032098,2
120,2024-09-16 20:54:51.086268799,0,006,0.36196619506536964,-0.1110957833037726,-0.2802674409751847,0.06806249667656648,0.1137736703034901,-0.03487378575393735,0.12740899037812853,0.1639133375106831,2
121,2024-09-16 20:54:51.153980957,0,006,0.3791443052453545,-0.10292005708386895,-0.254635927423481,0.0595841585570439,0.0701032311893311,-0.014535526530891024,0.27736883648351585,0.11246504539584659,2
122,2024-09-16 20:54:51.221674805,0,006,0.39178924626468487,-0.09380618115876731,-0.22499243215340228,0.04551195599887571,0.023123404791559464,0.006197259845989295,0.4043017783307689,0.06367505260948256,2
123,2024-09-16 20:54:51.289493164,0,006,0.3999106402524541,-0.08391935064334155,-0.1945779003635515,0.02617732747816682,-0.02545313049012939,0.026762388025890774,0.5042125340271018,0.018767617095618888,2
124,2024-09-16 20:54:51.357270020,0,006,0.4037549632631316,-0.07348223618115944,-0.16726102762720824,0.0023733544725544754,-0.07399138912879641,0.046587978075659384,0.5743821325130046,-0.02121112600723651,2
125,2024-09-16 20:54:51.425013916,0,006,0.40364961116240916,-0.06273489385389684,-0.14688991221060876,-0.024767632354922,-0.12100096009563399,0.06512340243699805,0.6133628069018572,-0.055368419609616276,2
126,2024-09-16 20:54:52.368663086,0,006,0.3998713812852709,-0.05190213064619075,-0.13686520813962455,-0.05387684392303543,-0.16517465126218192,0.08187092818572898,0.6208749887158078,-0.08292353573821973,2
127,2024-09-16 20:54:52.428125000,0,006,0.3925862389372856,-0.04117766904105462,-0.14007429575829963,-0.08339633216148941,-0.20539859527800997,0.0964119345803614,0.5976887810779866,-0.10318816055134333,2
128,2024-09-16 20:54:52.504206055,0,006,0.3818620069948081,-0.030720898819540328,-0.1590010339032448,-0.11159514223902621,-0.24075342759922322,0.10842554208707231,0.5455106137307422,-0.11557988988048598,2
129,2024-09-16 20:54:52.571948975,0,006,0.367717487734741,-0.020655682749920568,-0.1957310949388222,-0.13660480782629333,-0.27053272390753563,0.11770230664509676,0.46687951125350424,-0.11966706266892886,2
130,2024-09-16 20:54:52.639718018,0,006,0.35016408528246057,-0.01106564101262745,-0.2517947528470324,-0.156499561406128,-0.2942744551681092,0.12415407117481692,0.3651046711859618,-0.11523416756240773,2
131,2024-09-16 20:54:52.705639893,0,006,0.32922210224650467,-0.001987960394206393,-0.3279544548394659,-0.1694210018101234,-0.31177652176042825,0.12781721040117663,0.24426350483142234,-0.10235124981672429,2
132,2024-09-16 20:54:52.767642090,0,006,0.3049248727669383,0.006589009574894884,-0.4239276617520424,-0.17374778958070516,-0.3230818368005235,0.1288474209689446,0.10919871889104889,-0.08143151018844798,2
133,2024-09-16 20:54:53.718104004,0,006,0.27733524437908014,0.014719550318371874,-0.5379619559527742,-0.1683002032334865,-0.3284438994939969,0.12750706467799436,-0.034587792468858285,-0.05326327120576963,2
134,2024-09-16 20:54:53.776750000,0,006,0.24658792938417273,0.022484543028454925,-0.6664086185208604,-0.15252572602776315,-0.32829540088637865,0.12414639418015366,-0.18113360698716752,-0.019017255677878913,2
135,2024-09-16 20:54:53.838827881,0,006,0.212947180516448,0.029970154998983235,-0.8036592657903512,-0.1265857566506463,-0.3232332923080799,0.11917881812895882,-0.3241935945589056,0.019754848873864802,2
136,2024-09-16 20:54:53.921884033,0,006,0.17685784970774268,0.037247206185199305,-0.9426669139445794,-0.09130423343229789,-0.31401049008645543,0.11305124687200763,-0.4574047586117186,0.06113968408929996,2
137,2024-09-16 20:54:53.989613037,0,006,0.1389795424152179,0.044353405903812586,-1.0759177123100494,-0.04801219556688545,-0.3015194862407581,0.10621512610093321,-0.574563859780447,0.10294181507911727,2
138,2024-09-16 20:54:54.057390869,0,006,0.10020094530965755,0.05127871104238325,-1.1965206230788488,0.0016473473099747012,-0.2867651860558574,0.09910501119500048,-0.6699978336971398,0.14283484316264553,2
139,2024-09-16 20:54:54.117957031,0,006,0.061621787647840695,0.05795547590739976,-1.2991465791772048,0.055911584603633456,-0.2708188289224771,0.09212337053893382,-0.7388578507337505,0.17853162004496734,2
140,2024-09-16 20:54:55.043787109,0,006,0.024491254070282357,0.06425548565129992,-1.3806744746601647,0.11306234194333062,-0.2547377165693028,0.08562306263016653,-0.7772583260419065,0.2079179461734345,2
141,2024-09-16 20:54:55.111572998,0,006,-0.009886112819521007,0.06999492402392907,-1.4404164851678247,0.17153124010140594,-0.23945860172179484,0.07988353510025431,-0.7823424827086934,0.2291509083417465,2
142,2024-09-16 20:54:55.169699951,0,006,-0.04025542401672931,0.07494876794019108,-1.479812675486252,0.22991843807203574,-0.22570161067214334,0.07508621735855059,-0.7524216773138569,0.24076059433428543,2
143,2024-09-16 20:54:55.246939941,0,006,-0.06551405107519402,0.07887570541461927,-1.5016659278160502,0.28693544752292444,-0.21392076105376986,0.07129808567436731,-0.6872618399279192,0.2417663358996302,2
144,2024-09-16 20:54:55.309425049,0,006,-0.08479925167557614,0.08154955954970643,-1.5092101544200898,0.3413250976156311,-0.20431259569645274,0.06847019180169149,-0.5884174780784353,0.23176431743483483,2
145,2024-09-16 20:54:55.371911133,0,006,-0.09754692407005064,0.08278816983224248,-1.5053307453229088,0.3918201116481148,-0.1968651431256135,0.06645291331936984,-0.45946445005998526,0.2109425127524659,2
146,2024-09-16 20:54:55.450638916,0,006,-0.10351725640711788,0.08247176547643947,-1.492099802670308,0.4371749837864034,-0.1914081041751195,0.06502214661351706,-0.30608965393977283,0.1800350956169323,2
147,2024-09-16 20:54:56.392738037,0,006,-0.10278884393037481,0.08054912438108561,-1.4706372711707938,0.4762667736604668,-0.18763133771392435,0.06390612120927337,-0.1359838637222667,0.14025696454963674,2
148,2024-09-16 20:54:56.460939941,0,006,-0.09572583179297726,0.07703715212312458,-1.441215597222376,0.508222319248641,-0.18507399303189984,0.06280721840535712,0.04161944016872189,0.09323253433602206,2
149,2024-09-16 20:54:56.516808105,0,006,-0.08293191697331323,0.07202140545623176,-1.4034727502580064,0.5325092867712395,-0.1831209518222808,0.06142186202071277,0.21681262640849625,0.04091161701342119,2
150,2024-09-16 20:54:56.594035889,0,006,-0.06520683857013898,0.06565948114807468,-1.356629304265222,0.5489457838523553,-0.18104723204689746,0.0594642347529496,0.3801235167557762,-0.01452961539902401,2
151,2024-09-16 20:54:56.656520996,0,006,-0.04351177469460834,0.05818408716908461,-1.299671490934208,0.557626909851765,-0.17811764859234616,0.056695724889479715,0.5236329873462948,-0.07080321048511094,2
152,2024-09-16 20:54:56.731795166,0,006,-0.01894310192437172,0.04990206391946871,-1.2314719132822278,0.5588052111007134,-0.17370297595151116,0.05295689652131588,0.6418856702719994,-0.12564059703366381,2
153,2024-09-16 20:54:56.795250977,0,006,0.00729003980789286,0.04118629781362895,-1.150833467661799,0.5527767790588071,-0.1673607559628198,0.048194134967528716,0.7323821212307596,-0.17692794625778316,2
154,2024-09-16 20:54:57.742597900,0,006,0.033894569487343026,0.03245946103084338,-1.0565177643734203,0.5398121494606629,-0.15886270599594732,0.04247130573530962,0.7955384965992316,-0.22282224766799646,2
155,2024-09-16 20:54:57.804651123,0,006,0.05953962019671878,0.02417155504971315,-0.947343141046304,0.5201391618751916,-0.14819029583892374,0.035962402145230506,0.834186467132386,-0.26182995373537243,2
156,2024-09-16 20:54:57.878803955,0,006,0.08292327059476046,0.01677389935197851,-0.8223711165709179,0.4939619429738058,-0.1355250040994169,0.028930410034736984,0.852791385574753,-0.2928425096629876,2
157,2024-09-16 20:54:57.946691895,0,006,0.10285668524418992,0.01069089182396361,-0.6811798565372736,0.461507094053883,-0.12123943472527186,0.021700586591816465,0.856549301642536,-0.31513241269178965,2
158,2024-09-16 20:54:58.014444092,0,006,0.11835799143422618,0.006290561585881357,-0.5242190526293202,0.4230948477357274,-0.1058799598329186,0.014632044693179393,0.8504818542302515,-0.32831647597350044,2
159,2024-09-16 20:54:58.071129149,0,006,0.1287369395645556,0.003856387080953382,-0.35312776418088676,0.37921084736654426,-0.09012738499720867,0.0080870367086188,0.8386532187131706,-0.33229743731723654,2
160,2024-09-16 20:54:58.149970947,0,006,0.13364670834976566,0.0035634841940894928,-0.17084100251036963,0.3305436405570655,-0.07472252970613498,0.002397364949727134,0.8236908595967253,-0.3272134501014674,2
161,2024-09-16 20:54:59.094063964,0,006,0.13309636009259598,0.005459994453765124,0.018525032962952683,0.2779875208692564,-0.060355999830994336,-0.0021685717194591483,0.8067791610722856,-0.31343397346413127,2
162,2024-09-16 20:54:59.161876953,0,006,0.12743767090979546,0.009453476275860824,0.20986287201819212,0.22263870145536732,-0.04755029581765103,-0.00543188014576235,0.788079381946336,-0.29160292739917537,2
163,2024-09-16 20:54:59.216597900,0,006,0.1173395461089064,0.015305580379503273,0.39728493179526875,0.1657864624226838,-0.03658038345597946,-0.007319017001628904,0.7672862071253975,-0.26268175824890605,2
164,2024-09-16 20:54:59.294743164,0,006,0.10374751528084059,0.022640476148527662,0.5744791042424778,0.10886474359709755,-0.027459108412587096,-0.00786734335630414,0.7440445429935252,-0.22795178109778105,2
165,2024-09-16 20:54:59.365129883,0,006,0.08781852175688695,0.030969042678420215,0.7352911297301604,0.05334601875416587,-0.01997577780234133,-0.007219359477985528,0.7181564985343132,-0.18897370263162716,2
166,2024-09-16 20:54:59.432043945,0,006,0.07083259642719981,0.03972585518103642,0.8743870951793049,0.0006129414088706385,-0.013753033942291337,-0.005604475941526665,0.6896524261661383,-0.14751749901053607,2
167,2024-09-16 20:54:59.499625977,0,006,0.05409313673612055,0.048313493073069765,0.9877194918161257,-0.048124150074320686,-0.008286569015317692,-0.003312295609493942,0.6588082493398838,-0.10548207321250773,2
168,2024-09-16 20:55:00.416534912,0,006,0.038819767042121256,0.056149266113902085,1.072633305714164,-0.09182204852956212,-0.002958281816949063,-0.0006648552346867252,0.6261580227560672,-0.06483537075347844,2
169,2024-09-16 20:55:00.484304932,0,006,0.02603333562923023,0.06271134595319175,1.1276871669291038,-0.12954074307890212,0.0029454227572940435,0.0020090428295484915,0.5925550896726748,-0.027588956236703616,2
170,2024-09-16 20:55:00.552090820,0,006,0.016451960353718563,0.06758026177414883,1.1523943615505325,-0.16039228704033456,0.010170259117270626,0.0044002848090987255,0.5593363058374987,0.004218249580845914,2
171,2024-09-16 20:55:00.611110840,0,006,0.010437565253159427,0.07046851316531048,1.1470048912830015,-0.183542866410295,0.01938459678929048,0.006249604674177112,0.5285534583031428,0.02856733849470394,2
172,2024-09-16 20:55:00.687583984,0,006,0.00802207098950226,0.07123167552381603,1.112322693100261,-0.19825700158895976,0.031059588201091844,0.0073795835469287275,0.50308407516219,0.04356156048137938,2
173,2024-09-16 20:55:00.755308105,0,006,0.009001033556143912,0.06985971629554834,1.0495728249193497,-0.2039640955152173,0.04538207381206337,0.007720037692133693,0.4863747824027326,0.04758469063583648,2
174,2024-09-16 20:55:00.822905029,0,006,0.013036038382266163,0.06645487715893515,0.9603993612747288,-0.20034144314679575,0.062236444942986024,0.007314060709816769,0.48174115691724506,0.03949596618452318,2
175,2024-09-16 20:55:01.769190918,0,006,0.019697107949040386,0.06120840002705248,0.8470160216374462,-0.18740503882198944,0.08126574076121781,0.006298171916300885,0.4914713898909216,0.018818711385775146,2
176,2024-09-16 20:55:01.831201904,0,006,0.028430191920064646,0.05438453020462382,0.7124193003501491,-0.16558710393804377,0.10197735810935306,0.004864528023749585,0.5161583964286756,-0.014133866773176917,2
177,2024-09-16 20:55:01.904727051,0,006,0.038511543656038885,0.046308397355092484,0.56050685628895,-0.1357703177774507,0.12383694268810849,0.003220554609438585,0.5545557873786099,-0.05824395069242523,2
178,2024-09-16 20:55:01.968514893,0,006,0.0490714650481111,0.03734823649803326,0.39595577918069924,-0.09925018725220314,0.14632403235637736,0.0015556836513024423,0.6039829005341596,-0.11170333418206446,2
179,2024-09-16 20:55:02.040186035,0,006,0.0592162764076007,0.027886468746790564,0.22389956990336227,-0.057628137496779024,0.1689698777382294,1.6500454401924492e-05,0.6610836425601295,-0.1722287711017893,2
180,2024-09-16 20:55:02.107939941,0,006,0.06820408455233187,0.018281138699843467,0.04966697541106553,-0.012679575103051873,0.1914023009040272,-0.0013099905226933264,0.7226222555496554,-0.23731070246046712,2
181,2024-09-16 20:55:02.175681152,0,006,0.07559916097211046,0.008824235343256473,-0.12123285719309422,0.03376332905637313,0.21338582419755237,-0.0024029119226308005,0.7860300111631996,-0.30442500402884987,2
182,2024-09-16 20:55:03.119155029,0,006,0.08135759640003012,-0.000293705653291129,-0.2829871560240179,0.07991096151882071,0.23482925889253692,-0.0033039126397762662,0.8495930774514887,-0.37117395552108956,2
183,2024-09-16 20:55:03.186934082,0,006,0.0858378292621225,-0.009002809054519095,-0.42942938842187617,0.12409823604703892,0.25575269848991583,-0.004107655799765513,0.9123152436412383,-0.43535794837692326,2
184,2024-09-16 20:55:03.254684814,0,006,0.08973911876573333,-0.017349660433001214,-0.5541872042642818,0.164837566591689,0.27621840520616425,-0.0049478936914836525,0.9735147004859498,-0.49498594739247836,2
185,2024-09-16 20:55:03.322402100,0,006,0.0939700766507391,-0.02546894064553109,-0.6510747403660238,0.20084959162736418,0.2962324337615782,-0.005975892564164027,1.0322609846781532,-0.5482353073599873,2
186,2024-09-16 20:55:03.390012939,0,006,0.09946988818727637,-0.0335391056987033,-0.7146688621892066,0.23109598807503198,0.3156411346487071,-0.007331849126809189,1.0868795784582441,-0.5933989540292888,2
187,2024-09-16 20:55:03.444677002,0,006,0.10702984075163274,-0.04173779461443103,-0.7409009552832619,0.25482762142064286,0.33406389474100867,-0.009118682952056145,1.1347965293154625,-0.6288819520921116,2
188,2024-09-16 20:55:03.520790039,0,006,0.11716599204871439,-0.05021332157230382,-0.7275120158353319,0.27164432876273253,0.3508986425886331,-0.011390576806913659,1.172839450619044,-0.6532836849769528,2
189,2024-09-16 20:55:04.458643066,0,006,0.1300718758105095,-0.05907905266553248,-0.6742919173615376,0.28154220657482176,0.3654114850535207,-0.014161860992300886,1.1978459416111678,-0.6655475119439779,2
190,2024-09-16 20:55:04.536860840,0,006,0.14564133725010509,-0.06842238631329675,-0.5830550370709192,0.28490696934392773,0.3768793297568008,-0.017429214088628697,1.2073026151224937,-0.6651362206952061,2
191,2024-09-16 20:55:04.606434082,0,006,0.16352072471302348,-0.07831235482584657,-0.45735289433157617,0.2824352061992278,0.3847173870914743,-0.021191561685533964,1.1998190183260646,-0.6521956134136686,2
192,2024-09-16 20:55:04.674123047,0,006,0.1831548989212773,-0.08879605338686651,-0.30200899203457676,0.27501330346628045,0.3885370260429763,-0.025456388402786228,1.1753633111239168,-0.6276638382751395,2
193,2024-09-16 20:55:04.741870117,0,006,0.20381793940272483,-0.099885297701664,-0.12259904988683623,0.2635974265955235,0.38813742814019425,-0.03023465049231201,1.1352609776561935,-0.5932799282188485,2
194,2024-09-16 20:55:04.809595215,0,006,0.22463091277760813,-0.1115402566288206,0.07500201776257688,0.24911694322073538,0.3834750361164182,-0.0355342323726539,1.0820238712798684,-0.5514656457537093,2
195,2024-09-16 20:55:04.876305176,0,006,0.2445747790615115,-0.12365709366355399,0.28488041567627226,0.2324129652433279,0.3746487337508771,-0.041357284151506794,1.0191292448425777,-0.5050989271682679,2
196,2024-09-16 20:55:05.787556885,0,006,0.2625258376925832,-0.13606623908951335,0.5010714610330642,0.21422862747970098,0.3619066279424291,-0.047698707012021384,0.9508192388729722,-0.45723140505580884,2
197,2024-09-16 20:55:05.862155029,0,006,0.27734235417936126,-0.14854459567851752,0.7173372994621344,0.1952487126820569,0.34565325862187846,-0.054541335352512606,0.8818233769329993,-0.41079092303418563,2
198,2024-09-16 20:55:05.925529053,0,006,0.28798997631662243,-0.16083726146745753,0.92692568264025,0.17614645809600885,0.3264377270462621,-0.061847689760132586,0.8168331549932546,-0.368290330487387,2
199,2024-09-16 20:55:05.997649902,0,006,0.29365755376587416,-0.17267952108239112,1.1224730449777964,0.15759868977325464,0.3049215937992728,-0.06955092593263085,0.7597537217109834,-0.33158772200620135,2
200,2024-09-16 20:55:06.065215088,0,006,0.29382914399204574,-0.18381409452264802,1.296112529327802,0.14027247267122744,0.2818313221670169,-0.07754524488652961,0.713015665865144,-0.301762740255937,2
201,2024-09-16 20:55:06.127702881,0,006,0.28831062194071266,-0.19400546060970178,1.439853519699405,0.12479225215305903,0.2579037136671018,-0.08567520445044621,0.6772490487735537,-0.27913249028965176,2
202,2024-09-16 20:55:06.200784912,0,006,0.27722255163888904,-0.20305409657890716,1.5462804720682406,0.111681917537713,0.23384453472147032,-0.09372768302082855,0.6514072153618258,-0.2633672893216028,2
203,2024-09-16 20:55:07.132245117,0,006,0.2609753707952092,-0.21081042518527354,1.609415348306358,0.10129925122610553,0.21031202450744269,-0.1014321735041375,0.6331891188135356,-0.25363995377883697,2
204,2024-09-16 20:55:07.211870117,0,006,0.24024195759423428,-0.21718596210381258,1.6254600634646548,0.0937964798582429,0.18790769789378475,-0.10847059194906451,0.6195173089631242,-0.24876112939068906,2
205,2024-09-16 20:55:07.270857178,0,006,0.21592609334817237,-0.22215859120693662,1.593265865162204,0.08911251290874453,0.1671492912535087,-0.1144934788904376,0.6069019388048661,-0.24729020522067288,2
206,2024-09-16 20:55:07.347357910,0,006,0.18911059985955403,-0.22576839409373384,1.5145395647500655,0.08698144437646065,0.1484296585592387,-0.1191414037316011,0.5916456291352467,-0.24763536740956904,2
207,2024-09-16 20:55:07.410664062,0,006,0.1609787770212081,-0.22810058153926105,1.3938264654815995,0.08694797628241183,0.13199217546539893,-0.12207364950379737,0.5699336538348081,-0.24815391374568385,2
208,2024-09-16 20:55:07.473152100,0,006,0.13272732898287415,-0.22925745394778319,1.2382573309372027,0.08838876242854082,0.1179346466219664,-0.12300113967833072,0.5379041492827223,-0.24725058536492497,2
209,2024-09-16 20:55:07.535636963,0,006,0.1054979568551335,-0.22933062751495226,1.0570034663791694,0.09054684272638616,0.10621700676651444,-0.12171257037559768,0.4918089508755203,-0.24347112187300562,2
210,2024-09-16 20:55:08.489100098,0,006,0.08033522163505133,-0.22838651323634,0.8604292925459788,0.09259178519242339,0.09665760836965055,-0.11808661515498454,0.42834221806565886,-0.23559624064055926,2
211,2024-09-16 20:55:08.560864990,0,006,0.058151711549806175,-0.22646682876366356,0.6590385068299524,0.09371021432248866,0.08893772531807473,-0.1120934166544382,0.34510809508895596,-0.22273931063526714,2
212,2024-09-16 20:55:08.618396973,0,006,0.03967730391846552,-0.22359329542452672,0.4623924324899196,0.09320887824127562,0.0826302209597977,-0.10378966697754685,0.24106120879541115,-0.2044374606761724,2
213,2024-09-16 20:55:08.696365234,0,006,0.02539037512915134,-0.21976557878418018,0.27823025802615864,0.09058851168534222,0.07724614977500642,-0.09330812496064984,0.11672880240944865,-0.1807110469420198,2
214,2024-09-16 20:55:08.753026855,0,006,0.01545584335795328,-0.21495258161588537,0.11201001794339735,0.08555506892199,0.0722933148108628,-0.08084482451861655,-0.025822808851511902,-0.15206944256408692,2
215,2024-09-16 20:55:08.830686035,0,006,0.009703267584718431,-0.20908586890187378,-0.033054903329118,0.07798107945846461,0.06734014661926839,-0.06664881009710748,-0.18314870880894843,-0.11946989978101187,2
216,2024-09-16 20:55:08.899642090,0,006,0.007659645354698216,-0.2020626414753449,-0.15559806034337598,0.06786607740525634,0.062064706117089516,-0.05101494741846415,-0.35058940868062877,-0.0842543493705733,2
217,2024-09-16 20:55:09.842935059,0,006,0.008625037184703888,-0.19375946488923085,-0.2556086273365528,0.05533978194404756,0.056271071284319026,-0.03427756252514267,-0.522448767973245,-0.048064558090427714,2
218,2024-09-16 20:55:09.910687012,0,006,0.011760046084250884,-0.18405272679768145,-0.3340924543568918,0.04071287156588079,0.0498701518887009,-0.016802314761476606,-0.6922873598864614,-0.01271077804684932,2
219,2024-09-16 20:55:09.977656006,0,006,0.01614965133366844,-0.17283883328439553,-0.3929487024619778,0.024532169043325756,0.042823453656610916,0.001028232493490028,-0.8533824430703362,0.02000414361200842,2
220,2024-09-16 20:55:10.046094971,0,006,0.02083133409772996,-0.16004849225931464,-0.4349301458229151,0.007585133776715595,0.035051333220295,0.01883877011780115,-0.9992888723748058,0.04845894064189748,2
221,2024-09-16 20:55:10.113863037,0,006,0.024813262525015572,-0.14565395936750003,-0.4635041623700485,-0.00916532454213121,0.026333803801746415,0.03629150758011535,-1.1244046630494096,0.07134719894980746,2
222,2024-09-16 20:55:10.174391113,0,006,0.027120399753329773,-0.12967140712397393,-0.4825002053184859,-0.024698701966008107,0.016251285158646506,0.05311350013314341,-1.2244883982142087,0.08777281616967295,2
223,2024-09-16 20:55:10.234357178,0,006,0.026880954327778435,-0.11216213138350573,-0.4955703475141524,-0.03807439332841441,0.004192862813184816,0.06911358919261906,-1.2970697864330418,0.09731931998906485,2
224,2024-09-16 20:55:11.188961914,0,006,0.023428856506945994,-0.0932365860821287,-0.5056506187620257,-0.048540071315082825,-0.01056713326027359,0.08418594545185425,-1.3416581794542972,0.1000811261926479,2
225,2024-09-16 20:55:11.261358887,0,006,0.01638115906089308,-0.07306230593773176,-0.5146544810527327,-0.05556589644892661,-0.02872997853396682,0.0983002644229866,-1.35965413928342,0.09663643917234052,2
226,2024-09-16 20:55:11.329077881,0,006,0.005661559560428733,-0.0518710235467626,-0.523491810765976,-0.05881248833695,-0.050792889276873567,0.11148215734893373,-1.3538912545202055,0.08794845310146143,2
227,2024-09-16 20:55:11.390698975,0,006,-0.008536075131574027,-0.02995619336839831,-0.5323063579745132,-0.05809716640181665,-0.07688315394570643,0.12379089722056062,-1.3278532866717234,0.07519863220417591,2
228,2024-09-16 20:55:11.452753906,0,006,-0.02583359389023022,-0.007654827213664914,-0.5407412014412908,-0.05340820476030054,-0.10666648863369443,0.1353003929716615,-1.2848600778698676,0.05959708790060611,2
229,2024-09-16 20:55:11.530105225,0,006,-0.045777191295526584,0.014682932924232433,-0.5481033745597035,-0.04495115143897145,-0.1393547950605998,0.14608428117627698,-1.2276200646965156,0.04224383063917303,2
230,2024-09-16 20:55:11.592798828,0,006,-0.0679305499080487,0.03672426600561463,-0.553386443787317,-0.03318089114554958,-0.1737959927206102,0.15620416985738098,-1.1582880409043208,0.024080590601418133,2
231,2024-09-16 20:55:12.513564209,0,006,-0.09192471137693292,0.05817183214757691,-0.5551715040576569,-0.018795862071961728,-0.20861137677789274,0.16570146256534735,-1.0787923867749174,0.005905112762792191,2
232,2024-09-16 20:55:12.586919189,0,006,-0.11746137010585446,0.07876531065570966,-0.5514862648821731,-0.0026986612237434263,-0.24234638778198694,0.17459297582618166,-0.9910956324789182,-0.011610410766153299,2
233,2024-09-16 20:55:12.654441162,0,006,-0.1442833005964854,0.09827077147988066,-0.5397293992637204,0.014066390646492118,-0.27360196977236984,0.18286878392919106,-0.8972654401607669,-0.02792548517429783,2
234,2024-09-16 20:55:12.714285889,0,006,-0.17213226303068793,0.11646666088807898,-0.5167490903394087,0.030394928601346315,-0.3011264267254382,0.19049109421683796,-0.7994829581945939,-0.042640633002425814,2
235,2024-09-16 20:55:12.776327881,0,006,-0.2007137446601141,0.1331343358780282,-0.47911965398762135,0.04521798572535744,-0.3238764368890106,0.19739604794972454,-0.7001290759242013,-0.05547571151711002,2
236,2024-09-16 20:55:12.854010010,0,006,-0.22968125037239764,0.14805768865630314,-0.42355678663126844,0.05759013839611996,-0.34107478243750133,0.20350253544775496,-0.6018720729872558,-0.06622221842099463,2
237,2024-09-16 20:55:12.925303955,0,006,-0.25864241657112,0.1610332546465791,-0.3473428367830512,0.06675200327861541,-0.352281749028319,0.20872939258956813,-0.5075527841579768,-0.07471349575637116,2
238,2024-09-16 20:55:13.868858154,0,006,-0.2871728239570366,0.17188822132231563,-0.24873045441039682,0.07217787801748153,-0.3574697003977999,0.21301659218409064,-0.4198378879727902,-0.08084496046277136,2
239,2024-09-16 20:55:13.936635010,0,006,-0.3148133429549519,0.18049860421617991,-0.12734152034729837,0.07362362823151912,-0.35707094761421304,0.21634364233992023,-0.34084303458680226,-0.08463083564738046,2
240,2024-09-16 20:55:14.003000000,0,006,-0.3410444018094529,0.18679916473342573,0.015579466653662713,0.07115674885237795,-0.3519686580604231,0.21873914373711797,-0.27189153839852837,-0.08626103599605198,2
241,2024-09-16 20:55:14.064516113,0,006,-0.3652610177355348,0.19078309813217603,0.17722848356919016,0.06513895332675107,-0.3434179903756542,0.22027641666910966,-0.21338193918637932,-0.08613807898118853,2
242,2024-09-16 20:55:14.127512939,0,006,-0.3867747687824943,0.19249642255603266,0.35355095940243053,0.05616118161557585,-0.33290752189292205,0.22105396755874615,-0.16471197258306053,-0.08488642388336175,2
243,2024-09-16 20:55:14.204243896,0,006,-0.404844639894512,0.19203277888005124,0.5396037421498816,0.044949791564245486,-0.3219796419680021,0.2211654448523389,-0.12434446789647334,-0.08331734993231296,2
244,2024-09-16 20:55:14.275393066,0,006,-0.4187246079774611,0.18952948015030427,0.7299263804685625,0.03225156452578669,-0.312030540154905,0.22066769121353996,-0.0901465651012872,-0.08233112576318241,2
245,2024-09-16 20:55:15.210707031,0,006,-0.42771943230024934,0.18516079691218018,0.9189389449849809,0.018714124370084417,-0.3041247909749995,0.21955728450072748,-0.06001075598487908,-0.08275945070337058,2
246,2024-09-16 20:55:15.273194092,0,006,-0.43124654039129434,0.1791262194213362,1.1012266667136528,0.004815139582620704,-0.2988659309390117,0.2177631999496545,-0.032574250090780146,-0.08519027669738731,2
247,2024-09-16 20:55:15.351224121,0,006,-0.4289015483045231,0.17163807963893887,1.2715656705882126,-0.00912295627796184,-0.2963441821928692,0.21515607504672435,-0.007702772658417712,-0.08985105321446911,2
248,2024-09-16 20:55:15.422012939,0,006,-0.420517522854803,0.16291504079616753,1.4248405258293837,-0.02288039594907328,-0.29616119575300803,0.21157009585757336,0.013535907430609152,-0.09660952949342454,2
249,2024-09-16 20:55:15.474916992,0,006,-0.40621008970779127,0.1531838742971969,1.5562075290716468,-0.03633269126756551,-0.2975232208295968,0.20683315913438344,0.029382886063161515,-0.10508535875123377,2
250,2024-09-16 20:55:15.557518066,0,006,-0.3864100700867949,0.14268670491904048,1.6616540536836961,-0.049502689730439205,-0.2993818960227336,0.20080031939465276,0.038091392924006595,-0.11481061729166939,2
251,2024-09-16 20:55:15.625271973,0,006,-0.3618716707424166,0.1316849949465932,1.7387182198794293,-0.06261095994030708,-0.300588462698559,0.19338425466301365,0.03849653178551193,-0.12536854773443673,2
252,2024-09-16 20:55:16.560323975,0,006,-0.33362083771412365,0.1204486959133859,1.7870014510745742,-0.07606889250746227,-0.3000287744878365,0.1845757545436304,0.0302570961927859,-0.13646795589378505,2
253,2024-09-16 20:55:16.637374023,0,006,-0.30282437329152107,0.10922717363683761,1.808334706218385,-0.09041518549568484,-0.2967205405060149,0.17444830691020996,0.013796406543997676,-0.14795144159160709,2
254,2024-09-16 20:55:16.705085938,0,006,-0.27060933179237245,0.09821328193892338,1.8066891931691351,-0.10622612271241687,-0.289870539724903,0.16314621313101846,-0.009834903618434974,-0.1597663794953503,2
255,2024-09-16 20:55:16.761063964,0,006,-0.23789611568965952,0.08751960054919758,1.787831969952981,-0.12400759417260451,-0.2789010952977179,0.15086265836541113,-0.0389775715591072,-0.17193541835039472,2
256,2024-09-16 20:55:16.838739014,0,006,-0.20530159347987564,0.07717944609679789,1.7585633482951244,-0.14405643159993534,-0.2634583983078753,0.13781663552534779,-0.07130335447976474,-0.1845410216794632,2
257,2024-09-16 20:55:16.908337158,0,006,-0.17312687579144798,0.06716917358185327,1.72557639995875,-0.16631705990060963,-0.24341332639399232,0.12423509870727333,-0.10388496060866276,-0.19770224625184135,2
258,2024-09-16 20:55:16.976133057,0,006,-0.14140818830909316,0.05743630422904762,1.694371147401065,-0.1903109869336804,-0.21886297826019005,0.11034352310652051,-0.13352856850552963,-0.2115122862981094,2
259,2024-09-16 20:55:17.894187012,0,006,-0.11000873017108966,0.04792063258585429,1.668684344726597,-0.21519220984508514,-0.1901397106877433,0.09636647454258006,-0.15732722375064442,-0.2259291095189443,2
260,2024-09-16 20:55:17.960135986,0,006,-0.07873643183476335,0.038565993472524256,1.6505390891622502,-0.23990149644454536,-0.15782670367061385,0.08253663602912524,-0.17330771569765022,-0.24064597594562528,2
261,2024-09-16 20:55:18.022160889,0,006,-0.04746363250057475,0.0293266495906836,1.640701871084466,-0.26335153245763876,-0.12276357797682683,0.06910387777620472,-0.18100287790647085,-0.25499773741237874,2
262,2024-09-16 20:55:18.084206055,0,006,-0.016226513980628552,0.020173096205106454,1.6392367940035655,-0.2845909242787582,-0.08602345492597954,0.056333141896818144,-0.18176406870708844,-0.2679509417553496,2
263,2024-09-16 20:55:18.165178955,0,006,0.01469908955193159,0.011101272860684762,1.6458893931892185,-0.30291675975063764,-0.048859830020365286,0.044487908363101736,-0.17870510435810869,-0.2781782532308787,2
264,2024-09-16 20:55:18.227360107,0,006,0.044749260255089886,0.002146273380341745,1.660179478796789,-0.31791594338830964,-0.012630224198322363,0.033807087347902894,-0.17630222440357676,-0.284188258810642,2
265,2024-09-16 20:55:18.299473145,0,006,0.07307664481719525,-0.006604013189671294,1.6812781899181586,-0.3294327698601218,0.02130444379553413,0.024485405268993003,-0.17979485916866597,-0.28448745692702143,2
266,2024-09-16 20:55:19.242022949,0,006,0.09863066864103096,-0.015003719828141145,1.7078538021364074,-0.33748610616815233,0.05170459369344867,0.016660644194919187,-0.19457583655405344,-0.2777552562444169,2
267,2024-09-16 20:55:19.304048096,0,006,0.12029224096709361,-0.02285736632648181,1.7380206250472343,-0.3421725425677633,0.07758233886151862,0.010405248138982822,-0.22564592281442705,-0.26301409318008756,2
268,2024-09-16 20:55:19.366050049,0,006,0.13700910769626412,-0.029938757662715768,1.7693711647792139,-0.3435762428268969,0.09830705442205613,0.005720704470598581,-0.2770310048087355,-0.2397883116013991,2
269,2024-09-16 20:55:19.442850098,0,006,0.14789806343444847,-0.03601303933303701,1.798975952659395,-0.34168617065021817,0.1136602861247212,0.0025372659626571605,-0.3510582928982515,-0.2082445121732993,2
270,2024-09-16 20:55:19.505385010,0,006,0.1523215088956385,-0.040857350415637775,1.8233012724612967,-0.3363234642134433,0.12382477190881268,0.0007224900422693012,-0.44760061213294544,-0.16928548353624454,2
271,2024-09-16 20:55:19.582279053,0,006,0.14995546824820272,-0.04427951256439274,1.8381023546421054,-0.3270894948794279,0.12930748082841265,9.776477173574319e-05,-0.5635900959011957,-0.1245637756239443,2
272,2024-09-16 20:55:19.646899902,0,006,0.14084274967895677,-0.04613397340248507,1.8383818628120054,-0.31334575927984143,0.13081385685490388,0.0004581724815091468,-0.6930541363392605,-0.07639900146867286,2
273,2024-09-16 20:55:20.588394043,0,006,0.12540487916129506,-0.04633261317536381,1.8185022334015946,-0.29423655793267034,0.1291009557777085,0.0015933006729586358,-0.8276991132941461,-0.027594643497792212,2
274,2024-09-16 20:55:20.651513184,0,006,0.10439845813993287,-0.04485013756487584,1.7725175139176486,-0.26876300835623923,0.12484443533209816,0.003309326574743604,-0.957886138401439,0.018841873821213384,2
275,2024-09-16 20:55:20.729160156,0,006,0.07883422982964734,-0.04172717975737535,1.694736329825784,-0.23591863023513834,0.118551975728016,0.0054490487198617646,-1.073771184382952,0.06003207592350415,2
276,2024-09-16 20:55:20.796947998,0,006,0.04988885396980779,-0.037072178673628726,1.5804613380878267,-0.1948927311105599,0.11052962046403639,0.007902852618758172,-1.1663524807106442,0.09352013418468791,2
277,2024-09-16 20:55:20.851600830,0,006,0.018822305716492165,-0.0310574746332758,1.4267677783413626,-0.14531061034510726,0.10088681318310738,0.01060673639457928,-1.2282202758935605,0.11745506324726648,2
278,2024-09-16 20:55:20.932395020,0,006,-0.013100727688530128,-0.023904217626799076,1.2331479855772192,-0.08744187360127163,0.08957340986583637,0.013529733041119393,-1.2539835282329164,0.1306705811716526,2
279,2024-09-16 20:55:21.000197021,0,006,-0.044684078830185034,-0.015856588734578472,1.0018997871149102,-0.02232315179971385,0.07644204920891487,0.01665713439366537,-1.2405326333637394,0.1327171292128673,2
280,2024-09-16 20:55:21.944508057,0,006,-0.07485812212427918,-0.00715253212279746,0.7382009357805549,0.0482174429841079,0.06131623642186667,0.019975216464954405,-1.1873122582460656,0.12387972708714655,2
281,2024-09-16 20:55:22.007291016,0,006,-0.10271702201565763,0.0020003478643319983,0.4498888213194923,0.1216292137090234,0.0440556443441583,0.02345910236656245,-1.096572134853846,0.10517865773810915,2
282,2024-09-16 20:55:22.070224121,0,006,-0.12754332111685832,0.011437996371765975,0.14703888552849687,0.19479801163172764,0.02462901424249749,0.027064022279180543,-0.9733468680599994,0.07832800979456904,2
283,2024-09-16 20:55:22.147706055,0,006,-0.148826642890859,0.021040123688109567,-0.15862074512009622,0.2642924405331992,0.00319454046053397,0.030721458603300375,-0.8250077733010706,0.04563521868191591,2
284,2024-09-16 20:55:22.215418213,0,006,-0.16627063432631733,0.030720424436655406,-0.4545381599077364,0.32668470574219277,-0.01983408384963959,0.03433983873828116,-0.6605285524394976,0.009852442437874169,2
285,2024-09-16 20:55:22.283155029,0,006,-0.17978280510824637,0.04041474318780701,-0.7284357765470362,0.37891377275371274,-0.04376496826374699,0.03780658802694806,-0.4896981614874932,-0.026003148707687565,2
286,2024-09-16 20:55:22.350906982,0,006,-0.18944828636114275,0.05007334110332374,-0.969496130712413,0.4186323913688432,-0.06767135960543474,0.04099023686598712,-0.3223925206194794,-0.05885015981912064,2
287,2024-09-16 20:55:23.269352051,0,006,-0.195486548743184,0.059656576252318474,-1.169333405579261,0.4444633147963294,-0.09050183595335215,0.04374560553043549,-0.1679624596548042,-0.08574959547250716,2
288,2024-09-16 20:55:23.337116943,0,006,-0.19819572827636123,0.06913038052275965,-1.3225190067024724,0.45610547632634174,-0.11122922699546717,0.0459259650141197,-0.03478113357248684,-0.10410539493226832,2
289,2024-09-16 20:55:23.404844971,0,006,-0.19790520916947363,0.07846005161000215,-1.4266092298474655,0.45427956916522116,-0.12899866874905874,0.04740261269903344,0.07010511371045686,-0.11185688317039275,2
290,2024-09-16 20:55:23.472489014,0,006,-0.19495412996067274,0.08760364431551652,-1.481801713007985,0.44055400106889214,-0.1432416812269403,0.048087370810689097,0.14132781642558054,-0.10764743748708443,2
291,2024-09-16 20:55:23.539586182,0,006,-0.18968832445976896,0.09650815378830692,-1.4904235005119983,0.4171109004763107,-0.15373288101522076,0.04795087436919496,0.1755460231928219,-0.09093491791647147,2
292,2024-09-16 20:55:23.605687012,0,006,-0.18245452793148284,0.10511100595923194,-1.456404431690524,0.38649723651972123,-0.16058351833849469,0.0470315810274623,0.17168599322560513,-0.0620252651868433,2
293,2024-09-16 20:55:23.675703125,0,006,-0.17358279777605157,0.11334579447308189,-1.3848320270176209,0.3513919118042111,-0.16419185414543078,0.04543418160600521,0.13103402685226506,-0.02205159235814206,2
294,2024-09-16 20:55:24.617084961,0,006,-0.1633671600325598,0.1211486442829866,-1.281674096145876,0.3144148597524773,-0.16517845898684447,0.04331734383738205,0.05728209177578809,0.027063685632167638,2
295,2024-09-16 20:55:24.679087891,0,006,-0.15205933397617585,0.12846148153722856,-1.1536888242171008,0.2779865171943914,-0.16431505467172142,0.040872140059733504,-0.04343834182749665,0.08266396178581986,2
296,2024-09-16 20:55:24.755033936,0,006,-0.13988079978200538,0.13523000923127176,-1.0084248637541908,0.2442266859132833,-0.16243819798749173,0.0382973362697631,-0.16273602836957704,0.1414797417902083,2
297,2024-09-16 20:55:24.822635010,0,006,-0.1270481071435555,0.14139739054826184,-0.8541835241872906,0.2148842101451382,-0.16034433978394014,0.03578080477495273,-0.2905730791018826,0.1998550213063412,2
298,2024-09-16 20:55:24.890522949,0,006,-0.11379614271203234,0.14689661578372828,-0.6998401475175132,0.19128931564380827,-0.15867999894943582,0.033491726720144416,-0.41620349857634825,0.2540488395275344,2
299,2024-09-16 20:55:24.956525879,0,006,-0.10037613276381076,0.1516435434092211,-0.5544150296685605,0.17430476306022638,-0.1578525031015451,0.03157930583325422,-0.529115470888609,0.3005352709680438,2
300,2024-09-16 20:55:25.024802979,0,006,-0.08702001682702602,0.1555327930385186,-0.4263625363469146,0.1642627567926586,-0.15798145814224962,0.03016937561143212,-0.6198441077289751,0.33624710278232867,2
301,2024-09-16 20:55:25.968520996,0,006,-0.07389435308972946,0.158440283735093,-0.3227632902667597,0.1609234166497808,-0.15889853616754754,0.029355153256978645,-0.6807305108449655,0.35875394302379754,2
302,2024-09-16 20:55:26.036303955,0,006,-0.06107476273326673,0.1602337115872251,-0.24872816958119334,0.16351128885320554,-0.16020025056495008,0.029187220599357768,-0.7066202774716113,0.3663893268567169,2
303,2024-09-16 20:55:26.103368896,0,006,-0.04855271098347714,0.16078713003232295,-0.20719644920280808,0.17084348732970178,-0.16135537683488266,0.02967129465706136,-0.6953435031284252,0.3583440785667117,2
304,2024-09-16 20:55:26.163875977,0,006,-0.036275202182426386,0.15999513887745584,-0.19907901401027828,0.18151142412360677,-0.16184878771588934,0.03077739810477427,-0.6478162303439915,0.3347214057121728,2
305,2024-09-16 20:55:26.227878174,0,006,-0.024211786927741917,0.15778498839332383,-0.22356600545090055,0.1940622079195617,-0.16131574486909395,0.03245540135965112,-0.5677000828879933,0.29652085908374265,2
306,2024-09-16 20:55:26.306187012,0,006,-0.01242133917004322,0.15412593612568512,-0.2784550984062779,0.20713559647699278,-0.15961691000716496,0.034647640174713834,-0.4606999175694199,0.24553034073015004,2
307,2024-09-16 20:55:26.365931152,0,006,-0.0010819258393282962,0.1490356529609473,-0.36047383925274384,0.21953914073136402,-0.15683950123465723,0.03729280541046428,-0.33370288341162563,0.18414555681431694,2
308,2024-09-16 20:55:27.307178955,0,006,0.009529027433238682,0.14258423179970914,-0.4656043314880822,0.23027315097455095,-0.15324891612136982,0.040321414127369004,-0.19395442915058436,0.11515191710758803,2
309,2024-09-16 20:55:27.384870117,0,006,0.019094231993194717,0.13489482960951868,-0.5893636944423232,0.2385245223413195,-0.14921829178661514,0.04364679964919681,-0.04838205955616228,0.04149766318760091,2
310,2024-09-16 20:55:27.446894775,0,006,0.027337620111491625,0.1261384622244785,-0.727000046976736,0.2436451191778057,-0.14514488210451157,0.0471566127149513,0.09686699536993122,-0.03391265928121867,2
311,2024-09-16 20:55:27.521840088,0,006,0.03410075928025018,0.11652187671233988,-0.8736425852201348,0.24513290930221102,-0.14135926770975787,0.05070888244248967,0.23665135631488768,-0.10837801283705042,2
312,2024-09-16 20:55:27.589494873,0,006,0.03939020471101938,0.1062695875834809,-1.0244519175300497,0.2426283643490406,-0.13805023602097025,0.05413423179219025,0.366859478066119,-0.179503219870892,2
313,2024-09-16 20:55:27.647659180,0,006,0.04338871394084386,0.09560319737549196,-1.1747396482475334,0.23591953712847574,-0.1352342548830821,0.057243465500907365,0.4842893643689901,-0.2452459565323721,2
314,2024-09-16 20:55:27.724966064,0,006,0.046436633245656146,0.08472346598080567,-1.319990204229558,0.2249353884937527,-0.13277744353405457,0.059838893617727866,0.5864871399453746,-0.30392023701245446,2
315,2024-09-16 20:55:28.634211914,0,006,0.048992100859606695,0.0738003876049631,-1.4557683237849888,0.2097121205003871,-0.13045491172478715,0.06172864048923755,0.6716903384983011,-0.3541794470029004,2
316,2024-09-16 20:55:28.711530029,0,006,0.0515738619588985,0.06297227687969478,-1.5775941026844569,0.19034329763910668,-0.12802731159321534,0.0627440575534568,0.7389002716294246,-0.39499921423347617,2
317,2024-09-16 20:55:28.779270020,0,006,0.054687986293511105,0.05234999135674221,-1.6809367343185075,0.16695167819254614,-0.1253107598277386,0.06275869736062555,0.7879427931903144,-0.425671843927261,2
318,2024-09-16 20:55:28.846995117,0,006,0.058751739405583446,0.04202062343251768,-1.7613923547146682,0.1397098513216187,-0.12221098510164986,0.061703792665897685,0.8194358692938785,-0.44582766732683776,2
319,2024-09-16 20:55:28.914743896,0,006,0.06403819481578558,0.032047309841239165,-1.8149278121290573,0.10889028227577074,-0.11870781127387434,0.05957460614449415,0.8347456777730904,-0.4554871387443217,2
320,2024-09-16 20:55:28.971502930,0,006,0.07065291576683339,0.02246686193514422,-1.8380616818198232,0.074904699734473,-0.1148088156205755,0.0564271823755329,0.8360050614364198,-0.45511103707303746,2
321,2024-09-16 20:55:29.050271973,0,006,0.07853079400063337,0.013291249850222807,-1.82803067913616,0.038324947206360815,-0.11051232817676074,0.05237045129143712,0.826145058222051,-0.4456042385990289,2
322,2024-09-16 20:55:29.993926025,0,006,0.08743065738792585,0.0045185018011320325,-1.783044153064419,-9.380716820009008e-05,-0.10580680896825802,0.047556962092507454,0.8088208226074728,-0.42825237565968266,2
323,2024-09-16 20:55:30.058434082,0,006,0.09692416411700645,-0.0038486134624505625,-1.7025894635392278,-0.039383301657903214,-0.10069584533197956,0.04217084948937619,0.7880951285101685,-0.4045851162579571,2
324,2024-09-16 20:55:30.129451904,0,006,0.10640900030321307,-0.01178663674902602,-1.5876588785993169,-0.07835009899293777,-0.09521904760100974,0.036412903251680534,0.7678049832513949,-0.37617128450712106,2
325,2024-09-16 20:55:30.197175049,0,006,0.11517613551864472,-0.01924916013916798,-1.4408041526252706,-0.11560868569051919,-0.08945336368821462,0.03048591874494904,0.7507540433118252,-0.3443987818471464,2
326,2024-09-16 20:55:30.258966064,0,006,0.12252002495462047,-0.02617922244924135,-1.2659876381669213,-0.14966704281173562,-0.08349740103080318,0.02458133648527128,0.7380765845738418,-0.31033257028588696,2
327,2024-09-16 20:55:30.321320068,0,006,0.12785095925047985,-0.03252689432596939,-1.0682824529783412,-0.17904259194271882,-0.07745076666731104,0.018866311838579827,0.7290441271766464,-0.2747045199593586,2
328,2024-09-16 20:55:30.400371094,0,006,0.13077441597950792,-0.03826036617275554,-0.8535729608333326,-0.20237016204431602,-0.07140288336388273,0.013474109824268242,0.7213177139365798,-0.2380065874991702,2
329,2024-09-16 20:55:31.342116211,0,006,0.1311213144053521,-0.04336468452415075,-0.6283777901664115,-0.2184831730944649,-0.06543313220387559,0.00850220903044702,0.7115076497673997,-0.20062750444172595,2
330,2024-09-16 20:55:31.404709961,0,006,0.128933114182064,-0.04783155887348794,-0.39973609281142813,-0.2264860377405433,-0.059606281182961324,0.004016392368879741,0.6959059812487518,-0.16299108255879313,2
331,2024-09-16 20:55:31.479325928,0,006,0.12442341460475943,-0.05164984923492828,-0.17501631075210938,-0.22583595024258885,-0.05394701360238599,5.308332299086047e-05,0.6711903477353034,-0.12565252516377579,2
332,2024-09-16 20:55:31.544766113,0,006,0.11793745011599761,-0.05480404595509127,0.03837115548936473,-0.2164163032220814,-0.04839623006728908,-0.003385585703213298,0.6348501114116016,-0.08929958066557593,2
333,2024-09-16 20:55:31.607712891,0,006,0.10991142889918615,-0.057278958994575184,0.23328451242959014,-0.19857290724970486,-0.04277223944101666,-0.006341331745964378,0.5852686764855289,-0.05465297712015814,2
334,2024-09-16 20:55:31.682065918,0,006,0.10082144624941476,-0.05906214319157089,0.4031401078645584,-0.17310688672549565,-0.0367649034469666,-0.008905441917797281,0.5216477483690368,-0.022337086159190278,2
335,2024-09-16 20:55:31.748833984,0,006,0.0911215790655903,-0.06013834574233696,0.5421458257935728,-0.14123167662526273,-0.02997674508919567,-0.011213332733203539,0.4439988972625593,0.007201224266997039,2
336,2024-09-16 20:55:32.687625000,0,006,0.08118319584744586,-0.06047784358463816,0.6454462114971494,-0.10450051079197749,-0.022002475436699073,-0.013427232142729536,0.3532739836771179,0.03371905181106569,2
337,2024-09-16 20:55:32.761833008,0,006,0.07124666005362473,-0.0600249825671772,0.7092310045711905,-0.06471242583646557,-0.012517124438653182,-0.01571393344413892,0.25155392421249656,0.05718579326712116,2
338,2024-09-16 20:55:32.829531982,0,006,0.06139642841571222,-0.058694788845887406,0.7309217643067378,-0.02380316748290163,-0.0013360062737836518,-0.018227445529242662,0.14216937144098496,0.07777426985741662,2
339,2024-09-16 20:55:32.897224854,0,006,0.05157542723254979,-0.05638432029956959,0.7094737251959703,0.016281157900887636,0.011572518675286652,-0.021101527172834325,0.029650363566402133,0.09580956176142362,2
340,2024-09-16 20:55:32.964958984,0,006,0.04164523165502913,-0.05299787667223854,0.6457144426632989,0.05372263502298769,0.026110107378238483,-0.02444879289060464,-0.08056694202760928,0.1116864305521808,2
341,2024-09-16 20:55:33.032682861,0,006,0.03147458874401196,-0.048475813996412126,0.542628659029249,0.08695316818160238,0.04207248960753715,-0.028357928815402424,-0.18269706228155583,0.12579364262073983,2
342,2024-09-16 20:55:33.089240967,0,006,0.021021257323461436,-0.04281476073573615,0.4055081870095093,0.1147335154438264,0.05914051715449804,-0.032882893746647684,-0.27134040029414097,0.13846073160274008,2
343,2024-09-16 20:55:34.044021973,0,006,0.010375330037367273,-0.036073158764144325,0.24183113710498652,0.13619749578001583,0.07683402898201953,-0.03802586184107807,-0.3422062728262443,0.14991720608886502,2
344,2024-09-16 20:55:34.110032959,0,006,-0.00024583541681521203,-0.028363298426652788,0.060761990995716296,0.15087854422821273,0.09445702541827887,-0.04372102928959015,-0.39266312685214666,0.16026923077191232,2
345,2024-09-16 20:55:34.179458984,0,006,-0.010541088916456946,-0.01983496132192978,-0.12763669367819905,0.15871454920232342,0.11107564679722885,-0.04982666080492442,-0.422111333483863,0.16952943059039174,2
346,2024-09-16 20:55:34.247166992,0,006,-0.020195543922260754,-0.010657231417756775,-0.31318153183987973,0.1600088832518618,0.1255633485424803,-0.05613073389054643,-0.4322094336110607,0.17771362649224545,2
347,2024-09-16 20:55:34.314898926,0,006,-0.028970109860349848,-0.0010030660294624918,-0.4860536637178937,0.15533004017550398,0.13671675540738348,-0.062370359719498045,-0.4268359179887928,0.18494928013895912,2
348,2024-09-16 20:55:34.372972900,0,006,-0.036795784556363294,0.00896392917338814,-0.6370053223709157,0.14536853060171043,0.1434069524170904,-0.06825863828798942,-0.4116167092887693,0.19152057324665045,2
349,2024-09-16 20:55:34.450375977,0,006,-0.04384371599388873,0.019102776445139472,-0.757573625444128,0.13080778465292742,0.14472526115555462,-0.07351183179331441,-0.3929981411304392,0.19782655667399826,2
350,2024-09-16 20:55:35.358556152,0,006,-0.05054802563709466,0.029307680225240558,-0.8405356536631622,0.11226149178656653,0.1401067973054384,-0.07787427811972894,-0.3770228056492842,0.2042744199620808,2
351,2024-09-16 20:55:35.435724121,0,006,-0.05757983684903159,0.03951695110982722,-0.8805704271141631,0.09029282641959586,0.129421660305206,-0.08113936812829324,-0.36810118233348754,0.21114349133553034,2
352,2024-09-16 20:55:35.504582764,0,006,-0.06577358654922842,0.0497149908623992,-0.874919392941925,0.0654957809797881,0.11300633377912439,-0.08316024035449171,-0.36813568980781175,0.21846577535573464,2
353,2024-09-16 20:55:35.572284912,0,006,-0.07600408657465385,0.05992453455837595,-0.8238844311567053,0.03860406475292515,0.09161119818855713,-0.08384364056620594,-0.3762268528515591,0.22597034461866142,2
354,2024-09-16 20:55:35.639964111,0,006,-0.08903725938353417,0.07018932748082035,-0.7311362030698201,0.010595563843363515,0.06627935023698596,-0.08313016387622046,-0.38891471360061375,0.23311153499440573,2
355,2024-09-16 20:55:35.707674072,0,006,-0.10539616125593894,0.08055142810156934,-0.6038160346335629,-0.017241678436203594,0.038204314543917046,-0.0809737263323794,-0.40073014537595836,0.2391572473960492,2
356,2024-09-16 20:55:35.775404053,0,006,-0.12526529695831695,0.09102930787102534,-0.45230751469840486,-0.043320574395931156,0.008603228500665526,-0.07733168370804577,-0.40488686189108575,0.24329488891492643,2
357,2024-09-16 20:55:36.718449219,0,006,-0.14843778317588768,0.10160275009809044,-0.2895454873943126,-0.06586137310105869,-0.021384621482001792,-0.07216844198638854,-0.39411293221569044,0.2447408176647835,2
358,2024-09-16 20:55:36.787019043,0,006,-0.17431114254317345,0.11220839607346358,-0.12987335275729164,-0.08307418036132055,-0.050769052351891414,-0.06546877148966708,-0.3616780910228002,0.2428693032032532,2
359,2024-09-16 20:55:36.854734863,0,006,-0.2019282765679704,0.1227447391604258,0.012416761523785302,-0.09337978102356013,-0.07874759012200697,-0.05725321979918933,-0.30254261090630624,0.23735622031389703,2
360,2024-09-16 20:55:36.922467041,0,006,-0.23004363959655452,0.13307993586204792,0.12464427235284471,-0.09562818114916108,-0.10472364668727428,-0.047586726289970134,-0.21441365475951343,0.22829418311612418,2
361,2024-09-16 20:55:36.990204102,0,006,-0.2572014460145856,0.14305562647469183,0.19708237338174542,-0.08926656748699388,-0.1283140860593836,-0.03657686630789242,-0.0985106722110707,0.21623870575609588,2
362,2024-09-16 20:55:37.056381836,0,006,-0.281829409855035,0.1524863903131366,0.22379852331372682,-0.0744126779319054,-0.14933511564252183,-0.02436714995847892,0.04009813402319987,0.20217803567577086,2
363,2024-09-16 20:55:37.117229980,0,006,-0.3023447886278541,0.16116134772958327,0.20294322031694825,-0.05182339991803921,-0.16775456804654615,-0.011132335223875665,0.19273457425698928,0.1874386170060196,2
364,2024-09-16 20:55:38.066309814,0,006,-0.3172532624521508,0.1688549732374831,0.13662560715516225,-0.022785303273956777,-0.18362693506520253,0.0029241837184821877,0.34801715387218213,0.17353516518850506,2
365,2024-09-16 20:55:38.136983887,0,006,-0.3252292352223777,0.17534842665538075,0.030526647725959567,0.011031154956792744,-0.19704565392351056,0.01757408181667517,0.4933041999344348,0.1619774940817982,2
366,2024-09-16 20:55:38.204652100,0,006,-0.32518907434110916,0.18045624380266204,-0.10664695712402295,0.0477130244004508,-0.2081266484440191,0.03256817494460752,0.616293609517801,0.1540736035185672,2
367,2024-09-16 20:55:38.259001953,0,006,-0.3163731482820091,0.18405052060263605,-0.26383938487294034,0.08521935599890211,-0.21700675799006883,0.04763860292322647,0.7063780051956671,0.1507817793126195,2
368,2024-09-16 20:55:38.340007080,0,006,-0.2984316450801164,0.1860753200654813,-0.42852295619826464,0.12148054379860465,-0.22383654403376596,0.06250045049894448,0.7555903547250411,0.15262807940719134,2
369,2024-09-16 20:55:38.406842041,0,006,-0.2714888296643715,0.18654694711194564,-0.5877910436931043,0.15450653143521179,-0.2287634610460355,0.07685585570921045,0.7591860544635751,0.15966871320792084,2
370,2024-09-16 20:55:38.475448975,0,006,-0.2361646189167045,0.18554212870250483,-0.7294949428071332,0.18250560396115936,-0.23191797477063184,0.09040066924628977,0.7158970502667361,0.17148979211823767,2
371,2024-09-16 20:55:39.394262939,0,006,-0.193551889609446,0.18318306997929176,-0.8432542613732761,0.2040036992353452,-0.2334150784138052,0.10283064590016759,0.6278159930865193,0.18726142415180236,2
372,2024-09-16 20:55:39.462060059,0,006,-0.14516336760719484,0.17962972163547936,-0.9213298492907899,0.2179656474537253,-0.23336772060088667,0.11384587167895668,0.4999243171594467,0.20584836426048386,2
373,2024-09-16 20:55:39.529823975,0,006,-0.09286846313480773,0.17508410522844317,-0.959338501644629,0.22391579531672914,-0.23190218995587134,0.123157058932685,0.3394131286610661,0.22594480745616388,2
374,2024-09-16 20:55:39.597528076,0,006,-0.03882879715409244,0.16980208097995628,-0.9566787791044956,0.22202878682001453,-0.22917246549603357,0.13049894197084086,0.15497711568180103,0.24619747436968703,2
375,2024-09-16 20:55:39.654447998,0,006,0.01458728862722648,0.16409948398170993,-0.9165630875040975,0.21314631103772844,-0.2253703943416367,0.13565154435245616,-0.04382590869052517,0.26530792550806614,2
376,2024-09-16 20:55:39.733020020,0,006,0.06494237206573786,0.15833880824147312,-0.8456014840257734,0.19868698175609614,-0.22072406834257835,0.13846367227486256,-0.2471737587290257,0.2821224807157991,2
377,2024-09-16 20:55:39.800823975,0,006,0.10992475884791993,0.15289206681069992,-0.7528919281190439,0.18044380372879945,-0.21548350119348872,0.13887015614942316,-0.44564086553672544,0.2957145456537152,2
378,2024-09-16 20:55:40.735662842,0,006,0.14756591168758237,0.14808978687619226,-0.6487128350712681,0.1603040379018643,-0.20990493037247102,0.13689739332283607,-0.6309352096202042,0.3054479430562243,2
379,2024-09-16 20:55:40.812318115,0,006,0.17642391857561143,0.14417569735398472,-0.543108655371055,0.13996381041187742,-0.20424845599572347,0.13265887134980778,-0.7965098635645895,0.31099870936189855,2
380,2024-09-16 20:55:40.880047119,0,006,0.1956817868847143,0.14128429028388814,-0.4446642482393531,0.12070924939349596,-0.19879488169962883,0.12634742142027305,-0.9378188225360335,0.31232738486467926,2
381,2024-09-16 20:55:40.947822021,0,006,0.20513959727198788,0.13944603531022964,-0.35963777009265757,0.10329474831729747,-0.1938713367919305,0.11822880693054794,-1.0521959840335915,0.3096187359312403,2
382,2024-09-16 20:55:41.015480957,0,006,0.20512092356278736,0.1386120913903378,-0.2915422019167962,0.08790892677326274,-0.18986380508360803,0.10863656368448067,-1.1385187360520246,0.30321387061526905,2
383,2024-09-16 20:55:41.083177979,0,006,0.1963439187624659,0.13868360426428736,-0.24120865985042428,0.07421391174920595,-0.1871990773419445,0.09796647701727533,-1.1968374221053497,0.29355464859562197,2
384,2024-09-16 20:55:41.150888916,0,006,0.1798089091489234,0.13953157349761444,-0.20726457650261956,0.061461036754763464,-0.1862935224429771,0.08666730277907501,-1.2280703438606662,0.28115123792323127,2
385,2024-09-16 20:55:42.081507812,0,006,0.15672549480176842,0.14100225689660142,-0.18685987585487834,0.04868485494450005,-0.18748061604221758,0.07522222940047883,-1.233775203129951,0.2665645104710929,2
386,2024-09-16 20:55:42.162183105,0,006,0.12846936590565333,0.14291470695203515,-0.1764302746191462,0.034939647355846676,-0.1909398715865142,0.06411905168385135,-1.2159677973622856,0.2503767794339562,2
387,2024-09-16 20:55:42.229918945,0,006,0.09655169862696845,0.1450611843987124,-0.17231364755376638,0.019506773724212632,-0.1966562009768912,0.05381446185388816,-1.1769695484560663,0.23314133434411075,2
388,2024-09-16 20:55:42.297652100,0,006,0.06258732948438847,0.14721663118527195,-0.17113215879844607,0.002021025280479671,-0.20443512005644815,0.044701946543888496,-1.1192955726433225,0.21534278091090023,2
389,2024-09-16 20:55:42.365397949,0,006,0.028241682230185507,0.1491562756535888,-0.16999511795687194,-0.017475744549597824,-0.2139740707447666,0.0370903940264763,-1.0455906515832678,0.19740151702900263,2
390,2024-09-16 20:55:42.433141846,0,006,-0.004858153828678992,0.150674733262314,-0.1666777744889317,-0.03851485941578472,-0.22495173894333276,0.03119355261187449,-0.9585677661161854,0.17970372244090566,2
391,2024-09-16 20:55:42.500884033,0,006,-0.035237186806263456,0.151598710959916,-0.15988011101340402,-0.06019826457582407,-0.23707952595860632,0.027123663853557068,-0.8608927776746547,0.16260427863921367,2
392,2024-09-16 20:55:43.444106201,0,006,-0.06168246145551919,0.15178972024032308,-0.14947871991202674,-0.08123440374584677,-0.2500800109771195,0.024882243329353463,-0.755047999807154,0.14638319900126398,2
393,2024-09-16 20:55:43.500050049,0,006,-0.08332191620771585,0.1511391520964687,-0.1365572444935386,-0.10004763915344216,-0.26360260652376755,0.024348640023349796,-0.6432683881911924,0.1311882844125276,2
394,2024-09-16 20:55:43.579564941,0,006,-0.0996551429889559,0.14956197128559587,-0.1231197798720779,-0.1149714961239695,-0.27712866682154436,0.02527462060618175,-0.5275325695498766,0.11699145099363376,2
395,2024-09-16 20:55:43.647256104,0,006,-0.1105362660652621,0.14699628597619738,-0.11160946130043255,-0.12449338181411497,-0.28992347220208564,0.02729221619517211,-0.40945347262249726,0.10354364588544987,2
396,2024-09-16 20:55:43.714979980,0,006,-0.11612726958465498,0.14341223636892111,-0.10439777252569661,-0.12749304134954928,-0.30105282255409055,0.029934846536853826,-0.29001992244005753,0.09031897263711203,2
397,2024-09-16 20:55:43.782628174,0,006,-0.11684139694631962,0.13882465845905229,-0.10331746750345938,-0.12342153261448573,-0.309440804113909,0.03266780445575595,-0.16940409557021932,0.07649028731704466,2
398,2024-09-16 20:55:43.840843018,0,006,-0.11328162696006298,0.13329794234284773,-0.10926794050917293,-0.11239439183751625,-0.31394347720979987,0.03492520963689426,-0.04711441027432335,0.0609973177144638,2
399,2024-09-16 20:55:44.792610107,0,006,-0.1061734203652372,0.1269371257903161,-0.12193994941083566,-0.09520041717782908,-0.31343184424849246,0.0361497999584532,0.07746762108623753,0.04272716900366796,2
400,2024-09-16 20:55:44.861375977,0,006,-0.09629925117264615,0.1198707997121386,-0.13973469810055772,-0.07323702667046512,-0.30688303372741566,0.035830229018721765,0.2044127159310116,0.02076249856269095,2
401,2024-09-16 20:55:44.928237061,0,006,-0.08444394623224605,0.11223582295128307,-0.1599428754438623,-0.04838417399828827,-0.29347773508735386,0.03353423033475484,0.33270416010241244,-0.0053792129300103825,2
402,2024-09-16 20:55:44.986819092,0,006,-0.07135200236451736,0.10416916483846707,-0.17914466984954378,-0.022834011566576704,-0.2727028720660616,0.028940646890932047,0.4599022663016804,-0.035564079632769405,2
403,2024-09-16 20:55:45.064496094,0,006,-0.057693392079372255,0.09580551908395242,-0.1936717882621506,0.0011052768581433102,-0.24444551356589014,0.021870153383786065,0.581962246911501,-0.06893151017701869,2
404,2024-09-16 20:55:45.132375977,0,006,-0.04403367853010807,0.08727551833451282,-0.19999080988817947,0.021220202015502718,-0.2090418851932087,0.012307269159377828,0.6932358782955165,-0.10387682325466428,2
405,2024-09-16 20:55:45.187795898,0,006,-0.030808875002373122,0.0787001575965985,-0.19499414608257323,0.03561013349864853,-0.16724502893770604,0.00040450700817956165,0.7867603266111295,-0.13815606992980087,2
406,2024-09-16 20:55:46.118065185,0,006,-0.01831268257599124,0.07018121574648764,-0.17625711777399716,0.042893730101543875,-0.12010992064820351,-0.013535320290041848,0.8549011704646083,-0.16911215121841303,2
407,2024-09-16 20:55:46.185875000,0,006,-0.006698637802777937,0.061790586342493695,-0.14228305428278565,0.04236573879026123,-0.06884147370281148,-0.0290947353569022,0.8903315846154519,-0.19399008985325414,2
408,2024-09-16 20:55:46.251071045,0,006,0.004015300109996621,0.05356155055658797,-0.09270383305132665,0.034066714514750324,-0.014664396432709493,-0.04578602230980193,0.887162288436464,-0.21029366723657641,2
409,2024-09-16 20:55:46.321322021,0,006,0.013954954925071806,0.045484071356069695,-0.028398702295929088,0.018748481231375486,0.041256200121604955,-0.0630956339060513,0.8419056273805855,-0.21612645834405178,2
410,2024-09-16 20:55:46.389064941,0,006,0.023405999133037834,0.03750602098690125,0.048492039196538717,-0.0022547684704587894,0.09784682251328668,-0.08052155806871475,0.7540802896590658,-0.21046412505714843,2
411,2024-09-16 20:55:46.456814941,0,006,0.0328055024844455,0.029542942873007235,0.13469804367241786,-0.027215744543305054,0.15411716471688008,-0.09759632907116612,0.6264475727715875,-0.19331460858000327,2
412,2024-09-16 20:55:46.512814941,0,006,0.04267730432438593,0.02149635077110429,0.2261692584777139,-0.054229889660120136,0.20911523705610607,-0.11389115104041282,0.46491354566701054,-0.16575046982300265,2
413,2024-09-16 20:55:47.468241943,0,006,0.05351767640860082,0.013273325688086228,0.3186645725771701,-0.08143639408480148,0.2618698499590888,-0.12900627724181732,0.2782063828864945,-0.12985024119502206,2
414,2024-09-16 20:55:47.536012939,0,006,0.06567030315827418,0.00479881184335833,0.40839967225147455,-0.10720803118514097,0.31136336419126875,-0.14256177854626897,0.07748594842157193,-0.08859244627815807,2
415,2024-09-16 20:55:47.603813965,0,006,0.07922990098594493,-0.003978789028338314,0.49246237962686473,-0.13025689397542817,0.35655601262125536,-0.1542014052786024,-0.1241399399736206,-0.04568404171392985,2
416,2024-09-16 20:55:47.663454102,0,006,0.09400209435437384,-0.013082333546978218,0.5688887182522943,-0.14963742089001467,0.3964407878704487,-0.16361216273705437,-0.3123911487950123,-0.0052757243187814,2
417,2024-09-16 20:55:47.725013916,0,006,0.10953535729822109,-0.022500256140855643,0.6365591494452041,-0.1646847167661886,0.4300972785892626,-0.17055358055651998,-0.47298307611777035,0.02843259730741471,2
418,2024-09-16 20:55:47.803384033,0,006,0.1252249884436916,-0.032186674797302806,0.6950891111711814,-0.17494067882958503,0.456735278052584,-0.17488820907801955,-0.5930721083668259,0.05163599997292269,2
419,2024-09-16 20:55:47.874812988,0,006,0.14046663060202835,-0.04207206831512543,0.7447167380765453,-0.18009276347778938,0.4757355023047186,-0.17660507136311138,-0.6627354203997853,0.06134629615651671,2
420,2024-09-16 20:55:48.818996826,0,006,0.1548086844798461,-0.0520808712187368,0.7861253521531028,-0.1799291385914672,0.48669408582698986,-0.17582919511725706,-0.6762030013933656,0.055729921297687765,2
421,2024-09-16 20:55:48.875804932,0,006,0.1680408203360656,-0.062144252556400346,0.8202368855496561,-0.1743179052339935,0.48947716740800573,-0.17281597125487405,-0.6325889520396715,0.03431097011617067,2
422,2024-09-16 20:55:48.954493896,0,006,0.1801821423109119,-0.07219707069997483,0.8480985556447139,-0.16322435498142587,0.4842921843209965,-0.16793610175699766,-0.5359913389514086,-0.0019967759225725692,2
423,2024-09-16 20:55:49.022214111,0,006,0.1913826073364235,-0.08215826556430249,0.8709368217234733,-0.14677096859734917,0.4717633064087827,-0.16165659026891568,-0.39499857415844586,-0.05102799665268079,2
424,2024-09-16 20:55:49.076665039,0,006,0.2017878396852282,-0.09190422714861649,0.8903079409813155,-0.12531882282818035,0.4529635888643631,-0.15451473956973152,-0.22174430579652932,-0.10962343555622579,2
425,2024-09-16 20:55:49.157811035,0,006,0.2114217917935288,-0.10124793640072409,0.9081631378025957,-0.09952478323556704,0.4293527699496505,-0.14707725418647286,-0.0306581093330267,-0.17394142811653837,2
426,2024-09-16 20:55:49.225400879,0,006,0.22012554813178434,-0.10993510761637038,0.9267030035227187,-0.07034450632218782,0.4026232666103833,-0.13988466022224097,0.16295844389039685,-0.23978667892466643,2
427,2024-09-16 20:55:50.144478027,0,006,0.2275683057297031,-0.11766327163711814,0.948090979247801,-0.03899854631286645,0.3745169794417413,-0.13339468611838978,0.34435955362220827,-0.3029424369734831,2
428,2024-09-16 20:55:50.197346924,0,006,0.23331662528760835,-0.12411856793283757,0.9741895867309183,-0.006930569666142338,0.3466797750549829,-0.12794240097915716,0.5005493747542015,-0.3594832563266694,2
429,2024-09-16 20:55:50.280062988,0,006,0.2369162515640169,-0.12901415000982555,1.0063841184528277,0.02424463574199522,0.3205737424454534,-0.12372642973727721,0.6210400837760283,-0.40602787473270335,2
430,2024-09-16 20:55:50.335947021,0,006,0.23793660438342684,-0.13211503002559996,1.0454648383810576,0.052815934671143996,0.29741775153980377,-0.12081744742335604,0.6981384053035897,-0.4398961163522793,2
431,2024-09-16 20:55:50.415489014,0,006,0.23596809384609146,-0.13324693409506605,1.0915434773412525,0.07707209778602324,0.2781174052220592,-0.11917690100769861,0.726891564872384,-0.45916514501048045,2
432,2024-09-16 20:55:50.483104004,0,006,0.23060878058856654,-0.1322987112197544,1.1439986762795578,0.0954218474543665,0.263185678964539,-0.11867549253528441,0.7048895963039882,-0.46265818091005323,2
433,2024-09-16 20:55:50.551001953,0,006,0.22148037606102697,-0.12922939726452903,1.201465304149953,0.10654269624944995,0.2527012766522952,-0.11910919707367744,0.6321089385605196,-0.4499163868652809,2
434,2024-09-16 20:55:51.491285889,0,006,0.2082836653132852,-0.12408385052791643,1.2619042008043606,0.10953951840314399,0.24634472822777215,-0.12021598876012313,0.5108820755399689,-0.4211843143190578,2
435,2024-09-16 20:55:51.561875000,0,006,0.19087820819811152,-0.11701130399428844,1.322771876428798,0.10407235661463497,0.24350218726109502,-0.12169559843993975,0.34591514704167287,-0.3773994806081575,2
436,2024-09-16 20:55:51.627029053,0,006,0.16935985607448775,-0.10827474247242314,1.3812699301461753,0.09041805290699112,0.24339796607284403,-0.12323384158425321,0.1442175692319612,-0.3201609080998839,2
437,2024-09-16 20:55:51.697335938,0,006,0.14410569555286898,-0.09824022719737527,1.4346197703712118,0.06944975098366162,0.2452271782849475,-0.12453345566304307,-0.08512419342979823,-0.25166340370036167,2
438,2024-09-16 20:55:51.764331055,0,006,0.11576497402765638,-0.08734480631174202,1.480289420600395,0.042542321694315495,0.248272892992417,-0.12534932578371052,-0.3313733681252931,-0.17459479914137238,2
439,2024-09-16 20:55:51.832808105,0,006,0.08520100655290498,-0.07605313132949292,1.5161307328624263,0.011432124581225334,0.25199323629823367,-0.12551996013274663,-0.5828234245261273,-0.09199953977964367,2
440,2024-09-16 20:55:51.896808105,0,006,0.05341009078533525,-0.06481642159978497,1.5404715625403858,-0.021942275641555924,0.2560653746170707,-0.12498630141747243,-0.8276591748615706,-0.007127587352279314,2
441,2024-09-16 20:55:52.830226807,0,006,0.021438842882608514,-0.05404144700005834,1.552231137894517,-0.05560339144056787,0.2603813501755703,-0.12379298538645885,-1.0547533413611665,0.07670222818236055,2
442,2024-09-16 20:55:52.911986084,0,006,-0.009686381336802228,-0.04407101685834091,1.5510032864027263,-0.08767900179514501,0.2650069692273091,-0.12207187534416473,-1.254210647779574,0.15621929132259044,2
443,2024-09-16 20:55:52.979726074,0,006,-0.03900415892688399,-0.035174965026329476,1.5369642466320164,-0.11650054606130192,0.27012357320824465,-0.120011229642437,-1.4176993619946692,0.2283306073290679,2
444,2024-09-16 20:55:53.047458984,0,006,-0.06564461384605852,-0.027546835217246407,1.510577478866598,-0.1406559343358378,0.2759565940722562,-0.11781627135666778,-1.5386999273501303,0.2902882289051793,2
445,2024-09-16 20:55:53.115102051,0,006,-0.08887578442498956,-0.021298418769287248,1.4722256533335618,-0.15901663428995855,0.28268422219785283,-0.1156691928859706,-1.6127329333249287,0.3398717484833427,2
446,2024-09-16 20:55:53.169743164,0,006,-0.10818711344693833,-0.01644997354308895,1.421949415456389,-0.1707544465873171,0.2903388966480432,-0.11369660933634933,-1.637564151645244,0.37553088448743316,2
447,2024-09-16 20:55:53.247479980,0,006,-0.12337125919698698,-0.012924711276555806,1.3594523925109505,-0.17536499729006957,0.29873156866988015,-0.11194824958775974,-1.613329123592986,0.3964513790325072,2
448,2024-09-16 20:55:54.194130859,0,006,-0.13455343800557779,-0.010559142006874647,1.2844212236911396,-0.17271335721763545,0.3074202409324481,-0.11038719774042484,-1.5424896300542463,0.4025476011172116,2
449,2024-09-16 20:55:54.261456055,0,006,-0.14215966895623755,-0.009132397533053041,1.1970075636342323,-0.16308772588026169,0.3157252908082586,-0.10889248248355138,-1.4295910021904272,0.39440257558331465,2
450,2024-09-16 20:55:54.329626953,0,006,-0.1468452555182168,-0.008406079618630487,1.098205783366727,-0.14721907634274556,0.32278408487407917,-0.10727515719084765,-1.2808657384263484,0.37316855391920534,2
451,2024-09-16 20:55:54.388969971,0,006,-0.14939732308445877,-0.008161055829055035,0.9899604929688575,-0.12623423551581625,0.3276426754781602,-0.10530676973861995,-1.103762898638302,0.3404378759370094,2
452,2024-09-16 20:55:54.465096924,0,006,-0.1506193672341527,-0.00822069110607585,0.8750271007678597,-0.10154045348719319,0.3293807147917809,-0.10275407530058177,-0.9065094686324936,0.298102918876492,2
453,2024-09-16 20:55:54.525937012,0,006,-0.15122236127427277,-0.008456033629182477,0.7567010577007851,-0.07465785841479794,0.32724265491730814,-0.09940807481355847,-0.697779688084229,0.2482253517311729,2
454,2024-09-16 20:55:54.600585938,0,006,-0.15175583208799456,-0.008775450843146555,0.6385155612957707,-0.04702774127059606,0.3207399275554333,-0.09509736821639073,-0.4864067994747897,0.19291857232706933,2
455,2024-09-16 20:55:55.544339844,0,006,-0.15258861066548904,-0.009109771717270216,0.5239846160633806,-0.01984571610748744,0.30971236869803626,-0.08968705740721061,-0.2809979794687857,0.13423674577692346,2
456,2024-09-16 20:55:55.604510009,0,006,-0.1539190381626512,-0.00940656557733937,0.4164223421870495,0.006031014345269987,0.29435500897246736,-0.0830738454153902,-0.0894417340783316,0.07408140098058577,2
457,2024-09-16 20:55:55.671686768,0,006,-0.1557908904313321,-0.009637644434970156,0.31875984605472624,0.030094462294915202,0.27521122756897337,-0.07518749081109972,0.08157028091676455,0.014157778556461156,2
458,2024-09-16 20:55:55.743333984,0,006,-0.15809974355271517,-0.009812557124392754,0.23329459184408238,0.05213437225128421,0.25312504164523675,-0.066001128157431,0.22689833959360334,-0.044004090815726205,2
459,2024-09-16 20:55:55.814529053,0,006,-0.16057939515879316,-0.009988698464532198,0.1614766116080607,0.07213724998546185,0.2291489550240383,-0.05554644875633471,0.3431217246746885,-0.09899422061360053,2
460,2024-09-16 20:55:55.882726074,0,006,-0.16277522043882944,-0.010271837714993579,0.10384537968944797,0.09016286744847071,0.20441907454675443,-0.043928836765281025,0.4284941774512976,-0.14948690340957552,2
461,2024-09-16 20:55:55.944375977,0,006,-0.16403508738958747,-0.010804456009424791,0.0600687594637575,0.10624978742550026,0.18002064746804317,-0.031337519124402975,0.4827865781548458,-0.1942618518032966,2
462,2024-09-16 20:55:56.868527832,0,006,-0.1635489210160573,-0.011744765251248021,0.028996485971901964,0.12038161100881584,0.15686323910978586,-0.01804385213764339,0.5071981309652344,-0.2322771907367264,2
463,2024-09-16 20:55:56.930972168,0,006,-0.16044332994968813,-0.013244187599643195,0.008723549952828516,0.1325001968631848,0.13558130818991002,-0.004383844079892335,0.5043868757233854,-0.2627411318369668,2
464,2024-09-16 20:55:57.004189941,0,006,-0.15390725336833783,-0.015429883403772547,-0.003322575279006293,0.14252950319434907,0.11648210125155067,0.009269760538937633,0.4784881492702829,-0.2851317406973853,2
465,2024-09-16 20:55:57.069677002,0,006,-0.14330610356044718,-0.018393234481423368,-0.010297414289017119,0.1503870426686782,0.0995529327945225,0.022536021138187173,0.43499893255990774,-0.29917700019615306,2
466,2024-09-16 20:55:57.138389893,0,006,-0.1282554244787717,-0.022180905920027603,-0.015846965678222795,0.15598663723756195,0.08450554596783466,0.03505101690733242,0.38053862767459334,-0.30484710076399457,2
467,2024-09-16 20:55:57.207431152,0,006,-0.1086604071766054,-0.026785071634792313,-0.023900760097826712,0.15924445821812783,0.0708175931746885,0.04649307797994296,0.32255736414402936,-0.30238309000053815,2
468,2024-09-16 20:55:57.269927002,0,006,-0.08473630901204134,-0.03213375919169487,-0.03826847749148354,0.16009328060497574,0.057762069030654166,0.0566093327382359,0.26897917490949524,-0.2923367366829782,2
469,2024-09-16 20:55:58.218981934,0,006,-0.05700330585718573,-0.03808734017288453,-0.062096622589408006,0.15850720645227703,0.04446466432202416,0.06523519594892277,0.2276525280061603,-0.2755769008486801,2
470,2024-09-16 20:55:58.285875977,0,006,-0.026246410921257794,-0.04444673599561632,-0.097320255746619,0.1545337330287467,0.03003658283874876,0.07229486309072027,0.20554089403209044,-0.25323607539989124,2
471,2024-09-16 20:55:58.354507080,0,006,0.006548604099601581,-0.05097272879395744,-0.1442376924235032,0.14831668230622547,0.013777430929974393,0.0777811124166488,0.20778746039438648,-0.22660394450131827,2
472,2024-09-16 20:55:58.422240967,0,006,0.04026180257350308,-0.0574091582284184,-0.20129538114582451,0.1400928498847287,-0.004623312174026836,0.08172621496612424,0.23689577382969135,-0.1969958868641947,2
473,2024-09-16 20:55:58.489958984,0,006,0.07368924306976707,-0.063499676006139,-0.26510208349887554,0.13016400828214228,-0.02497354904132577,0.08417802471793041,0.29223537481395334,-0.16562436775403425,2
474,2024-09-16 20:55:58.557683838,0,006,0.10557267311513736,-0.06899177335770246,-0.3306781929272678,0.1188631532950384,-0.04659543228719322,0.08518636270484779,0.36998614357410187,-0.1334932201957577,2
475,2024-09-16 20:55:58.614799072,0,006,0.13463076533386537,-0.07363257790374907,-0.3920073562374588,0.10653434196461221,-0.06844987538999642,0.0847971850752694,0.46351375344961615,-0.10133272203251897,2
476,2024-09-16 20:55:59.568813965,0,006,0.1596156935443669,-0.07716825699824698,-0.44290271272104115,0.09352926869473825,-0.08931064155272132,0.08305264337739007,0.5641150811224819,-0.06959502308657657,2
477,2024-09-16 20:55:59.637325928,0,006,0.1793910518406935,-0.07935604022906116,-0.47800571666586195,0.08020729302798182,-0.1079248539325529,0.07999714608206807,0.6620814941918695,-0.03852336067547404,2
478,2024-09-16 20:55:59.705064941,0,006,0.1930138140950736,-0.07998920736700187,-0.4936710439233602,0.06693283077709208,-0.1231205319941835,0.07568784057797581,0.747939458258096,-0.008281649119102499,2
479,2024-09-16 20:55:59.772798096,0,006,0.19980680833228753,-0.07892573404414714,-0.48861393444375384,0.0540822708252847,-0.1338724594001664,0.07020762137633592,0.8135875222438288,0.020902918148933684,2
480,2024-09-16 20:55:59.831435059,0,006,0.1994068361706656,-0.07610724509519112,-0.46429669645858057,0.04207022700191601,-0.13937535936809106,0.06368158248757771,0.8530808640061167,0.04863115484644861,2
481,2024-09-16 20:55:59.893006104,0,006,0.1917846348644013,-0.07156344362767499,-0.42504329260663737,0.031390667984519754,-0.1391523974208961,0.056296321676378165,0.8630175024008206,0.07427069858281352,2
482,2024-09-16 20:55:59.970205078,0,006,0.17725596940656946,-0.06540935241734239,-0.37785600764319166,0.022661495052195436,-0.13317156310487124,0.048313500965031723,0.8426273532242785,0.09694083799057292,2
483,2024-09-16 20:56:00.905700928,0,006,0.1564962295396704,-0.05784253803923564,-0.3318773076887481,0.01665142845256265,-0.12191806941322779,0.04006683678842518,0.7936548714130086,0.11555173174390435,2
484,2024-09-16 20:56:00.982928955,0,006,0.13053881027817557,-0.04913836717904858,-0.29743620645018204,0.014257167157055056,-0.10638631767871343,0.03194147541144841,0.7200885689498393,0.12889916257368103,2
485,2024-09-16 20:56:01.054086914,0,006,0.10073459294431279,-0.03963928662618315,-0.2847473180384005,0.016413914068119432,-0.08797031812981294,0.02434236660306243,0.6278113877066404,0.13579001902558388,2
486,2024-09-16 20:56:01.106304932,0,006,0.06867434412970547,-0.029739067391887537,-0.3025650777371908,0.02396123837625862,-0.06824986123858208,0.017655468580018523,0.5242128311897177,0.13516953167620036,2
487,2024-09-16 20:56:01.185698975,0,006,0.036078746144097826,-0.01986216355767999,-0.3571845311484228,0.03750882770835799,-0.04871714342047926,0.012203645259624902,0.41769563457698883,0.12624362295845937,2
488,2024-09-16 20:56:01.257308105,0,006,0.004651236715794341,-0.010433542725075256,-0.4519674867879654,0.05733658704148465,-0.030531975740250485,0.008204650879227532,0.31701905015196213,0.10859833645319537,2
489,2024-09-16 20:56:01.321625977,0,006,-0.024090125051709245,-0.00183857424857075,-0.5872806445304223,0.08334239051322016,-0.014383607997731149,0.005743760466697479,0.23056366936134967,0.08229725938910558,2
490,2024-09-16 20:56:02.243699951,0,006,-0.048953854098115965,0.005615857920267771,-0.7606619988683461,0.11503513110560341,-0.0004868902349963708,0.004771091826599629,0.16566464657307164,0.047922776691638413,2
491,2024-09-16 20:56:02.299718994,0,006,-0.06914948465145727,0.011723801677559773,-0.9671366091215263,0.15156175352254853,0.011305325390836793,0.005125236454267838,0.12812520881037756,0.006545196329163499,2
492,2024-09-16 20:56:02.379216797,0,006,-0.08429354902088255,0.0163790275097823,-1.1996431531518454,0.1917535687948746,0.021321595278382028,0.006574862510451488,0.12197742768693885,-0.04036433704677225,2
493,2024-09-16 20:56:02.438641113,0,006,-0.09436865923095288,0.019554891299823622,-1.4494854646982995,0.2341759895265996,0.02989129632647541,0.008862364190230872,0.14943744619034902,-0.09104623511984532,2
494,2024-09-16 20:56:02.500379883,0,006,-0.09965774699471149,0.021278327159922093,-1.7067270373431251,0.2771693914500843,0.03722472786356725,0.011735508121267387,0.21089383602943335,-0.14356905621674249,2
495,2024-09-16 20:56:02.582438965,0,006,-0.10066639104494197,0.02161070447112924,-1.9605337440049417,0.3188853315180702,0.043372666140447894,0.014964909626864805,0.30485448580707497,-0.19594802182180399,2
496,2024-09-16 20:56:02.650214111,0,006,-0.09803537908208936,0.02063991391415248,-2.1995608307357957,0.35734232031523716,0.048244277911916864,0.018354156812519094,0.42793000572703005,-0.2462663944831586,2
497,2024-09-16 20:56:03.593708984,0,006,-0.0924476507616479,0.01848021026249565,-2.412472716434596,0.39052323491850444,0.05165046082190374,0.021748218063508094,0.5749518043650039,-0.29278227940131824,2
498,2024-09-16 20:56:03.647154053,0,006,-0.08454801566298972,0.015273578710796373,-2.588567182655341,0.41651094093820606,0.05334565429619095,0.025041640160548106,0.7392541976661802,-0.3339911062528006,2
499,2024-09-16 20:56:03.729234863,0,006,-0.07489422380085131,0.011186429202718225,-2.7183752151921143,0.43363752532364996,0.053057317634460005,0.028185513199871053,0.9130688863593789,-0.3686353986463993,2
500,2024-09-16 20:56:03.786036865,0,006,-0.06393984821302144,0.006398878008748904,-2.7941167734814925,0.44061696595984534,0.05051341434866229,0.031189624544387246,1.0879195566459998,-0.3956864966099141,2
501,2024-09-16 20:56:03.864649902,0,006,-0.052040681741618265,0.0010914915698897274,-2.8099874613510942,0.43663271810885634,0.04548317029327954,0.034116107720943166,1.2549398613974672,-0.4143281127834542,2
502,2024-09-16 20:56:03.925084961,0,006,-0.03948140732130283,-0.004561147064215766,-2.7623531864728665,0.4213639282099023,0.037830566083831424,0.037063870476138225,1.4051520536264,-0.4239602808324241,2
503,2024-09-16 20:56:03.987330811,0,006,-0.026514093673529988,-0.010386598689724445,-2.6499415669094657,0.3949579362049607,0.027569787451101724,0.040145351006072943,1.5297929331608038,-0.4242372319334096,2
504,2024-09-16 20:56:04.943149902,0,006,-0.013386636427697303,-0.016206904186465292,-2.4740437427290445,0.35797649508739615,0.014912765794943416,0.04346028684030368,1.6206980375015148,-0.4151302024780834,2
505,2024-09-16 20:56:05.003127929,0,006,-0.00034387334804594647,-0.02183627939074728,-2.2386750478255415,0.3113427944729508,0.0002930753734245546,0.04707466545548643,1.6706670507906047,-0.39696833752592453,2
506,2024-09-16 20:56:05.068597168,0,006,0.012393092728013175,-0.02708971196781611,-1.9505948540441724,0.2562958715950183,-0.015650007131576788,0.05100986347602032,1.6737890905313473,-0.37042060935893706,2
507,2024-09-16 20:56:05.142355957,0,006,0.024647724279801206,-0.03180276388634016,-1.6190643551033859,0.19434255686501473,-0.03212197418697582,0.05523985462119506,1.625829743540295,-0.33643463589059625,2
508,2024-09-16 20:56:05.214791016,0,006,0.03629212434811778,-0.035855916351883725,-1.2553036548568353,0.12719915307405769,-0.04823622101667706,0.05969177564830142,1.5247278827625201,-0.2961663702582431,2
509,2024-09-16 20:56:05.282466797,0,006,0.047234864526761,-0.039192358327860964,-0.871745640584082,0.05671928990843954,-0.06307812211883479,0.0642464079857972,1.3710819499211884,-0.250918753872082,2
510,2024-09-16 20:56:05.350243896,0,006,0.05740537779314019,-0.041821897868873754,-0.4812580545643059,-0.015189946557568671,-0.07577248733329094,0.06873758973607925,1.1684708421049395,-0.20210361623076603,2
511,2024-09-16 20:56:06.293855957,0,006,0.06674713199653617,-0.043811068821714774,-0.09646498138081402,-0.08665323319811126,-0.08555625530769886,0.07295363652149155,0.9235234538052781,-0.1512335643247143,2
512,2024-09-16 20:56:06.360408936,0,006,0.07522081215754949,-0.04526341657475492,0.27083807486942363,-0.15591110720197976,-0.09185056984972764,0.0766460867805775,0.6457047112510826,-0.09992936604437658,2
513,2024-09-16 20:56:06.422918945,0,006,0.08280428217397916,-0.04629528698313364,0.6102386314246416,-0.221410202310041,-0.09431618185115387,0.07954808399843036,0.34682410476286024,-0.0499199901377303,2
514,2024-09-16 20:56:06.486311035,0,006,0.08947676458166763,-0.04701402356524898,0.913186195023125,-0.28189744877588985,-0.09287066868589786,0.08139975780391889,0.040298376469270515,-0.0030187265554482857,2
515,2024-09-16 20:56:06.563385986,0,006,0.09519261032187222,-0.04750467795213552,1.1732945106778576,-0.33650182690492586,-0.08766118621230318,0.08197524598780655,-0.2597414296321741,0.03893007143931347,2
516,2024-09-16 20:56:06.632433838,0,006,0.09985464755833616,-0.04782543032260114,1.386450344691339,-0.384774062491031,-0.0790123942486108,0.08110599360695153,-0.5393315462247805,0.07412851442440892,2
517,2024-09-16 20:56:06.700118164,0,006,0.1032851193557578,-0.04800598974784103,1.5507740388039475,-0.4266515978244163,-0.06737439429442568,0.07869725615412795,-0.7854462256392364,0.10092569053395384,2
518,2024-09-16 20:56:07.619038086,0,006,0.1051963410163996,-0.04804440574618731,1.666479721070624,-0.4623505119924285,-0.05328029519753868,0.0747382508810837,-0.9867395965582133,0.11794880990014281,2
519,2024-09-16 20:56:07.674946045,0,006,0.10518496061145174,-0.04790499424668849,1.7356825724896643,-0.49223550265633514,-0.03731632573336154,0.06930894598985872,-1.1343500544966296,0.12426009044106075,2
520,2024-09-16 20:56:07.754547119,0,006,0.10277957928468007,-0.04752533934202481,1.762174944554201,-0.5167226368933773,-0.020107467992157492,0.0625851013924761,-1.2226521969345694,0.11950566118108154,2
521,2024-09-16 20:56:07.822269043,0,006,0.09754411933193101,-0.046836081955412966,1.7511595707629717,-0.536227085889416,-0.0023071435490198567,0.05483695587318624,-1.249713414306311,0.10400643795938301,2
522,2024-09-16 20:56:07.889985107,0,006,0.08920075873196776,-0.04578647536528249,1.708936749839238,-0.551139779298892,0.015432721619693885,0.046412615219529295,-1.217310087371884,0.07875752912172257,2
523,2024-09-16 20:56:07.951602051,0,006,0.07772460062713592,-0.04436384193156816,1.6425615134812874,-0.5618245967409171,0.03251905591685235,0.03770238531769365,-1.1305526342080419,0.04534361863113449,2
524,2024-09-16 20:56:08.013178955,0,006,0.06338613495659985,-0.0426002190349944,1.5594892175375636,-0.5686347556833422,0.04848252400789555,0.029091366954571766,-0.9973040806149382,0.005802006626391359,2
525,2024-09-16 20:56:08.968537109,0,006,0.046744994772164754,-0.04056579827293172,1.467222600779521,-0.5719331142493372,0.06302235988585744,0.020913892164759952,-0.8275563362247164,-0.03754344203638032,2
526,2024-09-16 20:56:09.030025879,0,006,0.028604268241569416,-0.03835137992177172,1.3729095267193263,-0.5720843573995869,0.07601796078324942,0.013420335109766045,-0.6327934453922525,-0.08226361243116992,2
527,2024-09-16 20:56:09.092510986,0,006,0.0099341231285232,-0.036045974219146036,1.2827674564946068,-0.5693905603378687,0.08750747562709574,0.00676025623345392,-0.4252937907181118,-0.12600651176305655,2
528,2024-09-16 20:56:09.170130859,0,006,-0.008218826244697547,-0.03372071837913553,1.2013286535960999,-0.56397639344771,0.09764118798930112,0.0009814594046189263,-0.21735248922391331,-0.16667027292408917,2
529,2024-09-16 20:56:09.239507080,0,006,-0.024820837302653505,-0.03142720554318521,1.1307755348469295,-0.5556803388907793,0.10662873668692607,-0.0039593529283634705,-0.020461958568966133,-0.2025548307824026,2
530,2024-09-16 20:56:09.292784912,0,006,-0.03893705075062861,-0.029206843553064753,1.0707426137845903,-0.5440279598762603,0.11469917330771681,-0.008181551620662385,0.15545108978082547,-0.2324715626334682,2
531,2024-09-16 20:56:09.374984863,0,006,-0.049815549541911565,-0.027100483269212175,1.0187296837572424,-0.5283205320099533,0.12207360268481073,-0.011865100215047872,0.3025964527157732,-0.2557919064143807,2
532,2024-09-16 20:56:10.312397949,0,006,-0.056959146590467864,-0.02515047861969986,0.9709175168784946,-0.5078041365728667,0.1289384067989331,-0.015232133644380133,0.41559633778331045,-0.27242267462265246,2
533,2024-09-16 20:56:10.373941895,0,006,-0.06016646991873365,-0.023395015542702416,0.9230413931964037,-0.4818561259489616,0.13541198602629118,-0.018522672923478402,0.49144789487321044,-0.282701094283425,2
534,2024-09-16 20:56:10.451586914,0,006,-0.059528263850296255,-0.02186059859659821,0.871098923843343,-0.4501354784676904,0.1415023193589367,-0.02196626335626606,0.5292660589783013,-0.2872224161202387,2
535,2024-09-16 20:56:10.521784180,0,006,-0.05538219082262622,-0.020559224409776977,0.811810284489095,-0.412657700369346,0.14705920317739296,-0.025754318129059636,0.5300094047153022,-0.28664515912361366,2
536,2024-09-16 20:56:10.589070068,0,006,-0.048253944197402726,-0.019491358066872532,0.7428104106969229,-0.3697886804953657,0.15174274843444582,-0.03001938424269127,0.49637624259236135,-0.2815396723115511,2
537,2024-09-16 20:56:10.657232910,0,006,-0.03881721198086313,-0.01865032178576861,0.6626337543155185,-0.32220272735580147,0.15504085536061474,-0.034828516108415836,0.43286446220615116,-0.2723326319254374,2
538,2024-09-16 20:56:10.724982910,0,006,-0.027875620284215613,-0.018024429917853305,0.5706347338854427,-0.27085562760789755,0.15635144043586757,-0.04019355485956164,0.34578827893649494,-0.25934589373153766,2
539,2024-09-16 20:56:11.664541992,0,006,-0.01633893646604938,-0.017596939074358955,0.4669470319594169,-0.2169710577608821,0.15510461638505876,-0.04609059503704407,0.243020067618392,-0.24286896096323962,2
540,2024-09-16 20:56:11.726564941,0,006,-0.005171285286464935,-0.017344031497753064,0.352481378421941,-0.162000515003284,0.1508680360607052,-0.05247324521473017,0.1333597776281163,-0.22319720053114908,2
541,2024-09-16 20:56:11.803781982,0,006,0.004681248435796791,-0.017229974528281202,0.2289210581983383,-0.10753753118569155,0.14338982751435136,-0.05926849884654835,0.025634720550299986,-0.20061627297386686,2
542,2024-09-16 20:56:11.872440186,0,006,0.012364979491920062,-0.017201775814647723,0.09866281342558768,-0.055210357718552955,0.1325821556992894,-0.06635806846628042,-0.0722200276520708,-0.175362476089451,2
543,2024-09-16 20:56:11.927875000,0,006,0.017185324722298768,-0.017188546245512616,-0.035349488239743404,-0.006589650834523169,0.11848861696336803,-0.07355958515917833,-0.1538893064324022,-0.1475943941080194,2
544,2024-09-16 20:56:12.004638916,0,006,0.018656965241783705,-0.017107400683903373,-0.16986326727817272,0.03687570021920002,0.10127479533892061,-0.08062153534063252,-0.21516661401583145,-0.11738954524334158,2
545,2024-09-16 20:56:12.066647949,0,006,0.01652893930927466,-0.016873575605622353,-0.301492880060473,0.07390202840770757,0.08124196055885013,-0.087235368526801,-0.2542280710195815,-0.08477207144105182,2
546,2024-09-16 20:56:12.982659180,0,006,0.010790184976693604,-0.016412945465435848,-0.4267598433907129,0.10340570358370778,0.05883163962977409,-0.09305861310053343,-0.2716352478724804,-0.04978005187212375,2
547,2024-09-16 20:56:13.061321045,0,006,0.001668786814381099,-0.015676232567299796,-0.5420893488035002,0.12454433669184073,0.03459447218730765,-0.09774178738837973,-0.26996198319452186,-0.012566050367378215,2
548,2024-09-16 20:56:13.129847168,0,006,-0.01037141269336924,-0.014652391248824614,-0.6438890480776637,0.13677064590437482,0.009127391448842302,-0.1009552164435452,-0.2530893825917505,0.026501980734136732,2
549,2024-09-16 20:56:13.197558105,0,006,-0.024642046587872855,-0.01337689396138186,-0.7287194124494356,0.13988392778960462,-0.016992681596698672,-0.10241318556979706,-0.22542697128538453,0.06678440607960155,2
550,2024-09-16 20:56:13.265327881,0,006,-0.04025010495138176,-0.011933072423833634,-0.7935245606575071,0.13406694618776485,-0.04324655779035515,-0.101894654584444,-0.19131826808091565,0.10738388827521488,2
551,2024-09-16 20:56:13.325780029,0,006,-0.056127169186157906,-0.010448444592325164,-0.8359538770093935,0.11991874083599374,-0.06916255404335034,-0.09926382724418853,-0.15467216605656248,0.1472103823129215,2
552,2024-09-16 20:56:13.400840088,0,006,-0.07108163124201211,-0.009087346368677352,-0.8547159569815749,0.09848045173990295,-0.09426192870988385,-0.09449428296545885,-0.11871292588284782,0.1850495546926951,2
553,2024-09-16 20:56:14.344437988,0,006,-0.08388371837327417,-0.008038914489890428,-0.8497339810756426,0.07121574567327535,-0.11798627852155291,-0.08769428273236325,-0.08581444407255556,0.21961156954304978,2
554,2024-09-16 20:56:14.412200928,0,006,-0.09337092543758685,-0.007499912415332341,-0.8219822569054691,0.03992379459803201,-0.1396412729351918,-0.07912411481395615,-0.05748881731239982,0.24957948689907006,2
555,2024-09-16 20:56:14.479960938,0,006,-0.09855916380036445,-0.0076523041014478575,-0.7731948068769964,0.006616101980767093,-0.15838696998343385,-0.06919428425961895,-0.034549495872558164,0.27368067863724493,2
556,2024-09-16 20:56:14.540924072,0,006,-0.09875551173131125,-0.00863577578015509,-0.7057045925730023,-0.026599382386274996,-0.1732966400317012,-0.05843633354988298,-0.017355744207053905,0.2907804860457479,2
557,2024-09-16 20:56:14.603998047,0,006,-0.09365869986196489,-0.010519947276252046,-0.6224399126824489,-0.057619194294240325,-0.18348122004516934,-0.04744606084504147,-0.005995060940284238,0.2999812752206187,2
558,2024-09-16 20:56:14.679161133,0,006,-0.08341954976467247,-0.01328650838496612,-0.5269140631516225,-0.08445341132815641,-0.18823970009285151,-0.036810606210600456,-0.00029200274164835945,0.30070955105189334,2
559,2024-09-16 20:56:14.741208984,0,006,-0.0686413072893403,-0.016829485647601523,-0.4230855945502434,-0.105360970200339,-0.1871833170286979,-0.027040746004610143,0.000352278095409495,0.2927801035536155,2
560,2024-09-16 20:56:15.693643066,0,006,-0.050317404378383,-0.02097274796971077,-0.3150971266651224,-0.1190039790429964,-0.1803002855320258,-0.0185299293444719,-0.00285066887571092,0.27642983616140737,2
561,2024-09-16 20:56:15.755284180,0,006,-0.02971988231637402,-0.025496002447087537,-0.20695169116903925,-0.12459498253581924,-0.16795044747742077,-0.011548090515941837,-0.007999019127190607,0.2523144280952824,2
562,2024-09-16 20:56:15.830083008,0,006,-0.008265116898715811,-0.030159289188792546,-0.10221750947870685,-0.12199920933620763,-0.1507982861731566,-0.006259139657500004,-0.012526702718991659,0.22146359025696147,2
563,2024-09-16 20:56:15.895360840,0,006,0.012617318435660007,-0.034721449857554536,-0.0039255901706683185,-0.11174819800466738,-0.12971494974178888,-0.002741986115979931,-0.013260615448467392,0.18519934640030705,2
564,2024-09-16 20:56:15.956908936,0,006,0.03160093383442205,-0.03895522315350272,0.08521782665934458,-0.09494295844595607,-0.10569062629510828,-0.0010014713980401652,-0.00655326386494231,0.14503798342506297,2
565,2024-09-16 20:56:16.019395996,0,006,0.04755711275296965,-0.0426633956429929,0.1624014285392244,-0.0730717343562205,-0.0797784142410741,-0.0009687370273936269,0.011390395041444621,0.10260562162005256,2
566,2024-09-16 20:56:16.097062012,0,006,0.059618475931699146,-0.045696160398653415,0.22433728400404593,-0.04780211165826539,-0.0530593292240805,-0.0024989594586096397,0.04397940272206118,0.05958278753021773,2
567,2024-09-16 20:56:17.039948975,0,006,0.06721018728924112,-0.047965658935274505,0.26717119624243846,-0.020799923781622112,-0.02661397350292595,-0.0053733542979072955,0.09363983849800496,0.017667382529512745,2
568,2024-09-16 20:56:17.112339111,0,006,0.0700620384461926,-0.049453047003947176,0.28668594853668056,0.006412357850446317,-0.0014982495977062709,-0.009306924119358793,0.1613450056577893,-0.021465610142991733,2
569,2024-09-16 20:56:17.178317139,0,006,0.06820557627075446,-0.0502036992500234,0.2786802717860136,0.032571084909369816,0.021280870968437456,-0.013960912487048647,0.2463670982379047,-0.05621921448030939,2
570,2024-09-16 20:56:17.247834961,0,006,0.06194495091296581,-0.050307827174176874,0.23948847402242282,0.05675914111813845,0.04079037778607355,-0.01895883444416565,0.3462206419487461,-0.08513965807845508,2
571,2024-09-16 20:56:17.301937012,0,006,0.05180237395612688,-0.04987097321293029,0.16670107504815518,0.07843899493340811,0.05618606270185294,-0.023904876086306488,0.4567844541012203,-0.10698322738122615,2
572,2024-09-16 20:56:17.379552002,0,006,0.03846050055910271,-0.04898604696439649,0.060020717158270134,0.09741116872437496,0.06671729280549266,-0.028404187114970173,0.5726906939267932,-0.12078635167704581,2
573,2024-09-16 20:56:17.442040039,0,006,0.022715361079522944,-0.047716442116718265,-0.0780260611009265,0.11371487853708485,0.07174600331143367,-0.032085196317821835,0.6880213782303087,-0.1259449185468698,2
574,2024-09-16 20:56:18.353738037,0,006,0.0054326543984917625,-0.04609192337742917,-0.24181125559953853,0.1275127974559614,0.0708000714313647,-0.03462348605836952,0.7971478802085619,-0.12229594367565935,2
575,2024-09-16 20:56:18.431422119,0,006,-0.01249591742079835,-0.04411432125731251,-0.42289138432270423,0.1389973966934774,0.06365030861112,-0.03576681489788658,0.8954257525654198,-0.1101764432635701,2
576,2024-09-16 20:56:18.504060059,0,006,-0.03018639066308068,-0.04176908634515134,-0.6108433023031288,0.14833964774517905,0.05038089975050374,-0.035361772480256515,0.9795506593712691,-0.09043082131504097,2
577,2024-09-16 20:56:18.571763916,0,006,-0.04678419951700619,-0.03903797261011701,-0.7944937298682191,0.15567590440295184,0.031428825119279094,-0.033380155750733345,1.0475995683086277,-0.06435714793656827,2
578,2024-09-16 20:56:18.631242920,0,006,-0.061487211314329035,-0.03590823453586743,-0.9632455571901626,0.16110598924606961,0.00757970025861288,-0.029936227653148212,1.098906203289007,-0.03360371894820878,2
579,2024-09-16 20:56:18.707128906,0,006,-0.07358138066077492,-0.03237749437939211,-1.1082326007294556,0.16468723931413756,-0.02008675477751511,-0.02528160408293989,1.1338517942223216,-3.149740450293875e-05,2
580,2024-09-16 20:56:18.772008789,0,006,-0.08248767106643543,-0.02845859758144959,-1.2231970433189145,0.16643551851759356,-0.05029850321600428,-0.01977085951897355,1.1535564213215215,0.0344370354541234,2
581,2024-09-16 20:56:19.718270996,0,006,-0.08781552529240437,-0.0241883505666628,-1.3050017428083487,0.1663333974607161,-0.08171480566066171,-0.013806514753075663,1.1594793142985025,0.06795376082047175,2
582,2024-09-16 20:56:19.786045166,0,006,-0.08941504688538722,-0.01963739928105722,-1.3535828535315844,0.16432101254624892,-0.11303628306224107,-0.007783038004210538,1.1530120586584025,0.09884602956128553,2
583,2024-09-16 20:56:19.853770996,0,006,-0.08740280226600985,-0.014914576714100717,-1.3712964271354302,0.16026875053478593,-0.14308614462777006,-0.0020449420642488915,1.1351887096697555,0.1256782552183027,2
584,2024-09-16 20:56:19.912875000,0,006,-0.08213320734272947,-0.010161942268289485,-1.36202414699867,0.15398154970026331,-0.1708625536086169,0.0031374940259047243,1.1066141939683902,0.14727533927787434,2
585,2024-09-16 20:56:19.988910889,0,006,-0.07412488606681493,-0.005540548178102666,-1.3305423398326877,0.14527882697681951,-0.19555367182768052,0.007576039056019923,1.0676292076258471,0.16271591427880286,2
586,2024-09-16 20:56:20.057050049,0,006,-0.06398661912437796,-0.0012097531520070411,-1.282263479994091,0.13411943400572934,-0.21651135403995522,0.0111577505328889,1.0186309837316494,0.1713101694312696,2
