,time,MARKER,pid,L_O_DSI,L_D_DSI,L_O_DSphi,L_D_DSphi,R_O_DSI,R_D_DSI,R_O_DSphi,R_D_DSphi,trial_id
0,2024-09-16 20:40:14.876784128,TASK_BEGIN,006,0.039488789450270456,-0.17685643432518316,0.24145458875245177,0.3792783044750572,0.2830076861838426,-0.14779779654093658,0.06594871745890633,-0.0864757715775283,0
1,2024-09-16 20:40:14.938782976,TASK_BEGIN,006,0.1688490513550582,-0.20439794841673925,0.17664328411048444,0.3406076193374879,0.1920596605142047,-0.0897015171069723,0.12462161770809178,-0.21652622627214965,0
2,2024-09-16 20:40:15.005771008,TASK_BEGIN,006,0.2938363336209969,-0.23124510843774318,0.10231577089548213,0.30482820577859454,0.10411051813036969,-0.03347855808406403,0.18370512545925638,-0.34500450382572917,0
3,2024-09-16 20:40:15.078760960,TASK_BEGIN,006,0.41010577489376476,-0.2569541015251378,0.01529577816457156,0.2736398157937106,0.02216680038020004,0.019132112241943295,0.2439111987723357,-0.46964223566032104,0
4,2024-09-16 20:40:15.140766208,TASK_BEGIN,006,0.513902663148732,-0.28112215509567545,-0.08706274862510335,0.24835871600523493,-0.051288078462757916,0.06665889920244178,0.3041078579969557,-0.5881639668310504,0
5,2024-09-16 20:40:16.092377856,TASK_BEGIN,006,0.6023064313931669,-0.303410763940772,-0.20655650912558376,0.22983394776915336,-0.11440225141182457,0.10798988218905026,0.3609468418858576,-0.6982777378788192,0
6,2024-09-16 20:40:16.161097984,TASK_BEGIN,006,0.6733861675486187,-0.32357072682267896,-0.34364222344339107,0.21840554121087316,-0.16594878836951107,0.14242198130772243,0.4090866471379303,-0.7977105995339623,0
7,2024-09-16 20:40:16.215528960,TASK_BEGIN,006,0.7262450291507836,-0.3414559284550748,-0.49699361353069127,0.21392463018627988,-0.20525676627282438,0.1696604825049959,0.44197282249868963,-0.8843374778287391,0
8,2024-09-16 20:40:16.296529152,TASK_BEGIN,006,0.7609678473998827,-0.3570206816102565,-0.6633143737603634,0.2158366920414651,-0.232139470863826,0.1897756126944031,0.45295193251650917,-0.9563852215934238,0
9,2024-09-16 20:40:16.364272896,TASK_BEGIN,006,0.7785166489833409,-0.3703081089401024,-0.8374937478319837,0.22330522898801902,-0.2468486049515335,0.2031342748288414,0.43643670370160226,-1.0126424339129554,0
10,2024-09-16 20:40:16.431442944,TASK_BEGIN,006,0.7806030916853258,-0.38143902242280275,-1.0131365734421982,0.23536748233863036,-0.2500438078383667,0.21032563292887724,0.3889082815280311,-1.052626308558044,0
11,2024-09-16 20:40:16.493441792,TASK_BEGIN,006,0.7695280199601275,-0.39060475476176726,-1.18335539842012,0.25110084146786676,-0.24274390833266857,0.21209110932657754,0.30962439823419957,-1.0766985798276385,0
12,2024-09-16 20:40:17.432545024,TASK_BEGIN,006,0.7479702302799717,-0.39806187018239303,-1.3414817917645823,0.2697352319342014,-0.22623500982540587,0.20926016133139755,0.2009481821168564,-1.0861159105291032,0
13,2024-09-16 20:40:17.495426048,TASK_BEGIN,006,0.7187386749808841,-0.40412336044763436,-1.4814068753855782,0.29066458521600796,-0.201944565634329,0.2026899779098655,0.06828296332252956,-1.0829795363346282,0
14,2024-09-16 20:40:17.572145920,TASK_BEGIN,006,0.684538087186171,-0.4091409562725725,-1.597603676382133,0.31337509718569073,-0.17131634455746783,0.1932106822167453,-0.08030599578556939,-1.0700725786279817,0
15,2024-09-16 20:40:17.633688064,TASK_BEGIN,006,0.6478031309872256,-0.413478228666894,-1.6851210864936124,0.337336355519162,-0.13571782940288046,0.1815818128550883,-0.23470406894055393,-1.050612967939698,0
16,2024-09-16 20:40:17.712108032,TASK_BEGIN,006,0.6106281267601333,-0.4174812587583086,-1.7398038634218191,0.36190394181193397,-0.09639473302830948,0.16846664341793247,-0.38360734435655147,-1.0279549838735924,0
17,2024-09-16 20:40:17.777532928,TASK_BEGIN,006,0.574778383850644,-0.42145632120462256,-1.7587412245169332,0.3862826097900155,-0.05447384984701215,0.15442825209742167,-0.5156257128224652,-1.005270771443083,0
18,2024-09-16 20:40:17.848181760,TASK_BEGIN,006,0.5417398825815944,-0.4256582500295137,-1.7406622877325193,0.40956606090103226,-0.011003706831224262,0.1399453550785106,-0.6204814564533776,-0.9852657373762445,0
19,2024-09-16 20:40:18.768028928,TASK_BEGIN,006,0.512765379660426,-0.4302838331283898,-1.6860255966477657,0.4308203564018423,0.0329927920930638,0.12543793252176197,-0.6900879666253533,-0.9699846499070244,0
20,2024-09-16 20:40:18.835774976,TASK_BEGIN,006,0.48890029368880944,-0.43546223987541116,-1.596900294856643,0.4491725948218376,0.07648613263925973,0.11128877987587521,-0.71933449305033,-0.9607337357387938,0
21,2024-09-16 20:40:18.894273024,TASK_BEGIN,006,0.47099222779119043,-0.44124147646412204,-1.4769265271489571,0.4638947959805286,0.11844027371373596,0.09785379301713852,-0.7064636934863753,-0.9581230314543802,0
22,2024-09-16 20:40:18.971175936,TASK_BEGIN,006,0.45969109415392984,-0.447577432645829,-1.3314256125121584,0.474477555106957,0.15782852179433296,0.0854655805899701,-0.6530198230465913,-0.9622164319380936,0
23,2024-09-16 20:40:19.038886912,TASK_BEGIN,006,0.45543896828235036,-0.45433218685677784,-1.1674307248126636,0.48066799824653783,0.19365038997173398,0.07443751448117802,-0.5634594623672732,-0.9727320172295879,0
24,2024-09-16 20:40:19.095835904,TASK_BEGIN,006,0.4584399785562474,-0.46128139535968576,-0.993394555346212,0.48244854027518463,0.2249592812462722,0.06506636546227834,-0.44456048980323276,-0.9892036174238013,0
25,2024-09-16 20:40:19.174342912,TASK_BEGIN,006,0.4686070374346735,-0.4681243986698018,-0.8185570426057986,0.47996054900180835,0.25092049780538295,0.05762569434402035,-0.30473367442409616,-1.0110470853917115,0
26,2024-09-16 20:40:20.118126080,TASK_BEGIN,006,0.48550551667400754,-0.4744922130810625,-0.6521344708129895,0.4734004792269882,0.2708980185245206,0.05234860983949041,-0.15334487770376506,-1.0375355851642767,0
27,2024-09-16 20:40:20.183197952,TASK_BEGIN,006,0.5083268437174324,-0.479956249406014,-0.5024920333831823,0.46292739649479,0.28453259926172436,0.049409736113165674,-0.0001734291259588292,-1.0677212881842517,0
28,2024-09-16 20:40:20.253545984,TASK_BEGIN,006,0.5359119550547438,-0.48404649490194634,-0.37640131241450153,0.448618102890756,0.29176735612515725,0.048917855818598414,0.14498020173250983,-1.1003503073842427,0
29,2024-09-16 20:40:20.305879040,TASK_BEGIN,006,0.5668256189536581,-0.48628613332239906,-0.2785058858000546,0.43049152511095057,0.29282344149793227,0.05091878467698767,0.2726948768472196,-1.1338201786846813,0
30,2024-09-16 20:40:20.383575808,TASK_BEGIN,006,0.5994720104061464,-0.4862397303589629,-0.21118823137098575,0.4086070730627614,0.2881677739524213,0.05539767431134267,0.37448609709357783,-1.166216297744111,0
31,2024-09-16 20:40:20.445177856,TASK_BEGIN,006,0.6322256830405265,-0.4835607962672829,-0.17493647481119992,0.38320993638494394,0.27848821067397195,0.06227510150510042,0.44346803777902644,-1.195429792701951,0
32,2024-09-16 20:40:20.524337920,TASK_BEGIN,006,0.6635397100594782,-0.47802294907708687,-0.16900609997550436,0.35485345664401996,0.2646447073393423,0.07140291627576885,0.4749180092007232,-1.2193209920377643,0
33,2024-09-16 20:40:21.463087872,TASK_BEGIN,006,0.6920165270396932,-0.46952985521759577,-0.19199000191596519,0.3244292722671374,0.24756729448698875,0.08256876072379515,0.46661703157226964,-1.2358956786375852,0
34,2024-09-16 20:40:21.524667904,TASK_BEGIN,006,0.7164584674370883,-0.4581107278806372,-0.24206521816486948,0.2930997428486704,0.22811766939372086,0.09551226352065266,0.4190396342412472,-1.243512195560571,0
35,2024-09-16 20:40:21.601472000,TASK_BEGIN,006,0.7359069840259571,-0.44391082198371506,-0.31693940354324696,0.2621875715638265,0.20697315224192897,0.10994825702563273,0.33553011831139834,-1.2411458065160466,0
36,2024-09-16 20:40:21.663084032,TASK_BEGIN,006,0.749665421231099,-0.42718421657562006,-0.4136300235556792,0.23307440745384478,0.1845936478769582,0.1255873417159689,0.22242435295675775,-1.2286568560369064,0
37,2024-09-16 20:40:21.739280128,TASK_BEGIN,006,0.7573107680570115,-0.40829166830025804,-0.5282236515063287,0.2071180259612881,0.1612870882276489,0.14214470885087446,0.08885310756013293,-1.2069352922526602,0
38,2024-09-16 20:40:21.802555136,TASK_BEGIN,006,0.7586985878848865,-0.38769735431651065,-0.65578438552012,0.18557671958218225,0.13732872920490374,0.15933551777607963,-0.054014036316190124,-1.1778150244516399,0
39,2024-09-16 20:40:21.874768128,TASK_BEGIN,006,0.7539469869370262,-0.3659536081232397,-0.7905707358852075,0.1695424159917453,0.11306339184181866,0.17686410723584162,-0.1942279129660743,-1.1437584139494026,0
40,2024-09-16 20:40:22.806110208,TASK_BEGIN,006,0.7433931040677279,-0.34367128923432794,-0.9265824159139784,0.15989158530713452,0.08894377266935168,0.19441657600665724,-0.3204508360922599,-1.1074374235867066,0
41,2024-09-16 20:40:22.886148864,TASK_BEGIN,006,0.7275446788010504,-0.3214854749585742,-1.0582595540290143,0.15725159379639786,0.0655064008715508,0.21166173220849932,-0.4230473197858773,-1.071384772420895,0
42,2024-09-16 20:40:22.945399808,TASK_BEGIN,006,0.7070465421640731,-0.3000274526964517,-1.1811071085621607,0.16198205547391986,0.043319800896950485,0.22826216040210556,-0.4946990621496112,-1.037806299541843,0
43,2024-09-16 20:40:23.021583104,TASK_BEGIN,006,0.6826512725568731,-0.2799074470191577,-1.2921262621851115,0.1741819729907714,0.022938680930911295,0.24389604196177028,-0.5306879210157007,-1.0085161207653628,0
44,2024-09-16 20:40:23.089312000,TASK_BEGIN,006,0.6551837178579522,-0.2617074321140235,-1.3900124988267655,0.1937207427975001,0.004886539682507726,0.2582820104263788,-0.5290369001739598,-0.9849027172628991,0
45,2024-09-16 20:40:23.153233152,TASK_BEGIN,006,0.6255151357338415,-0.24597853553044857,-1.475061679427993,0.22026665713884266,-0.010315608158115852,0.27118931461860096,-0.49051953420812294,-0.9678814686129051,0
46,2024-09-16 20:40:23.224780032,TASK_BEGIN,006,0.5945635648682307,-0.23323342178769696,-1.5487210873496935,0.2532804031575142,-0.022082362682060815,0.2824260109711833,-0.4185030045470094,-0.9578419942098603,0
47,2024-09-16 20:40:24.139764224,TASK_BEGIN,006,0.5633181623908943,-0.2239286366931149,-1.612850972782379,0.29196644186907866,-0.02970878751624157,0.2918210616081055,-0.318721366252328,-0.9545927251688394,0
48,2024-09-16 20:40:24.201762048,TASK_BEGIN,006,0.5328742444320642,-0.21844223380178232,-1.6689499053372112,0.3352200188440982,-0.032373515481649316,0.29921855235863876,-0.19901743796770732,-0.9573147509836882,0
49,2024-09-16 20:40:24.266722816,TASK_BEGIN,006,0.5044586016237531,-0.21705647721958765,-1.7176339961978906,0.38162390106281524,-0.029197491794479828,0.3044849283524592,-0.06884883535632232,-0.964588791887652,0
50,2024-09-16 20:40:24.341568768,TASK_BEGIN,006,0.4794197721356849,-0.2199520679515701,-1.7585006204622693,0.4295105301870815,-0.019326792439158642,0.3075199556100356,0.06162581079649926,-0.9745467280959715,0
51,2024-09-16 20:40:24.403207936,TASK_BEGIN,006,0.4591651192590336,-0.2272134059959121,-1.7903034238190665,0.47705306961804084,-0.0020170780631771864,0.30826312301688846,0.18273743650769633,-0.9851063390903345,0
52,2024-09-16 20:40:24.479507200,TASK_BEGIN,006,0.4450395684045004,-0.23883646831855743,-1.8113174764382443,0.5223532164909236,0.02329058245158213,0.3066902832941532,0.28639715435585383,-0.9941912702213518,0
53,2024-09-16 20:40:24.541559808,TASK_BEGIN,006,0.43815251215705314,-0.2547271134462028,-1.8198808760628504,0.5635526509689698,0.056909516804165644,0.3028001932021349,0.366787069689686,-0.9998841753840806,0
54,2024-09-16 20:40:25.481842944,TASK_BEGIN,006,0.4391807046627972,-0.2746842396288427,-1.815069518232529,0.599004181294341,0.09885886434941091,0.29659786418736195,0.42062085913168984,-1.0005400678862204,0
55,2024-09-16 20:40:25.558552064,TASK_BEGIN,006,0.44820981162333073,-0.2983776357367592,-1.797261554702559,0.6274681971679805,0.1488142100018573,0.28808552429752493,0.44712339876391977,-0.9948917501397887,0
56,2024-09-16 20:40:25.620610048,TASK_BEGIN,006,0.4646947147767386,-0.3253417979230891,-1.768333057997342,0.6482562436300525,0.20606286648976357,0.27726677773816616,0.44783723984890916,-0.9821341624840546,0
57,2024-09-16 20:40:25.682606848,TASK_BEGIN,006,0.4875759145165576,-0.35500024789553913,-1.7314540598280712,0.6612728262078674,0.2694862321388532,0.2641597726278367,0.4262830644546673,-0.9619802857301856,0
58,2024-09-16 20:40:25.759441920,TASK_BEGIN,006,0.5155018370783261,-0.3867127846441958,-1.6906339514109863,0.6669545800724043,0.3375780837720202,0.24881335448351102,0.38752389312594626,-0.934718327267765,0
59,2024-09-16 20:40:25.831712768,TASK_BEGIN,006,0.5470578733858191,-0.4198232733322568,-1.6501703015528664,0.6661393077781724,0.4084940438782574,0.23132775225514668,0.337666171945006,-0.9012785594709884,0
60,2024-09-16 20:40:25.897314816,TASK_BEGIN,006,0.5809342253448522,-0.4536931523820391,-1.6140700180675573,0.6599102906398663,0.48013133705943634,0.21188524616262266,0.28323651556851426,-0.8632581387078109,0
61,2024-09-16 20:40:26.843017984,TASK_BEGIN,006,0.6160221279272996,-0.48772262592808363,-1.5854620893434124,0.6494517466884887,0.5502335622947346,0.19078909029973334,0.23046786252035584,-0.8228545333754962,0
62,2024-09-16 20:40:26.910736128,TASK_BEGIN,006,0.6514528341564265,-0.5213670582003247,-1.5660501790112442,0.6359325796850401,0.6165114243090429,0.16849537980163026,0.18478416195757494,-0.7827224644262782,0
63,2024-09-16 20:40:26.978490112,TASK_BEGIN,006,0.6865842039952122,-0.5541485809177914,-1.5556871032469897,0.6204225180064793,0.6767829586219386,0.14561441422147361,0.15070850218933793,-0.7457917271871191,0
64,2024-09-16 20:40:27.046246144,TASK_BEGIN,006,0.7209307987498942,-0.5856557386534614,-1.5521832183954958,0.6038468593612537,0.7291278608283973,0.1228695835795801,0.1320247714518299,-0.7150515834800909,0
65,2024-09-16 20:40:27.114017024,TASK_BEGIN,006,0.7540570830142759,-0.6155290534054981,-1.551493597981284,0.5869920943426957,0.7720178003481759,0.10102738668090525,0.1318628494047118,-0.6932976524064505,0
66,2024-09-16 20:40:27.175641088,TASK_BEGIN,006,0.7854889828435763,-0.6434428304261913,-1.5483322305810165,0.570557224905642,0.8043881745576957,0.0808261217127023,0.15256896792030855,-0.6828552740575322,0
67,2024-09-16 20:40:27.238126080,TASK_BEGIN,006,0.814692880318604,-0.6690975494679874,-1.5370657855715255,0.5552176375949214,0.825657539882211,0.0629233327400237,0.19541259491564728,-0.6853105302593689,0
68,2024-09-16 20:40:28.183016192,TASK_BEGIN,006,0.841122546330509,-0.6922292884277482,-1.5126831377910992,0.5416683353054466,0.835722475529803,0.047865982265253154,0.2602511688376887,-0.7012989567930089,0
69,2024-09-16 20:40:28.245579008,TASK_BEGIN,006,0.8642941853423611,-0.7126314621314662,-1.4716858321273156,0.5306327910225217,0.8349432377272458,0.036075444319445926,0.3452914693590845,-0.7304092453874023,0
70,2024-09-16 20:40:28.328535808,TASK_BEGIN,006,0.8838463514693584,-0.730177063824753,-1.4126966715385316,0.5228292464427186,0.8241144655472806,0.027837029736848967,0.44706048153844913,-0.7712378525917438,0
71,2024-09-16 20:40:28.384841728,TASK_BEGIN,006,0.8995651341228929,-0.7448310344715247,-1.3366273304200698,0.518894164923816,0.8044074115365214,0.023288758212274926,0.5606208226285914,-0.8215832852698459,0
72,2024-09-16 20:40:28.462479872,TASK_BEGIN,006,0.911375714598923,-0.7566490843171054,-1.2465739260561677,0.519300663833455,0.7772772463633753,0.02241225631685877,0.6799645187759888,-0.8787098246383387,0
73,2024-09-16 20:40:28.524483840,TASK_BEGIN,006,0.9193002464416276,-0.7657641191198569,-1.1477517912270683,0.5243258997831726,0.7443424640836903,0.025034751387690613,0.7984801101692363,-0.9395886398670993,0
74,2024-09-16 20:40:28.599513856,TASK_BEGIN,006,0.9233856138209545,-0.772365982954313,-1.0474214856332047,0.5340663687105064,0.7072613388775167,0.030847251559655637,0.9094242776400878,-1.0010746567231383,0
75,2024-09-16 20:40:29.541584896,TASK_BEGIN,006,0.9236339555059875,-0.7766844528751166,-0.95445069433736,0.5484382412941683,0.6676353277102324,0.03943350092389138,1.0063404041681734,-1.060032460385568,0
76,2024-09-16 20:40:29.611766016,TASK_BEGIN,006,0.9199830022839349,-0.7789815085068257,-0.878312124862478,0.5671082613777284,0.6269443308109495,0.050300604070726944,1.0833657998120225,-1.1134219538886907,0
77,2024-09-16 20:40:29.679510016,TASK_BEGIN,006,0.9123499277941483,-0.7795488283419889,-0.8276621997079043,0.5893678097855555,0.5864960000932239,0.06290663959401846,1.135453615574426,-1.1583568688231194,0
78,2024-09-16 20:40:29.747212032,TASK_BEGIN,006,0.9007126244002556,-0.7787028253902787,-0.8088870337687297,0.6140253955377939,0.5473870369497515,0.07668311630861227,1.1586156869159874,-1.192185713136505,0
79,2024-09-16 20:40:29.809814016,TASK_BEGIN,006,0.8851938171248114,-0.7767750085474999,-0.8250420164301543,0.6393953302300162,0.5105008814812221,0.09104866888273547,1.1502240455731796,-1.2126374634725183,0
80,2024-09-16 20:40:29.881388800,TASK_BEGIN,006,0.86610967715358,-0.7740994146609906,-0.8754005344938651,0.6634001941883889,0.4765580996613775,0.10541260603664093,1.109275776753695,-1.2180168160269862,0
81,2024-09-16 20:40:29.943013888,TASK_BEGIN,006,0.8439443824040723,-0.7709985536992892,-0.9555240503674931,0.6837432738548942,0.44620633396771353,0.11917417454495874,1.0364965415855878,-1.2073981028815295,0
82,2024-09-16 20:40:30.868903936,TASK_BEGIN,006,0.81925522516193,-0.7677717386295011,-1.0576937170047571,0.6981055468166772,0.4201225437420807,0.13172733397849626,0.9342408590518206,-1.1807679806685087,0
83,2024-09-16 20:40:30.936691200,TASK_BEGIN,006,0.7925630114773328,-0.7646904903603032,-1.1717132833976376,0.7043586176360999,0.399096453058297,0.14247886754869382,0.8062323973672184,-1.139087827007429,0
84,2024-09-16 20:40:30.997073920,TASK_BEGIN,006,0.7642764970832355,-0.7619985786306158,-1.2861226777293233,0.700784375341885,0.3840569058758103,0.150884269646377,0.6572088963444906,-1.08427785779452,0
85,2024-09-16 20:40:31.058600192,TASK_BEGIN,006,0.7346689877477695,-0.7599096196745844,-1.389614353536345,0.6862476806474676,0.37601219295173977,0.1564990890047902,0.49251663223792896,-1.0191298595191656,0
86,2024-09-16 20:40:31.135412736,TASK_BEGIN,006,0.703915666068615,-0.7586004681832916,-1.4722661003272401,0.6602644725617934,0.3759116458046638,0.15903172016895195,0.3176973551311775,-0.9471334612481037,0
87,2024-09-16 20:40:31.207628800,TASK_BEGIN,006,0.6721854225088238,-0.7582040422299356,-1.5263422191305167,0.6229798014454163,0.3844700879505653,0.1583783578097373,0.13816925055086854,-0.8722161484003276,0
88,2024-09-16 20:40:31.274318080,TASK_BEGIN,006,0.639744646187509,-0.7588046120280166,-1.5466550646914135,0.5751261742087951,0.40201035545071906,0.15462989098463334,-0.04085962626048452,-0.7984481615113409,0
89,2024-09-16 20:40:32.206437888,TASK_BEGIN,006,0.6070179560377206,-0.7604369449579655,-1.5305502812528817,0.517994460049193,0.42837557816361976,0.14805329018901095,-0.21423526498868303,-0.729773811569369,0
90,2024-09-16 20:40:32.283620096,TASK_BEGIN,006,0.5745874543631568,-0.763089095887627,-1.4775820986868837,0.4533871160642807,0.46292903382255784,0.13905511682487615,-0.3766742650082558,-0.669790381189132,0
91,2024-09-16 20:40:32.345138944,TASK_BEGIN,006,0.5431527906047734,-0.7667065457634139,-1.3890806658754973,0.38353720037314143,0.504601909708082,0.12813555999643295,-0.5228357869153231,-0.6215602738029898,0
92,2024-09-16 20:40:32.407164928,TASK_BEGIN,006,0.5134741968928888,-0.7711957189750658,-1.2679093440543283,0.3110296307093359,0.5519307119622543,0.11584227165178765,-0.6477313638907976,-0.5874382440015289,0
93,2024-09-16 20:40:32.484780032,TASK_BEGIN,006,0.48630329779242004,-0.7764271953131443,-1.1184510091134108,0.23874338052516839,0.6030755162991376,0.10273086221193396,-0.747295112121729,-0.5689159674795732,0
94,2024-09-16 20:40:32.547265024,TASK_BEGIN,006,0.4623157431395414,-0.782241669439169,-0.9464857797809438,0.16976632634007283,0.6558663819960028,0.08933342028295878,-0.8188546233995141,-0.5665149021248308,0
95,2024-09-16 20:40:32.625452800,TASK_BEGIN,006,0.4420754561096588,-0.7884623115695266,-0.7587308690641578,0.10724153590482101,0.7079230722068145,0.07613249081962373,-0.8613127102451665,-0.579765653707103,0
96,2024-09-16 20:40:33.555328000,TASK_BEGIN,006,0.4260393849856879,-0.7949119766455968,-0.5622881069908154,0.05416803444943502,0.7568425098834705,0.06353820824360647,-0.8749846038968653,-0.6072847390190277,0
97,2024-09-16 20:40:33.636720896,TASK_BEGIN,006,0.41457181029446716,-0.801427747580339,-0.36432364755231356,0.0131876974626293,0.8004063628900846,0.051870857155437135,-0.8611887609238478,-0.646935640058405,0
98,2024-09-16 20:40:33.704464128,TASK_BEGIN,006,0.4079260751036377,-0.8078666346148686,-0.17189834828699108,-0.013635876210662605,0.8367615552705375,0.041354496469545976,-0.8217739623088623,-0.696063879689174,0
99,2024-09-16 20:40:33.772175104,TASK_BEGIN,006,0.40618435179593476,-0.8141040446908026,0.008348327702726395,-0.02502603344195362,0.8645477868120671,0.03212416738939318,-0.7587682749755662,-0.751785962131514,0
100,2024-09-16 20:40:33.840008960,TASK_BEGIN,006,0.4091918872394835,-0.8200333607641292,0.17069448397134,-0.02063776929138321,0.8829617134204015,0.02424339264828553,-0.674263323958051,-0.8112780368942412,0
101,2024-09-16 20:40:33.907196160,TASK_BEGIN,006,0.41653229495865374,-0.825573893963303,0.3107283976693769,-0.0010879780146557298,0.8917664967901621,0.017724965823206235,-0.5704831644124524,-0.8720061048572391,0
102,2024-09-16 20:40:33.971834880,TASK_BEGIN,006,0.4275598872580182,-0.8306863141326896,0.4254139570026196,0.032136824896970416,0.8912708743089158,0.012548643834176872,-0.449878147578452,-0.9318782026743482,0
103,2024-09-16 20:40:34.893081088,TASK_BEGIN,006,0.44146990641772854,-0.8353859561052129,0.512908448679182,0.07684871793917959,0.8822825746869642,0.008675283801187489,-0.3151744266961658,-0.9893254861351958,0
104,2024-09-16 20:40:34.947362048,TASK_BEGIN,006,0.4573698641518409,-0.8397414927428597,0.5723387942173043,0.13034496840249832,0.8660117387221864,0.0060609954657676515,-0.16945511115436449,-1.043312791384171,0
105,2024-09-16 20:40:35.025206016,TASK_BEGIN,006,0.4743237214352837,-0.843852910445218,0.6036508189074242,0.1895939287462343,0.8439174043423411,0.004670346686660394,-0.0163385640388817,-1.093276113151224,0
106,2024-09-16 20:40:35.091897088,TASK_BEGIN,006,0.49137305611708615,-0.8478153105292571,0.6075746766921183,0.2514332968217372,0.817536220709691,0.004482611207626493,0.1397940207106946,-1.138994206672493,0
107,2024-09-16 20:40:35.149768192,TASK_BEGIN,006,0.5075638642244631,-0.8516853633337194,0.5856983412355903,0.3127862360685703,0.7883428795030301,0.005488636103624513,0.29361333836243736,-1.1804094305295154,0
108,2024-09-16 20:40:35.226501888,TASK_BEGIN,006,0.5220016005545748,-0.8554691552463999,0.5405622936161159,0.37087203444918676,0.7576605544820677,0.007682617222777719,0.43876303396027566,-1.2174338622767134,0
109,2024-09-16 20:40:35.288989952,TASK_BEGIN,006,0.533934769841074,-0.8591407847132475,0.47568996221798443,0.4233743130755881,0.7266141439529508,0.011053589697618606,0.5679649301143888,-1.2498069631730542,0
110,2024-09-16 20:40:36.243118848,TASK_BEGIN,006,0.5428430133236434,-0.8626815087143014,0.39553706489152934,0.4685388227843216,0.6961160036613088,0.015577011022303843,0.6734470562941698,-1.2770697700324636,0
111,2024-09-16 20:40:36.311005184,TASK_BEGIN,006,0.5484942938170214,-0.8661133600870874,0.3054029874761688,0.5051834576470795,0.6668714972267202,0.02120469416840186,0.7477584184484015,-1.2986658232203703,0
112,2024-09-16 20:40:36.367261952,TASK_BEGIN,006,0.5509610270537485,-0.869507525335143,0.21134099820163957,0.5326225063048292,0.6393937026287158,0.02785290259411252,0.7847705572808397,-1.3140949064459193,0
113,2024-09-16 20:40:36.445839872,TASK_BEGIN,006,0.5506185457629449,-0.8729707553611364,0.11999222101268955,0.5505422540957146,0.6140327725493998,0.03539087157630912,0.7805531997211996,-1.3230175692426784,0
114,2024-09-16 20:40:36.514162176,TASK_BEGIN,006,0.5481340107695019,-0.8766253136245356,0.038248112776188704,0.5588768140012895,0.5910242234967102,0.04363509888910612,0.7340247470722794,-1.3252867276493774,0
115,2024-09-16 20:40:36.580828928,TASK_BEGIN,006,0.5444196806283972,-0.8805912160868701,-0.0272246519769596,0.5577238186257254,0.5705404245441988,0.05235440142563395,0.6474564829896192,-1.3209685521179366,0
116,2024-09-16 20:40:36.647417088,TASK_BEGIN,006,0.5405423709188399,-0.8849716726897313,-0.07052954332647918,0.5473348528337882,0.5527342114275864,0.06128285761494614,0.5267818187699427,-1.3103970105537202,0
117,2024-09-16 20:40:37.590406912,TASK_BEGIN,006,0.537619779792942,-0.8898414990349028,-0.08707054309182548,0.5281715384539225,0.5377828874731405,0.07013173213096976,0.3814527204791246,-1.2942287743236023,0
118,2024-09-16 20:40:37.659262976,TASK_BEGIN,006,0.5367268869376477,-0.8952361462727976,-0.07388061606992745,0.5009541110971182,0.5259322758519294,0.07859646888870954,0.22363783722924238,-1.273444424818671,0
119,2024-09-16 20:40:37.716040960,TASK_BEGIN,006,0.5388096214569517,-0.9011370886557959,-0.029659220106931092,0.466646292195201,0.5175184021875482,0.08636234743651626,0.06687576601731507,-1.2492956255813452,0
120,2024-09-16 20:40:37.795051008,TASK_BEGIN,006,0.5446032191227086,-0.9074534349992751,0.04531947417937947,0.42639012905032736,0.5129498733285927,0.09311234309199037,-0.0754568863758984,-1.2232301594239028,0
121,2024-09-16 20:40:37.861542912,TASK_BEGIN,006,0.5545598774392518,-0.9140062526045548,0.14921432147328195,0.3814310281536159,0.5126524382014787,0.09853885485323179,-0.19154966436018303,-1.196787493275656,0
122,2024-09-16 20:40:37.919513856,TASK_BEGIN,006,0.5687870970038102,-0.9205251410562284,0.27850293170154383,0.3330621645146074,0.5169757127255863,0.10236328988799549,-0.27228384243011294,-1.171429987498044,0
123,2024-09-16 20:40:37.998142976,TASK_BEGIN,006,0.5869998758116607,-0.9266640230462205,0.4279357736479822,0.28259817849139895,0.5260708230699714,0.10436524073054211,-0.3119737398402618,-1.1483342632321467,0
124,2024-09-16 20:40:38.942301952,TASK_BEGIN,006,0.6085027561544969,-0.9320360534998154,0.5908027844619494,0.23136686009734286,0.5397840845911515,0.10441303907978258,-0.3086285265714747,-1.1282400876805763,0
125,2024-09-16 20:40:39.004800000,TASK_BEGIN,006,0.6322212844575109,-0.936259086326109,0.7595318712955641,0.18070047131475833,0.5576158285550995,0.10248424644968454,-0.26378762294778524,-1.1114228144432465,0
126,2024-09-16 20:40:39.069433856,TASK_BEGIN,006,0.6567854970791303,-0.9389977232180202,0.926407426715253,0.13191027254903118,0.5787481840465644,0.09867296117761197,-0.18211869521511503,-1.0977597519225688,0
127,2024-09-16 20:40:39.146123776,TASK_BEGIN,006,0.6806524667717214,-0.9399908185968855,1.0841908213322329,0.08623268465419037,0.6021142453150286,0.09318700960906261,-0.07083288548596592,-1.0868431590750411,0
128,2024-09-16 20:40:39.212850176,TASK_BEGIN,006,0.7022518571170818,-0.9390634064515467,1.2265853960528568,0.04474854972797467,0.6264851268911398,0.08633640248137547,0.061239126574828176,-1.0781476579013398,0
129,2024-09-16 20:40:39.279987968,TASK_BEGIN,006,0.7201312508874442,-0.9361292778807475,1.3486493133370598,0.00829192024677699,0.6505604781384839,0.07851208653626787,0.20493069272310738,-1.071255029397909,0
130,2024-09-16 20:40:39.346147840,TASK_BEGIN,006,0.733066788391113,-0.9311890354829302,1.4471856730645285,-0.022614169982529905,0.673057997848176,0.0701545850757733,0.3520144649193211,-1.0660621765095608,0
131,2024-09-16 20:40:40.284470016,TASK_BEGIN,006,0.7401101773732187,-0.9243239012012775,1.5208981889604867,-0.04774922543617487,0.6928087553272028,0.06171549101193538,0.49597811948964016,-1.0628592938646213,0
132,2024-09-16 20:40:40.354161152,TASK_BEGIN,006,0.7405762471286136,-0.9156845392855111,1.570120529782923,-0.06711156811394257,0.708853631290075,0.053620733615552876,0.6321176147064725,-1.0622221784060741,0
133,2024-09-16 20:40:40.423244800,TASK_BEGIN,006,0.7340141628014392,-0.9054760198904145,1.5962400092721476,-0.08081438890720487,0.7205088560978697,0.04624673268883737,0.7571461345386764,-1.0647716411221517,0
134,2024-09-16 20:40:40.485309952,TASK_BEGIN,006,0.7202032939171018,-0.8939396526888579,1.601081419753587,-0.08901354845778336,0.7273676977692183,0.03991278159141778,0.8686309144976601,-1.0709217837378857,0
135,2024-09-16 20:40:40.562964736,TASK_BEGIN,006,0.6991700383382423,-0.8813307007059532,1.5863245574625044,-0.09186048036157736,0.7292406849688454,0.03488242659425411,0.9644500345358484,-1.0807126703490333,0
136,2024-09-16 20:40:40.624999936,TASK_BEGIN,006,0.671198286434072,-0.8678950180325374,1.5528535719663705,-0.08943239606133448,0.7260783708758098,0.03136467787485551,1.0423122205662871,-1.093742391476593,0
137,2024-09-16 20:40:40.698806272,TASK_BEGIN,006,0.6368262547933405,-0.8538537034793502,1.500062641856407,-0.08161763980976246,0.7179329379640325,0.02951137924152488,1.0993779560936618,-1.1091612160660698,0
138,2024-09-16 20:40:41.610819072,TASK_BEGIN,006,0.5968338265941652,-0.8394005490278853,1.4254101994543131,-0.06800469045336564,0.7049802133217219,0.029411126126664723,1.1322060784388248,-1.1257158887439978,0
139,2024-09-16 20:40:41.673088000,TASK_BEGIN,006,0.5522110256905755,-0.8247049083092252,1.3245923253900818,-0.047866843463110084,0.6875731263551409,0.031081000778327757,1.137344712999094,-1.1418925168952327,0
140,2024-09-16 20:40:41.753907968,TASK_BEGIN,006,0.5041002392989268,-0.8099070487167809,1.1924468146179141,-0.020294462455229458,0.6662784608710615,0.03446033297695823,1.1125467704064524,-1.1561791388191611,0
141,2024-09-16 20:40:41.821616896,TASK_BEGIN,006,0.45372418602647807,-0.7950993525015703,1.024296074602509,0.01556051254852592,0.6418619029346165,0.0394145157761037,1.0580441735566504,-1.1673465553746902,0
142,2024-09-16 20:40:41.889345024,TASK_BEGIN,006,0.4023199450065815,-0.7802999411049145,0.8172586979478584,0.06020909112100872,0.6152138273278828,0.045753444634841565,0.9771779322054118,-1.1746008931096839,0
143,2024-09-16 20:40:41.957058048,TASK_BEGIN,006,0.3510993963876525,-0.765435079109603,0.5711843522712382,0.11359621374270455,0.5872374489866107,0.053260428111150726,0.8761354670125453,-1.1775741854865713,0
144,2024-09-16 20:40:42.012635904,TASK_BEGIN,006,0.30125156403603265,-0.750342560930056,0.2890764053351153,0.17497602142002197,0.5587347292347483,0.061723230191347046,0.7631146339531288,-1.1762456370874481,0
145,2024-09-16 20:40:42.967269120,TASK_BEGIN,006,0.2539799150328925,-0.7347946949697549,-0.022975695034949076,0.24290586294515304,0.530325261003487,0.07095833778035167,0.6473872089789366,-1.1708865639022776,0
146,2024-09-16 20:40:43.036192768,TASK_BEGIN,006,0.21053505725208263,-0.7185296226897405,-0.3562571180632066,0.3153267676725051,0.5024253575153768,0.08081919163454307,0.5384941175207449,-1.1620396904136332,0
147,2024-09-16 20:40:43.103525888,TASK_BEGIN,006,0.1721855658570604,-0.7012756657941315,-0.7001963502277909,0.38969868965466214,0.47528759529980974,0.0911858379898998,0.4455679379545193,-1.1504980842162702,0
148,2024-09-16 20:40:43.168559104,TASK_BEGIN,006,0.1400940276321088,-0.6827568468534132,-1.0433900253769732,0.46318636540087116,0.44906062592285534,0.10194816556524451,0.37674111444957964,-1.1372724683518851,0
149,2024-09-16 20:40:43.233177856,TASK_BEGIN,006,0.1151335571116153,-0.6626836027629712,-1.3747825056240939,0.5328878043831557,0.423809550170637,0.11300249937886346,0.33863511097350885,-1.1235599135390544,0
150,2024-09-16 20:40:43.307127040,TASK_BEGIN,006,0.09773091585553376,-0.6407477186670474,-1.6847616305205617,0.5960737539910056,0.39947411148457895,0.1242696968788485,0.3358864053722209,-1.1106940021684488,0
151,2024-09-16 20:40:43.369887232,TASK_BEGIN,006,0.08779729296096944,-0.6166365279508661,-1.9658681206629571,0.6504087439372535,0.37581608325902915,0.13572048010841867,0.37062455640427877,-1.1000173526202048,0
152,2024-09-16 20:40:44.313994752,TASK_BEGIN,006,0.08474550042674621,-0.5900652383041619,-2.212954687257332,0.6941323593290916,0.35242895863235274,0.14738392460288385,0.44194447768867373,-1.0926571591315266,0
153,2024-09-16 20:40:44.386339840,TASK_BEGIN,006,0.0875667254766875,-0.5608161571618983,-2.4228858869371512,0.7261646818934172,0.3288149630903934,0.1593306628774705,0.545612860552233,-1.0892726544831328,0
154,2024-09-16 20:40:44.452047104,TASK_BEGIN,006,0.09494842856021267,-0.5287738173423929,-2.5940618541235083,0.7461075350996925,0.3044651338803263,0.17164552213784504,0.6742572741986674,-1.0898774261993314,0
155,2024-09-16 20:40:44.516577792,TASK_BEGIN,006,0.10541026592556998,-0.4939476396271739,-2.726082710552851,0.7541661901786237,0.2788912569248009,0.18440753275258256,0.8180872107355198,-1.0937987608878328,0
156,2024-09-16 20:40:44.588519936,TASK_BEGIN,006,0.11741655680006932,-0.45647515245540593,-2.819743700101697,0.7510536734820965,0.25162432150839525,0.19768023259363662,0.9660009304717834,-1.0997876883304103,0
157,2024-09-16 20:40:44.657246208,TASK_BEGIN,006,0.12943575737434956,-0.41660596357612184,-2.8773080873835193,0.7379268059027567,0.22223415808147545,0.21150521310958034,1.106847975317427,-1.106258958192688,0
158,2024-09-16 20:40:44.723424768,TASK_BEGIN,006,0.13996584257221356,-0.3746801229790552,-2.902794032723952,0.7163691463288562,0.19040715615527995,0.22589365655995816,1.2305747766449748,-1.1115889657420626,0
159,2024-09-16 20:40:45.628483840,TASK_BEGIN,006,0.14756745802933527,-0.3311172421782247,-2.902017554984715,0.6883977219766392,0.15607134712617265,0.24081320448147717,1.3290267222448329,-1.1143769383192035,0
160,2024-09-16 20:40:45.706589952,TASK_BEGIN,006,0.15091623785282113,-0.286418054575175,-2.882305356134316,0.6564373103724771,0.11951649102552177,0.25616937259664624,1.3964002460951912,-1.1136281929004463,0
161,2024-09-16 20:40:45.768119040,TASK_BEGIN,006,0.1488640116985069,-0.24116736747043513,-2.851919676845188,0.6232113964323698,0.08144074658750534,0.2717877501934506,1.429487023021214,-1.1088623012014218,0
162,2024-09-16 20:40:45.845395968,TASK_BEGIN,006,0.1405183891746607,-0.1960290793407328,-2.8192857857077875,0.5915446806196115,0.042881296219869414,0.2874094495296093,1.427738831017428,-1.100126169347578,0
163,2024-09-16 20:40:45.914727936,TASK_BEGIN,006,0.1253592371933982,-0.15172916696356076,-2.792162482015623,0.564113289744234,0.005047277525839816,0.3027079500179785,1.3930692724384508,-1.0878914285734609,0
164,2024-09-16 20:40:45.969263872,TASK_BEGIN,006,0.10337529268722072,-0.10902363353740728,-2.776923005653189,0.5431869160188161,-0.030873463949543704,0.31732364444312,1.3293733990171888,-1.0728769090183965,0
165,2024-09-16 20:40:46.047370752,TASK_BEGIN,006,0.07515892813642042,-0.06865242676872281,-2.778055479979798,0.5303992867635127,-0.06385851336763246,0.33090431859897407,1.2418328130716578,-1.0558672355216074,0
166,2024-09-16 20:40:46.988045824,TASK_BEGIN,006,0.04189455908193315,-0.03128973100029166,-2.7979096109182953,0.5265893253150599,-0.0931150260756012,0.3431402027047592,1.1361319519020467,-1.0375646299071934,0
167,2024-09-16 20:40:47.050873088,TASK_BEGIN,006,0.005229115934515445,0.0024956654169836995,-2.8367026942600715,0.5317653487857757,-0.11808234077811833,0.35378685169890006,1.017797303691569,-1.0184909538100684,0
168,2024-09-16 20:40:47.128163072,TASK_BEGIN,006,-0.032922915956186925,0.03226563217086748,-2.8927807309147506,0.5452129545700258,-0.13840806824096333,0.3626748323217078,0.8918661087963657,-0.9989663244839934,0
169,2024-09-16 20:40:47.196899840,TASK_BEGIN,006,-0.07056869657116509,0.05772890427423044,-2.9630241992830877,0.5656935523609876,-0.15392164454061025,0.3697107999800469,0.762897298479178,-0.9791686186043667,0
170,2024-09-16 20:40:47.264617984,TASK_BEGIN,006,-0.10578315335596658,0.0787510461251035,-3.043239732790056,0.5916421917483152,-0.16461362635510135,0.37487543173678567,0.6351163702158301,-0.9592310342507449,0
171,2024-09-16 20:40:47.332379904,TASK_BEGIN,006,-0.13681144651480076,0.09535221663499767,-3.1284894236140874,0.6213165673194753,-0.17061647778425595,0.3782192488184055,0.5124667812735384,-0.9393293642505801,0
172,2024-09-16 20:40:47.390234880,TASK_BEGIN,006,-0.162134245266544,0.10768480678931264,-3.2134103365294258,0.6529119858573308,-0.17217850703835175,0.37985438229959045,0.3985516437859387,-0.9197593199108453,0
173,2024-09-16 20:40:48.333362176,TASK_BEGIN,006,-0.18050481497234314,0.11599279148330963,-3.292568123738198,0.6846683639765604,-0.16963033435036673,0.3799419574367218,0.2966099711493559,-0.9010271528678179,0
174,2024-09-16 20:40:48.411048704,TASK_BEGIN,006,-0.19097781750185597,0.12056822047852102,-3.3608254359614045,0.7149637403557133,-0.16335294478522255,0.37867837557876094,0.2095490947370964,-0.8839222244590866,0
175,2024-09-16 20:40:48.473048832,TASK_BEGIN,006,-0.19294980290488914,0.12172428474759502,-3.4136220573781677,0.7423625862123177,-0.15376117398985673,0.3762863908939868,0.13992371774881263,-0.869500291921139,0
176,2024-09-16 20:40:48.546627840,TASK_BEGIN,006,-0.1862194382742574,0.11979389338294084,-3.447057129232075,0.7655990199080192,-0.14131442395273597,0.3730142235311711,0.08987546191611333,-0.8589552446279696,0
177,2024-09-16 20:40:48.613067008,TASK_BEGIN,006,-0.17105140067902522,0.1151436898655583,-3.4577948578077273,0.783512363722368,-0.1265516816676499,0.3691374540357691,0.06114652924746865,-0.85341858404752,0
178,2024-09-16 20:40:48.675939072,TASK_BEGIN,006,-0.14819718643611288,0.10817933302780448,-3.442918424655013,0.7949726967477772,-0.11012433881696652,0.3649523577410302,0.055168814945152966,-0.8537444219797585,0
179,2024-09-16 20:40:48.736545280,TASK_BEGIN,006,-0.11883896274988022,0.09932487693299666,-3.39981151257253,0.7988349655423891,-0.0927882780031559,0.36075294796754603,0.07312195621574895,-0.8603335111504931,0
180,2024-09-16 20:40:49.689542912,TASK_BEGIN,006,-0.08448471969601311,0.0889855775543227,-3.3260821327923216,0.7939665812464932,-0.07533489667032846,0.35679587738546953,0.11584966126111071,-0.8730227669917309,0
181,2024-09-16 20:40:49.751868928,TASK_BEGIN,006,-0.04686406434254703,0.07752102586777367,-3.2195283591301997,0.7793759947935455,-0.058481886293654944,0.3532681612687203,0.1835801712882272,-0.8910373209012588,0
182,2024-09-16 20:40:49.828441856,TASK_BEGIN,006,-0.007820959158919411,0.06524499767958204,-3.0781014879171433,0.7544021326907746,-0.04277941104159892,0.35027195120762805,0.27551505041507895,-0.9129991213361321,0
183,2024-09-16 20:40:49.896820992,TASK_BEGIN,006,0.03083874655215271,0.052445861987363965,-2.8998617750798603,0.7188789130074295,-0.028586152240161297,0.34783005217625296,0.38941334114157916,-0.9369814995605956,0
184,2024-09-16 20:40:49.964218880,TASK_BEGIN,006,0.06755064351880949,0.03940911809984818,-2.6831257905901995,0.6732277044380197,-0.016122398865140754,0.34590651294830005,0.5212281039132686,-0.9605853237430357,0
185,2024-09-16 20:40:50.032329984,TASK_BEGIN,006,0.10118360167354584,0.02642563747254891,-2.427029389971521,0.6184874288378666,-0.005550792164339824,0.34443255004175705,0.6648364775108131,-0.981034424597756,0
186,2024-09-16 20:40:50.094483968,TASK_BEGIN,006,0.13113151748906096,0.013782405162730658,-2.1323900840248546,0.5562934721558206,0.002973961856603374,0.3433280729817195,0.8120425302711113,-0.9953444341652132,0
187,2024-09-16 20:40:51.044113152,TASK_BEGIN,006,0.15726267126476476,0.0017492990835965999,-1.8024563538030542,0.4887913502546472,0.009306506692341659,0.3425140046161649,0.9530669231214748,-1.0006221902005599,0
188,2024-09-16 20:40:51.107001088,TASK_BEGIN,006,0.17976362964868237,-0.009420633731941717,-1.4432388806336152,0.4184711514596746,0.013345583826187784,0.3419182287384052,1.0775026601568485,-0.9944603438135501,0
189,2024-09-16 20:40:51.165094912,TASK_BEGIN,006,0.19896163645576362,-0.0194752529646769,-1.0634601114359463,0.3479458297518693,0.015074301605927052,0.341481578055631,1.1754853463674317,-0.9753150645071426,0
190,2024-09-16 20:40:51.247353088,TASK_BEGIN,006,0.21520175601936237,-0.028148430689204872,-0.6742890163909858,0.2797326832155728,0.014583991492971187,0.3411675202977404,1.2388416013371493,-0.9427822416644385,0
191,2024-09-16 20:40:51.302620160,TASK_BEGIN,006,0.22880325415475336,-0.03516616959075848,-0.288791659060949,0.2160782684683902,0.012066413291845393,0.3409742817647082,1.2620667828664929,-0.8977344893230268,0
192,2024-09-16 20:40:51.380323072,TASK_BEGIN,006,0.24006143615600173,-0.04027953261268053,0.07913244502186934,0.15881927176078542,0.00777045844489646,0.34094467423773256,1.2429427224984542,-0.8422771636922111,0
193,2024-09-16 20:40:51.442387200,TASK_BEGIN,006,0.24925047889394147,-0.04331072861106019,0.41626066165758413,0.10926538739643253,0.0019359181815270454,0.3411688449741978,1.1825769902419179,-0.779498077477032,0
194,2024-09-16 20:40:52.391822080,TASK_BEGIN,006,0.2566103171591706,-0.044187768614000124,0.7115084768551256,0.06812229677637387,-0.005273855353611268,0.34177775840442753,1.0848216872676142,-0.7130642784945093,0
195,2024-09-16 20:40:52.459535872,TASK_BEGIN,006,0.2623130990916914,-0.04294822945635947,0.9567954170358234,0.035496356694511476,-0.013821003088530823,0.34292644871021155,0.9553141196753234,-0.6467770121538651,0
196,2024-09-16 20:40:52.526716160,TASK_BEGIN,006,0.2664060574062251,-0.03971073895512726,1.1471252451074156,0.011004603902483043,-0.023815268846505297,0.3447675128588244,0.8005307880499044,-0.5841725156262406,0
197,2024-09-16 20:40:52.594983936,TASK_BEGIN,006,0.26874718441109985,-0.03463251335075887,1.2801253384492888,-0.0060390949562518885,-0.03550135903708615,0.34741916761882274,0.6271575651124762,-0.5282023742033614,0
198,2024-09-16 20:40:52.662163968,TASK_BEGIN,006,0.2689654540271227,-0.02787941570055872,1.3555046877491452,-0.01642899683523703,-0.049180306129884076,0.35093232282278786,0.44185589268406367,-0.48100667035207684,0
199,2024-09-16 20:40:52.730295040,TASK_BEGIN,006,0.2664613500509276,-0.019624062735309433,1.3747580969213862,-0.020923536152182707,-0.06503174315319409,0.355258111270743,0.25130965978213277,-0.44380297868407076,0
200,2024-09-16 20:40:52.797815808,TASK_BEGIN,006,0.26044643862577577,-0.01006636712400996,1.3410709510213579,-0.0201771215007189,-0.08287557754099921,0.36022154968444403,0.062336341945747685,-0.416911871146707,0
201,2024-09-16 20:40:53.718189056,TASK_BEGIN,006,0.25003112077248163,0.0005421538499233241,1.2591400297423627,-0.014742008774525493,-0.10200143448180551,0.3655154926453788,-0.11814036700556549,-0.3998997211688873,0
202,2024-09-16 20:40:53.786042112,TASK_BEGIN,006,0.23437731065914105,0.011887199849667173,1.1348103558375018,-0.005123831053166917,-0.12119138953513231,0.37072606207655456,-0.2833481367058216,-0.3917714819243965,0
203,2024-09-16 20:40:53.853737984,TASK_BEGIN,006,0.21290720654545442,0.023599651610113015,0.9747323853925165,0.008135201606335556,-0.13894898442269443,0.3753845358328164,-0.4271430058214267,-0.3911450043750746,0
204,2024-09-16 20:40:53.921464064,TASK_BEGIN,006,0.1855184318802875,0.03527619835706054,0.7861519878446812,0.024394850093876503,-0.15382545455167662,0.3790276832496382,-0.5446389998703809,-0.3963847999088505,0
205,2024-09-16 20:40:53.989211904,TASK_BEGIN,006,0.15273711558700176,0.046498289987819005,0.5766503755002137,0.04292827099084751,-0.16469778609391633,0.38124901113179366,-0.632844028783279,-0.40571606170035607,0
206,2024-09-16 20:40:54.054672128,TASK_BEGIN,006,0.11575494168633754,0.056837381650411564,0.3537202251098001,0.06299814174485513,-0.17090510396350234,0.381731162728742,-0.6910698864114628,-0.4173550559223648,0
207,2024-09-16 20:40:54.124708864,TASK_BEGIN,006,0.07632544186218,0.06584882276256733,0.1243446439696284,0.08392616192515345,-0.17223862329179002,0.38025892358828595,-0.7209148927700374,-0.42967904991062944,0
208,2024-09-16 20:40:55.064228096,TASK_BEGIN,006,0.036540410605730426,0.07307120098691168,-0.10525366560761103,0.10510422909618203,-0.16884637893505583,0.376720580930631,-0.7257995244074502,-0.44141275626164406,0
209,2024-09-16 20:40:55.136046848,TASK_BEGIN,006,-0.0014358052907623557,0.07804555722216977,-0.32972678776941405,0.12596622217745237,-0.1611126805030541,0.3711051844477801,-0.7102197959988612,-0.4517632745328236,0
210,2024-09-16 20:40:55.203618816,TASK_BEGIN,006,-0.035590674365061505,0.08035337942493641,-0.544740122482964,0.14598106449708012,-0.14953437974514086,0.3634957748241777,-0.6789152052696871,-0.4604528953074192,0
211,2024-09-16 20:40:55.271533824,TASK_BEGIN,006,-0.06422618979649836,0.079658941431657,-0.7472743199375066,0.1647245272689318,-0.1346076132096258,0.3540560752311153,-0.6361145675008235,-0.4676625321060793,0
212,2024-09-16 20:40:55.339124992,TASK_BEGIN,006,-0.08608828706351936,0.07573626730099198,-0.9360367406575343,0.18203786206746783,-0.11674937106071887,0.3430108879586616,-0.5850625010547817,-0.47392588510178346,0
213,2024-09-16 20:40:55.404077056,TASK_BEGIN,006,-0.10047449006904931,0.06846765261228792,-1.111741829166232,0.1982080706102397,-0.0962683340108375,0.33062159437205796,-0.5279809017483538,-0.47999877580330286,0
214,2024-09-16 20:40:55.474727936,TASK_BEGIN,006,-0.1072966405438883,0.057819333234466246,-1.2770569299198702,0.2140735750499798,-0.07338481994814099,0.3171596303632828,-0.46636888587609165,-0.4867275159806256,0
215,2024-09-16 20:40:56.412132096,TASK_BEGIN,006,-0.1070726773821223,0.04381440132015369,-1.4360927777504513,0.23097520263500418,-0.048292332852280066,0.3028829913936696,-0.4013394931116454,-0.494953711654797,0
216,2024-09-16 20:40:56.485611776,TASK_BEGIN,006,-0.10083614160756817,0.026517742877773982,-1.5933468233419246,0.25051220972125415,-0.021234889033792427,0.2880195605784577,-0.33371180078113927,-0.505480270434226,0
217,2024-09-16 20:40:56.552198912,TASK_BEGIN,006,-0.08996199956798975,0.006029437695064329,-1.7522786178413916,0.2741560545192054,0.007441299054479843,0.2727590443348835,-0.26380517451144525,-0.5190750168793284,0
218,2024-09-16 20:40:56.621451008,TASK_BEGIN,006,-0.07592945123322194,-0.017527597259466548,-1.9140988177314147,0.30287965529083477,0.037294883422884464,0.257253445121858,-0.19122061936972504,-0.5364437998659055,0
219,2024-09-16 20:40:56.677015040,TASK_BEGIN,006,-0.06007821367699384,-0.04403174512540597,-2.07732403675544,0.33696054598947245,0.06786676587598504,0.24161971294860538,-0.11500330908483962,-0.5581311700111391,0
220,2024-09-16 20:40:56.754400768,TASK_BEGIN,006,-0.043424561532807125,-0.07338582328319351,-2.238146036704765,0.37599765313678934,0.09880775808745944,0.22593486618405315,-0.03426414381743268,-0.5843848374618675,0
221,2024-09-16 20:40:56.824688896,TASK_BEGIN,006,-0.026574986732348756,-0.10551530039336401,-2.3912125485511195,0.4190461126045967,0.12999872258775172,0.21022402983066224,0.051030953145227334,-0.6150460243703797,0
222,2024-09-16 20:40:57.733774848,TASK_BEGIN,006,-0.009738954392158944,-0.140326047875344,-2.530398891192137,0.4647403778257458,0.16159587597182098,0.1944552383010163,0.1394477983838456,-0.6494939319397652,0
223,2024-09-16 20:40:57.811064832,TASK_BEGIN,006,0.007186470001973866,-0.17762963132219822,-2.6494603362359634,0.5113686792797456,0.19397066536178176,0.17855353659929224,0.22783884266041068,-0.6866571533922441,0
224,2024-09-16 20:40:57.878755072,TASK_BEGIN,006,0.024508591897840864,-0.21706642816867416,-2.7426725892142545,0.5569608981024825,0.2275688062727449,0.1624320894297487,0.3115014899292862,-0.7250985791069195,0
225,2024-09-16 20:40:57.939805952,TASK_BEGIN,006,0.04265308340819505,-0.25806185532690495,-2.8054692472625997,0.599438984377455,0.26274657936411283,0.14602690591801287,0.3846408250546764,-0.7631430464936341,0
226,2024-09-16 20:40:58.014170880,TASK_BEGIN,006,0.062117896059560355,-0.29983454081472555,-2.8349064329065223,0.6368017257577044,0.2996332395473984,0.1293261829596194,0.44096750887272507,-0.7989983435849658,0
227,2024-09-16 20:40:58.081864960,TASK_BEGIN,006,0.08346775896211381,-0.3414496565019012,-2.829823210901074,0.6672860118354418,0.33803167385284094,0.11239713420178173,0.47430394480383914,-0.8308586522772274,0
228,2024-09-16 20:40:58.149553920,TASK_BEGIN,006,0.10736096735319128,-0.38189441503233723,-2.7907627839368683,0.6894775007875459,0.3773514980628224,0.0954133525681533,0.4791909210046786,-0.8570220029421007,0
229,2024-09-16 20:40:59.093470208,TASK_BEGIN,006,0.13457465163213003,-0.4201524925272588,-2.7197931913793463,0.7023715866959686,0.41658687906405606,0.07867337649110626,0.45156819068336784,-0.8760459886789245,0
230,2024-09-16 20:40:59.161233920,TASK_BEGIN,006,0.16598278278620598,-0.4552628432875962,-2.620250443479277,0.7053821459340855,0.4543605978455754,0.06259732514008033,0.3895081435038982,-0.8869239189859857,0
231,2024-09-16 20:40:59.228201984,TASK_BEGIN,006,0.2024672793354385,-0.48635867030345137,-2.496373253373902,0.6982969713438262,0.4890267944336945,0.0477008051884295,0.2937923885914008,-0.8892281227772172,0
232,2024-09-16 20:40:59.296681984,TASK_BEGIN,006,0.2447723957641366,-0.5126897573769736,-2.3529301783081156,0.681210808042212,0.518799595037847,0.03455612457941808,0.16809072605731773,-0.8831584933391615,0
233,2024-09-16 20:40:59.364412160,TASK_BEGIN,006,0.2933233914659635,-0.5336322318350499,-2.1949733626833554,0.6544839909619249,0.5418902727588981,0.023748555473791164,0.0186512497323604,-0.8694682994302596,0
234,2024-09-16 20:40:59.428531968,TASK_BEGIN,006,0.3480414699547926,-0.5486886581409408,-2.0276401776213953,0.6187341195497384,0.5566589120049179,0.015830385219850196,-0.14641848023690174,-0.8493086821602661,0
235,2024-09-16 20:40:59.490100992,TASK_BEGIN,006,0.40820667268976324,-0.5574859795618544,-1.855832638257116,0.5748202983084633,0.5617804363838126,0.011276843339830754,-0.318063192613156,-0.8240725596754592,0
236,2024-09-16 20:41:00.443453184,TASK_BEGIN,006,0.47242549072487716,-0.5597830724053706,-1.683845843010578,0.5237940918147393,0.5564052607306627,0.010448810508417632,-0.4871332871860075,-0.7952854754066859,0
237,2024-09-16 20:41:00.511179008,TASK_BEGIN,006,0.5387382589129915,-0.5554934045954252,-1.515212578869419,0.4668400917083524,0.5402805940720216,0.013564751668003338,-0.6450655418304383,-0.7645273900478299,0
238,2024-09-16 20:41:00.578974208,TASK_BEGIN,006,0.604859742879202,-0.5447152149632933,-1.3528950647177884,0.40524237335395363,0.5137924497268646,0.02068543865132261,-0.7844421378085962,-0.7333341603233856,0
239,2024-09-16 20:41:00.646646016,TASK_BEGIN,006,0.6684930978287159,-0.5277517344674404,-1.1997129494632373,0.3403926937870854,0.47790857448958085,0.03171624284774375,-0.8994890131080125,-0.7030515429617994,0
240,2024-09-16 20:41:00.704756224,TASK_BEGIN,006,0.7276232073216673,-0.5051036163903208,-1.0587748125219245,0.273830717906988,0.43404244305344813,0.04642533357717946,-0.9864818097697681,-0.6746851620168218,0
241,2024-09-16 20:41:00.781326848,TASK_BEGIN,006,0.7807085058144092,-0.4774262017698244,-0.933684160382469,0.20728075994951523,0.3838815731045499,0.06446812205609735,-1.0439469109111554,-0.6488324941286517,0
242,2024-09-16 20:41:00.849974016,TASK_BEGIN,006,0.8267374467219429,-0.44546117568657095,-0.8284549446060725,0.14264845634761536,0.3292286430229981,0.08540754348514244,-1.0725299751667465,-0.6257385829138652,0
243,2024-09-16 20:41:01.793691904,TASK_BEGIN,006,0.8651657688674046,-0.40996599137080564,-0.7473197282309576,0.08197906424610842,0.2718999398562474,0.10872584295943798,-1.0745025740257537,-0.6054315095463265,0
244,2024-09-16 20:41:01.850963200,TASK_BEGIN,006,0.89577905818362,-0.37166411911185787,-0.6946925551421348,0.027412848364042657,0.2136887763724232,0.1338332338825938,-1.0530121530309375,-0.587862798282177,0
245,2024-09-16 20:41:01.929135104,TASK_BEGIN,006,0.9185329933145553,-0.33122503144479576,-0.6753263486399251,-0.018845653445388806,0.1563462361746516,0.16008612625300953,-1.0112701076456159,-0.573012898863141,0
246,2024-09-16 20:41:01.996860160,TASK_BEGIN,006,0.9334318064072082,-0.289267511037739,-0.6943118425353403,-0.05459179057902194,0.10152079370652001,0.1868242083258353,-0.9519463215484091,-0.5609489737243084,0
247,2024-09-16 20:41:02.052594944,TASK_BEGIN,006,0.940502198179446,-0.24637148766667744,-0.7564111970041576,-0.07780491355371967,0.05063922355662365,0.21342429615544797,-0.8769914485236353,-0.5518243055231736,0
248,2024-09-16 20:41:02.130153728,TASK_BEGIN,006,0.9398754496533569,-0.20308338694829542,-0.8646334777705114,-0.08697937916068765,0.004754031214691795,0.23936097137407644,-0.7878800373924708,-0.5458339474416335,0
249,2024-09-16 20:41:02.191310848,TASK_BEGIN,006,0.9319230219802482,-0.1599082779500962,-1.0186139684185596,-0.08149702420023172,-0.03559499402509761,0.26426109287174904,-0.6860885011302729,-0.5431781867264248,0
250,2024-09-16 20:41:03.137286912,TASK_BEGIN,006,0.9173548790666305,-0.11729390609231018,-1.2135622597240046,-0.06186667571925856,-0.07045311654743736,0.2879367597078689,-0.5736061655186531,-0.5440741556649595,0
251,2024-09-16 20:41:03.211590144,TASK_BEGIN,006,0.8972151821141033,-0.07561772094902798,-1.4401121504095855,-0.029742238044823826,-0.10042001216218147,0.3103825231814885,-0.45327893542696224,-0.5488033613875233,0
252,2024-09-16 20:41:03.278270976,TASK_BEGIN,006,0.8727778112606899,-0.035184114210111535,-1.684876243388789,0.012227636061042615,-0.12651048830322062,0.33173277221379865,-0.328812453674685,-0.5577463911454754,0
253,2024-09-16 20:41:03.347033856,TASK_BEGIN,006,0.84540160320199,0.003770587066682543,-1.9314028915851364,0.060625468221264654,-0.1499420836711485,0.3521921022892509,-0.20445808842044821,-0.5713485044231852,0
254,2024-09-16 20:41:03.400708864,TASK_BEGIN,006,0.8164099973606936,0.04107409293712153,-2.1614049966109885,0.1115220534957057,-0.17191774096927878,0.3719646217762027,-0.08462173720822595,-0.5899734650217117,0
255,2024-09-16 20:41:03.482498048,TASK_BEGIN,006,0.7870179736655712,0.07662039617207224,-2.356184759032824,0.16075090659076338,-0.19346651408046442,0.3912062275537984,0.026393515838103027,-0.6136550066199745,0
256,2024-09-16 20:41:03.539364096,TASK_BEGIN,006,0.7582882005796385,0.11037395020643852,-2.4981287579877134,0.204187568688223,-0.21536403169079749,0.4100083911706197,0.12447329152829308,-0.641825299473745,0
257,2024-09-16 20:41:04.462980096,TASK_BEGIN,006,0.7310991533520247,0.14236397734506753,-2.5721851890078624,0.23803441173632453,-0.23811041285082293,0.4284038933156367,0.20568162750873623,-0.6731328034275045,0
258,2024-09-16 20:41:04.536457984,TASK_BEGIN,006,0.7061327989176016,0.17265846642406088,-2.5672695541843225,0.25911665575409376,-0.26192790489645135,0.4463745039292345,0.26631265955492867,-0.7054440444530758,0
259,2024-09-16 20:41:04.604201216,TASK_BEGIN,006,0.6838852858288061,0.20132012754554995,-2.477427951773965,0.2651602610401474,-0.2867645235880135,0.46384746306363717,0.30316600580773073,-0.7360581914815066,0
260,2024-09-16 20:41:04.664998912,TASK_BEGIN,006,0.6646770786273553,0.22836171095131697,-2.3024993679033283,0.25499360025529794,-0.31232031494338397,0.48068698931401427,0.3140396314063494,-0.7620719634808591,0
261,2024-09-16 20:41:04.739648256,TASK_BEGIN,006,0.6486487292789908,0.25371971177597785,-2.0481322982679586,0.22863705170276355,-0.3381082520569676,0.4966960135792958,0.29826877331461227,-0.7807839204742908,0
262,2024-09-16 20:41:04.805020928,TASK_BEGIN,006,0.6357681780693328,0.27725263937484085,-1.7252034652787427,0.1872770447819197,-0.3635384754622654,0.5116340816919743,0.2571181221323273,-0.7900439963879164,0
263,2024-09-16 20:41:04.867086848,TASK_BEGIN,006,0.6258745173806066,0.29875713565080514,-1.3488336089250659,0.1331323356610824,-0.38800475564896225,0.5252459105886438,0.1939027617468449,-0.7884963420734762,0
264,2024-09-16 20:41:05.803542016,TASK_BEGIN,006,0.6187398377760118,0.31799013424106587,-0.9371939895864304,0.06923091113174294,-0.41095152318917116,0.53729140860348,0.11383043107554361,-0.7757091858468784,0
265,2024-09-16 20:41:05.880294144,TASK_BEGIN,006,0.6141167193795171,0.3346862349749382,-0.5101510703751118,-0.00087147608909765,-0.43190615591570625,0.5475693177453785,0.02365095509076324,-0.752214980741056,0
266,2024-09-16 20:41:05.941907968,TASK_BEGIN,006,0.6117682676255971,0.3485663392609334,-0.08778981405686777,-0.07339228398487717,-0.450478219594338,0.555931096057515,-0.06879193536232525,-0.7194780897542645,0
267,2024-09-16 20:41:06.019591936,TASK_BEGIN,006,0.6114936384498257,0.3593441581496845,0.31097595538652023,-0.14460310199641255,-0.4663375662449297,0.5622873733023686,-0.15503865530011138,-0.6797876650266615,0
268,2024-09-16 20:41:06.081589760,TASK_BEGIN,006,0.613151135448647,0.36674131957901396,0.6694931072970444,-0.211076445850431,-0.47918247176225753,0.566612755585305,-0.22651766232693063,-0.636069047956932,0
269,2024-09-16 20:41:06.143299072,TASK_BEGIN,006,0.6166754304073947,0.37051414122343834,0.9741517436975841,-0.26991484700158885,-0.4887142775742766,0.5689541880501888,-0.2751473626327098,-0.5916201516610422,0
270,2024-09-16 20:41:06.225372928,TASK_BEGIN,006,0.6220876745021444,0.37048393072478836,1.214991235235878,-0.3189593106664484,-0.49463579892161247,0.5694410696479614,-0.2940757979142081,-0.5498018809668327,0
271,2024-09-16 20:41:07.168845056,TASK_BEGIN,006,0.6294953385256568,0.36655824802611575,1.386195843266576,-0.35692843149102427,-0.49666964825870086,0.5682846364911062,-0.27847828355737614,-0.5137317539721833,0
272,2024-09-16 20:41:07.231831040,TASK_BEGIN,006,0.6390726106049279,0.35873649508537003,1.4863670111575225,-0.3834364900577967,-0.4945776230163212,0.5657542640892158,-0.22624202007867605,-0.48603351110511084,0
273,2024-09-16 20:41:07.304340992,TASK_BEGIN,006,0.65101098874966,0.34710462559949473,1.5183696744052209,-0.39888485285026426,-0.4881782568583103,0.5621345807964001,-0.13833467200460928,-0.46867400140145266,0
274,2024-09-16 20:41:07.372050176,TASK_BEGIN,006,0.6654488623318371,0.33182969335517826,1.4887128892376442,-0.4042741070590593,-0.47737253501643395,0.5576813755705838,-0.018708239079531706,-0.4628821646440771,0
275,2024-09-16 20:41:07.431991296,TASK_BEGIN,006,0.6824104093463766,0.31316037784673695,1.406673728578966,-0.4010027449967836,-0.4621733910332327,0.5525915253449329,0.12627722820343468,-0.4691194479403037,0
276,2024-09-16 20:41:07.494477056,TASK_BEGIN,006,0.7017698637795786,0.29142961976395754,1.2833880036086327,-0.3906909457706321,-0.4427218587283263,0.5469910205964275,0.28879043219371514,-0.4870771036538569,0
277,2024-09-16 20:41:07.575252992,TASK_BEGIN,006,0.7232216164610291,0.26704810082297725,1.1309467049658428,-0.3750296157172806,-0.419275572480913,0.5409375456982337,0.46061634372958227,-0.515715081543538,0
278,2024-09-16 20:41:08.494023168,TASK_BEGIN,006,0.7462267022130902,0.24048034234729596,0.9614549457592758,-0.3556408736905046,-0.39216697448198906,0.534431553708869,0.6341476017351101,-0.5533805295691517,0
279,2024-09-16 20:41:08.555049728,TASK_BEGIN,006,0.7699350875849149,0.21220910552986721,0.7861382455417621,-0.3339521944487171,-0.36175571964160047,0.527431525623698,0.8030477665189191,-0.5980007559072238,0
280,2024-09-16 20:41:08.617049088,TASK_BEGIN,006,0.7931232855750526,0.18270587300563623,0.6147023496666355,-0.31111145702828336,-0.3284216446243111,0.5198734603064675,0.9624427261501182,-0.6472844713079474,0
281,2024-09-16 20:41:08.694210816,TASK_BEGIN,006,0.8142003133623674,0.1524226795188367,0.4550532886042279,-0.28796777371804444,-0.2926252542801611,0.5116965121630535,1.1086643833825542,-0.6988560004968517,0
282,2024-09-16 20:41:08.764954112,TASK_BEGIN,006,0.8313151753894137,0.12180500387434764,0.3132794203763604,-0.2651079419381985,-0.25501153733283544,0.5028727702187483,1.238756036863446,-0.7502873737903569,0
283,2024-09-16 20:41:08.832585984,TASK_BEGIN,006,0.8425648041567235,0.09130953643114083,0.19372963175570931,-0.24291373026599153,-0.21648824168457434,0.49343312790402954,1.350075138369197,-0.7990607278135928,0
284,2024-09-16 20:41:08.900345088,TASK_BEGIN,006,0.8462571084253706,0.06140677647212457,0.09913314672214438,-0.221622645479954,-0.17820824024669527,0.48347971473812057,1.4402841501454586,-0.8425539130351051,0
285,2024-09-16 20:41:09.833960960,TASK_BEGIN,006,0.8411479538040662,0.0325597233959047,0.03083030745385299,-0.20140639945696182,-0.1414414539163674,0.47317967802537747,1.5077291579468446,-0.8781418799303653,0
286,2024-09-16 20:41:09.910962176,TASK_BEGIN,006,0.8265839323788117,0.0051877353090521595,-0.010850526078707717,-0.1824736433672663,-0.10739364952130201,0.4627411628969441,1.5518804745102603,-0.9034419059199623,0
287,2024-09-16 20:41:09.973020928,TASK_BEGIN,006,0.8025372593888432,-0.020365126035666963,-0.0261658683114277,-0.1651586077378845,-0.07705268750059187,0.4523770772044894,1.5735111098152723,-0.9166576397253594,0
288,2024-09-16 20:41:10.046430208,TASK_BEGIN,006,0.7695674593511299,-0.04384342525500977,-0.015630058059839844,-0.1499380403051456,-0.05110375904840456,0.44226597843752563,1.5745991909610775,-0.9169358209536841,0
289,2024-09-16 20:41:10.114160128,TASK_BEGIN,006,0.7287615723642417,-0.06507704022918914,0.020057758204783456,-0.13735071523877235,-0.02990441749228615,0.4325214582623929,1.5581371028558446,-0.9046351580180714,0
290,2024-09-16 20:41:10.173061888,TASK_BEGIN,006,0.6816910542197535,-0.08397453380141674,0.07967919308203208,-0.12783888050459724,-0.01349526184924039,0.42317666469861087,1.5279333124553058,-0.8814160549702326,0
291,2024-09-16 20:41:10.234595840,TASK_BEGIN,006,0.6303883499509113,-0.10052481937152474,0.16077851742034813,-0.12156461946284786,-0.0016332513927241762,0.41418155572509124,1.488369149227697,-0.8501096806949667,0
292,2024-09-16 20:41:11.193085952,TASK_BEGIN,006,0.5773038204324136,-0.11480447115173613,0.25892286994190583,-0.11826977363976737,0.006158207304607885,0.40540901355522574,1.4441019558914763,-0.8143961253717502,0
293,2024-09-16 20:41:11.246416896,TASK_BEGIN,006,0.5251832602433205,-0.12697498904822632,0.3674092343832063,-0.11723167135246179,0.01052942417615746,0.3966708929307591,1.3997568057863972,-0.778364549997635,0
294,2024-09-16 20:41:11.323208960,TASK_BEGIN,006,0.47684246297914673,-0.13725776908566237,0.47761782749382503,-0.11732857689630687,0.012238320109503247,0.38774500811416807,1.3596095990116357,-0.7460341309758668,0
295,2024-09-16 20:41:11.396266752,TASK_BEGIN,006,0.43489131866349684,-0.14589020074688563,0.5798992843317321,-0.11719905973478613,0.012070098231695667,0.37841068010423967,1.3272106203646192,-0.7209056782638349,0
296,2024-09-16 20:41:11.462804224,TASK_BEGIN,006,0.4014996132824845,-0.15307903992818508,0.6647591810289936,-0.11546721452330215,0.010740936998934978,0.36848784447784577,1.304943719330535,-0.7056011886019181,0
297,2024-09-16 20:41:11.531738112,TASK_BEGIN,006,0.37826225490536997,-0.1589715809320138,0.7240667387926017,-0.11099400449995604,0.008818486629235666,0.3578685286072781,1.2936515039829892,-0.701633576473263,0
298,2024-09-16 20:41:11.599486976,TASK_BEGIN,006,0.36615602544002906,-0.16365913864293305,0.7519749889780895,-0.10309202016129496,0.006703567616426061,0.34652732810899484,1.2925398880003465,-0.7093327673070727,0
299,2024-09-16 20:41:12.543334912,TASK_BEGIN,006,0.3655374349110961,-0.16720863976252556,0.7453207953564339,-0.09163291476076652,0.004674621873773937,0.33450970380419254,1.2995018177124333,-0.7279411668885701,0
300,2024-09-16 20:41:12.598269952,TASK_BEGIN,006,0.3761343066056443,-0.169698314306903,0.7035329807667684,-0.0770181378403924,0.0029528722941756184,0.32190989057391817,1.3117990248278701,-0.7558689153418285,0
301,2024-09-16 20:41:12.676377856,TASK_BEGIN,006,0.3970271266043533,-0.17123146940584244,0.6282608065994512,-0.06004757131991882,0.0017452397048611892,0.3088503506068954,1.3268323862150238,-0.7910490458776014,0
302,2024-09-16 20:41:12.738864128,TASK_BEGIN,006,0.42666009085290046,-0.17191930443930506,0.5228848597151733,-0.041747976390357065,0.001244705048620408,0.2954700102114068,1.3426926156123509,-0.8312855336453114,0
303,2024-09-16 20:41:12.814315264,TASK_BEGIN,006,0.4629145244118552,-0.1718429087363539,0.391987182175518,-0.023202575327825808,0.0015980047739418593,0.2819242420770032,1.3583596641716544,-0.8744963095368216,0
304,2024-09-16 20:41:12.878552064,TASK_BEGIN,006,0.5032343710062519,-0.17101605527470798,0.24085248575351223,-0.005396131551253892,0.0028807956611577416,0.2683919494499288,1.3735984432660366,-0.9188160524975177,0
305,2024-09-16 20:41:12.949827840,TASK_BEGIN,006,0.5447860751688076,-0.16937421767836278,0.07507367745385506,0.010904557852957266,0.0051206307335709125,0.2550789612188769,1.3886372050664515,-0.9625861374327015,0
306,2024-09-16 20:41:13.881082880,TASK_BEGIN,006,0.5846536693534031,-0.16680273258280617,-0.09967288302320847,0.025195488944775787,0.008364234344361038,0.2422104367425159,1.4037378965762497,-1.0042838399926661,0
307,2024-09-16 20:41:13.961082880,TASK_BEGIN,006,0.6200525800606288,-0.16318772102676254,-0.2776646949651322,0.03718380310891937,0.012740735324029891,0.23001405379979992,1.4188034481277816,-1.0424409351976327,0
308,2024-09-16 20:41:14.028793088,TASK_BEGIN,006,0.6485287364716109,-0.1584568908469008,-0.4530751113344865,0.046672719821090065,0.018476664591925155,0.21869983112447494,1.433084192947928,-1.075590619904943,0
309,2024-09-16 20:41:14.095544064,TASK_BEGIN,006,0.6681337502847008,-0.1525927872165855,-0.6199893730038988,0.0534594703091224,0.025855470730754608,0.2084412576527782,1.4449295564174494,-1.1022601015325493,0
310,2024-09-16 20:41:14.162694912,TASK_BEGIN,006,0.67757391721515,-0.14562587013162115,-0.772643466312407,0.05731180167846019,0.03514139653003525,0.19936239965355554,1.4515519006633644,-1.1210022298988382,0
311,2024-09-16 20:41:14.222345984,TASK_BEGIN,006,0.6763017946294941,-0.13762374498185817,-0.9059091969420495,0.05802055212967192,0.04649917312521984,0.1915349950059744,1.4488964360631476,-1.1304527209080406,0
312,2024-09-16 20:41:14.299735040,TASK_BEGIN,006,0.6645117661891432,-0.1286878727220229,-1.0158488526700262,0.05546280206642002,0.05994000765362254,0.1849836510634054,1.4318124951958453,-1.1294112578969027,0
313,2024-09-16 20:41:15.217859072,TASK_BEGIN,006,0.643035417722242,-0.1189601838060385,-1.100065541472488,0.049623604444566254,0.0753084102233768,0.17969096674875357,1.39462407213121,-1.116942785459708,0
314,2024-09-16 20:41:15.285603072,TASK_BEGIN,006,0.6131793796616113,-0.10863207838523037,-1.157717370884302,0.04058722339755983,0.09230660361107251,0.17559513187193337,1.331918017822671,-1.0924713134823696,0
315,2024-09-16 20:41:15.353330944,TASK_BEGIN,006,0.5765678985160261,-0.09794158771603985,-1.189265460817035,0.028530814951349574,0.11053934499962226,0.17258006920266675,1.2392459093681774,-1.055839294440542,0
316,2024-09-16 20:41:15.418777856,TASK_BEGIN,006,0.5350260843186639,-0.08714931616557817,-1.196073537674395,0.013719031225454502,0.12955340419045877,0.17046569697304628,1.1135994424976028,-1.007337819629368,0
317,2024-09-16 20:41:15.487809792,TASK_BEGIN,006,0.4904969171002995,-0.0765000864527394,-1.179977292404474,-0.003517385753585138,0.14886337552204867,0.16900667365610353,0.9537244577899372,-0.9477323582060457,0
318,2024-09-16 20:41:15.556514816,TASK_BEGIN,006,0.44496725280542915,-0.0661929908183666,-1.1430104906881848,-0.02279883295074597,0.16798836303402892,0.16790230075636745,0.7604135872405603,-0.8783041070230996,0
319,2024-09-16 20:41:15.624231936,TASK_BEGIN,006,0.4003896955518598,-0.0563834430723799,-1.087447235556477,-0.04367047967027937,0.18652135840136547,0.16681470096191522,0.5368372509810347,-0.8009007839987308,0
320,2024-09-16 20:41:16.567831040,TASK_BEGIN,006,0.35859780218871457,-0.04722017373213568,-1.0160929542238575,-0.06554293518389338,0.20421209820516065,0.1653914756246045,0.28880795770970447,-0.7179565482752358,0
321,2024-09-16 20:41:16.635571968,TASK_BEGIN,006,0.32120756669123374,-0.03889197406376354,-0.93254450152828,-0.08766334268207708,0.22101981109910954,0.16329082663787495,0.024777988288105034,-0.6324414350049432,0
322,2024-09-16 20:41:16.703181824,TASK_BEGIN,006,0.28950570114491825,-0.031651267341182385,-0.8412027956693362,-0.10915384553087398,0.23711384575105307,0.16020657431028548,-0.24463711297162594,-0.547728015949808,0
323,2024-09-16 20:41:16.771044864,TASK_BEGIN,006,0.26434779995214325,-0.02579928135813789,-0.7470830044003434,-0.12908383390583542,0.2528366055140033,0.1558870482141082,-0.5077014761233981,-0.46738231235400496,0
324,2024-09-16 20:41:16.838799104,TASK_BEGIN,006,0.24609292904084804,-0.02163997543561479,-0.6555812719694714,-0.14651984563665754,0.26865196533719377,0.1501420675026808,-0.7529082168313515,-0.39491818001555873,0
325,2024-09-16 20:41:16.897142784,TASK_BEGIN,006,0.23458714609579773,-0.019425115001224496,-0.5722223981199395,-0.16053627663990547,0.2850946925688536,0.14283859054566958,-0.9701110141363769,-0.33358575728040835,0
326,2024-09-16 20:41:16.974302976,TASK_BEGIN,006,0.2291996034601043,-0.01931804128232442,-0.502324732207195,-0.17020826032779032,0.30273971813412137,0.1338903474935583,-1.1511522576007571,-0.28623088492042065,0
327,2024-09-16 20:41:17.911376896,TASK_BEGIN,006,0.22890192374562685,-0.02139055953978451,-0.45063657532925494,-0.17460884781395752,0.3221917313621114,0.1232478666637388,-1.290134100199131,-0.2551886218587489,0
328,2024-09-16 20:41:17.985477120,TASK_BEGIN,006,0.2323590889552055,-0.025641415769843263,-0.42105512977281323,-0.1728244977806828,0.3440481402319537,0.11089710034384592,-1.3835815148436172,-0.24215990456307485,0
329,2024-09-16 20:41:18.054105088,TASK_BEGIN,006,0.23800129806453066,-0.0320112386387494,-0.41637482487482097,-0.1640054793310392,0.3687957823490793,0.09687088616746888,-1.430551644847498,-0.24808387026755285,0
330,2024-09-16 20:41:18.121678848,TASK_BEGIN,006,0.24408366890869684,-0.040380074012992456,-0.43791936600974135,-0.14746096914963192,0.3966777195239859,0.08126594914943505,-1.4325870422146605,-0.27306010686704685,0
331,2024-09-16 20:41:18.174334976,TASK_BEGIN,006,0.24876698096203637,-0.05055455971826407,-0.4851140884739198,-0.12278495672473128,0.4276037454047956,0.06425472467352955,-1.3934679180388732,-0.316330861018044,0
332,2024-09-16 20:41:18.251576832,TASK_BEGIN,006,0.25023740006179185,-0.062263864650275176,-0.5552816500384512,-0.08997531057781599,0.461141269681111,0.046088411855191184,-1.3188687154622807,-0.37627982928813586,0
333,2024-09-16 20:41:18.313594112,TASK_BEGIN,006,0.24685707131720946,-0.07518106031406661,-0.6438333005620406,-0.04950802940414572,0.4965832029914789,0.027089556846821957,-1.216037662529379,-0.4504298950502813,0
334,2024-09-16 20:41:19.260632064,TASK_BEGIN,006,0.2373257898848155,-0.08897081780896135,-0.7447458472735272,-0.002354272110942731,0.5330708948082994,0.007629365012689867,-1.0935099780565247,-0.5354833953934138,0
335,2024-09-16 20:41:19.322643968,TASK_BEGIN,006,0.22082560609510754,-0.10334350368486686,-0.8511702020943507,0.050054010128039166,0.5697302728295839,-0.01191000118303701,-0.960759887448168,-0.6274599118919153,0
336,2024-09-16 20:41:19.404766208,TASK_BEGIN,006,0.1971129222946505,-0.11808677018537521,-0.9561254106311264,0.10590267806350526,0.6057765166984629,-0.031177955141455643,-0.827598129712579,-0.721950210400823,0
337,2024-09-16 20:41:19.472477952,TASK_BEGIN,006,0.1665356421633304,-0.1330591515140186,-1.053200017754435,0.163102151439669,0.6405726161528084,-0.04989035844999524,-0.7031782509427934,-0.8144633694274627,0
338,2024-09-16 20:41:19.526298112,TASK_BEGIN,006,0.12998635405645495,-0.1481556963749078,-1.1370931635427883,0.21939827489870534,0.6736590777864199,-0.06785051029166722,-0.594802759276625,-0.9008131493614252,0
339,2024-09-16 20:41:19.607949056,TASK_BEGIN,006,0.08882751012563928,-0.16327254159948554,-1.20384880062492,0.27247924530619666,0.7047803519271022,-0.08495832243788645,-0.5069916681656185,-0.9774715380980015,0
340,2024-09-16 20:41:19.675023872,TASK_BEGIN,006,0.04481777956025884,-0.1782948972902246,-1.2507517514794768,0.3200962455420406,0.7339179589924781,-0.10121327588126745,-0.4411746885832343,-1.04181612156136,0
341,2024-09-16 20:41:20.587277824,TASK_BEGIN,006,3.251403754045667e-05,-0.1931143532268594,-1.2760076851210713,0.3602238246036203,0.7613144743042239,-0.11671123921830706,-0.3960221754018171,-1.0922299863284524,0
342,2024-09-16 20:41:20.661559040,TASK_BEGIN,006,-0.04325549213358709,-0.20766030398794805,-1.278413501592091,0.3912577119427734,0.7874614700918311,-0.1316273279810023,-0.36813213734703215,-1.1280753519839055,0
343,2024-09-16 20:41:20.725377280,TASK_BEGIN,006,-0.08274459647097865,-0.22192354552443697,-1.2571253220335854,0.4121873713481469,0.8130389862959008,-0.14617997185476297,-0.3527699156917677,-1.149594979037197,0
344,2024-09-16 20:41:20.786505984,TASK_BEGIN,006,-0.11628901773764433,-0.23595863279248708,-1.2114733936727298,0.422653569284212,0.838819083227826,-0.16058482902042734,-0.3445848552392692,-1.1577737898136187,0
345,2024-09-16 20:41:20.864754944,TASK_BEGIN,006,-0.14206370955506634,-0.24986164332566796,-1.1408112029764468,0.42286723854151337,0.8655528290374177,-0.1750131418056501,-0.33835047607680846,-1.154175437970285,0
346,2024-09-16 20:41:20.932482048,TASK_BEGIN,006,-0.15869516045408485,-0.26372792723024907,-1.0445396644014744,0.4134630704888366,0.8938405202919978,-0.18955918944192154,-0.32967277325119443,-1.1407675215348927,0
347,2024-09-16 20:41:21.000224000,TASK_BEGIN,006,-0.16534934984103697,-0.2776042809062915,-0.9223991814701465,0.3953773107805355,0.9239817990357829,-0.2042130583899848,-0.3155639138643376,-1.1197289039923373,0
348,2024-09-16 20:41:21.936856832,TASK_BEGIN,006,-0.16176499905768163,-0.2914548458402745,-0.7749020344374433,0.3697738261468376,0.9558376216949517,-0.21884108464062577,-0.29481928144626296,-1.0932343856813285,0
349,2024-09-16 20:41:22.011472896,TASK_BEGIN,006,-0.1482282796390622,-0.30515090578307624,-0.6036930786764105,0.337982697821784,0.9887557594631753,-0.2331837962490946,-0.2680759122761071,-1.063269012452551,0
350,2024-09-16 20:41:22.075568896,TASK_BEGIN,006,-0.12549923158145335,-0.31847890024405767,-0.4117504516875481,0.3014136492674749,1.0215850109303624,-0.24687628418426483,-0.23741146573022986,-1.0315465668161445,0
351,2024-09-16 20:41:22.146945024,TASK_BEGIN,006,-0.09471075751842252,-0.33115410600488054,-0.20347582946350792,0.26144924719964724,1.0527703241038002,-0.25948427993342293,-0.20555805956479772,-0.9995388875902225,0
352,2024-09-16 20:41:22.199682816,TASK_BEGIN,006,-0.057265633488301625,-0.34283384297417896,0.015283043370730262,0.2193593297805995,1.0805042888047716,-0.27054337169110915,-0.1750422162036383,-0.9685514817266928,0
353,2024-09-16 20:41:22.282353152,TASK_BEGIN,006,-0.014743573762294335,-0.35313529355864304,0.23733741722892662,0.1762699166499412,1.102898360048085,-0.27959271688225856,-0.14756708286461148,-0.9397730707409931,0
354,2024-09-16 20:41:22.350099200,TASK_BEGIN,006,0.03119245327278541,-0.3616662019427728,0.4544650180456942,0.13318214794331473,1.1181383213507707,-0.28620187627685006,-0.1237897763818277,-0.9142555872990962,0
355,2024-09-16 20:41:23.293595904,TASK_BEGIN,006,0.07889286700717325,-0.36806489974536827,0.6578801553022648,0.09101157004925928,1.1246152819818211,-0.28999407021364415,-0.1034687142936735,-0.892825169108723,0
356,2024-09-16 20:41:23.361668096,TASK_BEGIN,006,0.12679800453904339,-0.3720328472685992,0.8387898263047908,0.0506125158679056,1.1210440851270127,-0.2906692204435668,-0.0858302522133531,-0.8759707230152669,0
357,2024-09-16 20:41:23.429380864,TASK_BEGIN,006,0.1734862547709055,-0.3733483330033774,0.9890491004888148,0.012756795646784603,1.1065611959662949,-0.28802403418712047,-0.06997993600651356,-0.863765506075941,0
358,2024-09-16 20:41:23.496876032,TASK_BEGIN,006,0.21771664128705603,-0.37186783908854953,1.1018647522351568,-0.021924771810983047,1.0807685085928616,-0.28196107796259495,-0.055255860358432426,-0.8558430319550911,0
359,2024-09-16 20:41:23.562798080,TASK_BEGIN,006,0.25847817333459877,-0.3675293303305873,1.1723188115589038,-0.05297479555147463,1.0437108781079594,-0.2724843775728388,-0.041505543124982225,-0.8514193806479325,0
360,2024-09-16 20:41:23.632529920,TASK_BEGIN,006,0.2950291691360229,-0.3603657234263638,1.19759462768793,-0.08007533162386525,0.9958244374621273,-0.25968958612946463,-0.02927921405798024,-0.8493592517323331,0
361,2024-09-16 20:41:23.700282880,TASK_BEGIN,006,0.3269079604715194,-0.3505276780486688,1.1770720726404382,-0.10299227444868918,0.9379044906251786,-0.24375831178341195,-0.019856983730525506,-0.8482986400142403,0
362,2024-09-16 20:41:24.629025792,TASK_BEGIN,006,0.35391024102977325,-0.33830632842641567,1.112465661522066,-0.1215585447442216,0.8710998421782805,-0.2249588857658538,-0.01504928124291224,-0.846820375229636,0
363,2024-09-16 20:41:24.706022912,TASK_BEGIN,006,0.37604140477018644,-0.32414108748202347,1.0079499665240756,-0.13569474078742882,0.7969055675363905,-0.2036506548279819,-0.01694568173603777,-0.8436260473094426,0
364,2024-09-16 20:41:24.769185024,TASK_BEGIN,006,0.3934701844312544,-0.30860110811783625,0.8700510884051216,-0.14543607070500814,0.7171386602555179,-0.18028841329953962,-0.027878439430803002,-0.8376263829962561,0
365,2024-09-16 20:41:24.847099136,TASK_BEGIN,006,0.4065121100053387,-0.29233977796107863,0.707098828857293,-0.15094759714323364,0.6338986306296923,-0.1554215312226097,-0.05056975410918333,-0.8279368113651758,0
366,2024-09-16 20:41:24.914825984,TASK_BEGIN,006,0.41563982519783155,-0.27603208098257953,0.5282309230793695,-0.1525119945317613,0.5495066046777647,-0.12968003855440405,-0.08815056459178236,-0.8138482208608958,0
367,2024-09-16 20:41:24.968704000,TASK_BEGIN,006,0.42148670301646673,-0.26031079051741135,0.34219981195864485,-0.150481551820449,0.4664142359673512,-0.10374419531093695,-0.14382695583126048,-0.7948406146680609,0
368,2024-09-16 20:41:25.046964224,TASK_BEGIN,006,0.4248104137686503,-0.2457176859728927,0.15636224008082528,-0.14521466703294403,0.38709525294230396,-0.07830294009663055,-0.22024888531661918,-0.7706321234573601,0
369,2024-09-16 20:41:25.968285952,TASK_BEGIN,006,0.4263949118875848,-0.2326776954826125,-0.023844787807695476,-0.13702687208009448,0.3139410536946624,-0.0540120028269893,-0.31880616127970385,-0.7412076111228506,0
370,2024-09-16 20:41:26.036187136,TASK_BEGIN,006,0.4268910170470879,-0.22149031794519017,-0.19484394099967892,-0.12617389962155096,0.24915422689727518,-0.03145941380592363,-0.4390548492595473,-0.706799223312004,0
371,2024-09-16 20:41:26.091565056,TASK_BEGIN,006,0.4266479318670278,-0.21232627835281886,-0.35440076681805466,-0.11287752602697596,0.1946141165288603,-0.011138787852469204,-0.5783679407446285,-0.6678410467866256,0
372,2024-09-16 20:41:26.168307200,TASK_BEGIN,006,0.42562511185616364,-0.20522402075925575,-0.5009392229198523,-0.09739582988139328,0.15171870554926434,0.00657123288362182,-0.7318372156001814,-0.6249294135568525,0
373,2024-09-16 20:41:26.229436160,TASK_BEGIN,006,0.4234398941156088,-0.20009093103002035,-0.6329590796226715,-0.08012229260881414,0.12124965256846054,0.021420310958018284,-0.892455323770566,-0.578809787880081,0
374,2024-09-16 20:41:26.307126016,TASK_BEGIN,006,0.41953355976532136,-0.19671823841330677,-0.748632587065244,-0.06168866801217653,0.10331073033887589,0.0332914306580206,-1.0516060777389318,-0.5304066181536672,0
375,2024-09-16 20:41:26.368327936,TASK_BEGIN,006,0.4133823895861937,-0.19481553400718413,-0.8455590373825269,-0.04303656287873617,0.09736200114693028,0.04219775988952305,-1.1998212292749193,-0.4808874901814795,0
376,2024-09-16 20:41:27.309765120,TASK_BEGIN,006,0.4046674518661734,-0.1940623720774095,-0.920722945018961,-0.025413829769908466,0.10233863072578539,0.0482711196537614,-1.3276801090447,-0.431713232847867,0
377,2024-09-16 20:41:27.385231872,TASK_BEGIN,006,0.3933549208139579,-0.19416306634025568,-0.9706606474244225,-0.01028144610048047,0.11681297168280749,0.05174218746132025,-1.4267130736562414,-0.3846245827895133,0
378,2024-09-16 20:41:27.448148992,TASK_BEGIN,006,0.3796907716715926,-0.19488553032281605,-0.9916940473896484,0.0008308766530378184,0.13914286047849891,0.05291457044840115,-1.490163519279097,-0.34156246624270764,0
379,2024-09-16 20:41:27.520718080,TASK_BEGIN,006,0.364137186294418,-0.19607312176645886,-0.9801146884349757,0.006471953995485802,0.16756245348554752,0.05213692447169048,-1.5134518055516344,-0.30455406156423953,0
380,2024-09-16 20:41:27.588446976,TASK_BEGIN,006,0.3472775486630708,-0.1976325201963092,-0.9323626925547146,0.005407994574200964,0.2002085013706676,0.04977807994565216,-1.494277450081722,-0.27558487570039525,0
381,2024-09-16 20:41:27.648167936,TASK_BEGIN,006,0.3297121915493724,-0.19951058782375714,-0.8453298197513966,-0.0032296773570383566,0.23511482935069553,0.04620882097559196,-1.4324515147903307,-0.25645803974143266,0
382,2024-09-16 20:41:27.723997952,TASK_BEGIN,006,0.3119721062980801,-0.2016796322258564,-0.7168482238112698,-0.019789865158011812,0.27023244156179044,0.041790362323105075,-1.3296285768055167,-0.24863978755078117,0
383,2024-09-16 20:41:28.668449024,TASK_BEGIN,006,0.2944791194431485,-0.2041479399217809,-0.546265126519863,-0.04398189049388617,0.3035170427174361,0.03686511830022898,-1.1890987380002702,-0.25308666075657377,0
384,2024-09-16 20:41:28.736221184,TASK_BEGIN,006,0.27754309800628063,-0.20699068313442923,-0.3349111157437817,-0.07483322374554881,0.33307200613437754,0.03174348466184128,-1.0157125193214442,-0.2700663093879802,0
385,2024-09-16 20:41:28.800176896,TASK_BEGIN,006,0.26135242600265624,-0.21037302595831187,-0.08629533248504263,-0.11073062187398289,0.35729699509216223,0.026683459190183303,-0.8158950138434905,-0.29902143990941643,0
386,2024-09-16 20:41:28.861256192,TASK_BEGIN,006,0.24595270674531047,-0.214540435960117,0.19407930862784414,-0.14953729984247696,0.3750022759496344,0.021866068334257582,-0.5976805373665466,-0.33852567668778577,0
387,2024-09-16 20:41:28.938507008,TASK_BEGIN,006,0.23125501306778012,-0.21977359300250868,0.49924224176129756,-0.18877598255604935,0.3854780572158459,0.01737559857845417,-0.3706519208295998,-0.3863460735089735,0
388,2024-09-16 20:41:29.006848000,TASK_BEGIN,006,0.217088082857435,-0.22632380213799447,0.8213341535091888,-0.2258340388486571,0.38852827532807116,0.013196896510504211,-0.1455173232871561,-0.43961436327839426,0
389,2024-09-16 20:41:29.061467648,TASK_BEGIN,006,0.20327224543400205,-0.23435518484166293,1.1518640912377782,-0.2581275779332897,0.38448792350787103,0.009237018921127545,0.06684476618696712,-0.4950961191987595,0
390,2024-09-16 20:41:30.002558208,TASK_BEGIN,006,0.18969857347298222,-0.24391912216786996,1.4815521505757354,-0.2832091012721394,0.3742389248777999,0.005364472601831047,0.25660883287640274,-0.5495117776169565,0
391,2024-09-16 20:41:30.084537088,TASK_BEGIN,006,0.1763948645116007,-0.25496579627181754,1.8000584625072182,-0.29886237866597465,0.3592077725177411,0.001448599654339318,0.416028415221514,-0.5998542371489889,0
392,2024-09-16 20:41:30.152251904,TASK_BEGIN,006,0.16354912536841837,-0.2673715425139915,2.0960017423286916,-0.3032294823378861,0.34128965423427393,-0.0026142116300684496,0.5400508056278659,-0.6436683227701546,0
393,2024-09-16 20:41:30.220006912,TASK_BEGIN,006,0.15148347665765,-0.2809566860842703,2.3574570560103383,-0.29497353302359886,0.32265754412723163,-0.006888076933790421,0.6265398844317708,-0.6792567785463955,0
394,2024-09-16 20:41:30.287715840,TASK_BEGIN,006,0.14059896658742876,-0.2954856426526717,2.57286665089521,-0.27343791643146287,0.3054827898144211,-0.011391968791218749,0.6761242873596626,-0.7057688005693216,0
395,2024-09-16 20:41:30.355428096,TASK_BEGIN,006,0.13130984360054399,-0.3106567891243872,2.7321908683216996,-0.23875221625827167,0.2916452441814933,-0.016095706003858287,0.6917164158188903,-0.7231555165027411,0
396,2024-09-16 20:41:30.417957120,TASK_BEGIN,006,0.12397509186410353,-0.32609599412315304,2.828140330671041,-0.1918705179436001,0.2825170176604738,-0.02091927404660556,0.677845720222804,-0.7320184425865088,0
397,2024-09-16 20:41:31.342439936,TASK_BEGIN,006,0.11883323100263453,-0.3413685777002586,2.85733965450603,-0.1345586401407031,0.2788842449845612,-0.02574225611264393,0.6399322464570546,-0.7333968465500174,0
398,2024-09-16 20:41:31.408718080,TASK_BEGIN,006,0.11595256569056878,-0.3560180314347823,2.8212192985780637,-0.06933521874230152,0.2810137773086852,-0.0304268786401307,0.5835602299564031,-0.7285502278522129,0
399,2024-09-16 20:41:31.469933056,TASK_BEGIN,006,0.11521657232133811,-0.3696248240667478,2.7263641880329454,0.0006438130216563624,0.288790525471729,-0.034848646934256405,0.5138485234770531,-0.7187901912495843,0
400,2024-09-16 20:41:31.531441920,TASK_BEGIN,006,0.11635150166897704,-0.38186430133082416,2.584071453526488,0.0717633378027733,0.3018311397271234,-0.03892373305080737,0.43508687038617727,-0.7053872921466484,0
401,2024-09-16 20:41:31.613306112,TASK_BEGIN,006,0.11897863789246152,-0.39254314329653645,2.409065776422849,0.14018563476522744,0.3195442767644759,-0.042626798528464856,0.35073626142301395,-0.6895387655725476,0
402,2024-09-16 20:41:31.681022976,TASK_BEGIN,006,0.12267843672026202,-0.40161029645964486,2.2176321602937707,0.20212498239763577,0.3411675170845433,-0.04599780616575742,0.26369294923304265,-0.6723553232075691,0
403,2024-09-16 20:41:31.747736832,TASK_BEGIN,006,0.12707039327474665,-0.40915342612042055,2.025645496994529,0.25412531266223304,0.3658070391763982,-0.049134984183674436,0.17662187092496448,-0.6548284233665498,0
404,2024-09-16 20:41:32.682220032,TASK_BEGIN,006,0.13189175920416543,-0.41539206130117284,1.8469437531519395,0.29330642861360195,0.39248261107074606,-0.05217302157949101,0.09220854765115916,-0.6377707839220702,0
405,2024-09-16 20:41:32.759857920,TASK_BEGIN,006,0.13703500467045074,-0.4206693131847898,1.6922934050137832,0.31754919388786973,0.42018128098279556,-0.05525669691141877,0.013200448426681822,-0.6217489022252242,0
406,2024-09-16 20:41:32.829121024,TASK_BEGIN,006,0.1425324519123691,-0.4254365526269405,1.5689974212116098,0.32560303221047776,0.44792584019423676,-0.05852551885627283,-0.057824708442940104,-0.6070331120620693,0
407,2024-09-16 20:41:32.896825856,TASK_BEGIN,006,0.14851976709773065,-0.4302241460579155,1.480990920639562,0.3171304786153123,0.4748480525052102,-0.062114932930770694,-0.11884297125880114,-0.593588297387607,0
408,2024-09-16 20:41:32.960931072,TASK_BEGIN,006,0.1552128280610669,-0.4355955696721967,1.4291050471549291,0.29271766442373215,0.5002456754567568,-0.06616728178398147,-0.1686986347950811,-0.5811177419357768,0
409,2024-09-16 20:41:33.022532096,TASK_BEGIN,006,0.1629062423362598,-0.4420897668873895,1.4112900390272263,0.2538482024491876,0.5236155922340321,-0.07084254128176133,-0.20722964706691563,-0.5691538210366732,0
410,2024-09-16 20:41:33.085783808,TASK_BEGIN,006,0.17198030809458748,-0.4501648680210249,1.4229146561514703,0.20280521171355687,0.5446706711366316,-0.07632058284257334,-0.23523089867843658,-0.5571724419764561,0
411,2024-09-16 20:41:34.033930240,TASK_BEGIN,006,0.18289465193075571,-0.4601592444475165,1.4573725892469078,0.1424824982672031,0.5633418240872544,-0.08278893312125718,-0.25428923535037995,-0.5447055942870018,0
412,2024-09-16 20:41:34.111185152,TASK_BEGIN,006,0.19614902112172722,-0.4722772504842526,1.50698097222018,0.07613789610593841,0.5797598614993467,-0.09041607650019962,-0.266434842891058,-0.5314335956464357,0
413,2024-09-16 20:41:34.173660160,TASK_BEGIN,006,0.2122083852785915,-0.48659213457392486,1.5639017283083256,0.0071554813267577,0.5942203265098656,-0.09931809120637443,-0.2735804899796381,-0.5172401231597016,0
414,2024-09-16 20:41:34.235680256,TASK_BEGIN,006,0.2314160319034118,-0.5030525642192953,1.6208689501146365,-0.06113960701778996,0.6071327995369795,-0.10952783410811737,-0.27691105447668585,-0.502218771876587,0
415,2024-09-16 20:41:34.314332928,TASK_BEGIN,006,0.2539312574427099,-0.5214876622090785,1.6717089567263126,-0.12562243158537406,0.6189435506440178,-0.12097252415730234,-0.2765089320152153,-0.48664102668576903,0
416,2024-09-16 20:41:34.382055936,TASK_BEGIN,006,0.2797082651056282,-0.5416152612055694,1.711707492745779,-0.18349690727366838,0.6300323763164168,-0.1334635254990075,-0.2713833081679143,-0.47091053459571874,0
417,2024-09-16 20:41:34.437303040,TASK_BEGIN,006,0.3085015317701558,-0.5630583589907453,1.73787193800801,-0.2324271697988077,0.640618462491609,-0.14670135464305886,-0.2598436684284675,-0.45552068439372306,0
418,2024-09-16 20:41:35.384064000,TASK_BEGIN,006,0.3398745076762707,-0.585369988032782,1.749138988358599,-0.2706613346793467,0.6507232828683754,-0.16029805423950516,-0.2400359597463501,-0.4410096944057862,0
419,2024-09-16 20:41:35.446094080,TASK_BEGIN,006,0.37319670951025574,-0.6080618717120361,1.746463153706302,-0.297119639326003,0.6602068753248307,-0.17381583526369473,-0.21046697768021616,-0.42790240928498574,0
420,2024-09-16 20:41:35.523272960,TASK_BEGIN,006,0.4076244109026792,-0.6306287817533754,1.7325746608849886,-0.3114166716364777,0.6688440996118492,-0.18681393589023623,-0.17038677182768153,-0.41666317227021965,0
421,2024-09-16 20:41:35.596743168,TASK_BEGIN,006,0.44207338054435447,-0.6525617650708968,1.7112852063673163,-0.31380524685832123,0.6763911246625869,-0.19889063587825054,-0.11993742530617714,-0.4077037732124825,0
422,2024-09-16 20:41:35.664515072,TASK_BEGIN,006,0.47520131857396325,-0.6733507078393905,1.6865124295859724,-0.30506001344352524,0.6826199833028708,-0.2097096436774012,-0.06000881711394819,-0.4014491712244956,0
423,2024-09-16 20:41:35.732283136,TASK_BEGIN,006,0.5054264360763305,-0.6924866904010109,1.661378914135328,-0.2863379106664227,0.6873361583643843,-0.21900932344554766,0.008166477304495639,-0.3984170944154333,0
424,2024-09-16 20:41:35.800028928,TASK_BEGIN,006,0.5310163671447766,-0.7094779356131948,1.6376791222691591,-0.25905193740712346,0.6904134573685705,-0.22660411433878067,0.08346199813994234,-0.3992609629793606,0
425,2024-09-16 20:41:36.711126016,TASK_BEGIN,006,0.5502571101044637,-0.7238837099580353,1.615862454868092,-0.22479285605169783,0.6918641841976962,-0.23238825195737134,0.16505571910722242,-0.40473952209876196,0
426,2024-09-16 20:41:36.786392064,TASK_BEGIN,006,0.5616583492865427,-0.7353568142894402,1.595523141077729,-0.18531999983799127,0.6919103911116326,-0.23633931643894723,0.25226156333032856,-0.4155983459019054,0
427,2024-09-16 20:41:36.854135040,TASK_BEGIN,006,0.5641219566618385,-0.7436781255185944,1.576090742661491,-0.14258986732565104,0.6909868289503759,-0.23851027341802208,0.3440990009519896,-0.4323784951874418,0
428,2024-09-16 20:41:36.921926144,TASK_BEGIN,006,0.5570243376958961,-0.7487691766374064,1.5572136893108042,-0.09874608172849231,0.6896401942657474,-0.23900652323483496,0.4387946052322287,-0.45519498786713125,0
429,2024-09-16 20:41:36.989604096,TASK_BEGIN,006,0.5402200417995764,-0.750680397629765,1.5386260260898643,-0.05602464356180527,0.6883601328487375,-0.23795726395277408,0.5334472327557147,-0.48354729306685545,0
430,2024-09-16 20:41:37.057341952,TASK_BEGIN,006,0.5140103188169973,-0.7495643521976608,1.5197800689009577,-0.01659628976788076,0.6874117784654077,-0.23549177783925584,0.6240907038333234,-0.5162389483015213,0
431,2024-09-16 20:41:37.111852032,TASK_BEGIN,006,0.4791077391646047,-0.7456461715055579,1.4996239126580404,0.01760489292624253,0.6867253005079594,-0.2317237911903001,0.7062602793064462,-0.5514708738272768,0
432,2024-09-16 20:41:38.066925056,TASK_BEGIN,006,0.4366062731083353,-0.7392020553470043,1.4766665474385678,0.0450292776898995,0.6858747785202746,-0.22674373665987949,0.7759049248085099,-0.587104262183796,0
433,2024-09-16 20:41:38.135924992,TASK_BEGIN,006,0.3879645184992931,-0.730553150483842,1.449288794151139,0.0646093841820927,0.6841494578187461,-0.22062004355026707,0.8302584405956244,-0.6210027447824065,0
434,2024-09-16 20:41:38.203633920,TASK_BEGIN,006,0.33500301764758594,-0.7200718991047549,1.4161970777104709,0.07578691589625623,0.6806760819724045,-0.21340815568648627,0.8683422732297458,-0.6513423373505106,0
435,2024-09-16 20:41:38.271382016,TASK_BEGIN,006,0.2798937679256814,-0.7081874721914376,1.3768599913908408,0.07847312936666459,0.6745380603694355,-0.205162638488216,0.8910756223670726,-0.6768307032659915,0
436,2024-09-16 20:41:38.339106816,TASK_BEGIN,006,0.22509692836992598,-0.6953743124787194,1.3317157566165756,0.07298308137390407,0.6648747894260437,-0.1959495729038069,0.9011294647307106,-0.696827199381495,0
437,2024-09-16 20:41:38.406924032,TASK_BEGIN,006,0.17320450142292768,-0.6821152945744328,1.2820298964852999,0.05998753018285644,0.6509748686234493,-0.18585789293102886,0.9025403312875883,-0.7113585282506858,0
438,2024-09-16 20:41:38.474576896,TASK_BEGIN,006,0.1267020162837202,-0.6688487737790986,1.2295299935054553,0.04048473891183906,0.6323705646622497,-0.17500602237726257,0.9000560169128274,-0.7210288867764284,0
439,2024-09-16 20:41:39.408299776,TASK_BEGIN,006,0.0877104348527559,-0.6559226675166004,1.1761044891427783,0.015757503083155464,0.6089236815889909,-0.16354080311426963,0.8984226461902937,-0.7268646480382366,0
440,2024-09-16 20:41:39.486048768,TASK_BEGIN,006,0.057767079426524565,-0.6435709033523128,1.1237664361470603,-0.012717811234183878,0.5808831731822087,-0.1516311839755978,0.901919376343622,-0.7301560036602688,0
441,2024-09-16 20:41:39.548102912,TASK_BEGIN,006,0.037676166117458915,-0.6319083754684739,1.0748555112282991,-0.043415568608250896,0.5488960995120958,-0.13946244368258534,0.9141547274265118,-0.732313180210673,0
442,2024-09-16 20:41:39.621511936,TASK_BEGIN,006,0.027457697622986655,-0.6209349284822294,1.0322239906844441,-0.0749274799566879,0.5139640821311915,-0.12723395582775318,0.9379187137574202,-0.7347051738649786,0
443,2024-09-16 20:41:39.686922240,TASK_BEGIN,006,0.026424942409728834,-0.6105468051466163,0.9991135583291171,-0.10610062945371465,0.477350158521737,-0.11515821234581866,0.9749867384956035,-0.7384688654971013,0
444,2024-09-16 20:41:39.748570112,TASK_BEGIN,006,0.033381918386265017,-0.600556585513401,0.9786889591265356,-0.13611238246604246,0.4404541897098876,-0.10345550210217368,1.0258697704726512,-0.7443231562923585,0
445,2024-09-16 20:41:39.824693760,TASK_BEGIN,006,0.0468835155070949,-0.5907195070263866,0.97345722612816,-0.16447423598593963,0.40468141117836853,-0.09234019299948154,1.0895117311744347,-0.7524271294400368,0
446,2024-09-16 20:41:40.764506112,TASK_BEGIN,006,0.06548963647752491,-0.5807670052987565,0.9847649364272507,-0.19096551952579655,0.3713212046621668,-0.08200087106833402,1.1630434989739444,-0.7623176358937984,0
447,2024-09-16 20:41:40.836797184,TASK_BEGIN,006,0.08796019899874118,-0.5704503353386374,1.012411159882113,-0.2155097719065055,0.3414465600712819,-0.07258109932207868,1.241805218434712,-0.772976953216591,0
448,2024-09-16 20:41:40.904575232,TASK_BEGIN,006,0.11336653188842727,-0.5595879227038256,1.0543979462048814,-0.2380342494526162,0.31584459756679945,-0.06416559693275971,1.3197135046752009,-0.7830472414669384,0
449,2024-09-16 20:41:40.965558016,TASK_BEGIN,006,0.14113055042491027,-0.5481002923690391,1.1068704495047446,-0.25836013439006905,0.2949808403894832,-0.05677326273044436,1.3898294086742038,-0.7911217732314688,0
450,2024-09-16 20:41:41.039982080,TASK_BEGIN,006,0.1710050726309484,-0.5360174998722617,1.1642679970078536,-0.27614483841722676,0.27898972796436605,-0.050356961242979933,1.4450109885172515,-0.796008000784878,0
451,2024-09-16 20:41:41.105568768,TASK_BEGIN,006,0.2029808259096965,-0.5234537564547465,1.2197057032681557,-0.2908753523653312,0.2676846984154104,-0.04480751708160725,1.4787230287185749,-0.7969066324618824,0
452,2024-09-16 20:41:41.167602176,TASK_BEGIN,006,0.2371218991082449,-0.5105590678797208,1.265618912615954,-0.3019056625273532,0.2605927269878286,-0.039959256266416575,1.4860057412279883,-0.793499198396835,0
453,2024-09-16 20:41:42.091505152,TASK_BEGIN,006,0.2733880607217264,-0.49747089358559315,1.2946509924535217,-0.3085311536349171,0.2570289757527694,-0.03560011232985887,1.464306428054224,-0.7859451489157003,0
454,2024-09-16 20:41:42.151876096,TASK_BEGIN,006,0.31151098371506436,-0.48428538120282,1.300714541605099,-0.31009999364058216,0.2562155159704775,-0.03149225135491161,1.4138437657747382,-0.7748107521946372,0
455,2024-09-16 20:41:42.229336064,TASK_BEGIN,006,0.3509416397908074,-0.4710485753782408,1.2801053003422342,-0.3061581371815887,0.25741761999195095,-0.02740365727823093,1.3374623390943738,-0.7609785813884797,0
456,2024-09-16 20:41:42.290288896,TASK_BEGIN,006,0.3908502995517745,-0.45775478780851675,1.2324145717440675,-0.29659855035267524,0.2600557835111959,-0.023143636617566077,1.2401415810980794,-0.745555071993123,0
457,2024-09-16 20:41:42.364919040,TASK_BEGIN,006,0.43016602953636857,-0.44434395089681167,1.1609098464153318,-0.2817717113399017,0.26375737520777465,-0.01859042530372089,1.1283046246000707,-0.7297407856724833,0
458,2024-09-16 20:41:42.432629248,TASK_BEGIN,006,0.46765714624444493,-0.4307029892989212,1.072248946471364,-0.26253806275192254,0.2683288009548466,-0.013699024622996991,1.0089905757998743,-0.7146387529735774,0
459,2024-09-16 20:41:42.500379136,TASK_BEGIN,006,0.5020551850490175,-0.4166856878792146,0.9757188630449037,-0.24027101597729708,0.27366872586382796,-0.008487168867000409,0.888983904583116,-0.7010499159980444,0
460,2024-09-16 20:41:43.443976960,TASK_BEGIN,006,0.5322096919166229,-0.40216191631564463,0.8822617685590284,-0.21680706319343704,0.27968373945173036,-0.0030120154140074965,0.7741252982096354,-0.6893583131791391,0
461,2024-09-16 20:41:43.507224064,TASK_BEGIN,006,0.5572329264551733,-0.38708626994195827,0.8033492302654175,-0.19430615471799792,0.2862540041988846,0.002645643878428852,0.6689753131136007,-0.6795589320283802,0
462,2024-09-16 20:41:43.579397888,TASK_BEGIN,006,0.576584459348976,-0.37155450858626304,0.7496988540624252,-0.17499932940639507,0.2932375115896409,0.00838230918878769,0.5767302008512731,-0.6713717209564392,0
463,2024-09-16 20:41:43.647517696,TASK_BEGIN,006,0.5900795842166046,-0.3558177962077521,0.7300034976772591,-0.16086663881103327,0.30046808852784884,0.014062846767052616,0.499185465601174,-0.6643542637618085,0
464,2024-09-16 20:41:43.708957952,TASK_BEGIN,006,0.5978417524935865,-0.34024728248288555,0.74991654545718,-0.15333372266128317,0.30772165693331266,0.019514231280781075,0.43669976640813996,-0.6579824011140374,0
465,2024-09-16 20:41:43.770968064,TASK_BEGIN,006,0.6002249563258932,-0.32526420638147757,0.811414324434773,-0.15306851591311252,0.3146674191998857,0.0245328184209586,0.3882229106470532,-0.6517044759854667,0
466,2024-09-16 20:41:43.847670272,TASK_BEGIN,006,0.5977326885265087,-0.31126310386582257,0.9125963911613304,-0.15992932981478833,0.32084778291679,0.02890475776704656,0.35139883256854765,-0.6449698599967123,0
467,2024-09-16 20:41:44.787822080,TASK_BEGIN,006,0.590960379279058,-0.2985558628008753,1.0479780462727881,-0.17306702540682337,0.3257171562437372,0.032429896440685606,0.3227378572432705,-0.6372400878305875,0
468,2024-09-16 20:41:44.849665024,TASK_BEGIN,006,0.5805669445459302,-0.28735092106420024,1.209185678058252,-0.1911184879443741,0.328726021094634,0.03494150173844987,0.2979711521731686,-0.6280163764072363,0
469,2024-09-16 20:41:44.927309056,TASK_BEGIN,006,0.5672585864308933,-0.27776061006803615,1.385861367743805,-0.21240902917359855,0.32940928898958105,0.036320200327123,0.27270597470078334,-0.616917288338469,0
470,2024-09-16 20:41:44.996377856,TASK_BEGIN,006,0.5517729621040296,-0.2698150712526496,1.5666914302507362,-0.23513801786725552,0.3274484051445559,0.03650190852366743,0.2432755332416225,-0.6037967365730172,0
471,2024-09-16 20:41:45.051644160,TASK_BEGIN,006,0.5348685852505173,-0.26346517357217325,1.740508239743555,-0.25756478610550215,0.3227062866185301,0.035477929545828846,0.20750384183498324,-0.5888494467116344,0
472,2024-09-16 20:41:45.130131968,TASK_BEGIN,006,0.5173252247837334,-0.2585753009513455,1.897250061393922,-0.2781784185991978,0.3152586356587134,0.03328626915547195,0.16513643189465124,-0.5726504229634115,0
473,2024-09-16 20:41:45.192176128,TASK_BEGIN,006,0.49994971698200025,-0.25492309265018637,2.028497692973019,-0.29579650780086714,0.30544110364138966,0.02999697617383619,0.11779884857850519,-0.5560984532663915,0
474,2024-09-16 20:41:46.143059200,TASK_BEGIN,006,0.483576711707516,-0.2522231233629051,2.127484477518309,-0.3095687283945054,0.29389632092114515,0.025696719164101593,0.06847184186791147,-0.5402596181374625,0
475,2024-09-16 20:41:46.198914048,TASK_BEGIN,006,0.46905600213566645,-0.25017370858537674,2.188755742797594,-0.31893203423247757,0.2815769297617035,0.020477162086464787,0.02061391418324337,-0.526142470281985,0
476,2024-09-16 20:41:46.276110080,TASK_BEGIN,006,0.4572197808295864,-0.24850554751667353,2.207826287498956,-0.323584762612834,0.2696722875763746,0.014429817878397463,-0.02284020636211856,-0.514465947646678,0
477,2024-09-16 20:41:46.346185984,TASK_BEGIN,006,0.44882847967126005,-0.24700814611167757,2.1811339468126985,-0.32348893549328767,0.2594625654875774,0.007648240802192458,-0.06037731616442215,-0.5054727017207942,0
478,2024-09-16 20:41:46.413914112,TASK_BEGIN,006,0.44450436787165143,-0.24552713200591786,2.1064000833166756,-0.31886154846599724,0.2521393593914301,0.00023700875467948284,-0.09250388120365839,-0.4988168434079599,0
479,2024-09-16 20:41:46.477914112,TASK_BEGIN,006,0.4446677023978261,-0.2439447784027599,1.983307573861622,-0.3101395864067341,0.24865443743204202,-0.007675488749123517,-0.1218384829630098,-0.4935587448224671,0
480,2024-09-16 20:41:46.539916032,TASK_BEGIN,006,0.4494843270639902,-0.24216226188758816,1.8142555085078207,-0.2979439208700814,0.24965133905217027,-0.01592748075565556,-0.15257597142221901,-0.4883016582151814,0
481,2024-09-16 20:41:47.468292864,TASK_BEGIN,006,0.4588221303892248,-0.24009500605377534,1.6048935293857793,-0.28305835233297943,0.2554866134285028,-0.024324512775205302,-0.18947718983152673,-0.48145814977165574,0
482,2024-09-16 20:41:47.530746112,TASK_BEGIN,006,0.4722093181641983,-0.23767912327784652,1.3641452127439326,-0.2663955476690966,0.266288124491888,-0.032650230947374605,-0.23675571657835087,-0.47156934801024214,0
483,2024-09-16 20:41:47.603820032,TASK_BEGIN,006,0.48879978710887073,-0.23487714734985865,1.103526876259985,-0.2489078254651249,0.28198315178179884,-0.04067983790821543,-0.2971590148693159,-0.45757703730688265,0
484,2024-09-16 20:41:47.671534848,TASK_BEGIN,006,0.5073761107026501,-0.23167332666921778,0.8358612401832725,-0.2314552885539058,0.3022679774247664,-0.04818843388892475,-0.3713612609728032,-0.4389814004776019,0
485,2024-09-16 20:41:47.739283200,TASK_BEGIN,006,0.5264327389513719,-0.2280601428594727,0.573834092120064,-0.21471109644092196,0.3265426489967421,-0.05495265347824685,-0.4577371311869494,-0.41587937224789784,0
486,2024-09-16 20:41:47.792040960,TASK_BEGIN,006,0.5443563353369567,-0.22402669158529537,0.32893503092391346,-0.19917707281427535,0.35387027134086174,-0.060751917595574086,-0.5525736941366733,-0.3889273905095535,0
487,2024-09-16 20:41:47.873821952,TASK_BEGIN,006,0.5596703144315581,-0.21955872082576158,0.11104280238919816,-0.18530174417738235,0.38301733621124523,-0.0653770566797518,-0.6506483208573889,-0.35927575815665935,0
488,2024-09-16 20:41:48.817756928,TASK_BEGIN,006,0.5712720100456786,-0.21465053587779592,-0.07154817161132464,-0.17361423807580312,0.4125810590978268,-0.06864734449369306,-0.7459501442175797,-0.3284879445408957,0
489,2024-09-16 20:41:48.878266112,TASK_BEGIN,006,0.5785856624776536,-0.20931771074312083,-0.21212261881088176,-0.16477328327062946,0.4411513045098269,-0.0704300688177994,-0.8323179662771002,-0.2984255391676383,0
490,2024-09-16 20:41:48.939909888,TASK_BEGIN,006,0.5815905176461297,-0.2035963002437262,-0.3058599154104115,-0.15948595443296315,0.46743416819855144,-0.07065414101099853,-0.9038848289488116,-0.27108133597342515,0
491,2024-09-16 20:41:49.016673024,TASK_BEGIN,006,0.5807485095431254,-0.19752370337160294,-0.3503882228269836,-0.1583326420843207,0.49029331004559074,-0.06931106308331347,-0.955322468660985,-0.24837472429706303,0
492,2024-09-16 20:41:49.088720896,TASK_BEGIN,006,0.5768992036414456,-0.19111156619618877,-0.34625487824091566,-0.16158062898243872,0.5087276082384865,-0.06644319815163476,-0.9819308835363189,-0.23195208119434083,0
493,2024-09-16 20:41:49.155036928,TASK_BEGIN,006,0.5711635563990937,-0.18432824966167619,-0.29704144120058706,-0.16905086765027816,0.5218472051943337,-0.06212565367404656,-0.979657159263688,-0.22304243913849578,0
494,2024-09-16 20:41:49.224139776,TASK_BEGIN,006,0.5648402834005276,-0.1771020071197532,-0.20907221080488886,-0.18006063430956518,0.5288931429659278,-0.056449782527606227,-0.9451535597474868,-0.22240015883137235,0
495,2024-09-16 20:41:50.156958976,TASK_BEGIN,006,0.5592659594996604,-0.1693424404477143,-0.09084111703054465,-0.19345195137965196,0.5293012388295356,-0.049515698516815115,-0.8759484614141452,-0.2303251059197105,0
496,2024-09-16 20:41:50.235678976,TASK_BEGIN,006,0.555637867523791,-0.16096443865483961,0.047716581076293035,-0.20772271713950513,0.5227864246897141,-0.04143682407367577,-0.7706970999666319,-0.24672605930790617,0
497,2024-09-16 20:41:50.295771904,TASK_BEGIN,006,0.5548215156654044,-0.15189464561081095,0.19605412970168343,-0.22124699039222068,0.5094139069154435,-0.03234979555618159,-0.6294458917885664,-0.27119989399362404,0
498,2024-09-16 20:41:50.371165952,TASK_BEGIN,006,0.5571859613800931,-0.14205351748266373,0.34382151731544414,-0.2325022065754526,0.4896173033268568,-0.02241726589473696,-0.4539075839919193,-0.303101213108095,0
499,2024-09-16 20:41:50.438968064,TASK_BEGIN,006,0.5625265559850504,-0.13132686938278368,0.48147861866012454,-0.24021617027808512,0.4641435508875987,-0.011817432223286685,-0.24767952567351184,-0.3415811293611872,0
500,2024-09-16 20:41:50.497153024,TASK_BEGIN,006,0.5701124292096905,-0.11954976834851125,0.6007676475936566,-0.24344496080641975,0.43395274092532216,-0.0007271370324798641,-0.0162376971901929,-0.38559657233074934,0
501,2024-09-16 20:41:50.574298112,TASK_BEGIN,006,0.57884546978194,-0.10651740293596103,0.6952651387921769,-0.24166013152849014,0.4001278579961196,0.010688752427334995,0.23329556014020075,-0.43388950727185355,0
502,2024-09-16 20:41:51.518377984,TASK_BEGIN,006,0.5874783674086694,-0.09202116594194944,0.7609992234948834,-0.2348666952604897,0.3638189634799121,0.022277692242358323,0.49242988792915415,-0.48492295207442343,0
503,2024-09-16 20:41:51.576313856,TASK_BEGIN,006,0.5948256737841845,-0.075893849443725,0.7968250670354495,-0.2236871661573195,0.32620050203842643,0.03389823103332156,0.7515907143576748,-0.5368035528562849,0
504,2024-09-16 20:41:51.653008128,TASK_BEGIN,006,0.5999175946084292,-0.05804443437805111,0.8043152041380319,-0.20934128926169762,0.28840997272630736,0.04542652495587697,1.0005423944976086,-0.5872655151801113,0
505,2024-09-16 20:41:51.721527040,TASK_BEGIN,006,0.6020784410600352,-0.038471949406349716,0.787218659640856,-0.19351096285672426,0.25145871364441685,0.05676878996810118,1.229004312147962,-0.6337631953180602,0
506,2024-09-16 20:41:51.775779072,TASK_BEGIN,006,0.6009334996025925,-0.017259926354882167,0.7506931875439318,-0.17813156794760285,0.21614259547129316,0.06787005861782076,1.4273917994678977,-0.6736807674061452,0
507,2024-09-16 20:41:51.852988928,TASK_BEGIN,006,0.5963636140946486,0.005439163526983444,0.7004719805855538,-0.1651633897725751,0.18299784383537793,0.07871431917962542,1.5875946381282118,-0.7046531496244042,0
508,2024-09-16 20:41:51.924631040,TASK_BEGIN,006,0.5884442990855513,0.029417850492673245,0.6421188197613921,-0.15638375761254117,0.15231358569627482,0.08931956443566802,1.7036584782057733,-0.7249367726607,0
509,2024-09-16 20:41:52.838685184,TASK_BEGIN,006,0.5774039445592565,0.054420119596281256,0.5805827887150236,-0.15322133519969364,0.12417170999739754,0.0997308501064733,1.772211559643706,-0.7337016134230675,0
510,2024-09-16 20:41:52.900335872,TASK_BEGIN,006,0.5636103544348045,0.08014494399269932,0.5201903705653393,-0.15664221407485518,0.0984880191369593,0.11000859198373543,1.7926274236047124,-0.7311510906077402,0
511,2024-09-16 20:41:52.977035776,TASK_BEGIN,006,0.5475728830089183,0.10625635613065673,0.4649188621091402,-0.16708843517992628,0.07504734498109607,0.12021014979779875,1.7670453937468718,-0.7184822127602248,0
512,2024-09-16 20:41:53.038595840,TASK_BEGIN,006,0.5299408981807087,0.13240420873302694,0.4185858234960602,-0.18446525203657876,0.05353206743559811,0.1303701258469748,1.700251702012921,-0.6977446408256686,0
513,2024-09-16 20:41:53.101176064,TASK_BEGIN,006,0.5114856406583613,0.15824721527667093,0.38480167064861653,-0.20818915604429858,0.0335608385849991,0.14048544866985602,1.5992587225717874,-0.6716372352068494,0
514,2024-09-16 20:41:53.177905152,TASK_BEGIN,006,0.4930691341444846,0.18346025965623136,0.3668496214014853,-0.23730861376161994,0.014777290650475287,0.150500347583631,1.4725120053422214,-0.6432663741733939,0
515,2024-09-16 20:41:53.239905024,TASK_BEGIN,006,0.4756193567963617,0.2077148388605308,0.36762320236015195,-0.2706636378613929,-0.0029930510454394274,0.16028158601325088,1.3289285985453387,-0.6158896298134413,0
516,2024-09-16 20:41:54.179559936,TASK_BEGIN,006,0.4601239359332636,0.23064362706472585,0.38957762363876813,-0.3070273446753013,-0.01957658538659491,0.169590174844791,1.177114492289608,-0.5926659737491501,0
517,2024-09-16 20:41:54.257685760,TASK_BEGIN,006,0.44762094055007906,0.25181731113474304,0.43461997864966856,-0.3452070301915332,-0.03438323406547544,0.17807153622841518,1.0249195660046657,-0.5764293205739144,0
518,2024-09-16 20:41:54.328963072,TASK_BEGIN,006,0.4391504810207459,0.2707553644484941,0.5038499815368898,-0.3841014270218348,-0.04648484203214907,0.18527763236499703,0.8791531278386405,-0.5694877068157435,0
519,2024-09-16 20:41:54.396646912,TASK_BEGIN,006,0.4356677354435095,0.2869683654884477,0.5971238425845242,-0.4227041285621969,-0.05478939627961743,0.19071517148007974,0.7452382307705375,-0.5734434584866971,0
520,2024-09-16 20:41:54.464355840,TASK_BEGIN,006,0.43794702878676073,0.3000139529897401,0.7126407922587098,-0.4600628169075729,-0.05822838547820265,0.19390498356010566,0.6268442975412116,-0.5890504059433087,0
521,2024-09-16 20:41:54.520307200,TASK_BEGIN,006,0.44647861839717085,0.30955136674107814,0.846810427719867,-0.49523207881672104,-0.0559054547513254,0.19443752454023047,0.5257211220286256,-0.6161454846867032,0
522,2024-09-16 20:41:54.599735040,TASK_BEGIN,006,0.46133809608354925,0.3153858586560734,0.9944612768681548,-0.5272658112848417,-0.04718575131890747,0.192012980844713,0.4419020566760526,-0.653686569073912,0
523,2024-09-16 20:41:55.537662208,TASK_BEGIN,006,0.48205024370044364,0.317495924619603,1.1493314400447274,-0.5552833050409971,-0.03173248195211816,0.1864627385196787,0.37422924674161945,-0.6998949072580296,0
524,2024-09-16 20:41:55.609965056,TASK_BEGIN,006,0.5075179866780072,0.3160399785129586,1.304770259666773,-0.5785994016660221,-0.009523634937525123,0.1777570283925015,0.32092282492857543,-0.7524589958409157,0
525,2024-09-16 20:41:55.676902144,TASK_BEGIN,006,0.5360645296382969,0.31134687803421723,1.4545259701585729,-0.5968572250637413,0.0191291941402221,0.16600426957157305,0.27989771102065336,-0.8087451364767787,0
526,2024-09-16 20:41:55.745357056,TASK_BEGIN,006,0.5655723329829716,0.30389716360632785,1.59347600784819,-0.6100916719942536,0.05358138450644395,0.1514437384112593,0.2487929687658917,-0.8659837193989154,0
527,2024-09-16 20:41:55.799997184,TASK_BEGIN,006,0.5936794148973205,0.2942941018706128,1.7182288218811967,-0.6186926611006563,0.09290696584252926,0.13443084865829907,0.22493644052334535,-0.9214269783209983,0
528,2024-09-16 20:41:55.877211136,TASK_BEGIN,006,0.6180095682818303,0.2832180960034021,1.8276033171283916,-0.6233054634650812,0.13599423802656535,0.11541537103513841,0.20542575012399783,-0.9724795276614298,0
529,2024-09-16 20:41:55.939200000,TASK_BEGIN,006,0.6364170487956504,0.2713643643597893,1.9229855170486112,-0.6247494046269247,0.1816459055480117,0.09491643940518928,0.18728317541918316,-1.0167862592061263,0
530,2024-09-16 20:41:56.893705984,TASK_BEGIN,006,0.6472191373125655,0.2593734955049225,2.0084177961560497,-0.6239956963567418,0.2286486936403418,0.07349988281405856,0.16758559138453813,-1.0522563208292819,0
531,2024-09-16 20:41:56.961491968,TASK_BEGIN,006,0.6493877803501231,0.24776919849808304,2.090140262056418,-0.6221543419784786,0.27580051012262147,0.05176004534737225,0.14360624842795872,-1.077043815433235,0
532,2024-09-16 20:41:57.025825024,TASK_BEGIN,006,0.6426638352423475,0.23691627047434305,2.1754557234436533,-0.6203921022349188,0.32191180178543777,0.030302707461349398,0.11304970246705669,-1.0895565737699857,0
533,2024-09-16 20:41:57.088310016,TASK_BEGIN,006,0.6275553699754493,0.22700379597424064,2.271170536677094,-0.6197658942415951,0.36581691209183553,0.009723303088929639,0.07433618241013201,-1.088542528700309,0
534,2024-09-16 20:41:57.149882112,TASK_BEGIN,006,0.6052162300577402,0.21804885770900165,2.3821224230575053,-0.6210370656134028,0.40641177050054095,-0.009421346017454691,0.026801813195816607,-1.0732209963803698,0
535,2024-09-16 20:41:57.232377856,TASK_BEGIN,006,0.5772520953226379,0.20991354971533374,2.5102602641350877,-0.6245617733775783,0.44269614678505337,-0.026644018135223626,-0.02924022870664311,-1.0433884972133034,0
536,2024-09-16 20:41:57.288677120,TASK_BEGIN,006,0.5455142803048791,0.20233336701440022,2.654444498903406,-0.6302980441246986,0.4737982794880155,-0.04155733967975869,-0.09249316598129512,-0.9994729814319158,0
537,2024-09-16 20:41:58.208482816,TASK_BEGIN,006,0.5119181503145326,0.19495984912871303,2.810818947558906,-0.6378859578496743,0.4989857010399989,-0.053900316360745694,-0.1606298921469085,-0.9425595543049009,0
538,2024-09-16 20:41:58.286554112,TASK_BEGIN,006,0.47830170042344133,0.18741716140973919,2.973471477836252,-0.6467384967977966,0.5176729644798328,-0.06355351674852924,-0.23025783880566603,-0.8744042471234881,0
539,2024-09-16 20:41:58.354295040,TASK_BEGIN,006,0.4463275129993709,0.17936271577127702,3.13508758172826,-0.6561113109198754,0.5294387809882459,-0.07053636724368699,-0.2970708782229638,-0.7974107516237386,0
540,2024-09-16 20:41:58.422023936,TASK_BEGIN,006,0.4174175949734239,0.1705375041288455,3.287372849881464,-0.6651408072617868,0.5340757823204343,-0.07499146793926881,-0.3562896808096888,-0.7145235226180512,0
541,2024-09-16 20:41:58.489800960,TASK_BEGIN,006,0.39270150555637223,0.16079886848566669,3.4212374772556435,-0.6728584477017433,0.5316755657656131,-0.07716687103164299,-0.40328647542680446,-0.6290247315172485,0
542,2024-09-16 20:41:58.546396928,TASK_BEGIN,006,0.3729695430799787,0.1501364851342366,3.5268864757381553,-0.6781992459177649,0.5227022726766416,-0.07739865602209992,-0.4341925187233944,-0.5442754868173882,0
543,2024-09-16 20:41:58.623346176,TASK_BEGIN,006,0.35865054440792266,0.13867274653854503,3.5939370021747314,-0.6800153602772905,0.5080012385160074,-0.07608685787202636,-0.4463671607297712,-0.4634484256521743,0
544,2024-09-16 20:41:59.562240000,TASK_BEGIN,006,0.3498399061707319,0.1266498359793054,3.6117583510669498,-0.6771216998974916,0.48873608266247126,-0.07366015875981533,-0.43867995035185614,-0.389281301131581,0
545,2024-09-16 20:41:59.624303104,TASK_BEGIN,006,0.3463683932872321,0.11441077298179798,3.5703256679150313,-0.6684197704197256,0.4662789430541772,-0.0705323923526129,-0.41151814889848,-0.32389690241660657,0
546,2024-09-16 20:41:59.701950208,TASK_BEGIN,006,0.34787323905301365,0.10237849671175893,3.4616290930971028,-0.6530995730325962,0.4420771895205741,-0.06705937671518632,-0.36644133639921,-0.26874562655996437,0
547,2024-09-16 20:41:59.763524864,TASK_BEGIN,006,0.35385063999342925,0.09102644558844321,3.2812583434716722,-0.630842476548261,0.41752432005848095,-0.0635070711043274,-0.30558532575651254,-0.22467215572700772,0
548,2024-09-16 20:41:59.825578752,TASK_BEGIN,006,0.36369770503422477,0.08083410707425918,3.02959486392116,-0.601926674477218,0.3938671003577525,-0.060038906488666166,-0.23110318948059083,-0.1920346645537959,0
549,2024-09-16 20:41:59.902895872,TASK_BEGIN,006,0.376749980855858,0.07223582546503338,2.7121899756409795,-0.5671807425360603,0.3721611097801402,-0.05672268228446907,-0.14490040240190696,-0.17079861995473486,0
550,2024-09-16 20:41:59.974961920,TASK_BEGIN,006,0.3923053034266803,0.06558320329534824,2.33930491108035,-0.5278046934164701,0.35326295314432904,-0.05355240590680011,-0.04869986093789556,-0.1605822678692833,0
551,2024-09-16 20:42:00.918497024,TASK_BEGIN,006,0.4096321405945463,0.061134888595198736,1.9248964486363653,-0.4851374854608314,0.33784011567623823,-0.05047779426057188,0.055727849255344984,-0.16068024660749639,0
552,2024-09-16 20:42:00.979085056,TASK_BEGIN,006,0.4279818351456141,0.05906813785828951,1.4852924073011133,-0.44045214057961424,0.32637782299654083,-0.04743177157324065,0.16636069014951008,-0.17009617244591993,0
553,2024-09-16 20:42:01.041570048,TASK_BEGIN,006,0.446614345597155,0.05949561592699241,1.0377193817111021,-0.39481821910722864,0.3191689579174511,-0.04434935847669779,0.28087832934345275,-0.18759619559170704,0
554,2024-09-16 20:42:01.119654144,TASK_BEGIN,006,0.4648148522294219,0.06247619042334997,0.5989673740648748,-0.34904384849069764,0.31630267963858594,-0.0411798226728535,0.3969024901827274,-0.21179679604367332,0
555,2024-09-16 20:42:01.189414144,TASK_BEGIN,006,0.4818845161351597,0.06801616862887026,0.18450198468663281,-0.3037032597346823,0.3176901675692578,-0.03789742967418054,0.5125597903306833,-0.2413014508830813,0
556,2024-09-16 20:42:01.242362112,TASK_BEGIN,006,0.49712218290776944,0.07606135884418774,-0.19196586014528882,-0.25922750132766353,0.3231310766707212,-0.03450955805473289,0.6270786957890341,-0.2748540499346024,0
557,2024-09-16 20:42:01.324893952,TASK_BEGIN,006,0.5098163497566358,0.08648801191866437,-0.5187563284654512,-0.21599388998508084,0.33236051213827145,-0.031053692794116926,0.7409586604086296,-0.3114303344457318,0
558,2024-09-16 20:42:02.268171264,TASK_BEGIN,006,0.5192523224275902,0.09910706630963126,-0.7865993856577378,-0.17435802124870145,0.3450179251851934,-0.027578821134624093,0.855528471625391,-0.35022011677898424,0
559,2024-09-16 20:42:02.335958016,TASK_BEGIN,006,0.5247481736976876,0.11368707716933156,-0.9890656177293394,-0.13464101932083644,0.36055544274939505,-0.02411842775360616,0.9721242619324229,-0.3905316374248265,0
560,2024-09-16 20:42:02.388422912,TASK_BEGIN,006,0.5257438150616662,0.12998214158814947,-1.1228050282648137,-0.09713689949978686,0.3781589853391231,-0.0206676333438119,1.091283113114103,-0.4316948713084187,0
561,2024-09-16 20:42:02.471400960,TASK_BEGIN,006,0.5219397407574653,0.14774514858435298,-1.1874713674567383,-0.06217565801085921,0.3967366595751552,-0.017171941192150795,1.212259884387237,-0.4730286067592453,0
562,2024-09-16 20:42:02.526798080,TASK_BEGIN,006,0.5134289472202176,0.16672091068446968,-1.185480083734419,-0.030203362347882935,0.4149735697067988,-0.013527094844772781,1.3329701184725253,-0.5138844163829474,0
563,2024-09-16 20:42:02.604419840,TASK_BEGIN,006,0.5007474280789247,0.18662921755996123,-1.1217814648802198,-0.0018094195861530083,0.431419649096627,-0.00958630515051602,1.4502748276004633,-0.5537220114980862,0
564,2024-09-16 20:42:02.674615040,TASK_BEGIN,006,0.48480895638967336,0.20715132474328207,-1.003598907646614,0.022332261997856716,0.4445827209926782,-0.005172795835844314,1.5604714570592937,-0.5921569027389286,0
565,2024-09-16 20:42:03.607239936,TASK_BEGIN,006,0.46675037602965136,0.22793007419024258,-0.8399910221831894,0.041590233710375096,0.4530158185456689,-9.714446505024455e-05,1.6598883274125582,-0.628961312016686,0
566,2024-09-16 20:42:03.684593920,TASK_BEGIN,006,0.44775771031480677,0.24858581807735058,-0.6412259939075399,0.05551592372849537,0.45539881437558377,0.005821718238087997,1.7454589821311068,-0.6640262661726272,0
567,2024-09-16 20:42:03.746206976,TASK_BEGIN,006,0.4289470943567833,0.26873804586539723,-0.4180133405577595,0.06392157240408891,0.45062358985754286,0.012733396321114683,1.81511599819388,-0.6972846174633893,0
568,2024-09-16 20:42:03.821392128,TASK_BEGIN,006,0.41132459213128814,0.2880177662944598,-0.1806318452252091,0.06685523092695456,0.4378904727697427,0.020731244385131346,1.8679123110934164,-0.7286042864204975,0
569,2024-09-16 20:42:03.884640768,TASK_BEGIN,006,0.3957883898382561,0.3060641486874337,0.06189219666512381,0.06452008232935805,0.41680668580262964,0.029825214625695033,1.9039135409456065,-0.757689263309708,0
570,2024-09-16 20:42:03.956891136,TASK_BEGIN,006,0.3831268985923866,0.3225115569571211,0.30228006727379536,0.05722334936262744,0.38746558807866077,0.03991393010447622,1.9239679491674155,-0.7840266881433878,0
571,2024-09-16 20:42:04.022891008,TASK_BEGIN,006,0.3739939631070375,0.33698201904531655,0.5350159246402486,0.04537797309873417,0.3504833081121425,0.05076556057973818,1.929432155556282,-0.8068963041882499,0
