,time,MARKER,pid,L_O_DSI,L_D_DSI,L_O_DSphi,L_D_DSphi,R_O_DSI,R_D_DSI,R_O_DSphi,R_D_DSphi,trial_id
0,2024-09-16 20:40:14.876784180,TASK_BEGIN,006,0.1517998181875627,-0.06288215267645424,2.932414699608909,-0.4878284765011286,0.19328441926767495,-0.16528647136701072,0.9221646192482664,-0.26118759505947564,0
1,2024-09-16 20:40:14.938782959,0,006,0.16567929314972618,-0.06302907577672114,2.942021778353132,-0.46867915207408,0.1421869389182104,-0.1472449744156888,0.8934189373345109,-0.22125039103825783,0
2,2024-09-16 20:40:15.005770996,0,006,0.17548530806278928,-0.0638098401935359,2.9267803792844473,-0.4461515433720905,0.09271921956108518,-0.12968049337401674,0.8814742016375413,-0.192474826083678,0
3,2024-09-16 20:40:15.078760986,0,006,0.18083316164269114,-0.06537896546107458,2.8840446511473274,-0.42069915396077323,0.0466810726717096,-0.11321486072489988,0.8867116242396662,-0.17553877928931527,0
4,2024-09-16 20:40:15.140766113,0,006,0.18132052532919482,-0.06778861556293755,2.8121290412053437,-0.3928092731397106,0.005586261446961037,-0.09842217027150782,0.9068452768699091,-0.17016611120280667,0
5,2024-09-16 20:40:16.092377930,0,006,0.17662568616647178,-0.07100295369255928,2.7105604441280695,-0.3630186199751832,-0.02939935846630551,-0.08577450767242077,0.9369639227618538,-0.17514691667435342,0
6,2024-09-16 20:40:16.161097900,0,006,0.16660296149636694,-0.07492483198425792,2.5804279961388583,-0.3319286792428115,-0.057450911208814855,-0.07560254543064443,0.970033164451261,-0.18845685714830915,0
7,2024-09-16 20:40:16.215529053,0,006,0.15134145575962185,-0.07942160239978815,2.4246673130873018,-0.3001978889886935,-0.07804339606082401,-0.06808142818472351,0.9978169358865042,-0.20749254075633228,0
8,2024-09-16 20:40:16.296529053,0,006,0.13118311376787736,-0.08434317762931806,2.2481231156877324,-0.26850297663438727,-0.09091718675472142,-0.06324146497139503,1.0120328498880224,-0.22939049325240587,0
9,2024-09-16 20:40:16.364272949,0,006,0.10672128463053795,-0.08953556408921634,2.0573278814978884,-0.23748107024964374,-0.09606832212655084,-0.0609935259099516,1.0055096252035212,-0.2513600043304011,0
10,2024-09-16 20:40:16.431442871,0,006,0.07879121863637123,-0.0948550629737799,1.8599784226780856,-0.2076546028507713,-0.09375213577155264,-0.06115774145580566,0.9731680341535469,-0.2709781974783084,0
11,2024-09-16 20:40:16.493441895,0,006,0.048436592788669616,-0.10018418497068361,1.6642046999128721,-0.1793519819989944,-0.08447192313818754,-0.06348956500051227,0.9127134132089257,-0.2864297008865795,0
12,2024-09-16 20:40:17.432544922,0,006,0.016832235694777733,-0.1054464919767998,1.4779015139861171,-0.15267074686984633,-0.06893175778720279,-0.0677036516381105,0.8249678983339618,-0.2966713473747534,0
13,2024-09-16 20:40:17.495426025,0,006,-0.014830074398171864,-0.11061542045593384,1.3083519213105972,-0.12751666577690354,-0.047959440313083315,-0.07349793137538863,0.7138301521903607,-0.3014900320356839,0
14,2024-09-16 20:40:17.572145996,0,006,-0.04545669497068571,-0.11571254457528161,1.162107190360698,-0.10370300577821415,-0.02242599128296975,-0.08057716665447191,0.5859287299871885,-0.3014430598450618,0
15,2024-09-16 20:40:17.633687988,0,006,-0.07412678180266513,-0.12079495764902927,1.0449044870355115,-0.08107251463845569,0.006813948460808381,-0.08867171959334941,0.4500384952766581,-0.29770339471124846,0
16,2024-09-16 20:40:17.712107910,0,006,-0.10010589250532373,-0.1259371837186526,0.9614294076528679,-0.0596029765960113,0.03894915621748625,-0.09754640286520058,0.3162635898274971,-0.2918385765599816,0
17,2024-09-16 20:40:17.777532959,0,006,-0.12280890672625099,-0.13121527951217754,0.9149232164583355,-0.03945756230717899,0.07320505674544212,-0.10699618757691917,0.19500722500738218,-0.2855525956749235,0
18,2024-09-16 20:40:17.848181885,0,006,-0.14174484380426072,-0.13669649208115028,0.9068520142520119,-0.020967422356526818,0.10881109818471858,-0.1168300183428017,0.09585955504379078,-0.2804380732194,0
19,2024-09-16 20:40:18.768029053,0,006,-0.15647491592414184,-0.14243077097326592,0.9368324186002548,-0.004572313091045751,0.14496203047787934,-0.12685008355498037,0.026586954072369398,-0.27778834265805025,0
20,2024-09-16 20:40:18.835774902,0,006,-0.16659550331186318,-0.1484386665812824,1.002739900016316,0.009250038056151636,0.18079783534328367,-0.13683683684601203,-0.007627313315918728,-0.27849426405433253,0
21,2024-09-16 20:40:18.894272949,0,006,-0.17174167111806296,-0.154695488568837,1.1007798225583194,0.020056246160250986,0.21541123279558702,-0.14654490953260188,-0.004591546886609521,-0.28303322538597786,0
22,2024-09-16 20:40:18.971176025,0,006,-0.1716041186670005,-0.16111735814599892,1.2254661763523012,0.027505122793753195,0.24786976630266397,-0.15570599233234594,0.034861414254127844,-0.29154336987578466,0
23,2024-09-16 20:40:19.038886963,0,006,-0.1659582047374538,-0.16755480222279642,1.3696813330645998,0.03139989495357628,0.27724056011294007,-0.16403279379628563,0.10714870863970438,-0.30394052018116396,0
24,2024-09-16 20:40:19.095835938,0,006,-0.1547102866069987,-0.1737942047189596,1.5249999945764832,0.03168557251930134,0.3026244630183119,-0.1712249982408478,0.2064130937503558,-0.3200103379419315,0
25,2024-09-16 20:40:19.174343018,0,006,-0.13796159679442643,-0.17956257658929126,1.682285431433323,0.02840390058203023,0.3232134993589203,-0.1769827005073267,0.3251134801534021,-0.33943283506267263,0
26,2024-09-16 20:40:20.118125977,0,006,-0.11607220582987923,-0.18453215949936447,1.8324274341908828,0.021626829735195544,0.3383693299252377,-0.18102788525441918,0.4546392957408532,-0.36174302289286303,0
27,2024-09-16 20:40:20.183197998,0,006,-0.08969810700019387,-0.18832712585639005,1.967088791260691,0.011398460977889142,0.34769304143028734,-0.18312597938327335,0.5858437413443733,-0.38625715379067854,0
28,2024-09-16 20:40:20.253545898,0,006,-0.05978495281958501,-0.19053900772109317,2.079372960080694,-0.00228665691725254,0.35105194871946127,-0.18309834831541208,0.7094770877319116,-0.4120013862602566,0
29,2024-09-16 20:40:20.305879150,0,006,-0.027517158902929183,-0.19075597336182679,2.1643104999082294,-0.019452476814706576,0.3485649220929061,-0.18082581016571456,0.8166315287761186,-0.43768128900395475,0
30,2024-09-16 20:40:20.383575928,0,006,0.0057699891004765625,-0.18860337140330113,2.2190118666781444,-0.04005480988538837,0.3405781847926973,-0.17625126313451217,0.8993022836550213,-0.46172000287073506,0
31,2024-09-16 20:40:20.445177979,0,006,0.03869457645667039,-0.18378420112601113,2.242410893696125,-0.06386104472717612,0.32764363345428943,-0.16938567751858638,0.9510161006894887,-0.48236600419332715,0
32,2024-09-16 20:40:20.524337891,0,006,0.06991825804615465,-0.17610693982209416,2.234758911222986,-0.09035102681449268,0.31047632287174387,-0.16031290636975162,0.9673638085089175,-0.497841245513591,0
33,2024-09-16 20:40:21.463087891,0,006,0.09821009155772502,-0.1654966098809328,2.197170575042868,-0.11869310595600817,0.28986981876872475,-0.14918658661149808,0.9463325490838206,-0.5065020301008838,0
34,2024-09-16 20:40:21.524667969,0,006,0.12249578524181813,-0.1519939806470607,2.1314044135129944,-0.14779993913894673,0.2665835140309598,-0.13621700020510938,0.8884872342270544,-0.507023181480902,0
35,2024-09-16 20:40:21.601471924,0,006,0.1418982697287217,-0.13574998078573458,2.039864746264996,-0.1764217186762662,0.2412481237293682,-0.1216517099598066,0.7971016817437522,-0.4986220043741454,0
36,2024-09-16 20:40:21.663083984,0,006,0.15576492776502965,-0.11702083785696432,1.9257248871377386,-0.20323626625189742,0.21433669061664423,-0.10575767061098904,0.6782061496238156,-0.48127760091824645,0
37,2024-09-16 20:40:21.739280029,0,006,0.16368498690444502,-0.09616603587246067,1.7930585257381708,-0.22692734827069028,0.18621324056477565,-0.08881203710333388,0.5403508441745342,-0.4558453367544427,0
38,2024-09-16 20:40:21.802555176,0,006,0.16549979198754722,-0.07364435589990606,1.6468494856466234,-0.24625858898737743,0.15722455477777722,-0.07110315806126132,0.3939069351049961,-0.4239837738528494,0
39,2024-09-16 20:40:21.874768066,0,006,0.16129492774367488,-0.049999725894486556,1.4927590598607774,-0.2601406851698547,0.12777994547321025,-0.0529362752575201,0.24995853669044069,-0.38789513691647043,0
40,2024-09-16 20:40:22.806110107,0,006,0.15136920314415356,-0.025835211317618543,1.3366379525528023,-0.2676840245649443,0.09838222895682883,-0.03463665031189005,0.11908362254952812,-0.349978775882097,0
41,2024-09-16 20:40:22.886148926,0,006,0.13619783927318357,-0.001782762529386044,1.1839240065061172,-0.2682376483254732,0.06961042827578721,-0.016546286375496606,0.010369613561440985,-0.31253391930221347,0
42,2024-09-16 20:40:22.945399902,0,006,0.11640524089313789,0.021522627260180744,1.0391061391249274,-0.2614142683656281,0.04208038314598558,0.0009870513712621634,-0.06918832218267405,-0.2775852521050709,0
43,2024-09-16 20:40:23.021583008,0,006,0.09273945339070555,0.04346071587858376,0.9053514147478899,-0.24709275949631682,0.016409208825172484,0.017628868802696356,-0.11500536925466008,-0.24680504879600382,0
44,2024-09-16 20:40:23.089312012,0,006,0.06604072147414883,0.06343608815209899,0.7843306753419014,-0.22539948696587375,-0.006799165358348509,0.033078959286334045,-0.12508013349083275,-0.2214637463768256,0
45,2024-09-16 20:40:23.153233154,0,006,0.037216337485644915,0.08088462401083497,0.6762889021605977,-0.1966886064047977,-0.026934028708877646,0.047080752165626794,-0.1000278372205025,-0.20237622602576705,0
46,2024-09-16 20:40:23.224780029,0,006,0.007234515708498237,0.09528363213077894,0.580405938252201,-0.16154609666547481,-0.04333007994645292,0.05941342969808995,-0.04294699898956476,-0.18985109445639584,0
47,2024-09-16 20:40:24.139764160,0,006,-0.02286453275590159,0.10616938787175668,0.4953915623975222,-0.12082270859738371,-0.05523043517438099,0.06987902153343525,0.04080536494906731,-0.18364572497823667,0
48,2024-09-16 20:40:24.201761963,0,006,-0.051950724340771894,0.11315787463360076,0.42011343877451657,-0.07566663226442609,-0.06179640712003898,0.07829853344944736,0.1438972059639779,-0.18293699352279552,0
49,2024-09-16 20:40:24.266722900,0,006,-0.0787953353618475,0.11596108496792717,0.3540283170972047,-0.02751432198572202,-0.06216209775867628,0.08451793962569791,0.25751349697601866,-0.18635653094099242,0
50,2024-09-16 20:40:24.341568848,0,006,-0.10209078548166195,0.11439382103545742,0.29731057663686533,0.021972419205482947,-0.05550923203107456,0.08841700907377104,0.3721879961507684,-0.19212889589494314,0
51,2024-09-16 20:40:24.403208008,0,006,-0.12051253281224228,0.1083713056784269,0.25073116154102904,0.07099470443790164,-0.04114418795462211,0.08991464398195798,0.47885347624472907,-0.19827932791519548,0
52,2024-09-16 20:40:24.479507080,0,006,-0.1328261283310629,0.0979040341569321,0.21538025266547883,0.117704707612252,-0.018568290208835415,0.08896678078381726,0.5698091669341824,-0.20283382352418952,0
53,2024-09-16 20:40:24.541559814,0,006,-0.13803293961482369,0.08309916848460155,0.19224843954802207,0.16031279523990294,0.012465045101037955,0.08555667947650089,0.639363662096076,-0.20396907178768564,0
54,2024-09-16 20:40:25.481843018,0,006,-0.13553132098412388,0.0641726547790645,0.18170584173579296,0.19723938420205417,0.05190424996000462,0.07968300680151763,0.6841202458811094,-0.20013029373708285,0
55,2024-09-16 20:40:25.558552002,0,006,-0.12524341519774002,0.041464411108802154,0.1830715657796146,0.22728331620445708,0.09935611309583067,0.07135407218883022,0.7030130708704581,-0.19013915504242926,0
56,2024-09-16 20:40:25.620610107,0,006,-0.10764511992874555,0.015440227455739522,0.19447582023971205,0.24974516387497603,0.15404981332239212,0.06059251707137477,0.6971752306891535,-0.1732800191985793,0
57,2024-09-16 20:40:25.682606934,0,006,-0.08367055955128364,-0.013330698266977782,0.21304037969755904,0.2644667039383003,0.21482619766569808,0.04744718544156078,0.6696614851522328,-0.1493574982758781,0
58,2024-09-16 20:40:25.759441895,0,006,-0.05453049674157461,-0.044216595150995935,0.23526216650629045,0.2717853642912868,0.2801594082402889,0.0320073845401355,0.6250677861995317,-0.1187467157292979,0
59,2024-09-16 20:40:25.831712891,0,006,-0.021522456843904223,-0.07656485294603557,0.2574776392802637,0.27242896678131645,0.3482071867111151,0.014420407171469378,0.5690787670220152,-0.08244165402775701,0
60,2024-09-16 20:40:25.897314941,0,006,0.014113168008070439,-0.10973290468687849,0.27634868033949755,0.26738673145403624,0.41688868034406673,-0.0050839316356661845,0.5079041376302794,-0.0420616155758672,0
61,2024-09-16 20:40:26.843018066,0,006,0.051280958757223966,-0.14310937122248346,0.2893478553521407,0.2577856325494322,0.48398483522927077,-0.02616353593094501,0.44763836335587875,0.00022177733007439985,0
62,2024-09-16 20:40:26.910736084,0,006,0.08907183957855418,-0.17613093247661168,0.2951990017800729,0.24478691216759385,0.5472532513820068,-0.04834119417130602,0.39377207543224674,0.04182479261428691,0
63,2024-09-16 20:40:26.978490234,0,006,0.12676111091043374,-0.20829478903726725,0.2942043559563853,0.22950733362872672,0.6045586575488424,-0.07100685920022118,0.3510326832302901,0.07992870783734607,0
64,2024-09-16 20:40:27.046246094,0,006,0.16376023161598746,-0.23916121660204906,0.28836864251490163,0.21297092018843483,0.6540131654398865,-0.09345416882126313,0.32342809630934766,0.11168686887722304,0
65,2024-09-16 20:40:27.114017090,0,006,0.19953809431860695,-0.26834468794354216,0.28120904253689144,0.19610098172010096,0.694095562685035,-0.11494046100465434,0.3142432693399225,0.13446158995130325,0
66,2024-09-16 20:40:27.175641113,0,006,0.23355496864515837,-0.295501609377377,0.27721805470599087,0.1797483784386632,0.723721913314235,-0.13474863625010927,0.3258848182531373,0.14607665631437072,0
67,2024-09-16 20:40:27.238125977,0,006,0.2652474362665913,-0.3203258001258815,0.28109970368221715,0.16473026185770873,0.7422712859777167,-0.15223481528834157,0.35961471321175675,0.14505790381438494,0
68,2024-09-16 20:40:28.183016112,0,006,0.2940651357388117,-0.342556740498964,0.29694579277902755,0.1518533273277513,0.7495873614534301,-0.16685812715705464,0.4152687223052841,0.1308202542738054,0
69,2024-09-16 20:40:28.245579102,0,006,0.3195288424892674,-0.3619969625317563,0.32748287904550466,0.1419105786597188,0.7459676425870231,-0.17819820342383144,0.49106879437549644,0.1037548984550458,0
70,2024-09-16 20:40:28.328535889,0,006,0.34127648031609104,-0.3785294343231992,0.3735558063247031,0.13564525884698328,0.7321361981380274,-0.18596793347555066,0.5836176098149438,0.06518800256371264,0
71,2024-09-16 20:40:28.384841797,0,006,0.35908169224156217,-0.3921268569688249,0.4339768209865248,0.1336821285543324,0.7091901941960225,-0.19002531458810615,0.6881020116453845,0.017219917506154904,0
72,2024-09-16 20:40:28.462479980,0,006,0.37284564899366524,-0.4028499631396175,0.5056155660478824,0.13645565337553475,0.6785161673783976,-0.19038205909379222,0.7986523449767089,-0.03749970398043232,0
73,2024-09-16 20:40:28.524483887,0,006,0.38256229932276664,-0.41083570868867825,0.5834937553492423,0.14417698636965287,0.6416825902808634,-0.18720205217304003,0.9087730803917468,-0.0959880239882622,0
74,2024-09-16 20:40:28.599513916,0,006,0.38826037702260385,-0.4162798353593797,0.6609194562073538,0.15683953462324426,0.6003291304558799,-0.18078582619138162,1.0117864479411596,-0.1551017707878385,0
75,2024-09-16 20:40:29.541584961,0,006,0.3899479813984304,-0.4194215468082904,0.7299273221332532,0.17421564066974404,0.556076726296383,-0.17154535294867046,1.101239169746591,-0.21167422011178771,0
76,2024-09-16 20:40:29.611766113,0,006,0.3875961805272948,-0.4205350374640604,0.7821686261771243,0.19580346901168355,0.5104633369760653,-0.159976380235425,1.1712225048326779,-0.26262264100095833,0
77,2024-09-16 20:40:29.679510009,0,006,0.381172251109841,-0.41992488504154096,0.8101272524113328,0.22073470652507618,0.4648925955708279,-0.14663221617012978,1.2166209133148782,-0.30503469778146297,0
78,2024-09-16 20:40:29.747211914,0,006,0.37070230206999344,-0.4179194982837821,0.808349923546293,0.24770168585970626,0.4205942473724175,-0.13210091155994533,1.2333663864700204,-0.3362701862555349,0
79,2024-09-16 20:40:29.809813965,0,006,0.3563361251220492,-0.4148609716496731,0.7743485395962356,0.27496414236244615,0.37861503148414183,-0.11698882537179789,1.2187236147798497,-0.3541087142667773,0
80,2024-09-16 20:40:29.881388916,0,006,0.3383842264978609,-0.4110927424074145,0.7089968910449262,0.3004491217470083,0.339852052943284,-0.10191177428136158,1.1715300801276025,-0.35692973170946374,0
81,2024-09-16 20:40:29.943013916,0,006,0.3172972510149617,-0.40694625030469045,0.6164811612776833,0.3219096644100479,0.30511778315590343,-0.08748936495717972,1.0922935883546718,-0.343883774390206,0
82,2024-09-16 20:40:30.868904053,0,006,0.29359150369575604,-0.4027296526709512,0.5039251265159935,0.3371057299777474,0.2752146697069936,-0.07433508621684183,0.983114411496314,-0.3150146192422819,0
83,2024-09-16 20:40:30.936691162,0,006,0.2677629947175399,-0.3987222382362904,0.38068801976119293,0.3439982614076789,0.25099435073714516,-0.06303629636363146,0.8474661456300073,-0.2713084924446715,0
84,2024-09-16 20:40:30.997073975,0,006,0.24022806622492426,-0.39517271268345394,0.25731585809357005,0.340946551717876,0.23337131606823727,-0.05412096424002815,0.689887570536539,-0.21467103413405036,0
85,2024-09-16 20:40:31.058600098,0,006,0.21130509600815803,-0.3922959702767759,0.14431940981593808,0.32686536836282903,0.2232687204610617,-0.048013349725141555,0.5156240984819703,-0.14783748260461654,0
86,2024-09-16 20:40:31.135412842,0,006,0.18124389070564653,-0.3902670166609997,0.05108954134932324,0.30129589681241864,0.22150257597470713,-0.044989825711908064,0.3302564844108104,-0.074205930559302,0
87,2024-09-16 20:40:31.207628906,0,006,0.15029745510502035,-0.38921484451100763,-0.014845864811013392,0.26440034386413735,0.22863751460746667,-0.04515004373723755,0.1393987613691159,0.0024037945273668237,0
88,2024-09-16 20:40:31.274318115,0,006,0.11880271088770357,-0.3892186165659291,-0.04820599762984795,0.216933396067228,0.24485813307814897,-0.04841157204463338,-0.05142602759287776,0.07802345930241532,0
89,2024-09-16 20:40:32.206437988,0,006,0.08722717360671577,-0.3903072479408228,-0.04602430598224127,0.16021521197999597,0.2698971021724472,-0.05452612870801148,-0.23672359932628093,0.1487914772962304,0
90,2024-09-16 20:40:32.283620117,0,006,0.05616679488189875,-0.392462226067155,-0.007448139612573662,0.09608332759240894,0.3030347977822455,-0.06311137334548217,-0.4109444222439862,0.21117001314488248,0
91,2024-09-16 20:40:32.345138916,0,006,0.02631171420429247,-0.3956218902575323,0.0665731688380155,0.026811492639610402,0.34314070983022465,-0.07369140681413797,-0.5685940233759176,0.2621319103526328,0
92,2024-09-16 20:40:32.407165039,0,006,-0.001602908256508858,-0.39968562713447386,0.17348160012556488,-0.04497602670503379,0.3887122168475764,-0.0857383528937262,-0.7045993631263991,0.29932859203163625,0
93,2024-09-16 20:40:32.484780029,0,006,-0.02685666565527515,-0.4045181746855948,0.3091525008681633,-0.11637952624122809,0.43790374661489007,-0.09870921468049981,-0.8147925812193184,0.3212349499641028,0
94,2024-09-16 20:40:32.547265137,0,006,-0.04880279305977993,-0.40995630114564774,0.46803985373128115,-0.18432396428843875,0.48858191641906257,-0.11207644249312149,-0.8963093472689618,0.32724590779742485,0
95,2024-09-16 20:40:32.625452881,0,006,-0.06690276783707026,-0.41582054701631,0.6435959403728204,-0.24571399039138053,0.538440193766993,-0.12535373223043367,-0.9477530698690649,0.31769459341500594,0
96,2024-09-16 20:40:33.555327881,0,006,-0.08072936633892475,-0.42193070885029177,0.8287736320366906,-0.29762439151691167,0.5851673582693124,-0.13811846317940413,-0.9690812927346847,0.2937838942369081,0
97,2024-09-16 20:40:33.636720947,0,006,-0.08996149001807142,-0.42811918213374317,1.0163587504478244,-0.33749936259004176,0.626631426601692,-0.15002879064286712,-0.9612907748086271,0.2574426134572647,0
98,2024-09-16 20:40:33.704464111,0,006,-0.094402629208945,-0.43423732452089575,1.1991895646919437,-0.3633533305469729,0.6610407484075757,-0.16083096020100562,-0.9260445268891979,0.2111164220067746,0
99,2024-09-16 20:40:33.772175049,0,006,-0.09402969806418392,-0.44015599679390827,1.3704853353985325,-0.37395494869210505,0.6870604030944714,-0.17035492350710343,-0.865386890575905,0.15751221951129016,0
100,2024-09-16 20:40:33.840009033,0,006,-0.08904385241356233,-0.4457666101704829,1.5243050620754537,-0.36895264983863096,0.7038744719867517,-0.17850091336175486,-0.7816365761761398,0.0993408419525606,0
101,2024-09-16 20:40:33.907196045,0,006,-0.07988720758821774,-0.45098818330535895,1.6559158927986315,-0.34890178727772164,0.7111999840709461,-0.18522257791476304,-0.6774204522109915,0.03910603941099836,0
102,2024-09-16 20:40:33.971834961,0,006,-0.06721300501332134,-0.45577964967679835,1.7618974362830315,-0.31518692589032643,0.709270733059038,-0.19051185764322282,-0.5557261139400101,-0.021042353709892606,0
103,2024-09-16 20:40:34.893081055,0,006,-0.0518240533040239,-0.4601499880858937,1.8400413462980647,-0.26987574160964717,0.6987950024828093,-0.19438627227317007,-0.41991892056069596,-0.07939424448706618,0
104,2024-09-16 20:40:34.947362061,0,006,-0.03460810871917914,-0.46415658058089004,1.889204291511865,-0.21555028560189052,0.6808695704136928,-0.1968761886222227,-0.2737794024729704,-0.1347035389853551,0
105,2024-09-16 20:40:35.025206055,0,006,-0.016492478337765234,-0.46788724914488694,1.909203841225036,-0.1551325855865611,0.6568461568289102,-0.19801305032997815,-0.1216085657766255,-0.18614892636645722,0
106,2024-09-16 20:40:35.091896973,0,006,0.0015846503296605941,-0.47143118216160307,1.9007919229469434,-0.09169729491286208,0.6281820132529436,-0.19782333190122314,0.03163812600331089,-0.23323770462032553,0
107,2024-09-16 20:40:35.149768066,0,006,0.01870740449724734,-0.4748519136405757,1.865700360110439,-0.028269955150394564,0.5963143515782351,-0.19633015928594116,0.18026073083825814,-0.2756660519614841,0
108,2024-09-16 20:40:35.226501953,0,006,0.034036541220061604,-0.4781769246418827,1.8066920920856486,0.03236862429650482,0.5625743076729609,-0.19355932884970467,0.3178197647924064,-0.313165625574435,0
109,2024-09-16 20:40:35.288989990,0,006,0.04688427894726271,-0.4814110789508601,1.7275524187974465,0.08784119118869385,0.5281361953203937,-0.1895459771151197,0.43729580045312233,-0.3453894021025799,0
110,2024-09-16 20:40:36.243118896,0,006,0.0567902876742519,-0.4845659513172285,1.6330071531783548,0.13627284681651539,0.4939948533284819,-0.1843414735660898,0.5315066815762058,-0.37188802046382774,0
111,2024-09-16 20:40:36.311005127,0,006,0.06357087282090564,-0.487684855200665,1.528600835969562,0.17631555744826674,0.46096161933115565,-0.17802169255426376,0.5938245268902259,-0.39218500928948613,0
112,2024-09-16 20:40:36.367261963,0,006,0.0673328679419773,-0.4908482573275004,1.4205638483041185,0.20709995832603917,0.42967065586591713,-0.1706966123025245,0.6190302919168938,-0.4058940724035181,0
113,2024-09-16 20:40:36.445839844,0,006,0.06846963567061395,-0.4941619427416258,1.3156127841701464,0.2281436807956371,0.4005993787769446,-0.16251930617476987,0.60405602946975,-0.4127996200506644,0
114,2024-09-16 20:40:36.514162109,0,006,0.06764531031854158,-0.4977398122021116,1.2206141810795166,0.23925498196553147,0.3741055837310604,-0.1536900691002761,0.548527793026443,-0.4128814060352147,0
115,2024-09-16 20:40:36.580828857,0,006,0.0657477541652522,-0.5016881842309994,1.142141426987467,0.24046350218548732,0.35046849564863614,-0.14445175774202734,0.4551596828942738,-0.4063298461046298,0
116,2024-09-16 20:40:36.647416992,0,006,0.06380473352599232,-0.5060925309363757,1.0859816308776074,0.2320059012437136,0.32992444313873925,-0.13507851330951623,0.3299553684275711,-0.39358519148920723,0
117,2024-09-16 20:40:37.590406982,0,006,0.062887756988123,-0.5110066845675547,1.0566636140854127,0.21435996983949485,0.312702590191648,-0.12586469463699593,0.18201833543202584,-0.3753746242677541,0
118,2024-09-16 20:40:37.659262939,0,006,0.06402257838551391,-0.5164429182177112,1.0571547554581997,0.1882715601607947,0.29905970772102247,-0.11711708188066462,0.022817820221332785,-0.35270564224140166,0
119,2024-09-16 20:40:37.716041016,0,006,0.06810562101159745,-0.5223598545055489,1.0887979661677372,0.1547315262565963,0.2892963503171096,-0.10914769422102705,-0.13499305914229648,-0.32681535978031645,0
120,2024-09-16 20:40:37.795051025,0,006,0.07582567156298205,-0.5286483127932372,1.1513669785967773,0.11491336068512588,0.28374130164865696,-0.1022646066799034,-0.2789173377337099,-0.29910038611533485,0
121,2024-09-16 20:40:37.861542969,0,006,0.08759555670966505,-0.5351202440884327,1.2430773887780802,0.07010281556496424,0.2827056292696173,-0.09675961137455828,-0.3978555053238153,-0.27102259415799246,0
122,2024-09-16 20:40:37.919513916,0,006,0.10349594136819688,-0.5415081584468341,1.360524252385596,0.021642507417328493,0.2864070876514602,-0.09288987296423155,-0.48311521757088,-0.24396565721965985,0
123,2024-09-16 20:40:37.998143066,0,006,0.12323455672701035,-0.5474803415690901,1.498690895276185,-0.029100352369421125,0.2948727529099362,-0.09085253593411065,-0.529094249512017,-0.21906288829922188,0
124,2024-09-16 20:40:38.942302002,0,006,0.14613363590110462,-0.5526715677337705,1.6512132729938995,-0.08075140045521796,0.3078556324947433,-0.09075888299310327,-0.5335545047967372,-0.19707241739677275,0
125,2024-09-16 20:40:39.004800049,0,006,0.17116059778278014,-0.5567223753604507,1.8109105700427057,-0.1319456360810434,0.32480382375522227,-0.09261709686868132,-0.49752336810621606,-0.17835134207972103,0
126,2024-09-16 20:40:39.069433838,0,006,0.197003549882284,-0.5593157412152834,1.970414001921097,-0.1813555028327795,0.3448857585465158,-0.09632626564985589,-0.4249671725833727,-0.1629066637733285,0
127,2024-09-16 20:40:39.146123779,0,006,0.22218072044545534,-0.560202178707901,2.1227197910876017,-0.22773919688135233,0.36705049219712754,-0.10167942712890969,-0.3222835230342754,-0.15048628453752452,0
128,2024-09-16 20:40:39.212850098,0,006,0.24517007780347636,-0.5592120881679279,2.2616150026966886,-0.27000770991735284,0.3901045232245026,-0.10837458669735765,-0.19750247338179483,-0.14071436685916938,0
129,2024-09-16 20:40:39.279988037,0,006,0.26453966286138625,-0.5562598707775128,2.382048651917659,-0.30729751784933357,0.41279321751298287,-0.11603429986719033,-0.059193681649252164,-0.13327105704493145,0
130,2024-09-16 20:40:39.346147949,0,006,0.2790506719095016,-0.5513433832825425,2.4804656600039023,-0.33901984971541604,0.4338823598125571,-0.12423385437836591,0.0846254421368044,-0.12805760199205302,0
131,2024-09-16 20:40:40.284469971,0,006,0.2877099330676445,-0.5445389424662792,2.5549397935056106,-0.3648515765721492,0.45224385158687364,-0.13253540901971828,0.22719263128979494,-0.12525889373078541,0
132,2024-09-16 20:40:40.354161133,0,006,0.2897742305011766,-0.5359913880211405,2.6049599583237133,-0.3846662973814494,0.466940808464481,-0.14052085380589524,0.36316601986245434,-0.12526012704649792,0
133,2024-09-16 20:40:40.423244873,0,006,0.2847391029409415,-0.5259001953376187,2.6309659040259255,-0.3984485897144229,0.4772866469865577,-0.14781452143142423,0.48839963823532223,-0.12845897355050304,0
134,2024-09-16 20:40:40.485310059,0,006,0.2723433665589259,-0.5145023897172777,2.6338429543206514,-0.4062323253671331,0.48285244043128994,-0.15409291310599615,0.5995694336984093,-0.1350683431296083,0
135,2024-09-16 20:40:40.562964844,0,006,0.2525865705448111,-0.5020517625920183,2.6144406550133383,-0.40805922595644384,0.4834243129832754,-0.1590867956732595,0.6938017405022417,-0.14498515603247727,0
136,2024-09-16 20:40:40.625000000,0,006,0.22573851402009554,-0.48879699490221573,2.573047118292493,-0.403922357740621,0.4789448538602314,-0.1625826059109918,0.7683434322679566,-0.1577386745636353,0
137,2024-09-16 20:40:40.698806152,0,006,0.1923351851444314,-0.47496588025926617,2.5088467517822846,-0.39367880850611375,0.46948205272777965,-0.16442595753194014,0.8203086370688341,-0.172491172826959,0
138,2024-09-16 20:40:41.610819092,0,006,0.15316427359065932,-0.4607594873023225,2.419591278116844,-0.3769695736779678,0.455242563369548,-0.16452694124144557,0.84667595632829,-0.18808205010221016,0
139,2024-09-16 20:40:41.673087891,0,006,0.10923331849076467,-0.4463507645199104,2.301769467952485,-0.3532173764246365,0.43660720159326,-0.16286621215453187,0.8447775079555053,-0.20315141651394197,0
140,2024-09-16 20:40:41.753907959,0,006,0.06171528538122881,-0.4318778235054604,2.1513570077290276,-0.3217415054932167,0.41415172518902876,-0.1594986211955038,0.8132572774518906,-0.2163572350259445,0
141,2024-09-16 20:40:41.821616943,0,006,0.011881326347426648,-0.4174269880952011,1.9649136908444675,-0.28196094961928053,0.3886260959128,-0.1545482933263523,0.7530560504796175,-0.22660603738908755,0
142,2024-09-16 20:40:41.889344971,0,006,-0.03896306655871997,-0.4030108458362618,1.740654618942687,-0.23362091398617674,0.3608867979928662,-0.14819179941030905,0.6678760198472619,-0.2331829038258487,0
143,2024-09-16 20:40:41.957058105,0,006,-0.08952235278418007,-0.3885540168215855,1.4792165640520798,-0.17698031097646263,0.3317995667878883,-0.14063283860596412,0.563929427369703,-0.23575320412504988,0
144,2024-09-16 20:40:42.012635986,0,006,-0.13852350536578967,-0.37389610497705666,1.184003770051264,-0.11291319878379565,0.3021407398857339,-0.13207514011479415,0.4492159591482726,-0.2343060908113519,0
145,2024-09-16 20:40:42.967269043,0,006,-0.18470211634245307,-0.3588107692930711,0.8611230758484925,-0.042911260788264294,0.27252533738975887,-0.12270074350626227,0.33269681050600797,-0.22911089319879288,0
146,2024-09-16 20:40:43.036192871,0,006,-0.2267923597302185,-0.3430321451955902,0.5189814658002262,0.030988718012222586,0.24338351511592057,-0.11266099566216362,0.223553270153826,-0.22069516621426677,0
147,2024-09-16 20:40:43.103525879,0,006,-0.26356442035565003,-0.32627668282054956,0.16761536873316177,0.10632765659798447,0.21498589720577496,-0.10208232119562073,0.13053751370118885,-0.20981851271773438,0
148,2024-09-16 20:40:43.168559082,0,006,-0.2939338102302093,-0.30825115523470636,-0.1821997509579223,0.18039252464498076,0.18748697818230894,-0.09107747403060631,0.06139391098841162,-0.1974341030614254,0
149,2024-09-16 20:40:43.233177979,0,006,-0.3171143167964557,-0.28864980492178827,-0.5199699878198142,0.2504218391853715,0.1609407562808931,-0.07974714021123071,0.022355950716086762,-0.18464835410726635,0
150,2024-09-16 20:40:43.307126953,0,006,-0.3327471522716255,-0.2671551088060281,-0.8364384024758322,0.3138213943610607,0.1352711308349621,-0.06816569464718067,0.017693080629048855,-0.17266440188523138,0
151,2024-09-16 20:40:43.369887207,0,006,-0.3409581442652231,-0.24345357493928513,-1.1242324437618847,0.36836480340679223,0.11023631603339712,-0.05636209475749632,0.04925034504643774,-0.1626656398722365,0
152,2024-09-16 20:40:44.313994873,0,006,-0.34234296828184296,-0.21726551389298882,-1.3780699789049677,0.4123596950888215,0.08544304487747859,-0.044314382658674,0.11601978721556333,-0.15562658333500196,0
153,2024-09-16 20:40:44.386339844,0,006,-0.3379008613988952,-0.1883798801111569,-1.5945899745107441,0.4447497784014428,0.0604141118599383,-0.03196423642418062,0.21393162773270316,-0.15210613794692882,0
154,2024-09-16 20:40:44.452047119,0,006,-0.3289316455078985,-0.15668536139966366,-1.7720247549086883,0.46512975992964484,0.03465962264742452,-0.01924019344835451,0.33605634101702536,-0.15210432257829976,0
155,2024-09-16 20:40:44.516577881,0,006,-0.3169149933730703,-0.12219093362638109,-1.9099585301867665,0.47369147996119726,0.007712119835358037,-0.00607560078158764,0.47325181159810503,-0.1550316875366118,0
156,2024-09-16 20:40:44.588520020,0,006,-0.3034050001192543,-0.08503029486125883,-2.0093195932371173,0.47114898886565976,-0.020863908424440143,0.007581228264728405,0.6151351874420492,-0.15980223276615968,0
157,2024-09-16 20:40:44.657246094,0,006,-0.28996384627329613,-0.045450252781271364,-2.0725661306974086,0.45868074207437337,-0.05144700140753421,0.021759509938387312,0.7511905717523554,-0.1650326522326598,0
158,2024-09-16 20:40:44.723424805,0,006,-0.2781211205581279,-0.003793534702858721,-2.103863086965979,0.43790112487077415,-0.08429071540277812,0.03645731821377007,0.8717895813142694,-0.1692903479817028,0
159,2024-09-16 20:40:45.628483887,0,006,-0.2693276235668058,0.03951137809779622,-2.1090519609440377,0.4108440927627378,-0.11942181551560432,0.05162990026097909,0.9689379695906146,-0.1713147272933231,0
160,2024-09-16 20:40:45.706589844,0,006,-0.26489559537217283,0.08395200699172223,-2.0953482327885316,0.3799164713768817,-0.15654585270466184,0.06717459662282457,1.036732286001176,-0.17017713754675554,0
161,2024-09-16 20:40:45.768119141,0,006,-0.2659339207910619,0.12893360549654434,-2.070802290010866,0.3477829644926244,-0.1950133269471264,0.08291734087003898,1.0716273936200855,-0.16537902696727794,0
162,2024-09-16 20:40:45.845395996,0,006,-0.2732720387973886,0.17378795315412995,-2.0435999396090923,0.31718054849065236,-0.2338791976831921,0.0986103914042786,1.0725329133021568,-0.15687164673485765,0
163,2024-09-16 20:40:45.914728027,0,006,-0.2873596709901311,0.217792250922288,-2.021318663595513,0.29069222249756366,-0.27204096200507355,0.11394750389365295,1.040674452571939,-0.1449813886004229,0
164,2024-09-16 20:40:45.969263916,0,006,-0.30815655115534907,0.2602001825565455,-2.010276855656242,0.27051682466932864,-0.30839912068045333,0.1285935315744466,0.9792081356419127,-0.13027271482793268,0
165,2024-09-16 20:40:46.047370850,0,006,-0.3350607028097487,0.3002839841507131,-2.0150677977200786,0.2582657859576876,-0.34198065496956237,0.14221910928194365,0.8926461060076188,-0.11340448611868724,0
166,2024-09-16 20:40:46.988045898,0,006,-0.3669251517332657,0.3373790943255849,-2.03830501452308,0.2548217907089102,-0.37200027093250626,0.1545313024458487,0.7861974092313752,-0.09500993203180705,0
167,2024-09-16 20:40:47.050873047,0,006,-0.40217160853535294,0.3709204254872558,-2.0805920766561186,0.2603009140405072,-0.39787245192646087,0.16529465369419333,0.6651947959018569,-0.07561497087305667,0
168,2024-09-16 20:40:47.128163086,0,006,-0.4389597434515978,0.4004665328117607,-2.1407134827554883,0.27413427012526675,-0.4192006297651647,0.17434153171453615,0.5347724646236565,-0.055615988305406455,0
169,2024-09-16 20:40:47.196899902,0,006,-0.47535570859062676,0.42571540530644236,-2.215959656239953,0.29522769038497115,-0.435761830074275,0.18157508918251733,0.3998091221230184,-0.03532059036029152,0
170,2024-09-16 20:40:47.264617920,0,006,-0.5094691909426579,0.446513835895491,-2.3024606873285864,0.32212783492002495,-0.44749335125065515,0.18696891925153278,0.2649792794689592,-0.015018213969817448,0
171,2024-09-16 20:40:47.332379883,0,006,-0.5395565512836249,0.46285579482638073,-2.3954870198398477,0.35315576726766906,-0.4544785384037833,0.19056420146805358,0.13473931849100998,0.004957172457339119,0
172,2024-09-16 20:40:47.390234863,0,006,-0.5640934731659798,0.47486390142219387,-2.489752272236693,0.3865171297577792,-0.4569256311844038,0.1924629146270674,0.013235275896697943,0.024173135336679304,0
173,2024-09-16 20:40:48.333362061,0,006,-0.5818229456655363,0.48275572380986564,-2.579747053044116,0.4204070187224262,-0.45513959767341006,0.19281697946996162,-0.09575836232690316,0.04203700462928782,0
174,2024-09-16 20:40:48.411048828,0,006,-0.5917930314251691,0.48680712253922254,-2.6600846640442857,0.4531039426309975,-0.44949426923142927,0.1918159784114041,-0.18885276965461847,0.05775100966955759,0
175,2024-09-16 20:40:48.473048828,0,006,-0.5933990866585344,0.4873279147222216,-2.725776352426102,0.4830276779241874,-0.440415689935047,0.18967809730157537,-0.2630955200325737,0.07033889322494516,0
176,2024-09-16 20:40:48.546627930,0,006,-0.5864360062011882,0.4846569895584268,-2.772350129231987,0.5087453809040795,-0.4283858475299219,0.18664687368407554,-0.3160477774556167,0.07876040439450427,0
177,2024-09-16 20:40:48.613066895,0,006,-0.571147671972524,0.47916932135289597,-2.795828785665329,0.5289393605258638,-0.4139644859654921,0.18298982087165436,-0.34580177358886544,0.08208212111092444,0
178,2024-09-16 20:40:48.675938965,0,006,-0.5482376313084615,0.4712764647381023,-2.792663097991481,0.5423657993733706,-0.3978085818889451,0.17899036488796524,-0.35093795717154613,0.07965815146762824,0
179,2024-09-16 20:40:48.736545166,0,006,-0.5188153454778291,0.46140749789198926,-2.7596826784703303,0.5478345229130813,-0.3806599929641258,0.17492735965323997,-0.3305033595190475,0.07127728145870776,0
180,2024-09-16 20:40:49.689542969,0,006,-0.4843002814030474,0.449977689599902,-2.694077653154281,0.5442443642366481,-0.36328602439493957,0.17104561310116484,-0.28409521478836813,0.0572540728115053,0
181,2024-09-16 20:40:49.751868896,0,006,-0.4463226828746062,0.43736562267364626,-2.593412294564646,0.5306945748158631,-0.34638947477528775,0.1675291647524678,-0.21208922341627753,0.038464505300100704,0
182,2024-09-16 20:40:49.828441895,0,006,-0.4066197993897144,0.42391142209406935,-2.4556376741252772,0.5066403931586708,-0.3305315051194023,0.16448845216637986,-0.11595987995725247,0.01632991300621576,0
183,2024-09-16 20:40:49.896821045,0,006,-0.3668973297741325,0.40993135976188777,-2.2791000557375987,0.47202562253573216,-0.31610957576077486,0.16196432096160873,0.0014088773151113047,-0.007242731808416851,0
184,2024-09-16 20:40:49.964218994,0,006,-0.32865392398844906,0.39573457393977546,-2.0626955410201275,0.4273545642530107,-0.30339609761828584,0.15994449092491747,0.13547155631318306,-0.029944994165163077,0
185,2024-09-16 20:40:50.032330078,0,006,-0.2930185048867784,0.3816291225627536,-1.8063376965519153,0.3737094910446393,-0.29259974448333265,0.15838481793854112,0.2798635961339307,-0.0491726604470149,0
186,2024-09-16 20:40:50.094483887,0,006,-0.2606697715111591,0.36791474701420973,-1.5116425826092503,0.3127217529655216,-0.28390399717914255,0.15722762113743072,0.426477442315619,-0.06219225707491477,0
187,2024-09-16 20:40:51.044113037,0,006,-0.23187093024168248,0.3548725874728109,-1.1825080659042664,0.24648623575424405,-0.2774670139763612,0.1564131136794389,0.5659337914865691,-0.06640900585711292,0
188,2024-09-16 20:40:51.107000977,0,006,-0.20659099188869626,0.34276510882581884,-0.8253468942147019,0.17740980160058642,-0.27339616582830867,0.15588585821250706,0.6884259527646992,-0.05970528417321895,0
189,2024-09-16 20:40:51.165094971,0,006,-0.1846470723895604,0.33184777832489354,-0.4489962773455367,0.10801334716664496,-0.2717185577944029,0.15560095666535492,0.7847348944511202,-0.04075953781246905,0
190,2024-09-16 20:40:51.247353027,0,006,-0.16580759441654502,0.3223796357091863,-0.06443024794799623,0.04073521913145144,-0.27236449409988794,0.1555326130497081,0.8472212688153343,-0.009276671172338791,0
191,2024-09-16 20:40:51.302620117,0,006,-0.1498360233602208,0.314617428513374,0.31577438252087753,-0.02223072972317454,-0.27517560280927617,0.15568396276721783,0.8706670759991909,0.03390222788273783,0
192,2024-09-16 20:40:51.380322998,0,006,-0.13649973958695366,0.3087889726348854,0.6783851799185,-0.07906578098220805,-0.2799403677642263,0.1560944273086042,0.85281130593277,0.08684416463209016,0
193,2024-09-16 20:40:51.442387207,0,006,-0.12557728816725047,0.3050564360108473,1.0108097252482358,-0.1284344111053679,-0.28644700541464707,0.1568408676329015,0.794406529375336,0.14674097217257698,0
194,2024-09-16 20:40:52.391822021,0,006,-0.1168765069449227,0.3034886718810205,1.3023459819320864,-0.16955463853295183,-0.29453638097211576,0.15803087354132625,0.6987641557493377,0.2102547856946736,0
195,2024-09-16 20:40:52.459535889,0,006,-0.11026649186046907,0.3040577272809466,1.544956171545702,-0.20219834049294697,-0.3041395258242771,0.15978758944346838,0.5709788304162543,0.27390286991249535,0
196,2024-09-16 20:40:52.526716064,0,006,-0.1057251810791785,0.3066606249809881,1.7334091925004425,-0.2266039080544176,-0.3152926954194218,0.1622266990453126,0.4171399859922649,0.33440953096802956,0
197,2024-09-16 20:40:52.594983887,0,006,-0.10338937903215234,0.311152233638755,1.864975355446044,-0.24332483779079783,-0.3281239263439657,0.16542923312036736,0.24377169372494853,0.38899411295817304,0
198,2024-09-16 20:40:52.662164062,0,006,-0.10358245258984862,0.31736872869875565,1.939026228447257,-0.2530676012274741,-0.3427878031286369,0.16941403135485988,0.057569686512058404,0.435580596129346,0
199,2024-09-16 20:40:52.730294922,0,006,-0.10680741068762092,0.32512957208390025,1.9567941154335553,-0.2565667799320564,-0.3593245708626372,0.1741114201812023,-0.1346478732975724,0.4729081555879163,0
200,2024-09-16 20:40:52.797815918,0,006,-0.1137065306127656,0.3342222601989046,1.9212610390773575,-0.25451810846677886,-0.37747500407549084,0.17934284742994544,-0.3259392003571552,0.5005254378775144,0
201,2024-09-16 20:40:53.718188965,0,006,-0.12498140243874961,0.3443842355361743,1.8369643965469695,-0.24756620934514548,-0.3965510447692657,0.1848175310689506,-0.5093412104754141,0.5186833074734893,0
202,2024-09-16 20:40:53.786041992,0,006,-0.14126216388011256,0.3552950723605936,1.7096470035171556,-0.23633477592281665,-0.4154591810475444,0.19015465636652104,-0.6781438898232789,0.5281787982244056,0
203,2024-09-16 20:40:53.853738037,0,006,-0.1629348395449275,0.36658367074975406,1.5459114406369976,-0.22147902595254607,-0.4328861004956512,0.19492700955853448,-0.8263251930683495,0.53020463404076,0
204,2024-09-16 20:40:53.921464111,0,006,-0.18996725506931902,0.37784552735331833,1.3529689517371548,-0.20372216642600563,-0.4475613578303545,0.19871177509458487,-0.9490901780171086,0.5262235939393222,0
205,2024-09-16 20:40:53.989211914,0,006,-0.22178814388854942,0.38865906164263075,1.1383483596543957,-0.18383655212934716,-0.45848313929274714,0.20113446657068568,-1.0433964036246306,0.5178541819890566,0
206,2024-09-16 20:40:54.054672119,0,006,-0.25726227937770874,0.3985917394238529,0.9094831345168988,-0.16257589742365677,-0.4650329816129142,0.20189794466991814,-1.108282976728116,0.5067423099593121,0
207,2024-09-16 20:40:54.124708984,0,006,-0.2947808296221392,0.40719776874970054,0.6733084068698004,-0.14061339405287515,-0.4669740900860474,0.20079566890628645,-1.1448468990729168,0.4944036705016186,0
208,2024-09-16 20:40:55.064228027,0,006,-0.3324498271440124,0.41402020371169385,0.4359999804160461,-0.11852568796089108,-0.4643795868136696,0.19771484445962648,-1.1558532112393975,0.4820567984568929,0
209,2024-09-16 20:40:55.136046875,0,006,-0.368315096749683,0.4186084153390597,0.2028331289697644,-0.09680860267033509,-0.45753716965055935,0.1926351361775076,-1.1451104225026953,0.4705009176740889,0
210,2024-09-16 20:40:55.203618896,0,006,-0.40055706130515656,0.4205499307485861,-0.021958845173743975,-0.07587848721356076,-0.44684843357671755,0.18562304137523938,-1.1167704732121089,0.4600787839900126,0
211,2024-09-16 20:40:55.271533936,0,006,-0.42763701421981754,0.4195053351987845,-0.23543024237464097,-0.05601574211710149,-0.4327348324516982,0.17682014171526192,-1.0746881771803511,0.4507154471587146,0
212,2024-09-16 20:40:55.339125000,0,006,-0.4484139823458742,0.41523088819194287,-0.4362292164844022,-0.03724530586558518,-0.4155702350204027,0.16642562867848343,-1.0220037398750148,0.44200196225262156,0
213,2024-09-16 20:40:55.404077148,0,006,-0.46223903594517307,0.40757871942473073,-0.6247790656917982,-0.019205250523693543,-0.39565212395841126,0.1546744618787475,-0.9610716141273568,0.433304174627304,0
214,2024-09-16 20:40:55.474728027,0,006,-0.4690080746377313,0.3964789150664837,-0.8031790301283255,-0.001078275852612314,-0.37321184305843663,0.14181370156683376,-0.8936637063625265,0.42387671398134846,0
215,2024-09-16 20:40:56.412132080,0,006,-0.46915260719266705,0.3819190433279767,-0.9747359528673899,0.0183523112956559,-0.34845812287028655,0.12808123207746658,-0.8212153286527178,0.4129519997532932,0
216,2024-09-16 20:40:56.485611816,0,006,-0.463560153603477,0.36393267220960646,-1.14306577752209,0.0404925982694152,-0.32163373958144426,0.11369009920027494,-0.744896743246486,0.39978398293467976,0
217,2024-09-16 20:40:56.552198975,0,006,-0.4534245181387627,0.3425944222053114,-1.3109153559844349,0.06661721237189727,-0.29305315688484357,0.09882007298198037,-0.6654679799454684,0.38366359664646366,0
218,2024-09-16 20:40:56.621450928,0,006,-0.440043980421403,0.31801091997993575,-1.4791633380428508,0.09756189630212204,-0.2630955655470142,0.08361652540523425,-0.5831333887214626,0.36395697179569947,0
219,2024-09-16 20:40:56.677015137,0,006,-0.42461334898496605,0.2903032523945785,-1.6464338102428941,0.13355411928742594,-0.23214467551101403,0.06819183794771455,-0.49769470256816223,0.3401973297870864,0
220,2024-09-16 20:40:56.754400879,0,006,-0.40806332080217383,0.259590839894191,-1.8093659587944857,0.17421450031485555,-0.20049132584819113,0.05262197247390229,-0.40905768507828966,0.31220159437764683,0
221,2024-09-16 20:40:56.824688965,0,006,-0.3909783702774238,0.22599500991945431,-1.9632316444830096,0.21865691600611042,-0.16824405259023048,0.036938579536692134,-0.3178629619444824,0.2801628167869232,0
222,2024-09-16 20:40:57.733774902,0,006,-0.3735956554701052,0.18967389556489428,-2.102573463917632,0.2655878104941291,-0.13529979606276543,0.021127201761202027,-0.225970079216092,0.24469551416048987,0
223,2024-09-16 20:40:57.811064941,0,006,-0.3558644554526513,0.15088197255694297,-2.221770235052343,0.31337537171377083,-0.10139820088464999,0.005141031646147303,-0.13664091293032923,0.2068234048449099,0
224,2024-09-16 20:40:57.878755127,0,006,-0.33752863153980756,0.11003030581030787,-2.3156021523319255,0.3601345257917395,-0.06623992752496827,-0.011071772029303904,-0.054391922314784284,0.1679046943730884,0
225,2024-09-16 20:40:57.939805908,0,006,-0.3181965238899233,0.06771977413627937,-2.3798133419745247,0.4038636886494133,-0.02962304344701454,-0.0275378146083267,0.01540835045032044,0.129519243012672,0
226,2024-09-16 20:40:58.014170898,0,006,-0.29738367652754,0.024732384264768946,-2.4115345384676323,0.4426099826702498,0.008441756862717732,-0.04423257956891604,0.06706281549916221,0.09335664770231555,0
227,2024-09-16 20:40:58.081864990,0,006,-0.2745272054278522,-0.018014207053838823,-2.4094597900584707,0.474616776084351,0.047648288517294135,-0.06105723336149117,0.09508652343084752,0.06111519744552779,0
228,2024-09-16 20:40:58.149553955,0,006,-0.24897782347205263,-0.059531017363728345,-2.3738233345655293,0.49843092854582893,0.08734148686609008,-0.07781625038912289,0.09475010102485101,0.034389398487230924,0
229,2024-09-16 20:40:59.093470215,0,006,-0.21999514829175468,-0.09882248379134499,-2.3062816068741787,0.5129689084234277,0.12650380996564983,-0.09420332554739834,0.06267267053723223,0.01452948501403382,0
230,2024-09-16 20:40:59.161233887,0,006,-0.1867808686593444,-0.134939769532666,-2.209719289408938,0.5175389982523767,0.16379807730035828,-0.10980578231350825,-0.0025612218356866096,0.002488560623066312,0
231,2024-09-16 20:40:59.228201904,0,006,-0.14856400783480148,-0.16701872456895367,-2.0879588042846153,0.511818553152293,0.19766050511767821,-0.12412806545687177,-0.09992970698142511,-0.0012999886236468973,0
232,2024-09-16 20:40:59.296681885,0,006,-0.10472916416133757,-0.1943044478485727,-1.9454535252884437,0.4958101316690137,0.22641780320271931,-0.13662641445357648,-0.22583649675682277,0.0030338674106542693,0
233,2024-09-16 20:40:59.364412109,0,006,-0.054969751104251306,-0.21616524884396757,-1.787070318369949,0.46981351353667855,0.2484134578540003,-0.14674836217257017,-0.3743803709370376,0.014853913967829795,0
234,2024-09-16 20:40:59.428531982,0,006,0.000560442681282119,-0.23209807603875895,-1.6179045700784873,0.43441965919025327,0.2621457653108445,-0.15397439917554787,-0.5379673122651235,0.03314334162709086,0
235,2024-09-16 20:40:59.490101074,0,006,0.061138908368240735,-0.24173108696963883,-1.443001081983689,0.3904960535220333,0.2664153460035653,-0.15785808185781985,-0.7080931747321133,0.05663596408625695,0
236,2024-09-16 20:41:00.443453125,0,006,0.1254539792965471,-0.24483227177264416,-1.2670378632697266,0.3391439832593173,0.26046488508986754,-0.15806026112366894,-0.8760954257048477,0.08391503867841157,0
237,2024-09-16 20:41:00.511178955,0,006,0.1916992141749857,-0.24132818939912007,-1.09417828131301,0.28164549661440197,0.2440831907913454,-0.15437505539455273,-1.0337765124881924,0.11349026748008958,0
238,2024-09-16 20:41:00.578974121,0,006,0.25777623546542106,-0.23132681827294843,-0.9281913604135799,0.2194279946859235,0.21764169554022578,-0.1467444667319419,-1.1739283314174191,0.1438905737553158,0
239,2024-09-16 20:41:00.646645996,0,006,0.32155773303406004,-0.2151309625706951,-0.7727529926338941,0.15405863312236728,0.18204780461400386,-0.13525779390565687,-1.2907964181989842,0.17379183415374833,0
240,2024-09-16 20:41:00.704756104,0,006,0.38113558224194594,-0.19322851683103914,-0.6317459115260711,0.08726088447980247,0.13863096956130364,-0.12013710035522548,-1.3804533644001802,0.202144895308954,0
241,2024-09-16 20:41:00.781326904,0,006,0.43498916089146955,-0.16625413928284585,-0.5093792337216293,0.02092574703740985,0.08899587643386635,-0.10171625181066118,-1.4409913628461501,0.22823703845362275,0
242,2024-09-16 20:41:00.849974121,0,006,0.4820457676810595,-0.13493010743026607,-0.4100753516758822,-0.04291063741818308,0.03488160099586457,-0.08042170067192704,-1.47243519765293,0.2516546407024493,0
243,2024-09-16 20:41:01.793691895,0,006,0.5216445201662918,-0.10000488372372053,-0.3382633805530442,-0.10212171637479223,-0.021937500713697614,-0.056758574858758036,-1.476355514055448,0.2721810995164752,0
244,2024-09-16 20:41:01.850963135,0,006,0.553438047446831,-0.06220769944569094,-0.2982798546289625,-0.15455029390548844,-0.07970192871159178,-0.03129821093699554,-1.4552685067096711,0.2896884215873702,0
245,2024-09-16 20:41:01.929135010,0,006,0.5772732322956777,-0.022226513730622125,-0.29440821852001814,-0.198059973137846,-0.13670350549038945,-0.004657707801184942,-1.411979029208822,0.30405455158736694,0
246,2024-09-16 20:41:01.996860107,0,006,0.5930987319516946,0.019295250484157193,-0.3307901401861926,-0.23061338740444734,-0.19135186301738527,0.02253522174623325,-1.3490803839962087,0.31511762187215375,0
247,2024-09-16 20:41:02.052594971,0,006,0.60094408408738,0.061754423982113955,-0.4108279045483788,-0.2504414541275539,-0.24228329315573116,0.04969000725951528,-1.2687857855842002,0.32267610614005726,0
248,2024-09-16 20:41:02.130153809,0,006,0.6009804364711513,0.1045877824290643,-0.5360184017633931,-0.2563213340975144,-0.28849128927337764,0.07630533266440237,-1.173088610622361,0.3265239602125763,0
249,2024-09-16 20:41:02.191310791,0,006,0.5936206624595063,0.14728089302997205,-0.7046632614103207,-0.24787897024734346,-0.3294408666256053,0.10201507136167115,-1.0641078074948493,0.32648129534440434,0
250,2024-09-16 20:41:03.137286865,0,006,0.5795887282295228,0.1893822349190604,-0.9110552487938091,-0.2257794724447052,-0.36512568881455115,0.1266157185443227,-0.9444597922127218,0.3223896107732004,0
251,2024-09-16 20:41:03.211590088,0,006,0.5599078280387332,0.23051407037441085,-1.1454073498638,-0.19173527478175684,-0.3960393445198219,0.1500642120139875,-0.8174985422238276,0.3140808034819107,0
252,2024-09-16 20:41:03.278270996,0,006,0.5358092781263398,0.27037452806234075,-1.394378750709724,-0.14837170224418908,-0.42305704269749017,0.17244315215993403,-0.6872881989582789,0.3013570975065363,0
253,2024-09-16 20:41:03.347033936,0,006,0.5086087676148469,0.30873279339706566,-1.6419629455222438,-0.09902188156023982,-0.447256500179371,0.19390370401532794,-0.5583250796014303,0.2840244978219579,0
254,2024-09-16 20:41:03.400708984,0,006,0.4796006768609414,0.3454241327146583,-1.8706271843693822,-0.047487459047663064,-0.4697324237722884,0.2146067450100262,-0.4351936531293746,0.26201117592135365,0
255,2024-09-16 20:41:03.482498047,0,006,0.44998927233029984,0.380348890226662,-2.0626295162089363,0.002220979501290092,-0.49145511450964074,0.23468139387726505,-0.32232028405068436,0.235561510899149,0
256,2024-09-16 20:41:03.539364014,0,006,0.420844032640103,0.4134722340501474,-2.2013990173592894,0.046150568485802235,-0.5131918432924377,0.25420807239312404,-0.22385611146076537,0.20544244543422735,0
257,2024-09-16 20:41:04.462979980,0,006,0.39306659818123246,0.4448157690495345,-2.272891778597192,0.08067646287894438,-0.5354753677065223,0.27321917897837456,-0.1436333169720538,0.17307369467521336,0
258,2024-09-16 20:41:04.536458008,0,006,0.36737540513650335,0.4744332826754623,-2.26686132975274,0.10277609242291913,-0.5585915370121226,0.29170227743544264,-0.08507548918772516,0.14050806912300778,0
259,2024-09-16 20:41:04.604201172,0,006,0.34431063334696344,0.5023727349830301,-2.1778947100395443,0.11028110424672125,-0.5825757495290016,0.3095958348124092,-0.05094104608394453,0.11024019788437729,0
260,2024-09-16 20:41:04.664999023,0,006,0.3242413706816469,0.528638253958728,-2.006002501781694,0.10205931978909719,-0.6072307933482309,0.32678228501037526,-0.04290844479696078,0.0848937251050345,0
261,2024-09-16 20:41:04.739648193,0,006,0.30736422966731947,0.5531671129631733,-1.7566439897177946,0.07809690196659906,-0.6321747742434846,0.3430900043655731,-0.06113943838627934,0.06687566430533323,0
262,2024-09-16 20:41:04.805020996,0,006,0.29371278833549624,0.5758267243783589,-1.4402226690910405,0.03947693710615222,-0.6569097520140424,0.3583086438231406,-0.10397333454724414,0.05807448654594098,0
263,2024-09-16 20:41:04.867086914,0,006,0.283196343887472,0.5964266239795241,-1.0712066837402159,-0.01173927339630018,-0.6808939627134535,0.3722133873149744,-0.16785169979809297,0.05964600169542084,0
264,2024-09-16 20:41:05.803541992,0,006,0.27565329713350034,0.614736335547784,-0.6670334760241371,-0.07271240213949393,-0.7036000627703286,0.3845907851308355,-0.24748099280311175,0.07189527946278679,0
265,2024-09-16 20:41:05.880294189,0,006,0.27089365938208254,0.6305006541296094,-0.2468507082267128,-0.14008019327985655,-0.7245468684400339,0.3952598021674996,-0.3361664540500803,0.09423904635924311,0
266,2024-09-16 20:41:05.941907959,0,006,0.26872754165950313,0.6434491180505784,0.16985737882408022,-0.21023414568466967,-0.7433053592749773,0.4040851662411321,-0.4262408263075032,0.12523629640863843,0
267,2024-09-16 20:41:06.019592041,0,006,0.2689888673730372,0.6533045145067593,0.564580388193202,-0.2795836317709194,-0.7594878611138504,0.41098454289577324,-0.509530732720812,0.16268859244617526,0
268,2024-09-16 20:41:06.081589844,0,006,0.27155545866166475,0.6597983879493668,0.9208488437542064,-0.3447928175644051,-0.772729070350299,0.41593376473321,-0.5778510372800766,0.20381370441482585,0
269,2024-09-16 20:41:06.143299072,0,006,0.27636257064588016,0.6626956227913938,1.2250374223515292,-0.4029992676985794,-0.7826717251957311,0.41897395049141134,-0.6235745718781597,0.24548514089855944,0
270,2024-09-16 20:41:06.225373047,0,006,0.2834087745032255,0.6618215632823504,1.4669918822150165,-0.4520088373148401,-0.7889702771775831,0.4202190238102067,-0.6402988751294568,0.28451200522979486,0
271,2024-09-16 20:41:07.168844971,0,006,0.29275180365247827,0.6570817479532981,1.6405213124878213,-0.4904272713494599,-0.791309689430864,0.4198540719718598,-0.6235396126616066,0.3179177596835339,0
272,2024-09-16 20:41:07.231831055,0,006,0.3044876437214064,0.648468931754788,1.7436641170628904,-0.517687714171024,-0.7894249188404918,0.41811523324125666,-0.5713109782542928,0.3431737403415059,0
273,2024-09-16 20:41:07.304341064,0,006,0.3187055568524303,0.6360609007460366,1.7785717585032992,-0.5339697383770056,-0.7831186736428958,0.4152543658251552,-0.4844308703098624,0.3583601963602822,0
274,2024-09-16 20:41:07.372050049,0,006,0.3354266251489564,0.6200172029894182,1.7509832073156297,-0.5400473301035735,-0.7722847997235368,0.4115026374506767,-0.3664339292624896,0.362256300372115,0
275,2024-09-16 20:41:07.431991211,0,006,0.3545499607258924,0.6005794711653828,1.6694570733276592,-0.5371182511455084,-0.7569336723995458,0.4070451059057436,-0.22308225440285584,0.35438092103387325,0
276,2024-09-16 20:41:07.494477051,0,006,0.37581984830009213,0.5780723898951762,1.5445429056150688,-0.5266468456201345,-0.7372062852550068,0.4020097625173045,-0.06157190249801628,0.33500208071395216,0
277,2024-09-16 20:41:07.575252930,0,006,0.3987998753552236,0.5528967540836257,1.3879341917677577,-0.5102230844051143,-0.7133660076258248,0.3964685199188686,0.11039393671901297,0.30510381545381166,0
278,2024-09-16 20:41:08.494023193,0,006,0.4228325027008138,0.5255084785492261,1.2115834286955676,-0.48942975362891317,-0.6857661186808652,0.3904455313612432,0.28546425476142234,0.26628218633392536,0
279,2024-09-16 20:41:08.555049805,0,006,0.4469845455282206,0.49638814170477635,1.026856590377071,-0.4657215952321713,-0.6548120798221928,0.38392943191885015,0.45724356895580676,0.22057588682383283,0
280,2024-09-16 20:41:08.617049072,0,006,0.47000953160206266,0.4660149280237513,0.84389501758091,-0.4403388526409712,-0.6209540950000672,0.37688931882253446,0.6205217268557629,0.17028400711764058,0
281,2024-09-16 20:41:08.694210938,0,006,0.4903677852016183,0.43485686114078165,0.6712739948965817,-0.41427526414209265,-0.5847303452335552,0.3692956420095232,0.7711453878247228,0.11783059577865891,0
282,2024-09-16 20:41:08.764954102,0,006,0.5063291376847715,0.40337720552221384,0.5158874993688788,-0.3882931523740813,-0.5468418322290568,0.36114413580794047,0.9056921124657045,0.06570452029036664,0
283,2024-09-16 20:41:08.832585938,0,006,0.5161559281864053,0.3720446458293459,0.38293384193654423,-0.36295885540375294,-0.5082055009269899,0.352476311810765,1.0212065471578502,0.016450928874713208,0
284,2024-09-16 20:41:08.900344971,0,006,0.5183291742700845,0.3413318767272272,0.2759593684200374,-0.3386845673633711,-0.46993151682490275,0.3433889763628562,1.1152232525976034,-0.027355873806528912,0
285,2024-09-16 20:41:09.833960938,0,006,0.5117529832802519,0.3116959649034883,0.19701017350851457,-0.3157864007357188,-0.4332139568849473,0.33402867808032,1.1860762531730267,-0.06322776586045555,0
286,2024-09-16 20:41:09.910962158,0,006,0.4958824058081191,0.28354759166560206,0.1469144066177849,-0.29456245597399827,-0.39917982948223746,0.3245718150070218,1.2332449091139441,-0.08898583492275115,0
287,2024-09-16 20:41:09.973020996,0,006,0.4707622504220449,0.2572242056925725,0.12561694646856314,-0.2753604494771982,-0.36875957500021855,0.3151949445507192,1.2574862617195184,-0.10305361983947943,0
288,2024-09-16 20:41:10.046430176,0,006,0.43700224987477665,0.23297791988650715,0.13244667695632142,-0.25859011367255585,-0.3426123768800156,0.306042834292639,1.260741598787082,-0.10475089166687673,0
289,2024-09-16 20:41:10.114160156,0,006,0.39572783548917256,0.21097703493465453,0.1661952437454004,-0.24466058962826814,-0.3211004279893478,0.29720337279883563,1.2459569865590405,-0.09450739973763797,0
290,2024-09-16 20:41:10.173062012,0,006,0.34853589775280425,0.1913110664364821,0.22488995331931683,-0.2338583345494113,-0.30429424577834635,0.28869477666360666,1.2168855489684627,-0.07392419791709313,0
291,2024-09-16 20:41:10.234595947,0,006,0.2974582335526555,0.1739904040635752,0.30528255007420485,-0.22620744443983115,-0.2919990561206784,0.28046350217210675,1.17784594034096,-0.04565017088655866,0
292,2024-09-16 20:41:11.193085938,0,006,0.24490330087933254,0.15894259671994027,0.4023359449527815,-0.2213664511383915,-0.283797358413675,0.2723899936137988,1.1334340171404813,-0.013098103940170672,0
293,2024-09-16 20:41:11.246416992,0,006,0.19353180806189044,0.14601717163217764,0.5090717309486843,-0.21860271950193733,-0.2791016632968708,0.264303009591321,1.0882236877299334,0.019940242353088222,0
294,2024-09-16 20:41:11.323208984,0,006,0.14605008812687081,0.1350081683820838,0.616932742512299,-0.21685541302429664,-0.27721392784254467,0.2560030775106614,1.0464632141362014,0.04971456497595966,0
295,2024-09-16 20:41:11.396266846,0,006,0.10496397168482814,0.12569145686559843,0.7165710179455457,-0.21487416704814605,-0.27739676610712216,0.2472929217295861,1.0117326174214085,0.07291267326284422,0
296,2024-09-16 20:41:11.462804199,0,006,0.07236650858254963,0.11786406541565937,0.7988713287628701,-0.21141015747778166,-0.27895666578933637,0.23801061579917634,0.9865631946516156,0.0869840064982349,0
297,2024-09-16 20:41:11.531738037,0,006,0.04980636479673974,0.11136941340008348,0.8559890140334435,-0.20542662419298915,-0.2813131801143597,0.2280564832866478,0.9721228937495491,0.09035317189289574,0
298,2024-09-16 20:41:11.599487061,0,006,0.03823290572412406,0.10609711068196549,0.8821506859230235,-0.19627823881940792,-0.28401952885791804,0.21740321908642612,0.9681329356936392,0.08250053720835239,0
299,2024-09-16 20:41:12.543334961,0,006,0.03798068265222721,0.10196052720152747,0.8740312925812678,-0.18380312625449932,-0.2867332023475832,0.20608817453529527,0.9731219451965544,0.06389895810498519,0
300,2024-09-16 20:41:12.598270020,0,006,0.04875776542040028,0.09887065295613919,0.8307238919658322,-0.16830396899191577,-0.28916890491816155,0.19419682636683067,0.9849667886102124,0.03581505141263156,0
301,2024-09-16 20:41:12.676377930,0,006,0.0696351385978064,0.09672634519955879,0.7534637595223663,-0.1504447049870257,-0.2910671493025506,0.1818466912857696,1.0015075993751825,2.352226353520342e-05,0
302,2024-09-16 20:41:12.738864014,0,006,0.09906756770109977,0.09542797378052684,0.6452341992117425,-0.13111127598193956,-0.29219446857588866,0.1691773916454409,1.0209941388498927,-0.04148001554193901,0
303,2024-09-16 20:41:12.814315186,0,006,0.13497039520860607,0.09490661252621424,0.5103186854177054,-0.11126987889865722,-0.2923678967983422,0.15634924648680196,1.0422569941899653,-0.086689199731841,0
304,2024-09-16 20:41:12.878552002,0,006,0.17484340263104264,0.09515200975143853,0.35386080624605276,-0.09183581909087726,-0.29147312584551105,0.14354687921354148,1.0646371135741834,-0.13369023325042226,0
305,2024-09-16 20:41:12.949827881,0,006,0.2159265858597399,0.09621970536564922,0.18149416315138,-0.0735700652267427,-0.2894456760993215,0.1309796073005147,1.087740480576763,-0.18067756813618305,0
306,2024-09-16 20:41:13.881083008,0,006,0.25538617862518587,0.09820743506890772,-0.0009028545006585135,-0.0570347639774073,-0.2862181157365503,0.1188730654566225,1.1111050700393024,-0.2259213270765156,0
307,2024-09-16 20:41:13.961083008,0,006,0.2905157244062654,0.10121358660847092,-0.1873107488152938,-0.042624811722630676,-0.28167074618012194,0.10745350753846264,1.133895731108947,-0.26772518811970414,0
308,2024-09-16 20:41:14.028793213,0,006,0.3189239728774398,0.10530321321017286,-0.3715997750974143,-0.03064991257135054,-0.27561995798593186,0.09692942948797083,1.1546798006019972,-0.3044052067509107,0
309,2024-09-16 20:41:14.095544189,0,006,0.3386998569946239,0.11049531798841418,-0.547616387108119,-0.02140796837502524,-0.26784992819275133,0.08747430848158447,1.1712473480585033,-0.3343034513792929,0
310,2024-09-16 20:41:14.162694824,0,006,0.34855043441141204,0.1167660397942674,-0.7094373671221345,-0.015198965435886662,-0.25817215868853066,0.07921423861350795,1.1804549101367598,-0.35583168598628506,0
311,2024-09-16 20:41:14.222345947,0,006,0.34788617742388095,0.12405535963288611,-0.8518064270836894,-0.012280884542490742,-0.24648812428191966,0.07222367110148452,1.1781670888196523,-0.3675346842760469,0
312,2024-09-16 20:41:14.299735107,0,006,0.33682325223456816,0.13226866869556247,-0.9706140705106534,-0.012817677385161229,-0.23283097745419537,0.06652789280613255,1.1594452960393442,-0.3681712719711248,0
313,2024-09-16 20:41:15.217859131,0,006,0.31609970690906725,0.1412713464421721,-1.0632072600022116,-0.01685929535178605,-0.2173746137815305,0.062106020300441336,1.119055244549552,-0.3568093519236433,0
314,2024-09-16 20:41:15.285603027,0,006,0.28693919177438326,0.15088211990394396,-1.1284253496508336,-0.024345735133150855,-0.20041236283545594,0.05888883870024968,1.0521483349512017,-0.33291271958380875,0
315,2024-09-16 20:41:15.353331055,0,006,0.2509114379856796,0.16087606503666046,-1.1664153746959902,-0.035110098909432313,-0.18231856177836306,0.05675157863268192,0.9548766353546223,-0.2963980588694308,0
316,2024-09-16 20:41:15.418777832,0,006,0.2098188478815536,0.17100430254897167,-1.1783191308912924,-0.04888175817402201,-0.1635130304261616,0.05550748683889049,0.8248257342992111,-0.24766517734474894,0
317,2024-09-16 20:41:15.487809814,0,006,0.1656057142676072,0.1810248639375326,-1.1659265792320699,-0.065302402943788,-0.14443525699640156,0.054908631873899084,0.6613074785102451,-0.18761856105023103,0
318,2024-09-16 20:41:15.556514893,0,006,0.12027271315781468,0.19072710890073893,-1.1314423762996277,-0.08393955336208267,-0.1255101289878407,0.05465598145426606,0.4656132003209412,-0.1176948379538082,0
319,2024-09-16 20:41:15.624231934,0,006,0.07578798677738922,0.19993150601980209,-1.0774894528281154,-0.10426766471108564,-0.10708923900719049,0.05441644665111716,0.2412678855445118,-0.03989072583175907,0
320,2024-09-16 20:41:16.567831055,0,006,0.033994173426202194,0.20846258325111036,-1.0072982038327176,-0.12562532323132702,-0.08938318868029223,0.05384379161218001,-0.005798866451017995,0.0432398505160561,0
321,2024-09-16 20:41:16.635572021,0,006,-0.0034926229082644232,0.21611453725555868,-0.9248663958221088,-0.14719730787788984,-0.07241887620311539,0.05260159440700354,-0.26731965010122966,0.12864983077319173,0
322,2024-09-16 20:41:16.703181885,0,006,-0.03539008735928202,0.22263494471879436,-0.8349227955277072,-0.16804994676566576,-0.05603905453603955,0.05038599469261326,-0.5331504312958606,0.21293306812852827,0
323,2024-09-16 20:41:16.771044922,0,006,-0.06084417863797218,0.22773836239149517,-0.742728141953949,-0.1871940783741891,-0.039933250951907584,0.04694335615512307,-0.7921893194958163,0.2925214649792402,0
324,2024-09-16 20:41:16.838799072,0,006,-0.0794894216495879,0.23114422117964253,-0.6538356788593903,-0.20363247269600168,-0.023682031690800735,0.04207823052666464,-1.03354272241563,0.36391297866548894,0
325,2024-09-16 20:41:16.897142822,0,006,-0.09146470514801411,0.23262151962428426,-0.5738323933666805,-0.2163784859838547,-0.0068021654899094505,0.03565196735286331,-1.247525197263488,0.42387405973892406,0
326,2024-09-16 20:41:16.974302979,0,006,-0.0973816412007981,0.23201881658616585,-0.5080158430823462,-0.22446202219729347,0.011222289433496246,0.027576033415199448,-1.4262619893516888,0.4695858847613617,0
327,2024-09-16 20:41:17.911376953,0,006,-0.09825305045610697,0.22926816612438797,-0.4610517381077184,-0.2269396263656542,0.03092384639668349,0.017805013307093772,-1.563995855399222,0.4987603121182934,0
328,2024-09-16 20:41:17.985477051,0,006,-0.09540669507718338,0.22437165338593043,-0.43670075150057414,-0.22291929210545172,0.05281519177831163,0.006335619009266335,-1.6572819838218786,0.5097625200135988,0
329,2024-09-16 20:41:18.054104980,0,006,-0.09040866731638751,0.2173897315491127,-0.43757802045817534,-0.21161224736663461,0.07730317625049157,-0.006785061902088437,-1.7051093132620427,0.5017291319191257,0
330,2024-09-16 20:41:18.121678955,0,006,-0.0849923911202013,0.20844202859563413,-0.4648385781543861,-0.19241835199111457,0.10458199461112787,-0.021447711759460527,-1.7088692384118271,0.474639071835685,0
331,2024-09-16 20:41:18.174334961,0,006,-0.08096920013703711,0.1977152882548466,-0.5178361107647295,-0.16503327550577307,0.13456284121897996,-0.03747360192024972,-1.672138491163397,0.4293284630797091,0
332,2024-09-16 20:41:18.251576904,0,006,-0.08010826053573213,0.18546387148437266,-0.5939741485967406,-0.1295472746248606,0.16686880067903434,-0.054614907359392575,-1.600359313543044,0.36748202952275616,0
333,2024-09-16 20:41:18.313593994,0,006,-0.08399377067948541,0.17199021628610153,-0.6888822504671474,-0.08650522357293645,0.20089243151679514,-0.07256379395951779,-1.5005116613851326,0.2916142996531036,0
334,2024-09-16 20:41:19.260632080,0,006,-0.09387655104350424,0.15760488636925085,-0.7968316561227892,-0.03691743576481461,0.23589846088961425,-0.09097376139807652,-1.3807906294682868,0.20500774523963966,0
335,2024-09-16 20:41:19.322644043,0,006,-0.11054354555201751,0.1425818889514235,-0.9112678878613484,0.01777467439811739,0.2711382416577196,-0.10949271052330213,-1.2502223919553832,0.11156698385071152,0
336,2024-09-16 20:41:19.404766113,0,006,-0.13423400312951586,0.1271317977425706,-1.0254177448722455,0.07577234840286255,0.3059402974208198,-0.127799519775969,-1.1180784133868318,0.015576927022085374,0
337,2024-09-16 20:41:19.472478027,0,006,-0.16462056788759113,0.11140479794162361,-1.1329029247214513,0.13501956974828946,0.339764332236805,-0.14563411712868982,-0.9929935266813523,-0.07861434787206469,0
338,2024-09-16 20:41:19.526298096,0,006,-0.20084725524742833,0.09551601573357438,-1.2282249589339957,0.19330999563043114,0.3722307739957496,-0.1628158753115811,-0.8819456880411947,-0.16694265083505505,0
339,2024-09-16 20:41:19.607948975,0,006,-0.24159654548746182,0.0795723914406309,-1.3070041619941761,0.24839321254286056,0.40314459643130357,-0.17925160949556218,-0.7894623957465837,-0.24594515899638136,0
340,2024-09-16 20:41:19.675023926,0,006,-0.2851625177360683,0.06368216713888042,-1.3659463845109578,0.2980922256980525,0.4325204982926884,-0.1949372903005326,-0.7173385905000842,-0.31298831648761477,0
341,2024-09-16 20:41:20.587277832,0,006,-0.329534259043208,0.04794235294834613,-1.4026315521572863,0.3404502550964645,0.46059702109353556,-0.2099535220214981,-0.6648811952426062,-0.36637176720467635,0
342,2024-09-16 20:41:20.661559082,0,006,-0.37251386120378954,0.03241583002492597,-1.4152845271870917,0.373903020622401,0.48781904429711964,-0.22444897084567136,-0.6294621247979276,-0.4053230751330648,0
343,2024-09-16 20:41:20.725377197,0,006,-0.4118745349496162,0.01711500277099878,-1.4026139934832997,0.3974266612514052,0.5147795740447396,-0.23860838166997952,-0.6071411030108121,-0.42992448729085775,0
344,2024-09-16 20:41:20.786506104,0,006,-0.44553135390556325,0.0020023550898445506,-1.3636845409193632,0.4105913748490202,0.5421313027948801,-0.25261225046271485,-0.5932906341447227,-0.4409976867616856,0
345,2024-09-16 20:41:20.864754883,0,006,-0.47169491071147823,-0.012989601640671191,-1.2978150878173225,0.4135021970288169,0.5704840739167341,-0.26659985532090386,-0.5832478545124546,-0.43995970777599525,0
346,2024-09-16 20:41:20.932481934,0,006,-0.4889948550747418,-0.027922805186576978,-1.204612142999432,0.40668348945443666,0.6002898700804801,-0.28063979132557987,-0.5729407241722144,-0.4286627800158271,0
347,2024-09-16 20:41:21.000224121,0,006,-0.49656489458994174,-0.04281405496278977,-1.0842076721612743,0.3909766773911612,0.6317148032163094,-0.29470566528837827,-0.5594008155484518,-0.4092157549225401,0
348,2024-09-16 20:41:21.936856934,0,006,-0.49407910987568976,-0.05760661232343223,-0.9376013197592171,0.36747110429656843,0.6645244776724772,-0.30865916132070864,-0.541107674390833,-0.383786313674373,0
349,2024-09-16 20:41:22.011472900,0,006,-0.48173625567571765,-0.07216116772408675,-0.7669409728233293,0.33744210880699804,0.6980238052779594,-0.3222482193003324,-0.518067305922489,-0.3544264768559094,0
350,2024-09-16 20:41:22.075568848,0,006,-0.4602001690842528,-0.08626206761787257,-0.5756698273736701,0.30226879072083374,0.7310714771327388,-0.3351241268797284,-0.4915174026381266,-0.3229803107917242,0
351,2024-09-16 20:41:22.146945068,0,006,-0.4305130926071884,-0.0996292625907803,-0.3685741390236581,0.2633364070305132,0.7621631972832487,-0.34687222384963295,-0.4633205154743751,-0.29108006480004456,0
352,2024-09-16 20:41:22.199682861,0,006,-0.3940025726389517,-0.11193118246418123,-0.15176207164640942,0.22195611399692863,0.7895640454709011,-0.3570462833388219,-0.43529035190635124,-0.26018175119113734,0
353,2024-09-16 20:41:22.282353027,0,006,-0.35219253197156775,-0.12280221053024162,0.06747249753116283,0.1793282496868276,0.811460402944364,-0.36519953978228664,-0.40870115204370683,-0.2315846220093577,0
354,2024-09-16 20:41:22.350099121,0,006,-0.30671175124161926,-0.13187075016712868,0.2809569126774278,0.13654612855249215,0.8261024122096621,-0.37091087398844264,-0.38410375854733414,-0.20640105753743185,0
355,2024-09-16 20:41:23.293595947,0,006,-0.25919948673562887,-0.13879477172144222,0.4800838362779646,0.0946175820300859,0.8319283018177699,-0.373808270305393,-0.36143257438455373,-0.18547744200214528,0
356,2024-09-16 20:41:23.361668213,0,006,-0.21122705589694607,-0.14329158487933283,0.656328904374179,0.05447696451053315,0.827677714182772,-0.3735917466962045,-0.340288017219727,-0.16930217830567407,0
357,2024-09-16 20:41:23.429380859,0,006,-0.16424275993592605,-0.14515278526940184,0.801845053165894,0.016963854705928316,0.8124863464298778,-0.3700533468379703,-0.3202580002417221,-0.15794394532655992,0
358,2024-09-16 20:41:23.496875977,0,006,-0.11952359177799987,-0.14424904840874309,0.9100867344654674,-0.017225091266212033,0.7859351042769999,-0.3630878111357289,-0.3011957180238612,-0.15103708692372053,0
359,2024-09-16 20:41:23.562798096,0,006,-0.07812499720299008,-0.1405354528760207,0.9762826864152552,-0.047562942970244264,0.7480437876073768,-0.35269190459962485,-0.28343495187762285,-0.1478082572585306,0
360,2024-09-16 20:41:23.632530029,0,006,-0.04084196872396347,-0.13406346659273777,0.9976619945039794,-0.07366730727383466,0.699237369035716,-0.33895848601882433,-0.26793365141716075,-0.1471418397204632,0
361,2024-09-16 20:41:23.700282959,0,006,-0.008195921095364846,-0.1249987341862886,0.973556534756512,-0.09525764033592805,0.640322175031811,-0.322072645751123,-0.25628060867168745,-0.1476928516923182,0
362,2024-09-16 20:41:24.629025879,0,006,0.01954907522774034,-0.11363726962720713,0.9055100931958404,-0.11214159586782275,0.5724773921935288,-0.30231167137358955,-0.25051874469497454,-0.14804278815966648,0
363,2024-09-16 20:41:24.706022949,0,006,0.04234746473517646,-0.10040853610749424,0.7973508625313561,-0.1242297733601762,0.49724069665141657,-0.28004660249589325,-0.2529195780870653,-0.146853396604815,0
364,2024-09-16 20:41:24.769185059,0,006,0.060331456002829256,-0.08585670896465741,0.6550592826769686,-0.13155517235570785,0.41647624759445845,-0.25574274603651165,-0.26591322364779646,-0.1429572345279648,0
365,2024-09-16 20:41:24.847099121,0,006,0.07379070154014915,-0.07059991398949807,0.48627820607202743,-0.13428350738705894,0.33232685287297864,-0.2299549742730691,-0.292151345607437,-0.1353737457618986,0
366,2024-09-16 20:41:24.914825928,0,006,0.08317062512034272,-0.05527548064772778,0.29946639556788907,-0.13270225567163868,0.24714589296654546,-0.20331196652730768,-0.3344660822199573,-0.12330368881223334,0
367,2024-09-16 20:41:24.968704102,0,006,0.08906417059763146,-0.04048410196128193,0.10289749747353485,-0.12718226960425083,0.16340319967643585,-0.17648694909544638,-0.39555650401720027,-0.1061533531434486,0
368,2024-09-16 20:41:25.046964111,0,006,0.09217197555939961,-0.026745981751043757,-0.09619313713684906,-0.11812769783603963,0.0835757426516796,-0.15015939266911954,-0.47744916817436905,-0.08358265669439725,0
369,2024-09-16 20:41:25.968285889,0,006,0.09321535798548214,-0.014475596958147116,-0.29207201232400903,-0.10593748184498603,0.010040712564884195,-0.12497634208147765,-0.5809116828277807,-0.05553437344566735,0
370,2024-09-16 20:41:26.036187012,0,006,0.09280360995370475,-0.0039711715228773845,-0.48050154182704224,-0.09099199613228205,-0.05503223333163521,-0.10151975226249733,-0.7049826466814869,-0.02222323498079589,0
371,2024-09-16 20:41:26.091564941,0,006,0.09129718957741743,0.004590110146758377,-0.6583624427483947,-0.07367284310950413,-0.10980768670707255,-0.0802805563920541,-0.8466969976553467,0.015898131279478023,0
372,2024-09-16 20:41:26.168307129,0,006,0.08873644482143547,0.011155189218534678,-0.8231305184454581,-0.05441639405067178,-0.15292516499454717,-0.06163858367003457,-1.001032257019879,0.05817208344964429,0
373,2024-09-16 20:41:26.229436035,0,006,0.08487874702459995,0.015792812038881967,-0.9724215597204948,-0.03378812063602418,-0.18361632723173474,-0.04584938569156864,-1.161099296321724,0.10375140678836228,0
374,2024-09-16 20:41:26.307125977,0,006,0.07933023126605249,0.018679117550157668,-1.1036718957691505,-0.012557264319923631,-0.20175904302238962,-0.03303894735708285,-1.3185966186898146,0.1515848268844428,0
375,2024-09-16 20:41:26.368327881,0,006,0.07171444037824631,0.020066910895148237,-1.2139453379249254,0.00825613320899283,-0.2078506558619746,-0.023206199230525776,-1.4644902789993182,0.2003795450831988,0
376,2024-09-16 20:41:27.309765137,0,006,0.06180989792949421,0.020241056636796664,-1.2999058456914578,0.027396018012331852,-0.20290925466174672,-0.016233436157842257,-1.5898160674655453,0.24857812630737575,0
377,2024-09-16 20:41:27.385231934,0,006,0.04961788537698884,0.019471217562662582,-1.3579615089266832,0.043457734366213675,-0.18833571170059826,-0.011904359389558406,-1.6864869042508528,0.29438765044055065,0
378,2024-09-16 20:41:27.448148926,0,006,0.035362134528901634,0.017977177586451152,-1.384472080900999,0.05501792760277396,-0.16578165860965446,-0.009927833465467877,-1.7479835289526526,0.3358631199098576,0
379,2024-09-16 20:41:27.520718018,0,006,0.019440982138653685,0.015915654051218243,-1.3759294418909054,0.06076838840205156,-0.13705831731539406,-0.009963829954732665,-1.769799658361599,0.37101972408304734,0
380,2024-09-16 20:41:27.588447021,0,006,0.0023529602829911703,0.013386528750896952,-1.3291423228450214,0.05964320217322468,-0.10409278352540355,-0.011647415354397709,-1.7495868010824045,0.3979570947476863,0
381,2024-09-16 20:41:27.648167969,0,006,-0.015386326718597639,0.01044861721628828,-1.2415201773783817,0.050950139507286274,-0.068907457491022,-0.014607675998180898,-1.6870660478885937,0.41499283863085357,0
382,2024-09-16 20:41:27.723998047,0,006,-0.03331421130263809,0.007130049618798764,-1.1114980000516108,0.03450267300978108,-0.03357930482290942,-0.018481284994716917,-1.5838362229875746,0.4208041374422358,0
383,2024-09-16 20:41:28.668448975,0,006,-0.05105524032670286,0.0034203383647016267,-0.9390193903997474,0.010718438995349133,-0.00014774254417113038,-0.022923872974448516,-1.443202525189725,0.4145786200507359,0
384,2024-09-16 20:41:28.736221191,0,006,-0.06832632033008829,-0.000752066741804432,-0.7259240112035433,-0.019349489943414917,0.029518621948305568,-0.027623822716622736,-1.2700831441841225,0.3961631890665038,0
385,2024-09-16 20:41:28.800177002,0,006,-0.08494571044960905,-0.005535127540010806,-0.4761061196812508,-0.05405406313051761,0.05385693369765979,-0.0323207308326021,-1.0709619885269333,0.3661710080405188,0
386,2024-09-16 20:41:28.861256104,0,006,-0.10084952805206614,-0.01114238339036225,-0.19535946079451205,-0.09126247337837935,0.07171462864870938,-0.036826071029916176,-0.8538358390547189,0.326008077804047,0
387,2024-09-16 20:41:28.938507080,0,006,-0.11608427800550143,-0.01781417765870142,0.10906150350667765,-0.12852210233952277,0.0824140642564203,-0.041039004927070175,-0.62806864876635,0.2778077839107501,0
388,2024-09-16 20:41:29.006847900,0,006,-0.13076463778372618,-0.025763620991781918,0.42894083804063704,-0.16324880593837318,0.08578350741313069,-0.0449478963423581,-0.4039527869105449,0.22427278224304348,0
389,2024-09-16 20:41:29.061467773,0,006,-0.14501393959419423,-0.03512804313186901,0.7553717295265747,-0.19288717674548667,0.08216854695338685,-0.04861207297762575,-0.1918554448641757,0.16843478887426705,0
390,2024-09-16 20:41:30.002558105,0,006,-0.1589007457346475,-0.04594599468703076,1.0787258786998366,-0.21502886992996245,0.07243517426411794,-0.05212929569780367,-0.0011619305264865898,0.1133707301063862,0
391,2024-09-16 20:41:30.084537109,0,006,-0.17238639834317412,-0.058163872373342966,1.3885509397148519,-0.2275203235408255,0.0579518586100162,-0.055602686614097285,0.16061662336809004,0.06192135665877624,0
392,2024-09-16 20:41:30.152251952,0,006,-0.1853065049615451,-0.07165602632513432,1.6737036681654176,-0.22859226610187394,0.040509144126764506,-0.05911775096791929,0.28839616353536707,0.016442823134601676,0
393,2024-09-16 20:41:30.220006836,0,006,-0.19739197320825638,-0.08623894038411735,1.9228610907878751,-0.2170117304658975,0.022146642273215878,-0.0627303375252025,0.3797401526539783,-0.02137833183962521,0
394,2024-09-16 20:41:30.287715820,0,006,-0.20831374601316013,-0.10167308782166316,2.1253525124860095,-0.19222453520594326,0.004910129928424031,-0.0664604973135749,0.4347579152946567,-0.05061084799458201,0
395,2024-09-16 20:41:30.355427979,0,006,-0.21773647711868876,-0.11765813340462722,2.2721691394164347,-0.15444833394996849,-0.009398543501801459,-0.07028844875693548,0.45571767424055926,-0.0710521250675798,0
396,2024-09-16 20:41:30.417957031,0,006,-0.22537436404394917,-0.13383207153596965,2.357015753703615,-0.10470379936885799,-0.019411400080916883,-0.07415399434600907,0.446489450291668,-0.08310962744213052,0
397,2024-09-16 20:41:31.342439941,0,006,-0.23104368729435013,-0.14978548380257797,2.377274827206727,-0.04479577206293178,-0.024272631149807284,-0.07796450884959473,0.41192237638504337,-0.08762709789046495,0
398,2024-09-16 20:41:31.408718018,0,006,-0.23470199243143977,-0.16509698767984166,2.3347141151830257,0.022751848439326906,-0.023598959998511485,-0.0816139971933625,0.35721182648731964,-0.08570099560449054,0
399,2024-09-16 20:41:31.469933105,0,006,-0.23645840736860832,-0.17938426776204772,2.2357213010233745,0.09481462782861563,-0.017378990436094713,-0.08500833655314739,0.287339690435332,-0.07853124572224739,0
400,2024-09-16 20:41:31.531441895,0,006,-0.2365495860114201,-0.19235401013311018,2.090874495827978,0.16784250637621764,-0.005884569550095433,-0.08808807511986609,0.206724341864606,-0.0673281343475968,0
401,2024-09-16 20:41:31.613306152,0,006,-0.23529494746982427,-0.20383441356997664,1.9138159683576375,0.2380855500842254,0.010381784121785996,-0.09084360848218272,0.11915985960670027,-0.05326628884208068,0
402,2024-09-16 20:41:31.681022949,0,006,-0.23304161352930872,-0.2137866510137053,1.7196426074159288,0.3018518742505181,0.030725108572586916,-0.09332135204352282,0.027969200989371237,-0.03745494510813549,0
403,2024-09-16 20:41:31.747736816,0,006,-0.23009706573306313,-0.222303411248566,1.5232000436583637,0.3557675812575792,0.054300861260474724,-0.0956186172085279,-0.06377841413050417,-0.02089582932309945,0
404,2024-09-16 20:41:32.682219971,0,006,-0.22666341860615985,-0.22960294598114997,1.337644217517301,0.3970088688458956,0.08016356181827862,-0.09786652456441283,-0.15310407930184927,-0.004423823167373069,0
405,2024-09-16 20:41:32.759857910,0,006,-0.2228047422844569,-0.23602009580507058,1.1734801437936322,0.4234805727218289,0.10732292553392146,-0.10020888254099097,-0.23711061323774912,0.011354556377924728,0
406,2024-09-16 20:41:32.829121094,0,006,-0.21845679897241438,-0.24199015194648507,1.0381301823791982,0.433925979960058,0.1348111543420238,-0.10278908956227605,-0.3131770862037604,0.026104728425877993,0
407,2024-09-16 20:41:32.896825928,0,006,-0.21345520641556598,-0.2480205517358119,0.9359206841112442,0.4279775111595581,0.16175276752575,-0.10574942278751077,-0.37926309849973144,0.0397716749226083,0
408,2024-09-16 20:41:32.960931152,0,006,-0.20755560886876367,-0.25464878690024634,0.8682448587466137,0.4061694287815485,0.18742006368959166,-0.10923754375003596,-0.4341513175667703,0.05254225723637657,0
409,2024-09-16 20:41:33.022531982,0,006,-0.2004393801104412,-0.26239082288325766,0.8337403240671486,0.36991052769065036,0.21126760922345417,-0.11341255329427123,-0.4775350178705781,0.06476776926647405,0
410,2024-09-16 20:41:33.085783936,0,006,-0.19171482499549297,-0.2716907152940516,0.8285660073207232,0.32139059829814365,0.23295106432057372,-0.11844424866449987,-0.5099704221539249,0.0768655984162812,0
411,2024-09-16 20:41:34.033930176,0,006,-0.18093036160276743,-0.28288424979469573,0.84694727428614,0.263407723127738,0.2523312801299318,-0.12450102794711786,-0.5327208744653081,0.08922111382882031,0
412,2024-09-16 20:41:34.111185059,0,006,-0.1676142564131043,-0.2961827030359437,0.8819685415824448,0.19914392290419625,0.26945964984216497,-0.13172666273697275,-0.5474540664982517,0.10210542804112858,0
413,2024-09-16 20:41:34.173660156,0,006,-0.15134243715118792,-0.31167127443595793,0.9263966801498772,0.131942882461746,0.28454748175963734,-0.14021219431546678,-0.5557759917959917,0.11562327506973916,0
414,2024-09-16 20:41:34.235680176,0,006,-0.1318153892119395,-0.32931195308611916,0.973357890748118,0.06512602842058923,0.29792112937603304,-0.1499703678209426,-0.5587319953934553,0.1297004822261972,0
415,2024-09-16 20:41:34.314333008,0,006,-0.108915205255515,-0.34894690951087254,1.016847005411904,0.0018429618508764188,0.3099552923635073,-0.16091744183294887,-0.5564987180755672,0.14410388967593904,0
416,2024-09-16 20:41:34.382055908,0,006,-0.0827292403458834,-0.3703059151682813,1.0521023200487472,-0.05506541496614334,0.32098626025051874,-0.17286555115010027,-0.5483987075314232,0.15847470182785,0
417,2024-09-16 20:41:34.437302979,0,006,-0.05355100480487514,-0.39302144781031756,1.0758764717839011,-0.10320090003248553,0.33123285354879306,-0.18552805131756073,-0.5331922703316125,0.1723619730914269,0
418,2024-09-16 20:41:35.384063964,0,006,-0.02187560209115446,-0.4166514283201617,1.086637734305763,-0.14072961147568025,0.34076261620529824,-0.1985394057860753,-0.509504494775247,0.1852601381350387,0
419,2024-09-16 20:41:35.446093994,0,006,0.011599111595681885,-0.4407057682678058,1.0846504516051663,-0.16646854437392095,0.3495161463456836,-0.2114885015503805,-0.47624854643926356,0.19665819055220563,0
420,2024-09-16 20:41:35.523272949,0,006,0.04596223889812067,-0.4646702457698272,1.071774518408774,-0.17991317753155767,0.3573639292078324,-0.22395881602759848,-0.43293971795214775,0.20608134072217968,0
421,2024-09-16 20:41:35.596743164,0,006,0.08007717629303186,-0.4880222258491134,1.0508962379853162,-0.1811966173542347,0.3641571464149519,-0.23556496715989172,-0.3798255064295215,0.21309124802424004,0
422,2024-09-16 20:41:35.664515136,0,006,0.11258031242463407,-0.5102383923946963,1.025129674325089,-0.17099483911369295,0.3697548626537027,-0.24597695924385912,-0.31778421903508647,0.21724276227527564,0
423,2024-09-16 20:41:35.732283203,0,006,0.14191128643642806,-0.5308023342449345,0.9970709254487784,-0.15040774504639792,0.37403840913291425,-0.254930621864471,-0.24801741172825204,0.21803098201601454,0
424,2024-09-16 20:41:35.800029053,0,006,0.16640034204776932,-0.5492223626526429,0.9683396655485583,-0.1208455529479851,0.3769385668653315,-0.2622311833328573,-0.17170451119033078,0.2148676007070123,0
425,2024-09-16 20:41:36.711125977,0,006,0.1844188859256822,-0.5650626404468895,0.9395279213330235,-0.08394847048642111,0.3784886882041997,-0.2677576021440255,-0.08984684096417196,0.20711450299382114,0
426,2024-09-16 20:41:36.786392090,0,006,0.19455802928888294,-0.5779801217360856,0.9105504697197148,-0.04155683417348249,0.37887704730004096,-0.271465759412773,-0.0033909536208936476,0.19418520977894424,0
427,2024-09-16 20:41:36.854135010,0,006,0.1957770889875894,-0.5877542814596027,0.8811603743157724,0.00429163891103249,0.378445175573214,-0.27338193911246217,0.08645025122331688,0.1757009404604641,0
428,2024-09-16 20:41:36.921926025,0,006,0.18748249206256862,-0.5942986272157282,0.8512382097076139,0.05139541779060245,0.37760548695939333,-0.27358410358870816,0.17783037987126527,0.15166651993153552,0
429,2024-09-16 20:41:36.989604004,0,006,0.16954146802905848,-0.5976520526653957,0.8206918549483384,0.09748811521150604,0.376706328578454,-0.27217832276045006,0.26803728149289474,0.12261628280920972,0
430,2024-09-16 20:41:37.057342041,0,006,0.1422632989992171,-0.5979572462320356,0.7891818066757106,0.140385131366957,0.37589936474877716,-0.2692787696321269,0.3535760157036468,0.08966936490814573,0
431,2024-09-16 20:41:37.111852051,0,006,0.10637187884138084,-0.5954357252633332,0.7559622691700285,0.178138902953992,0.37505336408319806,-0.2649939929205696,0.4306459389088947,0.05444467883968255,0
432,2024-09-16 20:41:38.066925049,0,006,0.06297702398490235,-0.5903681008280078,0.7199478778029056,0.2091724868297734,0.37374023363859854,-0.2594195593122765,0.49588480788729006,0.018840001250821924,0
433,2024-09-16 20:41:38.135925049,0,006,0.013550681168842865,-0.5830853940462606,0.6799728550036112,0.23236968438718908,0.3712958892946535,-0.25263802598045226,0.5470755730692268,-0.015253134764709336,0
434,2024-09-16 20:41:38.203634033,0,006,-0.040091022428182826,-0.5739693208507174,0.635160108054902,0.24710512301064164,0.36692384336147654,-0.24472524447551133,0.5835572248523572,-0.0462100110633972,0
435,2024-09-16 20:41:38.271382080,0,006,-0.0958163079472988,-0.5634513946317864,0.5852729410771014,0.25321713823246056,0.35979892347460474,-0.2357593647263636,0.60631450094365,-0.07286048751173005,0
436,2024-09-16 20:41:38.339106934,0,006,-0.15125058066620783,-0.5519987499045846,0.5308831902844073,0.25095478342352023,0.34915689307917064,-0.22583024352884062,0.6178480026528391,-0.09459456031787178,0
437,2024-09-16 20:41:38.406924072,0,006,-0.20392301031607205,-0.5400804465863573,0.4732614694098757,0.24093308848201742,0.3343789312449691,-0.21504805075399935,0.6218385183381727,-0.11138016626017111,0
438,2024-09-16 20:41:38.474576904,0,006,-0.2514764253568519,-0.5281217391529218,0.41408673127369733,0.2240991215810394,0.31507516568034594,-0.2035481355617789,0.6225896875121905,-0.12369215865914227,0
439,2024-09-16 20:41:39.408299805,0,006,-0.29189042504439355,-0.516464463464523,0.3551962822815263,0.20168327210680365,0.29115846194952594,-0.19148975245929734,0.6244159853042858,-0.13238389428845723,0
440,2024-09-16 20:41:39.486048828,0,006,-0.3236700010802624,-0.5053456960740155,0.298531886019603,0.17511144257525443,0.2628923962040137,-0.17905048231539927,0.6312171524450886,-0.1385507155981519,0
441,2024-09-16 20:41:39.548103027,0,006,-0.3459738292915741,-0.4948920532138658,0.2462626970931627,0.14587543420367957,0.23089869743477562,-0.16642075074214777,0.6462564993581472,-0.14340089634719144,0
442,2024-09-16 20:41:39.621511962,0,006,-0.35865872547656463,-0.48512250479105684,0.2008911690820853,0.11538688232953442,0.19611805532760693,-0.15380076037758317,0.6719912830150349,-0.14811197762682368,0
443,2024-09-16 20:41:39.686922119,0,006,-0.36221695948437677,-0.47595843154508105,0.16511914631688948,0.08485531118566876,0.1597285547874801,-0.14139812419274417,0.7098794861817712,-0.15366569322764492,0
444,2024-09-16 20:41:39.748570068,0,006,-0.3576141160430541,-0.467241503027796,0.14145103670720255,0.05521807010698549,0.12303667952059383,-0.12942197542076547,0.7601621744789596,-0.16069034342592506,0
445,2024-09-16 20:41:39.824693848,0,006,-0.34607358993581916,-0.45875746728426253,0.13171367085449345,0.027128960654787152,0.08736112153295737,-0.11807056598723908,0.8216258069362482,-0.1693426241604143,0
446,2024-09-16 20:41:40.764506104,0,006,-0.3288631088279001,-0.4502660886732888,0.13664637692947101,0.0010047280903168463,0.05392406823618324,-0.10751424009420472,0.8914311077103095,-0.17925753189510923,0
447,2024-09-16 20:41:40.836797119,0,006,-0.3071269103741167,-0.44153891097891834,0.15559670620449892,-0.022881335282557785,0.02375952413054791,-0.0978791573826777,0.9651712777662289,-0.18960537594621554,0
448,2024-09-16 20:41:40.904575195,0,006,-0.2817847443064083,-0.4323994529182088,0.18634354619903032,-0.04429103784941521,-0.0023521244590031555,-0.08923565267883336,1.037216566222677,-0.19926757395877118,0
449,2024-09-16 20:41:40.965558105,0,006,-0.25349066026456263,-0.4227530113076983,0.2250900768099204,-0.06293613060011113,-0.023920314891280426,-0.08159250102951988,1.1012308665598434,-0.20707546186003106,0
450,2024-09-16 20:41:41.039982178,0,006,-0.22264203687893075,-0.4125942358517399,0.2666429051291726,-0.07843410047293486,-0.040756470699992726,-0.07489713068987998,1.150764375563781,-0.2120289571130523,0
451,2024-09-16 20:41:41.105568848,0,006,-0.18944946356316877,-0.40198837877564786,0.3047892891592501,-0.09030501059415225,-0.05296705470743288,-0.06903986814930756,1.17996769155895,-0.21344932894918275,0
452,2024-09-16 20:41:41.167602051,0,006,-0.15406482430621893,-0.39103397407919854,0.3328906134666805,-0.09800428669246299,-0.06092401254121597,-0.06386015658433487,1.1844173719214193,-0.21105787062173573,0
453,2024-09-16 20:41:42.091505127,0,006,-0.11672115409636263,-0.37982496096075014,0.3446675735134131,-0.10098563295948892,-0.06520131644025398,-0.05915694994779576,1.161816165342254,-0.2049799196855054,0
454,2024-09-16 20:41:42.151875977,0,006,-0.07783110984365205,-0.36842766680525224,0.33511122907909935,-0.09879305971282867,-0.06647567185774965,-0.05470763781224789,1.1123072004375971,-0.19569090760004992,0
455,2024-09-16 20:41:42.229335938,0,006,-0.03802914755249221,-0.3568733535150992,0.3014136415307296,-0.09117794472335404,-0.06541300773999703,-0.05029555589359038,1.038365111011434,-0.18394210324718258,0
456,2024-09-16 20:41:42.290288818,0,006,0.0018295422159816208,-0.34515679588559456,0.24371061192717486,-0.07821693273520681,-0.0625741525988353,-0.04574034772216079,0.9443898307882076,-0.17068040737673973,0
457,2024-09-16 20:41:42.364918945,0,006,0.04070370954585469,-0.33323475806145103,0.16537450671982304,-0.06039619172728109,-0.058368428647421776,-0.04092178757302738,0.836119413416538,-0.15693674440583077,0
458,2024-09-16 20:41:42.432629150,0,006,0.07743514708235928,-0.32102820646957986,0.07275013446891135,-0.03864590369363056,-0.053070270210756304,-0.03578773345899939,0.7199191535668591,-0.14366622009454613,0
459,2024-09-16 20:41:42.500379150,0,006,0.11085328216173698,-0.30843916293630863,-0.02551824855252074,-0.01433074931159517,-0.046882984020500056,-0.030344512287190744,0.6020290422511554,-0.13157962678515045,0
460,2024-09-16 20:41:43.443977051,0,006,0.139904197369336,-0.295390127259042,-0.11936024389020157,0.010806249165048389,-0.04000213764659598,-0.024639410766738878,0.4879509448044761,-0.12104652702827197,0
461,2024-09-16 20:41:43.507224121,0,006,0.16377126603686326,-0.28187791905780857,-0.19829324822934608,0.034773640456295815,-0.03264150569092164,-0.018748246176805185,0.3821145900235924,-0.11211144576908671,0
462,2024-09-16 20:41:43.579397949,0,006,0.1819477971561789,-0.26801717743602843,-0.2525654208057443,0.05555068732773587,-0.025029594342542427,-0.012773761289047707,0.287751513380937,-0.1045802197233926,0
463,2024-09-16 20:41:43.647517822,0,006,0.19424844017705867,-0.2540501420996939,-0.2742809721965212,0.0713598733130673,-0.01741052254962265,-0.006851081939974862,0.20682429710690436,-0.09810901838543258,0
464,2024-09-16 20:41:43.708958008,0,006,0.20077444450100676,-0.24031689940910153,-0.2583057896039573,0.08092179903694899,-0.01006835045704222,-0.001150685150208341,0.1399761624979631,-0.09227139550594116,0
465,2024-09-16 20:41:43.770968018,0,006,0.20185287870062177,-0.22719800581861202,-0.2028472670305663,0.08362694467766954,-0.003361734441882763,0.004129386332255557,0.08654954275350599,-0.08660655962045741,0
466,2024-09-16 20:41:43.847670166,0,006,0.19797082488295395,-0.2150512093804104,-0.10965286433544082,0.07958291146318214,0.0022648518404285688,0.00878166091012999,0.044681190709449876,-0.08064854713064333,0
467,2024-09-16 20:41:44.787822021,0,006,0.18972581934246496,-0.2041642082763763,0.01621731827235877,0.06953436361082757,0.006316348390777774,0.012610169571542163,0.011467619631993164,-0.07394207935856649,0
468,2024-09-16 20:41:44.849665039,0,006,0.17779746272416458,-0.19473497665759637,0.16697337985794777,0.05470438270052346,0.008318001942331295,0.015448069181277925,-0.016716780858083747,-0.0660703366095572,0
469,2024-09-16 20:41:44.927309082,0,006,0.16292777123763524,-0.18687466848703727,0.3328790369690978,0.03662196992721021,0.007889824848959202,0.01717049573265503,-0.04366461413790906,-0.0567197047603722,0
470,2024-09-16 20:41:44.996377930,0,006,0.14590144514257067,-0.18061674460549088,0.5031594542041482,0.016957818812787698,0.004800332108039863,0.017702302627512313,-0.07263243425115226,-0.0457730838900565,0
471,2024-09-16 20:41:45.051644043,0,006,0.12752987344260527,-0.1759188938793289,0.6669816048295035,-0.002641959352613732,-0.0010020596926715473,0.017019211737321207,-0.10571209845730747,-0.033390384075854825,0
472,2024-09-16 20:41:45.130132080,0,006,0.10864330933825862,-0.17265836650506955,0.8143297812984167,-0.02070918928603718,-0.009362786638493697,0.015141668800713529,-0.14347442671053992,-0.020034640803085823,0
473,2024-09-16 20:41:45.192176025,0,006,0.09008694894410083,-0.1706336924949277,0.9365507360152341,-0.03605020676395206,-0.019885871035201834,0.01212364379698452,-0.18499469098496324,-0.00642081920631779,0
474,2024-09-16 20:41:46.143059082,0,006,0.0727128946806468,-0.16958558646463512,1.026482431021587,-0.04776595655359529,-0.03190240669869901,0.00804050894857371,-0.22826734146637026,0.006614791076082283,0
475,2024-09-16 20:41:46.198914062,0,006,0.05736167448996967,-0.16923608989884764,1.0782980605689514,-0.05523074124312433,-0.04447657720529533,0.0029796455440278765,-0.27090402782626316,0.018298449631994406,0
476,2024-09-16 20:41:46.276110107,0,006,0.044828454125997404,-0.1693292489994614,1.087331789148566,-0.058080886164200034,-0.056473682846697286,-0.0029640426408956413,-0.3109304788123109,0.028106917986209807,0
477,2024-09-16 20:41:46.346186035,0,006,0.035813362478645354,-0.16965451292023212,1.0501145862744588,-0.05622061406792009,-0.06668642361015648,-0.009686990215485358,-0.3474967994259906,0.03591658533172868,0
478,2024-09-16 20:41:46.413914062,0,006,0.030863574040465597,-0.17004728533869123,0.9647036405058664,-0.04981550558706221,-0.07398801460341049,-0.017070647776805413,-0.3813413817819947,0.042089393900820685,0
479,2024-09-16 20:41:46.477914062,0,006,0.030319195915902306,-0.17037593639645596,0.8312327089213774,-0.039262202757449405,-0.07746326549690787,-0.024972348110527048,-0.41484488675034914,0.04746947905934568,0
480,2024-09-16 20:41:46.539916016,0,006,0.03427051421846933,-0.17052948870076814,0.6524927221331195,-0.025153908593195815,-0.07647430156894035,-0.03321883631595527,-0.45158048460183403,0.05326428930111718,0
481,2024-09-16 20:41:47.468292969,0,006,0.0425253156232683,-0.17041476327853217,0.4343087533730701,-0.008254561376161214,-0.07065482221525095,-0.04160792260570337,-0.4954835787548792,0.06082115558103535,0
482,2024-09-16 20:41:47.530746094,0,006,0.05458148762317461,-0.169961545296322,0.1854873559277536,0.01053923290639133,-0.059872745275504444,-0.049918129478799846,-0.5499348571517941,0.07136108759676194,0
483,2024-09-16 20:41:47.603820068,0,006,0.06960934007738008,-0.16912678436542175,-0.08281187580543882,0.0302796858173595,-0.04421266528815056,-0.05792061661954044,-0.6169961466110566,0.08574964873434406,0
484,2024-09-16 20:41:47.671534912,0,006,0.08646699781143834,-0.16789042826472755,-0.35819633847824,0.050082031395822166,-0.023999781757389513,-0.06538735087070875,-0.6969002405005889,0.10435945163926348,0
485,2024-09-16 20:41:47.739283203,0,006,0.10378082782939164,-0.16624422902098138,-0.6282967472607119,0.06920941033445074,0.00015300986035782306,-0.0720942291614964,-0.7878557709531007,0.12703043398422892,0
486,2024-09-16 20:41:47.792041016,0,006,0.12010243818737878,-0.1641817479306132,-0.8817321605401889,0.08707184944459376,0.027320503835048596,-0.07782391555179395,-0.8862141842931881,0.15309565514039553,0
487,2024-09-16 20:41:47.873822021,0,006,0.1341149090607519,-0.16169712957704344,-1.1085726834582534,0.1031453825734725,0.056306204798991205,-0.08237424037981052,-0.9869425977947998,0.1814367327422386,0
488,2024-09-16 20:41:48.817756836,0,006,0.14483095611537236,-0.15879283263186228,-1.3004472250455175,0.11687804899244866,0.08575294316713275,-0.08557284340083951,-1.0842278976549837,0.21055816046694448,0
489,2024-09-16 20:41:48.878266113,0,006,0.15172190206215178,-0.1554878484908912,-1.4506450121096912,0.12766041873777204,0.11428185181963357,-0.087293417121154,-1.1720318548036723,0.23869407472454,0
490,2024-09-16 20:41:48.939909912,0,006,0.15474471388870414,-0.15181547893242597,-1.5544362366500915,0.13489540539204817,0.1406025396134125,-0.08746689416573292,-1.2445063980750177,0.26395916796251095,0
491,2024-09-16 20:41:49.016673096,0,006,0.15428523240777559,-0.14780705375184813,-1.6095455079220693,0.1381387144800055,0.16355969050573071,-0.0860823701272504,-1.296258134348445,0.2845307740550512,0
492,2024-09-16 20:41:49.088720947,0,006,0.1510697057135538,-0.14346970539209813,-1.6165276357288174,0.13724546946838173,0.18212952781380326,-0.08317771763965569,-1.3224927692960784,0.29882708413205034,0
493,2024-09-16 20:41:49.155036865,0,006,0.14607751974009037,-0.1387718060632862,-1.578835020898294,0.13247188936651189,0.19541323949154682,-0.07882481338317064,-1.3191012518124703,0.30564075498010834,0
494,2024-09-16 20:41:49.224139893,0,006,0.14044437318460892,-0.1336447345606056,-1.5025371409119146,0.12451326738701121,0.2026617556815325,-0.07311566180607644,-1.282769775732957,0.30420185312952547,0
495,2024-09-16 20:41:50.156958984,0,006,0.13533573258927883,-0.12799912904983443,-1.3957909525807284,0.11447016104668745,0.20333211100179385,-0.06615522236450293,-1.2111677087223076,0.29417630785536425,0
496,2024-09-16 20:41:50.235678955,0,006,0.13179194770136307,-0.12174345939431969,-1.2681659188405092,0.10373051509639902,0.19715666107406182,-0.05806333071928909,-1.103185558919783,0.2756257401502216,0
497,2024-09-16 20:41:50.295771973,0,006,0.13056414871060282,-0.11478957756421641,-1.1298744899100286,0.0937798108443901,0.18419875225695082,-0.04898063616222349,-0.9591690241280468,0.24894995397986938,0
498,2024-09-16 20:41:50.371166016,0,006,0.13197620436944366,-0.10703994409542493,-0.9910126863413657,0.08600436995907955,0.16486395538126714,-0.03906904164388205,-0.781143016626791,0.21483199991160534,0
499,2024-09-16 20:41:50.438968018,0,006,0.13586003333335156,-0.09836726262108342,-0.860953187697921,0.08155679006194717,0.13985149126576993,-0.028501969698105912,-0.5729704522567293,0.17420260363188822,0
500,2024-09-16 20:41:50.497153076,0,006,0.1415935314242589,-0.08860414129843444,-0.7478586112013781,0.08127725590850461,0.11006793874997021,-0.01744977600859879,-0.3403161622689675,0.12822328347507278,0
501,2024-09-16 20:41:50.574298096,0,006,0.14823052736529677,-0.07755402432446873,-0.6581553827769947,0.08561278847905386,0.0765461527195396,-0.00607013404892743,-0.09041413130351782,0.07828867118386608,0
502,2024-09-16 20:41:51.518377930,0,006,0.15468109015978107,-0.06502191243487809,-0.5959863047330829,0.09451951102015187,0.04038922008267452,0.005493444764739074,0.1682229939163742,0.026057685089862146,0
503,2024-09-16 20:41:51.576313965,0,006,0.15988941069154464,-0.05085224282041403,-0.5628815383001413,0.10739842041070878,0.0027242125008123917,0.01711150516698909,0.4261178059534063,-0.026509636803390264,0
504,2024-09-16 20:41:51.653008057,0,006,0.16296839966630136,-0.03495859887864023,-0.5578360390862455,0.1231188761857827,-0.03535756796621696,0.028674007988640473,0.6732626076359455,-0.07716693261561007,0
505,2024-09-16 20:41:51.721527100,0,006,0.1632751499980601,-0.017336836341094657,-0.5777506294596856,0.1401373887385321,-0.07287996010604607,0.0400997105083243,0.8997090451407461,-0.12348360953378335,0
506,2024-09-16 20:41:51.775779053,0,006,0.16042882474479037,0.0019374282862214003,-0.6180746115314631,0.15667870875283482,-0.1090587664380768,0.051342148977630626,1.0962529878155163,-0.16303910032714602,0
507,2024-09-16 20:41:51.852989014,0,006,0.1542851683264352,0.02271984737337941,-0.6735172865492356,0.17093581012139883,-0.14334076178202945,0.062388421465486364,1.255138734310044,-0.19370189562218335,0
508,2024-09-16 20:41:51.924631104,0,006,0.14489575948357677,0.044807939640188955,-0.7387004265782025,0.18125492415787367,-0.1753956468492238,0.07325347162743326,1.3706703866140413,-0.2139425667259087,0
509,2024-09-16 20:41:52.838685059,0,006,0.1324786570139835,0.06794668654871881,-0.8085816886768384,0.18628652020695977,-0.20508345116277996,0.08397232780266019,1.4396022417649503,-0.22307866094175788,0
510,2024-09-16 20:41:52.900335938,0,006,0.11740778036029903,0.09183252947524978,-0.8785381611200077,0.18509256738322527,-0.23241773619291375,0.09458835457367008,1.4612954678385461,-0.22137695214990583,0
511,2024-09-16 20:41:52.977035889,0,006,0.10021146668462214,0.11612289900850466,-0.9442268314621234,0.17720792680618488,-0.2575309037526924,0.10513626237519413,1.4377309423434614,-0.21002067037761293,0
512,2024-09-16 20:41:53.038595947,0,006,0.08156556495760775,0.14045432016168316,-1.0015005375246986,0.1626577105272152,-0.28064278096231254,0.11562428605139535,1.3733804293014062,-0.19098638992128153,0
513,2024-09-16 20:41:53.101176025,0,006,0.062271307117826386,0.16446251754677554,-1.046496757820255,0.14192127328932513,-0.3020204836409674,0.12602044712479765,1.2748153916257945,-0.16686147570763965,0
514,2024-09-16 20:41:53.177905029,0,006,0.04322097423812401,0.18779066377915798,-1.075774385317094,0.11583439780441802,-0.3219003309731814,0.13623946932272887,1.1500064193827635,-0.14062312086558332,0
515,2024-09-16 20:41:53.239905029,0,006,0.02536633276845916,0.21007729591360216,-1.0863986303169066,0.0854568307312097,-0.3403594540301807,0.14612332808725575,1.0074778680540855,-0.11540008160337568,0
516,2024-09-16 20:41:54.179560059,0,006,0.009699540251045918,0.2309324591052222,-1.0760064328567212,0.05195021833391756,-0.3571838077638877,0.15542049256113155,0.8555935113039819,-0.09423666764196958,0
517,2024-09-16 20:41:54.257685791,0,006,-0.002769406269021633,0.24992378326066692,-1.042908749342823,0.01648533820589549,-0.3718156802540764,0.1637808358410003,0.7021036800046017,-0.07987522163613678,0
518,2024-09-16 20:41:54.328963135,0,006,-0.011065754961820332,0.26658913525598954,-0.9862954814780874,-0.019817407025274795,-0.3834186637010463,0.17077654848061535,0.5538267833442634,-0.07456207843494478,0
519,2024-09-16 20:41:54.396646973,0,006,-0.014332292269085901,0.2804738810567167,-0.9065611690508095,-0.05590576159120864,-0.39102060875200206,0.175944314345025,0.41630196263077607,-0.07987639453261848,0
520,2024-09-16 20:41:54.464355957,0,006,-0.011917111474365586,0.29117867061530756,-0.8055961953180265,-0.09077869925451383,-0.3936698759864799,0.17883685054398182,0.2934474733038126,-0.09659654517458453,0
521,2024-09-16 20:41:54.520307129,0,006,-0.003464145525668427,0.2984056397770114,-0.6868444568272647,-0.12346368628405943,-0.390563252449733,0.17907165597197786,0.18739792898477675,-0.12463430354260537,0
522,2024-09-16 20:41:54.599735107,0,006,0.010979884104584092,0.3019957237031642,-0.5550815555415345,-0.15302330125867772,-0.3811279213362618,0.17636750206540106,0.09864896760406482,-0.1630618381722974,0
523,2024-09-16 20:41:55.537662109,0,006,0.030860403796938378,0.30195116461088284,-0.41596227933259355,-0.17861692733401163,-0.36506106385904813,0.17056564834257143,0.02647068741165983,-0.2102298545540907,0
524,2024-09-16 20:41:55.609965088,0,006,0.05506696681233313,0.2984402953201095,-0.2753987503842623,-0.1996093505038908,-0.3423512881212105,0.16163907681179715,-0.030627452854704734,-0.2639424469608051,0
525,2024-09-16 20:41:55.676902100,0,006,0.08197948789472506,0.2917878385067169,-0.13887405425396332,-0.21567814153095496,-0.31329802619727026,0.14969375630877194,-0.07461208276961458,-0.3216446309138967,0
526,2024-09-16 20:41:55.745356934,0,006,0.1095957768925803,0.28245603939746405,-0.010810923831328326,-0.22686391308397658,-0.27851222618431865,0.13496312196140045,-0.10785312429477152,-0.38059637279266834,0
527,2024-09-16 20:41:55.799997070,0,006,0.13570861302930362,0.271016222566153,0.10594043938591563,-0.23353926853884904,-0.2388742587430126,0.1177952849784526,-0.13309591644543747,-0.43802737805999553,0
528,2024-09-16 20:41:55.877211182,0,006,0.15811197552709208,0.25810633693282486,0.2104917465633109,-0.23632514997864792,-0.19545496000136958,0.09863338289715262,-0.15334202658902105,-0.49127146096219876,0
529,2024-09-16 20:41:55.939199951,0,006,0.17481856864235393,0.24437506432912937,0.30417672691637493,-0.2360173313970188,-0.14943068875685667,0.07799224058402474,-0.1716727493170141,-0.5378670379270942,0
530,2024-09-16 20:41:56.893706055,0,006,0.18426518235277992,0.2304206130562135,0.3905687538050546,-0.23355501143349572,-0.10202003467598385,0.05643584313189878,-0.19109260672332598,-0.5756064235355346,0
531,2024-09-16 20:41:56.961491943,0,006,0.18548094762101006,0.21673596060804123,0.4750442563656559,-0.2299941744920234,-0.05445201046268125,0.03455755248453296,-0.21436731289819325,-0.6025490944037701,0
532,2024-09-16 20:41:57.025824951,0,006,0.1781883191284515,0.2036712271963324,0.5638023030927082,-0.22642718629349354,-0.007953459032455229,0.012960760938020925,-0.24379701281454538,-0.6170529651081166,0
533,2024-09-16 20:41:57.088310059,0,006,0.16280609902026794,0.19141753960937524,0.6625472848875964,-0.22383806958724828,0.03627137531563398,-0.007764162021006652,-0.28096104892979623,-0.617860918944106,0
534,2024-09-16 20:41:57.149882080,0,006,0.14035161335438653,0.18000904841716753,0.7752426556150435,-0.22294516928585242,0.0770813218665423,-0.027067672025386055,-0.32653883880579543,-0.604216797646349,0
535,2024-09-16 20:41:57.232377930,0,006,0.11227927124770215,0.16933759213802294,0.9033078970577658,-0.22410562017379795,0.11344190515682524,-0.04447038220143069,-0.3802508169378586,-0.5759560684390883,0
536,2024-09-16 20:41:57.288677002,0,006,0.08030356867253734,0.1591782917979494,1.0454000634872211,-0.22731376378592383,0.1444548272411959,-0.05959090485837121,-0.4408562058094601,-0.5335501390462996,0
537,2024-09-16 20:41:58.208482910,0,006,0.04623715790794799,0.14922781444747563,1.1976719945880407,-0.2322606156833495,0.16937587739376628,-0.07216956651308382,-0.5061357178380759,-0.4781211451741775,0
538,2024-09-16 20:41:58.286554199,0,006,0.011858230907801165,0.13915443131193295,1.3542909853372496,-0.23840624730134463,0.1876291859190296,-0.0820819025518757,-0.5728983087130691,-0.4114394771062152,0
539,2024-09-16 20:41:58.354294922,0,006,-0.021188340297500222,0.128651571442689,1.5079874619467506,-0.2450399528998389,0.19882712182674822,-0.08933681407439495,-0.6371442190852358,-0.3358850580254053,0
540,2024-09-16 20:41:58.422023926,0,006,-0.05146258503670209,0.11748317353941103,1.6504569734360712,-0.25131925435216945,0.20281309337057615,-0.0940631538557461,-0.6944582212263214,-0.2543376353163475,0
541,2024-09-16 20:41:58.489801025,0,006,-0.07778754175015835,0.10551459917722607,1.7726050375026265,-0.25629309619793794,0.19972857619609682,-0.09649323874887032,-0.7405481923502919,-0.16998815114501972,0
542,2024-09-16 20:41:58.546396973,0,006,-0.09929935018092093,0.09272918794815932,1.8647404135988261,-0.25892247528002615,0.19006793979369457,-0.0969453204502603,-0.7717681605201497,-0.08610444241873794,0
543,2024-09-16 20:41:58.623346191,0,006,-0.11547393419160121,0.07923107292104609,1.916806152498452,-0.25810643748354606,0.1746797221482446,-0.09580004198108602,-0.7855261903793215,-0.0057902461464743125,0
544,2024-09-16 20:41:59.562239990,0,006,-0.12611067940291829,0.0652359356477539,1.9187929771650392,-0.25273340472208977,0.15470919169719402,-0.093467769991618,-0.7805341973285265,0.06823665249143905,0
545,2024-09-16 20:41:59.624303223,0,006,-0.13128065894370958,0.05105533853760849,1.8615486254882416,-0.24179199874962135,0.13150160316477516,-0.09034959689184409,-0.75682981616121,0.13380974711159577,0
546,2024-09-16 20:41:59.701950195,0,006,-0.13126945870651566,0.037077949380068365,1.7380019384244862,-0.22453953575843766,0.10648510750429899,-0.08679902668539775,-0.7155111352562256,0.18937783545723907,0
547,2024-09-16 20:41:59.763524902,0,006,-0.12653141216902408,0.023743005318047104,1.544495113020325,-0.20066736969085655,0.08105587697287306,-0.08309321126640563,-0.6582660713926299,0.23396601850336218,0
548,2024-09-16 20:41:59.825578857,0,006,-0.11764995885096463,0.011501494776905917,1.2817736876485206,-0.17038621976828616,0.05649124929429456,-0.07942006930395376,-0.5869216385720639,0.26708874044594,0
549,2024-09-16 20:41:59.902895996,0,006,-0.10530016490651344,0.0007719175554870193,0.9552995667769957,-0.13438905197936432,0.033901214690358505,-0.0758817299369452,-0.5032147727477644,0.28867547803715937,0
550,2024-09-16 20:41:59.974961914,0,006,-0.09022097871997786,-0.008093334159782858,0.5748631927131066,-0.09370683039797709,0.014209908376473158,-0.07251069427813986,-0.40881569083722846,0.29902787526896024,0
551,2024-09-16 20:42:00.918497070,0,006,-0.0731989921921013,-0.014820048512222279,0.1537144343757719,-0.04951913164559785,-0.0018471902746863618,-0.06929290040773428,-0.3054793238613517,0.29878929750752936,0
552,2024-09-16 20:42:00.979084961,0,006,-0.05504920234961933,-0.01920679993856318,-0.2925906090197393,-0.0029839702033818377,-0.013726096109462668,-0.06618997104695817,-0.19517777495263622,0.2889042020124787,0
553,2024-09-16 20:42:01.041570068,0,006,-0.03658569322828394,-0.021114704648208287,-0.7474872048195872,0.04488043015701802,-0.02108785078109798,-0.06315525571686727,-0.08011329374158342,0.270559061582195,0
554,2024-09-16 20:42:01.119654053,0,006,-0.018599642954331953,-0.020461018827117892,-1.194609734738378,0.0932508461854518,-0.023810835052849366,-0.06014479105886543,0.03748687336943718,0.2450958399095399,0
555,2024-09-16 20:42:01.189414062,0,006,-0.0018574574105153464,-0.017219401870670427,-1.61865719042715,0.1414859146319421,-0.021972704647229852,-0.05712701609789988,0.15581733292404298,0.21388834969841386,0
556,2024-09-16 20:42:01.242362061,0,006,0.01289380327404048,-0.011426586853519301,-2.00589665891571,0.1890617915398008,-0.015799535581203582,-0.05409014547692235,0.27395842635796347,0.1782076675406863,0
557,2024-09-16 20:42:01.324894043,0,006,0.024928555570686756,-0.0031892954348230087,-2.3445277849579105,0.23550642033971517,-0.005628412774277141,-0.05104067584826858,0.392001170044182,0.13913810118491438,0
558,2024-09-16 20:42:02.268171143,0,006,0.03355622042188975,0.007319590302240096,-2.6250974759396506,0.2803760271029554,0.00807177683885069,-0.04798968341032566,0.5106934557424457,0.09758056597007912,0
559,2024-09-16 20:42:02.335958008,0,006,0.03815634836168916,0.01987959720642659,-2.8409218712852473,0.323264793797082,0.024635060898571412,-0.044932592634106754,0.6307876763852696,0.05431941763813813,0
560,2024-09-16 20:42:02.388422852,0,006,0.03825326106855587,0.03424534414945155,-2.9883258440983576,0.36379871487499504,0.04314525771017831,-0.04183224664455127,0.7523996773064596,0.010093406696217541,0
561,2024-09-16 20:42:02.471400879,0,006,0.03362651026869741,0.05015814056049087,-3.0666050092261257,0.4015870012946138,0.062437246084218745,-0.038611223556931015,0.8746220285781539,-0.03437961735798598,0
562,2024-09-16 20:42:02.526798096,0,006,0.02441277601994618,0.06734224202564829,-3.07782381115992,0.4361612280223407,0.08115221118717723,-0.03515318204966432,0.9954758542703204,-0.07843485227628738,0
563,2024-09-16 20:42:02.604419922,0,006,0.01114125716819413,0.08549345903444411,-3.0265909121709527,0.46695609415008815,0.09782101618962057,-0.03131042210405604,1.1121387432369523,-0.12151496299158981,0
564,2024-09-16 20:42:02.674614990,0,006,-0.005323911385751649,0.10427057138679979,-2.919778176708697,0.49335738270668084,0.11095363612315715,-0.026916019893912107,1.221342941812223,-0.16320160314494475,0
565,2024-09-16 20:42:03.607239990,0,006,-0.023913517002855277,0.12329746124362072,-2.766081206281893,0.5148028898925086,0.11912518219685833,-0.021799968992418924,1.3198602159039576,-0.20320946721349709,0
566,2024-09-16 20:42:03.684593994,0,006,-0.043500274053183546,0.14217765295264267,-2.575419569034638,0.5308935205961033,0.121057391677885,-0.015808222705247156,1.4049725652993785,-0.24134927459081323,0
567,2024-09-16 20:42:03.746207031,0,006,-0.06300479365593512,0.16051348468293825,-2.358219916351582,0.5414554890800416,0.11570142435316741,-0.008823167345361952,1.4748002799165427,-0.27746037811400714,0
568,2024-09-16 20:42:03.821392090,0,006,-0.08144072936972267,0.17791840091807604,-2.1246218932783663,0.5465221193385194,0.10232660500331797,-0.0007848590283479152,1.5284127844354793,-0.311321365496293,0
569,2024-09-16 20:42:03.884640869,0,006,-0.09792603913106099,0.19401734618202474,-1.883734822458748,0.5462712568487172,0.08060677449566105,0.008286804026263084,1.565753445136423,-0.3425686836574878,0
570,2024-09-16 20:42:03.956891113,0,006,-0.11169536826975095,0.20843996277648144,-1.6431644149743987,0.5409836975222017,0.0506868639055632,0.018270553413432717,1.5874601404698687,-0.3706537534896323,0
571,2024-09-16 20:42:04.022891113,0,006,-0.12212764673783646,0.2208181306608103,-1.4089311856572264,0.5310407823369114,0.013210920220699493,0.028930470061994465,1.5946435022108438,-0.39485176134043853,0
572,2024-09-16 20:42:04.935275146,0,006,-0.12879214700363628,0.23080045487783854,-1.185642903800219,0.5169168129150021,-0.03070639548970474,0.03992341042611105,1.5886666884185912,-0.4143178231498723,0
573,2024-09-16 20:42:04.997399170,0,006,-0.13151390071603727,0.2380883040993655,-0.9766487602218948,0.4991224786344574,-0.07956388387027064,0.05083322382906369,1.5709679894828579,-0.4281671847495085,0
574,2024-09-16 20:42:05.078888916,0,006,-0.1304442395766857,0.24248359868577785,-0.7840577361156013,0.478112921171437,-0.1315798401881496,0.061222404364533405,1.5429403154983827,-0.4355466127323054,0
575,2024-09-16 20:42:05.136697021,0,006,-0.12609984702163657,0.24392818991821935,-0.6087470887005566,0.45421306509204734,-0.18478326986799623,0.07068260416090193,1.505839032116729,-0.43567620959778514,0
576,2024-09-16 20:42:05.214312988,0,006,-0.11932664397872339,0.2425171084771279,-0.4505569684169729,0.4276023496797059,-0.23708880754897282,0.07887029720787542,1.460687379697582,-0.4278667770498973,0
577,2024-09-16 20:42:05.275885986,0,006,-0.11117153565366893,0.23848186447807507,-0.3087344797908571,0.3983742329075552,-0.28638797204173694,0.08552735019807992,1.4082026186042573,-0.4115463031065764,0
578,2024-09-16 20:42:05.340212158,0,006,-0.10269522078411983,0.2321546614204841,-0.18248282827530368,0.3666533593855854,-0.3306885260908968,0.09049629514463219,1.3488040085076958,-0.3863308727638449,0
579,2024-09-16 20:42:06.280160889,0,006,-0.09478671521548213,0.22392915462003046,-0.07134313475940862,0.33271142836850204,-0.36829428973165707,0.09373567530078519,1.2827207188003615,-0.3521306152252444,0
580,2024-09-16 20:42:06.357406982,0,006,-0.08802412600092063,0.2142274950709416,0.02476829344724868,0.297016290084172,-0.39797203550421056,0.09532784738145857,1.21013438179902,-0.30924180418045805,0
581,2024-09-16 20:42:06.422380859,0,006,-0.08259929762336671,0.20347487781540766,0.10573813808249885,0.26020437798522156,-0.4190418040227892,0.09546871891278799,1.131270409651647,-0.2583971652834412,0
582,2024-09-16 20:42:06.481867188,0,006,-0.07830875750882507,0.1920782401295327,0.17133641217089063,0.2230202134020138,-0.43136064298519583,0.09443931522335709,1.0464323749767894,-0.20079085027182175,0
583,2024-09-16 20:42:06.564395020,0,006,-0.07460579304198202,0.18040667633879584,0.22111599296909493,0.18625414342301896,-0.43522391519146497,0.09256902863236324,0.9560473846008217,-0.13809380987434877,0
584,2024-09-16 20:42:06.632132080,0,006,-0.07070925269685775,0.16877590648524543,0.2543952204902848,0.15066954117121173,-0.4312442198953427,0.09020170909073716,0.8607618848359186,-0.0724384086948589,0
585,2024-09-16 20:42:06.699886963,0,006,-0.06575971069945259,0.15744205005077908,0.27055196920126456,0.11691570959357839,-0.4202607921321764,0.0876715558230979,0.7615639721298691,-0.006339531783140433,0
586,2024-09-16 20:42:07.643418945,0,006,-0.058989514737551936,0.14660666363026126,0.26951204609870805,0.08545959079587544,-0.4032980876647944,0.08529132500407885,0.6598713623637198,0.057456383298648814,0
587,2024-09-16 20:42:07.706822021,0,006,-0.049861481073808465,0.1364292676510108,0.2521263597235625,0.05657050365569873,-0.3815581258277103,0.08335173673683313,0.5575028079198732,0.11617832527411183,0
588,2024-09-16 20:42:07.768875977,0,006,-0.038153634351272545,0.12704111346046668,0.2203027993794728,0.03034509499000578,-0.3564120768849301,0.08212636126494471,0.4565074240223279,0.16725768055375095,0
589,2024-09-16 20:42:07.846625000,0,006,-0.023992320424344644,0.11855446545227921,0.17700429006489096,0.006728962712742758,-0.32936284026149404,0.08187269785472626,0.35895590807707806,0.2085241276103087,0
590,2024-09-16 20:42:07.908539062,0,006,-0.007840356463268972,0.11106301041002041,0.12619112974323374,-0.01448083825396731,-0.3019721926756306,0.08282296662119959,0.26681326436101965,0.2383396364306428,0
591,2024-09-16 20:42:07.982135010,0,006,0.009554624921220573,0.10463257479161905,0.07264234403399848,-0.03363709905029478,-0.2757622406844148,0.0851659533388365,0.18187325877988836,0.2556850213011656,0
