,time,MARKER,pid,L_O_DSI,L_D_DSI,L_O_DSphi,L_D_DSphi,R_O_DSI,R_D_DSI,R_O_DSphi,R_D_DSphi,trial_id
0,2024-09-16 21:55:43.202464111,TASK_BEGIN,007,0.4809067016092978,0.28632089485719625,-4.1660723312295405,1.5688571082894458,1.51424514484735,3.3556287398529263,40.90021133893613,-12.56126236874332,0
1,2024-09-16 21:55:43.270091064,0,007,0.48486594853547926,0.2741352084322093,-4.1497302774353075,1.5565299029915376,1.7804472416059753,3.2141853096323043,39.473223664495706,-12.451370431382283,0
2,2024-09-16 21:55:43.337946045,0,007,0.48888376477922413,0.26110029318145905,-4.133577959359398,1.541679047812096,2.0046307379119157,3.0908083249541027,38.59538603481087,-12.48926891225117,0
3,2024-09-16 21:55:43.393758057,0,007,0.49298306839164646,0.2474511864938018,-4.1124649711737895,1.5255400275287903,2.1869539518390497,2.9846545743218504,38.30997452079487,-12.680803115381263,0
4,2024-09-16 21:55:43.472695068,0,007,0.49719835811650515,0.23338877100575559,-4.081326084327905,1.509399614041746,2.331677260497197,2.8937281502920973,38.63738907661753,-13.025514061080399,0
5,2024-09-16 21:55:44.386989014,0,007,0.5014954823081885,0.21909801886130234,-4.03567892867087,1.4944228628858702,2.446757338510222,2.815103687937935,39.56613555015092,-13.514385143232408,0
6,2024-09-16 21:55:44.449475098,0,007,0.5057256664435673,0.2047584956706109,-3.972113059032994,1.4814861649156277,2.5429983192287064,2.7452882540040098,41.04445957197101,-14.128305957807244,0
7,2024-09-16 21:55:44.527462891,0,007,0.5096201378861829,0.1905422727590509,-3.8886796684725016,1.471060851208442,2.632581708553143,2.680615600603594,42.977676034744924,-14.83787731484124,0
8,2024-09-16 21:55:44.595231934,0,007,0.5128189149521758,0.1766044708907406,-3.785068961382981,1.4631569287950001,2.727098779746112,2.617567758869952,45.23326649979933,-15.60463501443919,0
9,2024-09-16 21:55:44.662892090,0,007,0.5149268834226036,0.16307421685578596,-3.662535063769504,1.4573180085839341,2.8355893096655516,2.5529784324731652,47.65199136753787,-16.383388918220174,0
10,2024-09-16 21:55:44.721328857,0,007,0.5155925890586641,0.15004691234339462,-3.5236369670274152,1.452668378949022,2.9631937959907617,2.484121674411761,50.06157128160749,-17.12527312198471,0
11,2024-09-16 21:55:44.784339844,0,007,0.5145877364344947,0.13757539722542783,-3.3719327229212785,1.4480321416727893,3.110732758249895,2.4087249832627577,52.2902421473329,-17.781259532058105,0
12,2024-09-16 21:55:45.742087891,0,007,0.5118416369593889,0.12566381805582594,-3.2117461387290875,1.4421325796485023,3.2750873007946897,2.324963997803402,54.17911430770404,-18.306051413035455,0
13,2024-09-16 21:55:45.800718994,0,007,0.5074006723110496,0.11427058429062646,-3.0480524261725472,1.4338245184632665,3.4500761788150873,2.2314692623972783,55.592912036262334,-18.662126450451037,0
14,2024-09-16 21:55:45.863205078,0,007,0.5013366915897759,0.10332015259875385,-2.8864564174750034,1.4222774103312275,3.6275329935726006,2.127367646431629,56.42788946372163,-18.82331288154532,0
15,2024-09-16 21:55:45.940485107,0,007,0.49365970317213487,0.09271878943206524,-2.7331608750174348,1.4070638754863416,3.7982846327276096,2.0124202805565767,56.615582485527014,-18.777106542246006,0
16,2024-09-16 21:55:46.002970947,0,007,0.4842667220293343,0.08237103358256213,-2.5947958294429037,1.3881733904580515,3.9528587505154547,1.8872643302972882,56.122935543810335,-18.52526963785742,0
17,2024-09-16 21:55:46.080756836,0,007,0.4729196282633461,0.07219532921179278,-2.4780649597281066,1.3659961591185186,4.081967309717654,1.7536156456313743,54.9509938852416,-18.082826525975698,0
18,2024-09-16 21:55:46.142166016,0,007,0.45924112002792367,0.062137750394514246,-2.389243006829564,1.341291194290439,4.176933057682308,1.61427386035463,53.133608291235845,-17.476051772794637,0
19,2024-09-16 21:55:47.087907959,0,007,0.44274002083185465,0.05218420892943093,-2.3335245759507197,1.3151005961950888,4.230230676450811,1.4729097547835508,50.73572704990359,-16.740290335287437,0
20,2024-09-16 21:55:47.149931885,0,007,0.4228801962130374,0.04237373065405188,-2.3142335775829577,1.288569825614663,4.236190887266973,1.3337007249836188,47.849930694701335,-15.91808299444568,0
21,2024-09-16 21:55:47.227082031,0,007,0.39918247754969616,0.03281406094702955,-2.33209033419745,1.2627101511662024,4.191778894513189,1.2008878199055197,44.59057999643184,-15.057257557893449,0
22,2024-09-16 21:55:47.288594971,0,007,0.37132896109287117,0.023693164269307752,-2.3848907697185933,1.2382110235811634,4.097336718721143,1.0783449556448381,41.08671227553751,-14.208403557503885,0
23,2024-09-16 21:55:47.363212158,0,007,0.33924502216296987,0.01527479525026295,-2.467792218156818,1.215382638133585,3.9570405824160884,0.9692616104263894,37.47575134733211,-13.421707517503043,0
24,2024-09-16 21:55:47.429204102,0,007,0.3031482387142235,0.007875204791172688,-2.574042000066009,1.1942133728279287,3.778610953509861,0.8760107956888116,33.89885790735079,-12.743662796894982,0
25,2024-09-16 21:55:47.498713135,0,007,0.2635553898728727,0.0018333982956868294,-2.695806805012661,1.1744681012013256,3.5720802367595352,0.8002031288054267,30.496606735952202,-12.214138669640013,0
26,2024-09-16 21:55:48.414351074,0,007,0.22124827385204954,-0.002512121007717766,-2.8248579001514202,1.1557701825917952,3.3480553327487677,0.7428391266009179,27.4028243623677,-11.86384622160854,0
27,2024-09-16 21:55:48.484517090,0,007,0.1772209204583261,-0.004841510388239836,-2.9530566381856707,1.1376546802263208,3.11612382995556,0.7044378775294412,24.735683078046236,-11.712051047872588,0
28,2024-09-16 21:55:48.537935059,0,007,0.13262271431821104,-0.004874312226728327,-3.072725286379096,1.1196053181249213,2.883784676949523,0.6850717745256949,22.587694793425545,-11.76489214178818,0
29,2024-09-16 21:55:48.608993896,0,007,0.08868240817821078,-0.002392851701221787,-3.176985898052741,1.101085743502211,2.656035919083384,0.6843266969529082,21.01786411246459,-12.015056979288428,0
30,2024-09-16 21:55:48.686674072,0,007,0.046607228252809225,0.0027366160006400547,-3.2600360274323257,1.081565516249311,2.4355865521108644,0.7012697842689471,20.048261079680657,-12.443022702719434,0
31,2024-09-16 21:55:48.749160889,0,007,0.0074846770657732275,0.01054890774168456,-3.3172931782826978,1.060544300514035,2.2234433016749384,0.7344793821501804,19.66466057373722,-13.019311490724622,0
32,2024-09-16 21:55:48.811175049,0,007,-0.027786352633520126,0.020974602320104226,-3.3453989389879024,1.0375825276305177,2.01946832727073,0.7820940197623387,19.81936174512846,-13.707114410570691,0
33,2024-09-16 21:55:49.754760986,0,007,-0.058529758216641324,0.03384329506815854,-3.342112718140969,1.012331078241306,1.8225937815780722,0.8417994212660923,20.43527440232182,-14.465076053811858,0
34,2024-09-16 21:55:49.832381104,0,007,-0.08429225790621127,0.04888658412626122,-3.3061635370393754,0.9845437443150448,1.6306864977384117,0.910759045035732,21.41212065722486,-15.250447258296067,0
35,2024-09-16 21:55:49.901992188,0,007,-0.10481825352282828,0.06573515401716384,-3.2371670541553486,0.9540831728865387,1.4403612163078963,0.9855892267426588,22.6358198971065,-16.022710986372815,0
36,2024-09-16 21:55:49.969645020,0,007,-0.12002421171209694,0.08391548230875474,-3.135685777379197,0.9209516712400729,1.247212067505554,1.062443824229798,23.990815018594006,-16.74710476888281,0
37,2024-09-16 21:55:50.034321045,0,007,-0.12999144499954912,0.10285626825755517,-3.0034470466146996,0.8853544515137345,1.0468838130378786,1.1371514939504754,25.372949495009305,-17.396892718396085,0
38,2024-09-16 21:55:50.105107910,0,007,-0.13497567145675343,0.12191129629368075,-2.8436514083304942,0.8477650067750576,0.8369533665247919,1.2053186512080867,26.698820180176995,-17.953550303189804,0
39,2024-09-16 21:55:50.158822021,0,007,-0.13542328644418203,0.14039829546021515,-2.661163607907688,0.8089425833680693,0.6188937695918449,1.2624210098956765,27.90872757701792,-18.405042771783595,0
40,2024-09-16 21:55:51.101008057,0,007,-0.13198572827483382,0.15764662875586707,-2.4623256529540587,0.7698602439574798,0.39912694674745963,1.3039996911056984,28.963935352654143,-18.743183529839396,0
41,2024-09-16 21:55:51.177773926,0,007,-0.125522837825639,0.17304582194879434,-2.2543447103018677,0.7315464953194715,0.18868226137001923,1.3260225918579402,29.84130994822219,-18.961112042765773,0
42,2024-09-16 21:55:51.251981934,0,007,-0.11708408226292054,0.1860899211463362,-2.044489622793746,0.6948955703224042,0.0017350349177502752,1.3253291600239319,30.527949033419915,-19.051514152654875,0
43,2024-09-16 21:55:51.319730957,0,007,-0.10785849234777659,0.19641337917583798,-1.8393722780677544,0.6605152125044594,-0.14635811099817678,1.2999907627945222,31.016573112143288,-19.005852653107294,0
44,2024-09-16 21:55:51.378998047,0,007,-0.09909296872286329,0.20381200609242148,-1.6444769456819208,0.628653110256577,-0.24102535800180933,1.2494680009275756,31.300931245599163,-18.814597854096228,0
45,2024-09-16 21:55:51.441059082,0,007,-0.09199475305549239,0.20824323274310033,-1.4640207004795827,0.5992026187041792,-0.2701158981232289,1.1745625566584896,31.370571548360413,-18.468100425508958,0
46,2024-09-16 21:55:51.518685059,0,007,-0.08764909685142726,0.2098082292264449,-1.3011294713536508,0.5717624022328527,-0.22491958720756508,1.0771975745559625,31.20626520277316,-17.95770770553551,0
47,2024-09-16 21:55:52.457076172,0,007,-0.08697429610951878,0.20872608032295276,-1.1581825527013951,0.5457248484337661,-0.10047009738029739,0.9600437939026571,30.77856776405814,-17.276995149583502,0
48,2024-09-16 21:55:52.534451904,0,007,-0.09070104188169618,0.20530614591119795,-1.0371331985262822,0.5203789976286345,0.10459563016629289,0.8260738530520548,30.050586763935677,-16.423039566661082,0
49,2024-09-16 21:55:52.589817139,0,007,-0.09934167416336848,0.19991501409697196,-0.9396691686055401,0.4950214038727807,0.388250568052046,0.6781975801773135,28.984202774529013,-15.397630391945059,0
50,2024-09-16 21:55:52.668260010,0,007,-0.11313332041891025,0.19293346498362346,-0.8671746715470561,0.46907657597327407,0.7453048980137625,0.5190690653938542,27.54850787195391,-14.208440260673926,0
51,2024-09-16 21:55:52.730747070,0,007,-0.1319747704106839,0.18470840393879862,-0.8205471723837476,0.44222021003735057,1.1678306325192787,0.35104094993165175,25.728955205845338,-12.870130786064912,0
52,2024-09-16 21:55:52.792739014,0,007,-0.15539495145452234,0.17551277205873808,-0.799943364635552,0.41446493525654454,1.6458535482092005,0.17619699138223965,23.535068060306205,-11.405097683810096,0
53,2024-09-16 21:55:52.870887939,0,007,-0.1825762177948929,0.16552474195080985,-0.8045019698954973,0.3861603084982137,2.1681554016642157,-0.00357771607375504,21.004229611718394,-9.84340817999855,0
54,2024-09-16 21:55:53.813583008,0,007,-0.2124261238090562,0.1548309393519149,-0.8321154308649061,0.35790282390027695,2.7229063807432157,-0.18647975865458813,18.200116069455806,-8.221677267871167,0
55,2024-09-16 21:55:53.884739014,0,007,-0.2436711973278046,0.14345098139572984,-0.8793530490960678,0.3303959581271688,3.2978316139302257,-0.3705853691588568,15.206906533410676,-6.581089905549556,0
56,2024-09-16 21:55:53.952590088,0,007,-0.2749434325473526,0.13137302940617251,-0.9415758928834042,0.3043099368158537,3.8797715435646913,-0.5535455910603203,12.1218239044282,-4.965099420533201,0
57,2024-09-16 21:55:54.015312988,0,007,-0.3048523239992599,0.11858973667912986,-1.013189431731877,0.28018214439179684,4.453835558651943,-0.7322453794821264,9.047238279784333,-3.4172426554635633,0
58,2024-09-16 21:55:54.077456055,0,007,-0.3320651590482555,0.10513159258606956,-1.08795080668804,0.25837908863478565,5.002617269012852,-0.902586037222562,6.082865303139167,-1.9792776794993503,0
59,2024-09-16 21:55:54.155563965,0,007,-0.3554095885928225,0.09109797580164448,-1.159296160717889,0.2391143138878286,5.505932035495667,-1.059542503054156,3.319958017975723,-0.689733698217063,0
60,2024-09-16 21:55:54.223615967,0,007,-0.3739679273365195,0.07667989499499475,-1.2207265971292611,0.22250050010284375,5.941337811360053,-1.197523157079895,0.8390872241308696,0.4171726344747975,0
61,2024-09-16 21:55:55.142520996,0,007,-0.3871150515279105,0.062162341281695954,-1.2662732785485689,0.20860571747434578,6.285463944524089,-1.3109290234421185,-1.2894232017774179,1.312479449493325,0
62,2024-09-16 21:55:55.210448975,0,007,-0.39449409218796144,0.047900716668463954,-1.2909546784685622,0.197479729740022,6.515987141126309,-1.3947723947031312,-3.004477542518144,1.9735448358685086,0
63,2024-09-16 21:55:55.274947021,0,007,-0.39597668653695683,0.034280468141319236,-1.291117552006521,0.18913765868601398,6.614046584931014,-1.4452743856847106,-4.253694822621384,2.385396356264952,0
64,2024-09-16 21:55:55.337071777,0,007,-0.39164865656440206,0.021674700249265943,-1.2646340516790564,0.1835260440300357,6.566957941828857,-1.4604266730198419,-4.9934425738853525,2.542273340603338,0
65,2024-09-16 21:55:55.399508057,0,007,-0.3818144357226447,0.01040994517921298,-1.2109585225573172,0.18049707333227683,6.370999902443027,-1.4404731343175354,-5.189555758082394,2.448921267754451,0
66,2024-09-16 21:55:55.477130859,0,007,-0.3669944871591199,0.0007461072663067869,-1.131037775795671,0.17977937045030648,6.033635846903336,-1.3881728402293008,-4.81982163495086,2.121217726199473,0
67,2024-09-16 21:55:55.539135010,0,007,-0.3479048742505827,-0.007128959964360373,-1.0270943059842086,0.18092022757632678,5.574128626927286,-1.3086904828255506,-3.8793385763446167,1.5860735498809442,0
68,2024-09-16 21:55:56.492727051,0,007,-0.32541655511186257,-0.013097523972733718,-0.9023330777696661,0.18320688403247376,5.021758837608513,-1.2090753468957312,-2.387930314761449,0.880559535010537,0
69,2024-09-16 21:55:56.560153076,0,007,-0.3004932990941692,-0.017109687521386252,-0.7606550197187084,0.1856146726229006,4.411995399839277,-1.0974509083149255,-0.3971816599824365,0.05009054975077142,0
70,2024-09-16 21:55:56.618058105,0,007,-0.27411807797861876,-0.019180832268154136,-0.606466517404783,0.18683616035351494,3.78207512355639,-0.9821348558986163,2.0049807169753064,-0.8541171754047309,0
71,2024-09-16 21:55:56.680545166,0,007,-0.24722380853892434,-0.019387122892898467,-0.44458661242914777,0.18541227038334462,3.167363750790855,-0.8708821449772469,4.693936550024004,-1.7778344509017407,0
72,2024-09-16 21:55:56.758203125,0,007,-0.22063253725785367,-0.017861582169402573,-0.28019272549424057,0.1799461900121042,2.598896081435137,-0.7703213687950905,7.514220847122959,-2.6667352348998374,0
73,2024-09-16 21:55:56.831446777,0,007,-0.19499849605781722,-0.014795473877597946,-0.1188094491650257,0.1693569044603309,2.1017873385409893,-0.6855432623532157,10.292032090892885,-3.469569250746278,0
74,2024-09-16 21:55:56.897440918,0,007,-0.1707598174806783,-0.010446102659087166,0.03364942477910789,0.15311206029282723,1.6941399529933154,-0.6197891392709144,12.852226743122642,-4.141465713259355,0
75,2024-09-16 21:55:57.829212891,0,007,-0.1481129539155219,-0.0051454166309958084,0.17088037958549768,0.1313769831045281,1.3862868317702703,-0.5742553789379409,15.036191408947076,-4.647029464307186,0
76,2024-09-16 21:55:57.906346924,0,007,-0.12701745800451958,0.0007002953104069512,0.28633130412414826,0.10505316313242577,1.1804366450996406,-0.5480884575189807,16.71683940109688,-4.962849369002457,0
77,2024-09-16 21:55:57.968343018,0,007,-0.10722545908719128,0.006626606270778282,0.3734830374696897,0.07572956022533898,1.0709227460633381,-0.538635936128426,17.807563001353007,-5.0788547724396045,0
78,2024-09-16 21:55:58.030831055,0,007,-0.08832538898656905,0.012140959503545863,0.4262330741129595,0.04557159393000623,1.0451854130364333,-0.5419251630054305,18.263749903373363,-4.99796255710255,0
79,2024-09-16 21:55:58.108987061,0,007,-0.06979850431579321,0.01675641004182806,0.43936643384444296,0.017134063730617065,1.0853707329823838,-0.5532365427199558,18.078229666379517,-4.734159858791418,0
80,2024-09-16 21:55:58.181571045,0,007,-0.051095147277548277,0.020020491268204623,0.4090934719271144,-0.006917473266557814,1.1703000366386236,-0.5676413125012215,17.27414499454248,-4.309998085452619,0
81,2024-09-16 21:55:58.249445068,0,007,-0.031723866399764516,0.021538536978182015,0.33360078332792714,-0.02414240337842409,1.2776210281698672,-0.5804571698212828,15.899006600491518,-3.754468996962579,0
82,2024-09-16 21:55:59.159447021,0,007,-0.011321412203814923,0.020994458820715076,0.21351609251747905,-0.03264202476902847,1.3859676322140824,-0.5876229855058269,14.022224419912249,-3.1015629555270166,0
83,2024-09-16 21:55:59.235254150,0,007,0.01032477909475631,0.018168619627361767,0.05214907468198384,-0.031283418228008605,1.476890060946457,-0.5859841564864118,11.735731823260203,-2.3892559233935216,0
84,2024-09-16 21:55:59.297442871,0,007,0.03329420410244829,0.012949215384338764,-0.14459672925111117,-0.019788472040143598,1.5363020271074233,-0.5734538075201274,9.154362855388081,-1.6583071343856939,0
85,2024-09-16 21:55:59.370693848,0,007,0.05755863221067214,0.005334449844128626,-0.36860835672598097,0.0013129867933570026,1.5553057636447762,-0.5490281121690466,6.411995146079093,-0.9501449657860197,0
86,2024-09-16 21:55:59.437403076,0,007,0.08298922297647479,-0.004573944294398737,-0.6100776706620247,0.03082895372335599,1.5304767195383244,-0.5127124907820425,3.652538394562819,-0.303857798715901,0
87,2024-09-16 21:55:59.499787109,0,007,0.10933925763340757,-0.016580724439836853,-0.8580175547008786,0.06708895750460954,1.4637496726644759,-0.46544921506579345,1.0183645190751738,0.24664959791368168,0
88,2024-09-16 21:55:59.573820068,0,007,0.13621545650460487,-0.030404396755437747,-1.1008102992177846,0.1081169951422344,1.3618000301230309,-0.4090402362202652,-1.360780268126346,0.6744050546631548,0
89,2024-09-16 21:56:00.512440918,0,007,0.1630600381796078,-0.04568185128725168,-1.326840249025533,0.15178180218003737,1.234708824698183,-0.3459772012252691,-3.377225621100014,0.9602812697579303,0
90,2024-09-16 21:56:00.584620850,0,007,0.18915552133639787,-0.06197665349958032,-1.525159083484151,0.19594485915822832,1.0940793318352409,-0.2791588613474587,-4.95357263810569,1.0938451804795144,0
91,2024-09-16 21:56:00.645940186,0,007,0.21364956095372886,-0.0787946591371947,-1.6861248958806525,0.238633963512319,0.9512173417370257,-0.21158494731047378,-6.049506529242427,1.0741474116087943,0
92,2024-09-16 21:56:00.708118896,0,007,0.2355958095412721,-0.09560420406518572,-1.8020012497461753,0.2782296925445112,0.8159386652501796,-0.14611963456541827,-6.665881622747029,0.9098538352028053,0
93,2024-09-16 21:56:00.785322021,0,007,0.25401032701890286,-0.1118562547601021,-1.8674699619260418,0.31360030331898686,0.6960732596363951,-0.08534630335196429,-6.845491418241243,0.6186890948878958,0
94,2024-09-16 21:56:00.847805908,0,007,0.26794227630921424,-0.1270042451098335,-1.8799759691442648,0.34413250487041225,0.5973200547700329,-0.03148316992378489,-6.671054666593068,0.22666784746714824,0
95,2024-09-16 21:56:00.909875000,0,007,0.2765569568224495,-0.14052958971907137,-1.8398344781771752,0.36966969192467625,0.5231073202419457,0.013685972456637207,-6.259446522284731,-0.23296445759076226,0
96,2024-09-16 21:56:01.866965088,0,007,0.27922758182140134,-0.15197888957715017,-1.7500589304117273,0.39041000144934734,0.4743985460557085,0.04890173248859143,-5.749857374393588,-0.7216964391816697,0
97,2024-09-16 21:56:01.920635010,0,007,0.2756228933723585,-0.16100807379559262,-1.615947440082834,0.40680490142345727,0.4496559133657347,0.07353676192864493,-5.286090643434707,-1.1988393404351863,0
98,2024-09-16 21:56:01.999439941,0,007,0.26576531135284187,-0.1674157903961345,-1.4445739995248137,0.4194718748475642,0.44525068814822905,0.08767065157525833,-4.996659066381771,-1.6253061707412082,0
99,2024-09-16 21:56:02.059961182,0,007,0.2500378887014389,-0.17114986899523113,-1.2443378437062134,0.4291268485231785,0.45642647804682274,0.09206877919734056,-4.977008173539403,-1.9673670640082352,0
100,2024-09-16 21:56:02.137685059,0,007,0.2291436789148471,-0.1722891316030968,-1.0246198556435469,0.43654159683425897,0.4784853983834296,0.08806048513854728,-5.277986364537175,-2.1995021166577655,0
101,2024-09-16 21:56:02.200169922,0,007,0.2040398512224393,-0.17101721719561033,-0.7955124634592238,0.44252254793955165,0.5075459374480474,0.07739872284933247,-5.904005473654682,-2.3055516856668086,0
102,2024-09-16 21:56:02.273598877,0,007,0.1758608022460981,-0.16759889813528753,-0.5675642347063442,0.4479005311486176,0.5405256106272244,0.06217634779978216,-6.820538508975358,-2.278112451851967,0
103,2024-09-16 21:56:03.197685059,0,007,0.14583257100335378,-0.16235596327111487,-0.3514551884405681,0.4535189905281223,0.5746335864380226,0.0447781193485867,-7.9663974484657025,-2.116960579741492,0
104,2024-09-16 21:56:03.272438965,0,007,0.11518602580455845,-0.15563972007679946,-0.15752005129856017,0.46020214380955576,0.6068721139199685,0.02779891039943436,-9.266067110214761,-1.8274150676466883,0
105,2024-09-16 21:56:03.340054932,0,007,0.0850831294744158,-0.14780688287177332,0.004893607219420918,0.46868077619623344,0.6338080642023181,0.013895908260920681,-10.639750323745329,-1.419230958137504,0
106,2024-09-16 21:56:03.407903809,0,007,0.05656253619381947,-0.139206961753894,0.12814666345684372,0.4794673428233659,0.6515976964272757,0.005611271965289031,-12.01049311783725,-0.9062665220135918,0
107,2024-09-16 21:56:03.475550781,0,007,0.030499745879044964,-0.13017895626513973,0.20694643975399948,0.492704514226593,0.6561471533177213,0.005245282444247026,-13.30817535458783,-0.3067641555812021,0
108,2024-09-16 21:56:03.538020996,0,007,0.007576216006430311,-0.1210466850613672,0.23875099545943804,0.5080367419273021,0.6433793222965444,0.014828200242676703,-14.470411362833332,0.3562733782177889,0
109,2024-09-16 21:56:03.596708984,0,007,-0.01174740732371271,-0.11210380731537434,0.22391420561702763,0.5245507308874071,0.609650807669179,0.036165957655045065,-15.44147743492269,1.0551064494270932,0
110,2024-09-16 21:56:04.567156006,0,007,-0.02725654655827474,-0.10358905397369426,0.16562866170012594,0.5408129679768674,0.552296643921147,0.07088249553458419,-16.171194110415847,1.7579133245477974,0
111,2024-09-16 21:56:04.626905029,0,007,-0.03899446675470424,-0.0956636094071575,0.06967099023165578,0.5550135715049032,0.47022943660824523,0.1203540454554069,-16.615084315252055,2.4302551654344944,0
112,2024-09-16 21:56:04.689389893,0,007,-0.04723837956771278,-0.08840577655987752,-0.056066659346501256,0.5651901686663082,0.36451326330738,0.18547257320647875,-16.735965604619405,3.037480212072461,0
113,2024-09-16 21:56:04.767551025,0,007,-0.05243335806778203,-0.08182663226136579,-0.20219089761024162,0.5694713087868876,0.23875676666091916,0.2663007503365171,-16.506600120756612,3.54778185539099,0
114,2024-09-16 21:56:04.830035889,0,007,-0.05510145561646617,-0.07589567687121303,-0.358476750676957,0.5662887210151893,0.09912039333653051,0.3617533541861299,-15.913084666374887,3.9352657163528906,0
115,2024-09-16 21:56:04.905883057,0,007,-0.05575014353348718,-0.07056374352301537,-0.514564039977371,0.5545347325227236,-0.046162970640854464,0.4693984598606582,-14.958349831701492,4.182392634726381,0
116,2024-09-16 21:56:04.973625000,0,007,-0.054800138714711476,-0.06577984648591277,-0.6606440908930185,0.5336438723117374,-0.18771311767443533,0.5854462090309026,-13.664357863354681,4.281332025844794,0
117,2024-09-16 21:56:05.905627930,0,007,-0.05254881554906721,-0.06150464412554704,-0.7880553073645683,0.5035916378238902,-0.3162476469448,0.7050037218135607,-12.071676673990778,4.234083900619472,0
118,2024-09-16 21:56:05.983283936,0,007,-0.04917512146439905,-0.05772033240139565,-0.8897384748100106,0.4648430812439311,-0.42389161499662864,0.8225768780831981,-10.236165487251142,4.051622188751981,0
119,2024-09-16 21:56:06.044825928,0,007,-0.044775891233530846,-0.05443245384930189,-0.9605400549182559,0.41829270406953883,-0.5051811279803227,0.9326506633712114,-8.22314755684595,3.7523619559419292,0
120,2024-09-16 21:56:06.120520996,0,007,-0.03941161137747793,-0.05166058084732554,-0.9973440072604686,0.36520244873080465,-0.5575176116670185,1.0301923818405554,-6.099512800600603,3.3599460846288474,0
121,2024-09-16 21:56:06.188239990,0,007,-0.03313824238975077,-0.04942112519067122,-0.9990454356130013,0.3071226094395299,-0.5811437021951469,1.1110544562776767,-3.924587089604243,2.900239799629994,0
122,2024-09-16 21:56:06.245686035,0,007,-0.026018008998756514,-0.04770922348187803,-0.9664121835078399,0.24579430904266192,-0.5789336950210483,1.1723040467878367,-1.7415537897997169,2.397864985418792,0
123,2024-09-16 21:56:06.323795166,0,007,-0.018125725170444057,-0.046483641789316375,-0.9018272121132952,0.18304357147807215,-0.5562425327773604,1.2124669866224573,0.42791656579455295,1.8731362035137997,0
124,2024-09-16 21:56:07.263299072,0,007,-0.009568703551712564,-0.045654710164313335,-0.8089040213026867,0.12067410110983581,-0.5207433938312184,1.231654183634776,2.583381865600581,1.3402872788539018,0
125,2024-09-16 21:56:07.325783936,0,007,-0.0005159295623086255,-0.04507727593697566,-0.6920982883881477,0.0603719242682501,-0.48190409532745637,1.2315481603757614,4.739065631989716,0.8074870979646609,0
126,2024-09-16 21:56:07.387810059,0,007,0.008785122166482367,-0.04455527896676541,-0.5564692775886881,0.0036314233253865544,-0.4498753089630358,1.2152294894377365,6.912889908638987,0.2786148680755747,0
127,2024-09-16 21:56:07.466170166,0,007,0.01802156725279606,-0.04386304139383349,-0.4075720072617111,-0.04831124337459502,-0.4340126648319612,1.1868316992629324,9.114364428286196,-0.24384185793382163,0
128,2024-09-16 21:56:07.538433105,0,007,0.026857825183025385,-0.04277940819858139,-0.25133791380048975,-0.09454522728175481,-0.4415988045701045,1.1510463104111395,11.334678452417743,-0.7559162903897795,0
129,2024-09-16 21:56:07.606195068,0,007,0.03499168590908646,-0.04112243504418985,-0.09387384827716466,-0.13452434493019857,-0.4772561292831178,1.1125509451876368,13.54168907264616,-1.2503971119567696,0
130,2024-09-16 21:56:07.672651123,0,007,0.04220517998706694,-0.03877168490937819,0.058792108769809864,-0.16805055656311027,-0.5430913957419979,1.0754752729782735,15.680560597296964,-1.716428933791246,0
131,2024-09-16 21:56:08.609592041,0,007,0.04840263110695693,-0.03567223343779167,0.20098626044060441,-0.19521062691587268,-0.639207470769511,1.0430101781512866,17.678709366768906,-2.140015610349108,0
132,2024-09-16 21:56:08.670962158,0,007,0.05363375925571751,-0.03182338062980411,0.3276590931736422,-0.21628704574209198,-0.7642225874322043,1.0172039936204393,19.45315659488404,-2.505008891871206,0
133,2024-09-16 21:56:08.747834961,0,007,0.05809006444684808,-0.027259688667220585,0.4345947739803202,-0.23165117958401524,-0.9156986742546893,0.9989336962510563,20.918230386252866,-2.7944098975850395,0
134,2024-09-16 21:56:08.815769043,0,007,0.06206477099037979,-0.022032105785333156,0.5185232297701863,-0.2416574261422685,-1.0904980919125138,0.988027056441469,21.99198366043141,-2.9918226479506984,0
135,2024-09-16 21:56:08.873137939,0,007,0.06589450990106858,-0.016196137651831016,0.5771618195800756,-0.246574465631495,-1.284964064717704,0.9835070044708984,22.602105966079005,-3.083069096006553,0
136,2024-09-16 21:56:08.951243896,0,007,0.06991290644769689,-0.009809376103920372,0.6092462297301166,-0.2465645428915072,-1.4947325561569558,0.9839023497046168,22.6931734948515,-3.0580799805660934,0
137,2024-09-16 21:56:09.013242920,0,007,0.07441888998373161,-0.0029312078023416115,0.6145749718645023,-0.2416837515906405,-1.7141985602260892,0.9875569425254427,22.234250719945063,-2.9125718819496638,0
138,2024-09-16 21:56:09.942497070,0,007,0.07963943453386915,0.004383867385890904,0.5940391569754796,-0.23188623170741138,-1.9360211746515932,0.9928858126212349,21.223325032253502,-2.6484182568630765,0
139,2024-09-16 21:56:10.010272949,0,007,0.08567733152648993,0.012096617724962877,0.5496078120657947,-0.21705917920447423,-2.151175195494371,0.9985417858625475,19.686080532563697,-2.2721885167522378,0
140,2024-09-16 21:56:10.067172119,0,007,0.09245674483376384,0.02018728566796969,0.4842582561661136,-0.19712414491102476,-2.3497764148652682,1.0034713691001806,17.669349850966388,-1.7925944771513984,0
141,2024-09-16 21:56:10.144860107,0,007,0.09969263780068292,0.028649445559855515,0.4018362888800013,-0.17219491689739355,-2.522391732225387,1.006859635118427,15.232344587817332,-1.2182395110106845,0
142,2024-09-16 21:56:10.206893066,0,007,0.10690931646692291,0.037476327311607015,0.3068524969323442,-0.14274281728569746,-2.6612579361605615,1.0079911196607303,12.439856829488075,-0.5566550746227507,0
143,2024-09-16 21:56:10.281234863,0,007,0.11351343663420801,0.04664209841949249,0.2042563658216939,-0.10971823317231758,-2.7610637016104924,1.006108552931705,9.359671218848542,0.18539363426537883,0
144,2024-09-16 21:56:10.345997070,0,007,0.1189013669428871,0.056079196273816766,0.09921212995653751,-0.07459403698084151,-2.819341516105134,1.0003801241179568,6.06329486698769,1.0010421489127224,0
145,2024-09-16 21:56:11.267520996,0,007,0.12257033015174616,0.06565729383397244,-0.0031271174580278396,-0.03932496795545188,-2.8366047152707288,0.9899979623166211,2.6277778029195336,1.882427202636173,0
146,2024-09-16 21:56:11.326062988,0,007,0.1242056327192385,0.07517422214388939,-0.09785456616256608,-0.006231475391394074,-2.8162266673121508,0.9742975342045065,-0.8630782591605338,2.8196658998369624,0
147,2024-09-16 21:56:11.402803955,0,007,0.12372377009075397,0.08436516399822827,-0.1805577043128587,0.022198335861521187,-2.764048598089552,0.9527799542473929,-4.319237302026382,3.799556123249427,0
148,2024-09-16 21:56:11.464798828,0,007,0.12126551067304202,0.09292701778036282,-0.24754177286869974,0.043588691090718744,-2.6878590388934067,0.9250457414547452,-7.6475827309519815,4.804507653582152,0
149,2024-09-16 21:56:11.526794922,0,007,0.11715185174798036,0.10054879823888535,-0.2959542783543373,0.05599339757429014,-2.5968836821902914,0.890745285891444,-10.75770193300055,5.812561704108984,0
150,2024-09-16 21:56:11.606427002,0,007,0.11182753591407847,0.10693811359131132,-0.3237905365482065,0.05817478977009397,-2.5011725213018297,0.8496198650116871,-13.568568713850594,6.7986196654435895,0
151,2024-09-16 21:56:11.674015137,0,007,0.10581391724880439,0.11183788682714287,-0.3298657675504961,0.049778939521154385,-2.410694310982103,0.8016270801628678,-16.013513943259486,7.7360474220054085,0
152,2024-09-16 21:56:12.603651123,0,007,0.09967342495952754,0.11503632015226314,-0.3138774726201392,0.03137717725910966,-2.3342684912349068,0.7471129619447201,-18.042122115589553,8.597838819094354,0
153,2024-09-16 21:56:12.681291992,0,007,0.09396720904126356,0.1163782921316861,-0.2765872526971695,0.004381890449137074,-2.27873968326423,0.6869986951801159,-19.61979465482134,9.357319187003075,0
154,2024-09-16 21:56:12.743360107,0,007,0.08919431599085806,0.11577926775826103,-0.21998416759601144,-0.02913481654767273,-2.248606354065152,0.6229392516787898,-20.726394445104194,9.988976492338159,0
155,2024-09-16 21:56:12.805407959,0,007,0.08572951517558948,0.11323263781403875,-0.14722775447011943,-0.06669240206874556,-2.2459120956759433,0.5573663579224013,-21.354935452756102,10.469986544709299,0
156,2024-09-16 21:56:12.883038086,0,007,0.08378808591404996,0.10880460708548148,-0.06230775869287772,-0.10569706491055145,-2.2701563722466642,0.4933167591270679,-21.51121451547872,10.782500933376365,0
157,2024-09-16 21:56:12.956302002,0,007,0.08342299292738002,0.10262392943368046,0.03043330169793803,-0.14373339920828204,-2.3183223424923254,0.43404777355252894,-21.21494038720526,10.916114227373551,0
158,2024-09-16 21:56:13.024171143,0,007,0.08453205129232173,0.09487877008965534,0.12670924420176846,-0.17878789430991726,-2.385275512437677,0.38257754734187416,-20.501543808919884,10.869527710085059,0
159,2024-09-16 21:56:13.967853027,0,007,0.08685850994639269,0.08582295609681105,0.2225368147260554,-0.20937040471003435,-2.4644803547697935,0.3413122973656852,-19.422827032397077,10.650690398097694,0
160,2024-09-16 21:56:14.031082031,0,007,0.08999686810063702,0.07578033291915794,0.31431997381896254,-0.23455510822702333,-2.5486915140476167,0.3118385737340061,-18.045295355051515,10.275574464573612,0
161,2024-09-16 21:56:14.093141113,0,007,0.09341846288391496,0.06513318149392229,0.3987879446615908,-0.2539831446903893,-2.6303747401058577,0.2948755599347746,-16.446847931973444,9.766434300546113,0
162,2024-09-16 21:56:14.170889893,0,007,0.09650819550333216,0.054291429752905324,0.47286575116165785,-0.2678511477708298,-2.701893772700698,0.29036027751264704,-14.713327519225215,9.150259972010966,0
163,2024-09-16 21:56:14.233375000,0,007,0.0985980917904428,0.043654158222531374,0.5336330612685551,-0.27688228929086783,-2.755702621280227,0.2976309755122691,-12.935012157143948,8.457499057492495,0
164,2024-09-16 21:56:14.306554932,0,007,0.09900248171237813,0.03357900077574163,0.5784537863193876,-0.2822514792062548,-2.7847651810795737,0.315638213206369,-11.201771414705805,7.720690803066538,0
165,2024-09-16 21:56:14.374320068,0,007,0.09707229486855098,0.024364557563532722,0.6051907455033881,-0.28543532043566067,-2.7831695395166824,0.3431092487867404,-9.596643802884147,6.972665254416032,0
166,2024-09-16 21:56:15.314315186,0,007,0.09227152248759599,0.016240870635050687,0.6123613857587962,-0.287990871900435,-2.7466784834747595,0.37864939428153394,-8.189201334395577,6.244163516801512,0
167,2024-09-16 21:56:15.376570068,0,007,0.08425020737797005,0.009364389790725257,0.5991800372431799,-0.29130291697538896,-2.672951845052918,0.4207957820164753,-7.030289288054558,5.561026250089524,0
168,2024-09-16 21:56:15.441369141,0,007,0.07288119140334078,0.003817460384861561,0.5655458511961303,-0.2963577880738646,-2.5613108515883907,0.4680150708769183,-6.14936618885658,4.941522185532926,0
169,2024-09-16 21:56:15.521549072,0,007,0.05825459646435122,-0.0003891111359036423,0.5120566553384549,-0.30359926816861826,-2.4121640748651703,0.5186388771111033,-5.555056715198488,4.3946160527587095,0
170,2024-09-16 21:56:15.589289795,0,007,0.0406513847930612,-0.003311097258622024,0.4400484031453442,-0.3128878120737114,-2.2265054303464544,0.5707745500980479,-5.238449543757425,3.919738120046665,0
171,2024-09-16 21:56:15.647889893,0,007,0.02051442750742096,-0.005059869067068477,0.3515985424732234,-0.323545624092092,-2.005886441007308,0.6222485605949002,-5.177948421044075,3.5081558418607446,0
172,2024-09-16 21:56:15.709422119,0,007,-0.0015824594597812773,-0.005783992607722378,0.24946014260174645,-0.3344629165149519,-1.7528610215025497,0.6706125466268499,-5.3445206051289755,3.1456338395519716,0
173,2024-09-16 21:56:16.666891113,0,007,-0.0249713958877904,-0.005649756422055558,0.136939539158602,-0.3442523782100515,-1.4715517780837666,0.7132015499677257,-5.70640003605453,2.815807014499088,0
174,2024-09-16 21:56:16.734605957,0,007,-0.04893348167850296,-0.004827337988412527,0.01776078552419793,-0.3514434581557048,-1.1679916825287309,0.7472221846362992,-6.232620641960508,2.5035903916042903,0
175,2024-09-16 21:56:16.789413818,0,007,-0.07275298511056733,-0.003480857444685034,-0.10402904983393689,-0.3546951957612717,-0.8500488221268704,0.7698611146227182,-6.895550893334046,2.1979913796307877,0
176,2024-09-16 21:56:16.867614014,0,007,-0.09578641681537085,-0.0017560010168324158,-0.22412051561560245,-0.3529861728660485,-0.5268867912147298,0.7784148141185915,-7.673072308671717,1.8939407630486897,0
177,2024-09-16 21:56:16.929763916,0,007,-0.11753006505007808,0.00023469147930284417,-0.33805247407221856,-0.3457400213793502,-0.20811775214915107,0.7704713334532031,-8.550205667839231,1.5930123991749836,0
178,2024-09-16 21:56:17.005547119,0,007,-0.13765781534801916,0.002419904881023865,-0.441445985643058,-0.3328693123189012,0.09697535984130103,0.7441998090575843,-9.518756889984445,1.3028287416864925,0
179,2024-09-16 21:56:17.068761230,0,007,-0.15601433510248078,0.004761633067574657,-0.5303473875920334,-0.3147490144345866,0.37981482069165357,0.6987381809987666,-10.57358307924554,1.0349702110278536,0
180,2024-09-16 21:56:18.016863037,0,007,-0.17256485257741783,0.007230279980419506,-0.6015759594649577,-0.29215031562281063,0.6326266301501641,0.6345496943072564,-11.705757354440436,0.8018420489263741,0
181,2024-09-16 21:56:18.084054932,0,007,-0.18731660704944103,0.009773017430402205,-0.6529564306227924,-0.26616321306742846,0.8487408009415508,0.5535827892348644,-12.895116355205115,0.6135538331667653,0
182,2024-09-16 21:56:18.142479004,0,007,-0.2002401930152598,0.01229006434146299,-0.6833983215147852,-0.23811080895225015,1.023235166689086,0.4591581857569569,-14.105774275518527,0.47571766080289357,0
183,2024-09-16 21:56:18.220152100,0,007,-0.21121249391203156,0.014624960004159748,-0.6928736652992923,-0.20944585944909277,1.153489485186733,0.3556282750825277,-15.287350728644986,0.38860674599685513,0
184,2024-09-16 21:56:18.287937012,0,007,-0.21999010443856412,0.016565791466718747,-0.682368474376004,-0.18163282038755313,1.239166530646412,0.2479193005910427,-16.381958456344833,0.3477498182107443,0
185,2024-09-16 21:56:18.343406982,0,007,-0.22622928033647124,0.01785715786997941,-0.6538561786770771,-0.1560204581727185,1.2814968301815328,0.1410794709332565,-17.333752741416923,0.34555854719854523,0
186,2024-09-16 21:56:18.423011963,0,007,-0.22956676934617654,0.01822646394016952,-0.610283108524196,-0.1337051224727389,1.2821142102209995,0.03993426551217292,-18.096744068916472,0.37318363677961064,0
187,2024-09-16 21:56:19.367131104,0,007,-0.2297357663729202,0.017421521402733,-0.5554971039781383,-0.11540777893339134,1.2419586141720553,-0.05112040317384796,-18.63848715717303,0.421930014653965,0
188,2024-09-16 21:56:19.434850830,0,007,-0.22664997282380858,0.015246367691658795,-0.49407193704787533,-0.10141094002837217,1.1608114682013464,-0.128260094235079,-18.939899731662013,0.48405988603689,0
189,2024-09-16 21:56:19.499944824,0,007,-0.22040165597952194,0.011580063810395953,-0.4310615087919141,-0.09157838522459248,1.037768345715246,-0.18843664364054347,-18.99317658133558,0.5532259742631188,0
190,2024-09-16 21:56:19.570329834,0,007,-0.2111846836683881,0.006373016055894557,-0.37170568829484474,-0.08543425138820586,0.8724806176461961,-0.22968703239432328,-18.800164525833026,0.6248658620655216,0
191,2024-09-16 21:56:19.631129883,0,007,-0.19920668048349247,-0.00037030147843456954,-0.3210148568785554,-0.08226247137170689,0.6665936159555322,-0.2514162688975173,-18.37153893251733,0.6964774046142347,0
192,2024-09-16 21:56:19.692915039,0,007,-0.1846418507566499,-0.008606888449724077,-0.28316922453453597,-0.08121216275597568,0.4247605827474111,-0.25447611294374345,-17.72440878563946,0.7672733287307943,0
193,2024-09-16 21:56:19.773600098,0,007,-0.1676243937520486,-0.01825784242132459,-0.26081602230772805,-0.08141850685747487,0.1548590084634405,-0.24098545750530176,-16.877074447662753,0.8371530014732946,0
194,2024-09-16 21:56:20.692048096,0,007,-0.14825755346816738,-0.029196762833695895,-0.2544914326735304,-0.08213115762477534,-0.13268376260116338,-0.21395611509538864,-15.843394585351362,0.9056535886003637,0
195,2024-09-16 21:56:20.759820068,0,007,-0.12662964201912016,-0.041232851027536356,-0.26239889961136303,-0.08280455992981665,-0.426303327758205,-0.1768084274411363,-14.63001894576827,0.9714048580124995,0
196,2024-09-16 21:56:20.820770020,0,007,-0.1028508436396674,-0.05410001798329562,-0.28061733784554377,-0.0831102308927246,-0.7150302369429296,-0.1328562682271025,-13.237190659350066,1.0320565556272334,0
197,2024-09-16 21:56:20.880660156,0,007,-0.07712139351866924,-0.0674556513328467,-0.3036438506689749,-0.08288224141833551,-0.9899473685210102,-0.08485187297961205,-11.661856094920731,1.0844584206942993,0
198,2024-09-16 21:56:20.958312988,0,007,-0.049814148013179925,-0.08088530345961047,-0.3251277236050461,-0.08204052694604845,-1.244901574948013,-0.034696804747606946,-9.902319793910438,1.1249774482812773,0
199,2024-09-16 21:56:21.019906006,0,007,-0.021535336916646202,-0.09391113081897767,-0.33865180591080035,-0.08052864550911866,-1.476399474221544,0.016573639457855473,-7.964777562432346,1.1500864029263282,0
200,2024-09-16 21:56:21.098012939,0,007,0.006864644958248137,-0.10600946038122655,-0.3384011455099875,-0.0782812929666368,-1.683020802387088,0.06850602631150285,-5.871101345021881,1.1573686883302758,0
201,2024-09-16 21:56:22.008936768,0,007,0.03433675705783508,-0.11664592944163932,-0.3195802667546924,-0.07522418140743097,-1.8647299751974251,0.1207671267834124,-3.6652660389723715,1.1465399869323585,0
202,2024-09-16 21:56:22.072535889,0,007,0.05972038260443737,-0.12532760151862798,-0.27852639582109817,-0.07130843419954445,-2.0221583946044515,0.17268853913329124,-1.4155892210283436,1.1196134692483592,0
203,2024-09-16 21:56:22.148657959,0,007,0.0818473933223491,-0.1316569978854819,-0.21262041735823956,-0.06657429652782225,-2.155789902251913,0.22294056092883416,0.7886235783795025,1.0796235472511877,0
204,2024-09-16 21:56:22.219849121,0,007,0.09964722786087017,-0.135368948004006,-0.12024262149952489,-0.06121063765510382,-2.2652210102786183,0.26940426995013367,2.845434139159219,1.0282445156455415,0
205,2024-09-16 21:56:22.272196045,0,007,0.11224726475797706,-0.13634242504092087,-0.0009555904608280648,-0.05556898494918814,-2.3488284280051652,0.3092795334467851,4.651065752518094,0.9635442655580143,0
206,2024-09-16 21:56:22.350302979,0,007,0.11905550064750076,-0.13459399725913215,0.14417146599254133,-0.05013541246996215,-2.40396775781396,0.33940346140497574,6.110398965261801,0.879200462497027,0
207,2024-09-16 21:56:22.423032959,0,007,0.11980232049964265,-0.1302635239584509,0.3123443538002553,-0.04550159901196131,-2.4275685070327366,0.3567074076970319,7.146074236023256,0.7656052565948429,0
208,2024-09-16 21:56:23.365120117,0,007,0.11453068832817653,-0.12359661749451141,0.49907054257951383,-0.04235166279218723,-2.416998699821568,0.3587466581104678,7.705794272371958,0.6123286147603454,0
209,2024-09-16 21:56:23.427176025,0,007,0.10355196072170876,-0.11492313310227309,0.6983752727092959,-0.0414361013925616,-2.37111480685866,0.34422273780975393,7.766812130362668,0.41116594107303195,0
210,2024-09-16 21:56:23.489660889,0,007,0.08739477596269857,-0.10463129648420812,0.9031136004912905,-0.043504613439072026,-2.2912095520278055,0.3133577147674216,7.337024585120692,0.15904788604924772,0
211,2024-09-16 21:56:23.569976074,0,007,0.06675804717984352,-0.09313912711141026,1.105395866197326,-0.049214657678678705,-2.181386517036675,0.2679732608579283,6.453416176261145,-0.14004164803884786,0
212,2024-09-16 21:56:23.626992920,0,007,0.042466604977124726,-0.08086761908122414,1.2971643200071912,-0.059062685780789395,-2.0480762564063153,0.21123727974721104,5.178976632248632,-0.47494029913630803,0
213,2024-09-16 21:56:23.704611084,0,007,0.01543549477323085,-0.06822216094619796,1.4708277734226083,-0.07336264840272717,-1.898796977750723,0.14717084027066263,3.5986122986838,-0.8290908613960682,0
214,2024-09-16 21:56:23.767107910,0,007,-0.013350958842400135,-0.05558273313764242,1.619811054533328,-0.09225862975651035,-1.7405059698202636,0.08005315606681904,1.813738872648644,-1.1833158581354295,0
215,2024-09-16 21:56:24.705033936,0,007,-0.04285753568995493,-0.043292781189776336,1.7389601896316975,-0.11574766576418252,-1.57801922867839,0.013859026265832906,-0.06539456303953563,-1.5181913112869256,0
216,2024-09-16 21:56:24.783139893,0,007,-0.07203390731645595,-0.03163778572992548,1.8247996007721334,-0.14369322416126348,-1.413075613689718,-0.04815515002703186,-1.9300245931786502,-1.8153580753610488,0
217,2024-09-16 21:56:24.844711914,0,007,-0.09987375725728041,-0.020820313030402503,1.8756696957865806,-0.17581846277310675,-1.2444143840345328,-0.10367009864747158,-3.684089734963374,-2.0583419860413503,0
218,2024-09-16 21:56:24.906735840,0,007,-0.1254880828452869,-0.010949233155027216,1.8918096302680851,-0.2116866660551459,-1.0687320947842094,-0.1513498124403146,-5.252886098829505,-2.2337686649773114,0
219,2024-09-16 21:56:24.987840820,0,007,-0.1481761491411107,-0.0020537446011852697,1.8753851480799826,-0.25068349087766745,-0.8820699051316104,-0.19075249224738375,-6.586230008259929,-2.333137203957493,0
220,2024-09-16 21:56:25.055469971,0,007,-0.16747192051909418,0.0058831046138517595,1.8303580049914032,-0.292004033618864,-0.6811462814725637,-0.2221673570877943,-7.655537145663478,-2.354655507510849,0
221,2024-09-16 21:56:25.123315186,0,007,-0.18314654323223353,0.012888010468854448,1.7621159114839304,-0.33464864986572185,-0.46417075535436503,-0.24646384202808772,-8.447055506058621,-2.3045053124051775,0
222,2024-09-16 21:56:26.060666992,0,007,-0.1951647581970287,0.018973723064820213,1.6768901393757445,-0.3774425081040104,-0.23086412496881284,-0.26499541584027425,-8.954963671209665,-2.197020024796716,0
223,2024-09-16 21:56:26.123153809,0,007,-0.20361165310609963,0.0241302077021968,1.581081164111885,-0.4190861377111034,0.018178771001500813,-0.27954714658098545,-9.17685372836647,-2.053482345234992,0
224,2024-09-16 21:56:26.202407959,0,007,-0.20861469240968664,0.028320738887407562,1.4806630860008452,-0.45822782761273423,0.2822923983047467,-0.29229005750111103,-9.111925185267895,-1.8996151413959654,0
225,2024-09-16 21:56:26.262435059,0,007,-0.21028877941346497,0.031476421517838395,1.3807863037588324,-0.49353795299123243,0.5611414613160011,-0.30565222977521256,-8.761068414785631,-1.7623477704206472,0
226,2024-09-16 21:56:26.337894043,0,007,-0.20872870598121024,0.033495326642285654,1.2855646403228453,-0.5237651463661642,0.8544386157734881,-0.3220251819758313,-8.127587405334609,-1.6667775646783045,0
227,2024-09-16 21:56:26.405720947,0,007,-0.20405159069863524,0.03425661020553526,1.197979299529166,-0.5477781578299925,1.1611636269920549,-0.34335588138575796,-7.21768995787143,-1.6339322955448734,0
228,2024-09-16 21:56:26.464024902,0,007,-0.1964578681751112,0.03364935347405479,1.1198813728815373,-0.5646223083155552,1.4786978061006386,-0.37076147947466176,-6.041313396388779,-1.6792961841149405,0
229,2024-09-16 21:56:27.408576904,0,007,-0.18626571204795986,0.03160260132560766,1.0520665963237175,-0.5736060763118458,1.802247188973176,-0.40427115049782086,-4.614157783866825,-1.8120084494981183,0
230,2024-09-16 21:56:27.471064941,0,007,-0.1738965957876225,0.02810169449485515,0.9943229546358066,-0.5743928116431082,2.124821431846369,-0.44275363294681014,-2.960112178320496,-2.034981607750229,0
231,2024-09-16 21:56:27.551278076,0,007,-0.15983089949517054,0.02318798412381405,0.9454024168219516,-0.5670565490619902,2.4377674505673066,-0.48402814872389,-1.112627964670108,-2.3458456137870862,0
232,2024-09-16 21:56:27.607415039,0,007,-0.14457740331045324,0.016953271211649062,0.903066257750468,-0.5520991490307019,2.7314670722845653,-0.5250571096785682,0.8846232178597567,-2.7378475268749614,0
233,2024-09-16 21:56:27.684647949,0,007,-0.1286788582867421,0.009541179890906618,0.8644145567242968,-0.5304608715761094,2.995747767634115,-0.5621160422051157,2.976378284433975,-3.1999094533238654,0
234,2024-09-16 21:56:27.746649902,0,007,-0.11272871251245804,0.0011537218531186889,0.8264586399908218,-0.5035133039698356,3.219979592296013,-0.590965392059578,5.094135908279958,-3.7161015008144584,0
235,2024-09-16 21:56:27.823479004,0,007,-0.09736322478831566,-0.007948534531976328,0.7866428089924364,-0.4729705863283199,3.3932482371873647,-0.6071211714354824,7.156874920413094,-4.265656385887358,0
236,2024-09-16 21:56:28.765805908,0,007,-0.08322658183254161,-0.017458686829092445,0.7431284868654526,-0.4407010867822897,3.5049572318525803,-0.6062589021746919,9.07584075838887,-4.824411192419759,0
237,2024-09-16 21:56:28.828291016,0,007,-0.07093053071986717,-0.027043939045434125,0.6949317608585682,-0.4085047320521802,3.5459119128733723,-0.5847223363919597,10.76247173313192,-5.367497532509498,0
238,2024-09-16 21:56:28.902541992,0,007,-0.0610167284275582,-0.03636788811867967,0.6420687773607564,-0.37793087907344847,3.5097002978710363,-0.5400827030412376,12.137634576287757,-5.872245829767207,0
239,2024-09-16 21:56:28.968006104,0,007,-0.053906413387816814,-0.04511394253974419,0.5857269636106598,-0.3501753082180128,3.3939609236246793,-0.4716204624169483,13.140793429869019,-6.320189053242033,0
240,2024-09-16 21:56:29.030082031,0,007,-0.04982369325573836,-0.05301413227424864,0.5283704414448273,-0.3260668754717806,3.2010002028858353,-0.38053345484897083,13.73767605985183,-6.697653490715422,0
241,2024-09-16 21:56:29.105843994,0,007,-0.04870708250065473,-0.059883996046843545,0.4736790737299041,-0.30612295242425275,2.937505253639054,-0.2697567888343133,13.924798665197882,-6.995295445855688,0
242,2024-09-16 21:56:29.169548096,0,007,-0.05014771838880786,-0.06565371441258716,0.4262799981906259,-0.29062690623703175,2.613571478938141,-0.14347478883281822,13.729796655317154,-7.207366267264857,0
243,2024-09-16 21:56:30.112315918,0,007,-0.05338815321504,-0.07037903933128947,0.3912888045739493,-0.27968596358138464,2.2414377033765147,-0.006528249308765443,13.207658797992353,-7.331174249894555,0
244,2024-09-16 21:56:30.174946045,0,007,-0.057391128427189526,-0.07422209193393964,0.3736904229274255,-0.27324987481754237,1.8342204375403264,0.13611413164187125,12.434018738763815,-7.366705553450223,0
245,2024-09-16 21:56:30.252172119,0,007,-0.060964425360546234,-0.07740930824771675,0.3776420672305475,-0.27110333176469975,1.4047712309695262,0.2797722738461335,11.496858044209553,-7.316143858236369,0
246,2024-09-16 21:56:30.320470215,0,007,-0.06291488003710664,-0.08018694776266065,0.40589094502555007,-0.272876970533605,0.9646444953754323,0.4203837955140275,10.487571713404776,-7.1832208449432216,0
247,2024-09-16 21:56:30.388124023,0,007,-0.062199702297088044,-0.08278934104170757,0.4594959676649646,-0.2781021042106676,0.5232083905494178,0.554726684451744,9.49256224332342,-6.972716578281438,0
248,2024-09-16 21:56:30.453407959,0,007,-0.05804818802250222,-0.08541623051531189,0.5378809838642821,-0.2862755159463478,0.0870276930264181,0.6804812293375558,8.586609410965142,-6.690356504060291,0
249,2024-09-16 21:56:30.515461914,0,007,-0.05004437762449668,-0.0882059897080834,0.6390988973505671,-0.2968859271186813,-0.3404447612381047,0.7961690428976058,7.828338527745212,-6.342994338533708,0
250,2024-09-16 21:56:31.442652832,0,007,-0.03817408243428655,-0.09120342431878056,0.7601473017451602,-0.3093958040978287,-0.7588776238124328,0.9010903433282094,7.2576391240626945,-5.939099832948764,0
251,2024-09-16 21:56:31.502237061,0,007,-0.02283142077721681,-0.09433798219325183,0.8972259895468797,-0.32321424001220644,-1.1706392883434495,0.9953080806653416,6.895033775033605,-5.489734766498895,0
252,2024-09-16 21:56:31.578305908,0,007,-0.004769342083255745,-0.09742883348286624,1.0459241695589487,-0.33770406686113885,-1.5798382252453176,1.0796201356842945,6.742698408429156,-5.009702724762574,0
253,2024-09-16 21:56:31.636836914,0,007,0.015009292174014359,-0.10021833048775787,1.20137874399514,-0.3522383266549678,-1.9909667983981316,1.1554666216933642,6.786695124374206,-4.518063129640933,0
254,2024-09-16 21:56:31.698833984,0,007,0.03539854395990637,-0.1024205839148546,1.3584110988527105,-0.36628168843565784,-2.4074071421779673,1.2247554637562237,7.000642254638113,-4.037552972669966,0
255,2024-09-16 21:56:31.775707031,0,007,0.05534171743357906,-0.10376819152748226,1.5116377633598732,-0.3794548667520424,-2.8300459540529648,1.2895792429311144,7.351249482436318,-3.59315948868774,0
256,2024-09-16 21:56:31.838915039,0,007,0.07396230988201427,-0.10404704425252823,1.6556302686891387,-0.39155682692996086,-3.2563389814458183,1.3518588463870607,7.804387044902706,-3.210141135828664,0
257,2024-09-16 21:56:32.757231934,0,007,0.09064680407060888,-0.10311636770482904,1.7852325959067692,-0.4025500438379653,-3.6801803339427672,1.413072173605232,8.328363398967413,-2.911500144436841,0
258,2024-09-16 21:56:32.836144043,0,007,0.10505121029511412,-0.10091282237107103,1.895989346366411,-0.41252155213075475,-4.092566623558374,1.4741836729142268,8.892146007595294,-2.7151212933497235,0
259,2024-09-16 21:56:32.895934082,0,007,0.11703374328270334,-0.09744000727305291,1.984453595695919,-0.42161632578933445,-4.482619993198154,1.5357046806927623,9.459971991413502,-2.6312889469176306,0
260,2024-09-16 21:56:32.971708008,0,007,0.126562634985336,-0.092749930706006,2.0482233054731713,-0.429943660855016,-4.838592882640839,1.5977431823384247,9.986758210638188,-2.6614004146305406,0
261,2024-09-16 21:56:33.036294922,0,007,0.13365452130885946,-0.0869246188085694,2.085822233886457,-0.4374884904418996,-5.148859599820435,1.659991589862269,10.418250945804756,-2.798140787615929,0
262,2024-09-16 21:56:33.107206055,0,007,0.1383641212912669,-0.08006393363047058,2.0966400910870417,-0.44407383107516524,-5.403020555486699,1.721701825785751,10.696169826183525,-3.026581277601822,0
263,2024-09-16 21:56:33.175060059,0,007,0.1408107273484197,-0.07228198506408841,2.081006671347828,-0.44939554371865537,-5.5929977413840986,1.7816960660361436,10.765466226698225,-3.3256178253192505,0
264,2024-09-16 21:56:34.114448975,0,007,0.14120692953134878,-0.06370962619980987,2.04030972826352,-0.4531033681423836,-5.713772738534449,1.8383823028245168,10.581031286474856,-3.6698455759886826,0
265,2024-09-16 21:56:34.176934082,0,007,0.1398563126718877,-0.054497951954243534,1.9770371408675,-0.454878969523876,-5.763548520440235,1.8897378715594582,10.112726201235388,-4.032024198533399,0
266,2024-09-16 21:56:34.252397949,0,007,0.13711568859362536,-0.04481879052254825,1.89471338605438,-0.45449339744535827,-5.743465830683649,1.9333161768802833,9.34811016086076,-4.385616020561585,0
267,2024-09-16 21:56:34.320175049,0,007,0.13334846369748857,-0.03486112671941602,1.7977483186029155,-0.45186159900234646,-5.657123399428301,1.9663468573674148,8.292531893595239,-4.706725336535147,0
268,2024-09-16 21:56:34.378642090,0,007,0.1288931378989805,-0.024825790566483,1.6911700155409328,-0.4470894304872216,-5.510029560467073,1.9859165594076265,6.967099386066157,-4.975258252310161,0
269,2024-09-16 21:56:34.455704834,0,007,0.12404541650790506,-0.01492221687837314,1.5801950335895059,-0.4404643476056843,-5.3091134964172495,1.9891997380859416,5.405970155822625,-5.1754922730597235,0
270,2024-09-16 21:56:34.523396973,0,007,0.11904393537689031,-0.005368166847436924,1.469651552059429,-0.4323515738186401,-5.062472662981441,1.973754973990647,3.6548526499660663,-5.296372403086449,0
271,2024-09-16 21:56:35.458843018,0,007,0.11405789100950008,0.0036136123619201948,1.3633813224755948,-0.4230293835791933,-4.779322051038143,1.9378765337064932,1.7716379518984529,-5.331810138340679,0
272,2024-09-16 21:56:35.534677002,0,007,0.10917852328048207,0.011809207295967005,1.2638324498945324,-0.41254726862341135,-4.469768947399368,1.8808975349882142,-0.17208708842373346,-5.28103249230973,0
273,2024-09-16 21:56:35.602462891,0,007,0.10441885100237,0.019034116297172773,1.1719976678181498,-0.4006609516446064,-4.14402243606054,1.8033113993076113,-2.091370668034134,-5.148752722281527,0
274,2024-09-16 21:56:35.662848877,0,007,0.09972390694981371,0.0251476795768157,1.0876781264509177,-0.3868483156926525,-3.8111488645484326,1.7066781637279584,-3.892586803223572,-4.944670921666229,0
275,2024-09-16 21:56:35.725716064,0,007,0.09498141360896988,0.03005434513274824,1.0099245394996748,-0.3704006133485969,-3.478008266361703,1.5934206082298878,-5.48331798994309,-4.681780273886834,0
276,2024-09-16 21:56:35.805702881,0,007,0.09002286998021898,0.03369568949543029,0.9374811004346846,-0.35056919156115585,-3.148972307713698,1.4666553364236792,-6.7855457243579975,-4.3735241583091815,0
277,2024-09-16 21:56:35.864879883,0,007,0.08462390471292598,0.03604222120569789,0.8691009510519667,-0.3267105020783207,-2.826542071382056,1.3301153897716238,-7.747823633489768,-4.030742516391154,0
278,2024-09-16 21:56:36.817184814,0,007,0.0785225122983449,0.037092475392776866,0.803701750746653,-0.2983804902424225,-2.51247208898973,1.1880890414417304,-8.352057599973122,-3.6596882825448476,0
279,2024-09-16 21:56:36.884889893,0,007,0.07145991096343055,0.03687937072275726,0.7404198431252056,-0.26538788783822675,-2.208782655733251,1.0452570940943104,-8.613379142913905,-3.26175509506494,0
280,2024-09-16 21:56:36.951458008,0,007,0.06323049331372674,0.035475881631391,0.6786396942244108,-0.22784120535455593,-1.9182928289415313,0.9064027938627116,-8.574671168966683,-2.8345767608101595,0
281,2024-09-16 21:56:37.015223145,0,007,0.05372549962372025,0.032991706283029054,0.6180732557554465,-0.1861984157591661,-1.644713440276227,0.7760658962248473,-8.298119185823104,-2.3737525032379994,0
282,2024-09-16 21:56:37.077708008,0,007,0.04296434490191821,0.029559768479872465,0.558962220589794,-0.14130956702885972,-1.392413315846876,0.6581986825667048,-7.856009934317322,-1.874537928260154,0
283,2024-09-16 21:56:37.154889893,0,007,0.03111582984248259,0.02531907901175569,0.5023773473195274,-0.0944454935914993,-1.1658500482149659,0.5558270976739279,-7.323306781878515,-1.3328822499369213,0
284,2024-09-16 21:56:37.217941895,0,007,0.018517004826347456,0.020400996410471245,0.45040533713439324,-0.04729496915704073,-0.968703602083764,0.47072642939646847,-6.773718277127685,-0.7453800232318352,0
285,2024-09-16 21:56:38.167018799,0,007,0.005693236448358278,0.014918812574941659,0.40597461266363666,-0.0018891107321784965,-0.8029199157336679,0.4031720155978209,-6.278623320712534,-0.10832734296765989,0
286,2024-09-16 21:56:38.235025879,0,007,-0.006635818650847603,0.008955879554318837,0.37229716504560634,0.03957741452370907,-0.6679344175626571,0.351866215138155,-5.906731362670176,0.5832954883182081,0
287,2024-09-16 21:56:38.302159180,0,007,-0.017592315765058417,0.002552967869444362,0.35217787125569755,0.07499762464066333,-0.5602450423601728,0.3141191141479412,-5.722675955786404,1.3359936119906346,0
288,2024-09-16 21:56:38.364239014,0,007,-0.02623088861930715,-0.004295799576988239,0.34749117501267757,0.10259751742371206,-0.47344228123910626,0.28626257841599784,-5.783763674127855,2.156655143720334,0
289,2024-09-16 21:56:38.426274902,0,007,-0.031668770192017456,-0.011629471789445426,0.3589377654644687,0.12112761022974904,-0.3988759505355806,0.2642055062718135,-6.135389792655998,3.0505148078546305,0
290,2024-09-16 21:56:38.506141846,0,007,-0.033230041299889414,-0.019490479846239746,0.3860035169778266,0.13000551223297258,-0.3270584862773244,0.2440455136497704,-6.806529974288428,4.018999943479485,0
291,2024-09-16 21:56:38.573801025,0,007,-0.030582182254951427,-0.02788974869568342,0.4270291702538317,0.12940276919073262,-0.24957385303873927,0.22264700107530638,-7.8063007900072865,5.058114762125378,0
292,2024-09-16 21:56:39.517252930,0,007,-0.023841920952628787,-0.03677917102319923,0.47936229566540545,0.12024085738740481,-0.16098005089699108,0.19805077529533652,-9.121940623497588,6.157580526347964,0
293,2024-09-16 21:56:39.585000000,0,007,-0.013623115781698492,-0.04603767037779703,0.5395563083873683,0.10408623050578306,-0.06013863485194668,0.16961261651645343,-10.71870199781193,7.300738342552819,0
294,2024-09-16 21:56:39.644770020,0,007,-0.0010025937666140238,-0.05547138074244375,0.6035724583324658,0.08297060427848191,0.049428349859144065,0.1378953995951736,-12.542120036135405,8.465174468884394,0
295,2024-09-16 21:56:39.720458008,0,007,0.01260261778848665,-0.06482708251927376,0.6670014358870673,0.059166598339913265,0.16018724663594744,0.10441739098857668,-14.522674116706915,9.623997197601243,0
296,2024-09-16 21:56:39.788270996,0,007,0.025624111231836423,-0.0738175825272272,0.7253716763789547,0.03494099002630964,0.261883093333414,0.07133492315526811,-16.582299767335698,10.747689175432836,0
297,2024-09-16 21:56:39.845823975,0,007,0.036553653797472135,-0.08215551495824683,0.7745759817022383,0.012307392611768886,0.3429847829969041,0.04109349539712304,-18.64112777071331,11.806300936721183,0
298,2024-09-16 21:56:39.923449951,0,007,0.04413373944021555,-0.08958886679106384,0.8113299202597132,-0.007189580280943194,0.3920305195584426,0.016057283286396308,-20.62230337742131,12.771458097196005,0
299,2024-09-16 21:56:40.854643066,0,007,0.047495257432529456,-0.09592889842563479,0.8334764686818136,-0.022619886464317705,0.3988961048438549,-0.001880013537142466,-22.454334089178616,13.617721534062339,0
300,2024-09-16 21:56:40.933227051,0,007,0.04623138370356853,-0.10106315369495468,0.8400284251486377,-0.03372410851695826,0.35608044110865217,-0.011680809420724308,-24.0725632255295,14.32338845667692,0
301,2024-09-16 21:56:40.995112061,0,007,0.040419220155990025,-0.1049553465218344,0.8310401288831625,-0.04088777235762538,0.2599930103525506,-0.013491749183351233,-25.421360347212286,14.871227850879727,0
302,2024-09-16 21:56:41.056765137,0,007,0.03060168627857004,-0.10764068318325977,0.8074555398339908,-0.0450395459558314,0.11197459880068064,-0.008833059706042081,-26.45651397477147,15.249412226179883,0
303,2024-09-16 21:56:41.138453125,0,007,0.017724963239672663,-0.10922016489717173,0.770941086500326,-0.04746435380815321,-0.08142238957690572,-0.0005521771881922122,-27.145659537114827,15.452316617414828,0
304,2024-09-16 21:56:41.196387939,0,007,0.003023815046368006,-0.10984857292543755,0.723617993579878,-0.04954161414928735,-0.3091462585140144,0.007515816358043569,-27.465563196022654,15.480598300539935,0
305,2024-09-16 21:56:41.273989990,0,007,-0.012134589961679825,-0.10971084200967261,0.6676857601626517,-0.05246659214941863,-0.55708858349089,0.011122879368738394,-27.397801560585297,15.340339084178174,0
306,2024-09-16 21:56:42.177294922,0,007,-0.026421002007377372,-0.1089894595408429,0.6050712271809258,-0.057038253631949504,-0.8097530512384357,0.006249412058358663,-26.925771740470037,15.041631001633352,0
307,2024-09-16 21:56:42.259578857,0,007,-0.03869641028989896,-0.107832513381305,0.5372818925413158,-0.0635746443638407,-1.0517228257754152,-0.010380940903007499,-26.034708563756997,14.597191488103766,0
308,2024-09-16 21:56:42.316504882,0,007,-0.04811861108865461,-0.10633251627002495,0.4655111615949037,-0.07196134606388463,-1.26857860750537,-0.04105011012556412,-24.71408381592388,14.021232464235494,0
309,2024-09-16 21:56:42.395120117,0,007,-0.05419271345666631,-0.10451994804248733,0.39086672990286503,-0.08178174616009683,-1.4470795600179265,-0.08707346951383009,-22.96088761841937,13.328457890115768,0
310,2024-09-16 21:56:42.462793945,0,007,-0.05677740055985803,-0.10236778149854574,0.3145639147502255,-0.09246050081613612,-1.5748054057019603,-0.14898130582089048,-20.783524995670188,12.533275781027935,0
311,2024-09-16 21:56:42.517705078,0,007,-0.056064674714027825,-0.09980088752339866,0.2380362593460553,-0.1033819928227438,-1.6397783463809932,-0.22669632590114946,-18.20731831060428,11.649706138515622,0
312,2024-09-16 21:56:42.598300049,0,007,-0.05254419125596118,-0.09670772173908597,0.16301288714378584,-0.11397766847238526,-1.6305454473253274,-0.319645081679638,-15.281545408246549,10.692325390246015,0
313,2024-09-16 21:56:43.529951904,0,007,-0.04695744926261401,-0.09295642003506265,0.09159535415617098,-0.12377906416411912,-1.5369399032463869,-0.42680020305289074,-12.085564402800383,9.677980182612856,0
314,2024-09-16 21:56:43.599844971,0,007,-0.04023791934596316,-0.08841833124830939,0.026275156385413865,-0.13243100809429978,-1.351424308775033,-0.5466335446721476,-8.731093698567726,8.627571292240514,0
315,2024-09-16 21:56:43.678003174,0,007,-0.03342783485719693,-0.08299650495073464,-0.030196657669238035,-0.13967083528596888,-1.070605196043138,-0.6770056932094768,-5.359362983468342,7.567140654720851,0
316,2024-09-16 21:56:43.745651123,0,007,-0.027574274950944524,-0.07665002264051314,-0.07509573825325537,-0.1452881628703595,-0.696429436853612,-0.8151026647885667,-2.1330751590857684,6.52764607516341,0
317,2024-09-16 21:56:43.812525146,0,007,-0.023620142836960057,-0.0694059409493054,-0.1060889653441199,-0.1490767141658333,-0.2368385149928514,-0.9574928283436203,0.7761077411569187,5.543301058524128,0
318,2024-09-16 21:56:43.881251952,0,007,-0.022303695441818462,-0.06135811694567101,-0.1215829763664488,-0.15078421924604424,0.2940681768436478,-1.100264688942614,3.2023061668134476,4.649004420078185,0
319,2024-09-16 21:56:43.949006104,0,007,-0.024078100247305702,-0.05265834145778154,-0.12098873003069582,-0.15006569857789903,0.8763244281136211,-1.239207305991803,4.999637144319807,3.8774964511733927,0
320,2024-09-16 21:56:44.863888916,0,007,-0.02906676031566503,-0.04350709307829446,-0.10485979509053245,-0.14645827025275687,1.484939569007859,-1.370063069679956,6.054538361589579,3.2565071333723963,0
321,2024-09-16 21:56:44.935384033,0,007,-0.03706550802665696,-0.034149123295076945,-0.07486196879859493,-0.13941140135742508,2.0913501783401443,-1.4888508133160834,6.295467035658227,2.8061245075197383,0
322,2024-09-16 21:56:45.003036865,0,007,-0.0475925221810489,-0.024870619678125247,-0.03354435402506238,-0.12838906807224099,2.665387913114326,-1.592184148722466,5.698511110580618,2.5368630772005654,0
323,2024-09-16 21:56:45.065964111,0,007,-0.05998259455482489,-0.015986991799188593,0.016044825750483153,-0.11301600251514515,3.177555105306281,-1.6775131269064805,4.287792871155285,2.4487089586346027,0
324,2024-09-16 21:56:45.126985107,0,007,-0.0735096688702066,-0.007818479530548424,0.07077855934128092,-0.0932143411542306,3.6013173628095805,-1.7432454220816072,2.1313054082479375,2.530982563800336,0
325,2024-09-16 21:56:45.206383057,0,007,-0.08750055585969352,-0.000665795884844629,0.12778762371535313,-0.06927795992027869,3.915130431455466,-1.788712144119702,-0.6660483067099273,2.76294726178309,0
326,2024-09-16 21:56:45.266250000,0,007,-0.10140759726119815,0.005205380998345874,0.18463936820133883,-0.04185056823187315,4.10402671118659,-1.8139808309410463,-3.9709369781234134,3.115463912237883,0
327,2024-09-16 21:56:46.207909180,0,007,-0.11483922512428536,0.00957853007833955,0.23932663204798557,-0.011814762635194397,4.160706762819016,-1.8195875587108703,-7.631457909839526,3.5539008222169866,0
328,2024-09-16 21:56:46.285535156,0,007,-0.12756554385101584,0.012309343663082098,0.2900826778138569,0.019858608343771508,4.086161122487047,-1.806307368923445,-11.488474503820804,4.041983435849192,0
329,2024-09-16 21:56:46.343381836,0,007,-0.13951129278479849,0.013355418430226145,0.3351059801974807,0.0522394920496819,3.8897602643258513,-1.775059944341693,-15.387322450121268,4.545829224089285,0
330,2024-09-16 21:56:46.421628906,0,007,-0.15073795324327213,0.012798829152047015,0.37234545775531175,0.0845041349557485,3.588528997990456,-1.7269374620533926,-19.187532845148333,5.037298630325845,0
331,2024-09-16 21:56:46.482589111,0,007,-0.16140848579486436,0.010846630831824022,0.39949106273275475,0.115936797024735,3.2053932784893537,-1.6632309190752037,-22.768928771587813,5.496039503134945,0
332,2024-09-16 21:56:46.549205078,0,007,-0.1717286501353381,0.007804765720609979,0.4141871588764559,0.14590914732303067,2.7667546827901144,-1.5853816776522316,-26.03435334988287,5.910062282406126,0
333,2024-09-16 21:56:46.622289062,0,007,-0.18186996198523192,0.004036886715859357,0.41434551485940213,0.17387829960762569,2.3002148846688875,-1.494949840930403,-28.910381906714953,6.27505800900299,0
334,2024-09-16 21:56:47.567007080,0,007,-0.19189035476454636,-7.439429082014851e-05,0.3984281381638758,0.19940000715951584,1.8329861712069018,-1.3937131710063961,-31.3472788680552,6.5929364894290545,0
335,2024-09-16 21:56:47.635440186,0,007,-0.2016711936829482,-0.004156510012897382,0.36565763562169223,0.22212181164230466,1.390847814979395,-1.2838528998972176,-33.31822252206545,6.870086414109289,0
336,2024-09-16 21:56:47.703278076,0,007,-0.21088407187664268,-0.007870366130725276,0.31614606374446036,0.24174387185999482,0.9972421854684151,-1.1680822847240313,-34.81652142552979,7.115468500927328,0
337,2024-09-16 21:56:47.760606934,0,007,-0.21899328751841715,-0.010931545935369982,0.2508866721721133,0.25798416468782776,0.6722769058861342,-1.0496287244178537,-35.8503333118795,7.338446066266586,0
338,2024-09-16 21:56:47.838237061,0,007,-0.22529351245808968,-0.013125201423662698,0.17156510093860936,0.27059199137530576,0.43157822579798755,-0.9320665981863651,-36.43639632178136,7.546611493367825,0
339,2024-09-16 21:56:47.901088867,0,007,-0.22897443170930878,-0.01430968335110254,0.08028640027989493,0.2794067372328426,0.2850811978708917,-0.8190362269872394,-36.59493579810317,7.744129557224018,0
340,2024-09-16 21:56:47.974256104,0,007,-0.22919591928880462,-0.014411933725559463,-0.02060781365290341,0.2844232198201643,0.23604931312512345,-0.7139066843151556,-36.346978549446085,7.930898630346201,0
341,2024-09-16 21:56:48.913750000,0,007,-0.22515682868335157,-0.013423586711178815,-0.12858892309287964,0.28583198423201844,0.28066980615361753,-0.619457362791252,-35.71371200063853,8.102480787285005,0
342,2024-09-16 21:56:48.977722900,0,007,-0.21615243227331862,-0.011402686001738651,-0.24095810114232755,0.2840140571126151,0.4083393918435686,-0.5376408462240396,-34.716605141835004,8.250632467945934,0
343,2024-09-16 21:56:49.037837891,0,007,-0.2016319174462937,-0.008476759591821266,-0.35489197274295486,0.2794789119612784,0.6025824256014222,-0.4694651715017913,-33.37787041235862,8.364374288974451,0
344,2024-09-16 21:56:49.115535889,0,007,-0.18127294107354386,-0.004836174970992093,-0.4674906926304319,0.2727649349051657,0.8425950534928852,-0.4150254551491298,-31.721942190151864,8.431568835198007,0
345,2024-09-16 21:56:49.177974854,0,007,-0.1550750643152759,-0.0007092059000683091,-0.5758405882658073,0.26434971491384684,1.1053154423396845,-0.37368822895967196,-29.778202804299166,8.440837264581093,0
346,2024-09-16 21:56:49.255182861,0,007,-0.12344528367462708,0.0036746101958687995,-0.6771755919757956,0.25461015563924216,1.3676520312813671,-0.3443642699657196,-27.584464227801725,8.383599405089189,0
347,2024-09-16 21:56:49.324377930,0,007,-0.08723610105699202,0.008114059007625124,-0.7691536438559398,0.24384041329705677,1.6085221053406804,-0.3257645842663187,-25.190870147749635,8.256041061210922,0
348,2024-09-16 21:56:50.265764893,0,007,-0.047715679556239725,0.012447847932094502,-0.8501186327898598,0.2323068627582039,1.810571188931763,-0.3165598351540482,-22.663778211940137,8.06062547085079,0
349,2024-09-16 21:56:50.328250000,0,007,-0.006475498903481853,0.016554100899055218,-0.9191823932268783,0.22030979570151754,1.961419032612412,-0.3154224329674688,-20.08808255460371,7.80652648524676,0
350,2024-09-16 21:56:50.390736084,0,007,0.03470919642627394,0.020348615359558973,-0.9760785224191102,0.20823415213610208,2.0542286382329693,-0.3209979076603481,-17.565421642256478,7.50848496398688,0
351,2024-09-16 21:56:50.471218018,0,007,0.07404625168439859,0.023784216879839462,-1.0208980041221913,0.19658649892615743,2.0876351162498508,-0.3318929399989044,-15.206473951078035,7.184163269637921,0
352,2024-09-16 21:56:50.534614014,0,007,0.10989047272834977,0.026845633187640158,-1.0538527807624336,0.18600182561930478,2.065279522444936,-0.3467431217776236,-13.118254259688374,6.850759253217452,0
353,2024-09-16 21:56:50.603177002,0,007,0.1408700642966096,0.02953715900095658,-1.075110530039763,0.17718137139930393,1.9950927643645602,-0.3643560390660215,-11.389884316239039,6.522029234563963,0
354,2024-09-16 21:56:50.674375977,0,007,0.16595731103192465,0.03186835222526522,-1.0846925733880806,0.1707482190551942,1.888285077014243,-0.383867523462665,-10.080892489576659,6.206749864303222,0
355,2024-09-16 21:56:51.602681885,0,007,0.18448910995303372,0.0338455089742603,-1.082491299461792,0.167068577349534,1.7580248996261052,-0.40484064132727193,-9.214901973521435,5.908948929935668,0
356,2024-09-16 21:56:51.680301025,0,007,0.19614985991703432,0.035472690239537995,-1.0684519968384618,0.16611311997721567,1.618029255042015,-0.4272772633766323,-8.779334141190068,5.629213986231013,0
357,2024-09-16 21:56:51.741816895,0,007,0.20092211981209104,0.03676042174081584,-1.0428177936232081,0.16740478608562917,1.4813851505564575,-0.45155055235321145,-8.72900715430058,5.365852691399946,0
358,2024-09-16 21:56:51.819729004,0,007,0.19901092942841073,0.037735786469527494,-1.006278300571678,0.1700569559982105,1.3597277693574423,-0.478270192401476,-8.990128312246988,5.115196718151332,0
359,2024-09-16 21:56:51.881274902,0,007,0.19075702362033195,0.038447095798042716,-0.959979956404866,0.17287855814747494,1.2626837031753735,-0.5080883906370186,-9.463035727592832,4.871325305028467,0
360,2024-09-16 21:56:51.943798096,0,007,0.17656107464934492,0.03896150210319615,-0.9054446195861166,0.1745120344813496,1.1974187959435256,-0.5414817955089565,-10.025064771850307,4.62588230153729,0
361,2024-09-16 21:56:52.021530029,0,007,0.15684116040331486,0.0393595544970862,-0.8444196200945476,0.1735800594538607,1.1682004600073812,-0.5785831444351093,-10.535781078420294,4.36842354271681,0
362,2024-09-16 21:56:52.932691162,0,007,0.1320345049390548,0.03972917415738055,-0.7786864688762793,0.16884286430370962,1.1760584669764447,-0.6191180425004039,-10.846017306710591,4.087501839057243,0
363,2024-09-16 21:56:53.009232910,0,007,0.10263649869568743,0.04015502580154668,-0.7098916400502598,0.15936955001102615,1.2187365665599406,-0.6624257187997417,-10.811379161202424,3.7725118371203523,0
364,2024-09-16 21:56:53.072623047,0,007,0.06925858133536511,0.04069822667585485,-0.6394345611043281,0.14469182716668183,1.291049047917915,-0.7075095223694746,-10.310014162301195,3.416011772863334,0
365,2024-09-16 21:56:53.134180908,0,007,0.03268283391023833,0.041370099502450505,-0.5684332682026692,0.12490058520526781,1.3856055782983618,-0.7531095125454268,-9.262364948136916,3.0159703928773145,0
366,2024-09-16 21:56:53.212555908,0,007,-0.00610647215524754,0.04211208006760895,-0.4978264109771826,0.10068533360724943,1.4937882533352698,-0.7978295835678443,-7.647167603399465,2.5771359691225073,0
367,2024-09-16 21:56:53.273861816,0,007,-0.045923441617459045,0.04279050905478803,-0.4286005285860142,0.07333215081074318,1.6068774124632392,-0.8403387600997982,-5.507021201655326,2.1108036879132537,0
368,2024-09-16 21:56:53.348056152,0,007,-0.08541270657154246,0.04320496734868838,-0.3619991494302861,0.04467290871931268,1.717215310317304,-0.8796265245100321,-2.942112996628464,1.6331599439519962,0
369,2024-09-16 21:56:54.287420898,0,007,-0.12311178766022318,0.04310471523209978,-0.2996012440083893,0.01697335288849491,1.8191685057137268,-0.9152337345769187,-0.09670584118667538,1.1632412391549032,0
370,2024-09-16 21:56:54.350072998,0,007,-0.15754589553855494,0.04221225078784732,-0.24326313421397633,-0.007247489617505886,1.9095735981475348,-0.9473397405923694,2.85733282957111,0.7212204754906438,0
371,2024-09-16 21:56:54.412144043,0,007,-0.1873581721350178,0.04025883308510372,-0.19493288178866267,-0.025475186697359854,1.9875446334556068,-0.9766402289975409,5.739099413148299,0.3268608358652235,0
372,2024-09-16 21:56:54.488802979,0,007,-0.21146529490173518,0.03703349733862573,-0.1563743288339514,-0.03550909366697476,2.053823180178339,-1.0040745234868123,8.378846444538327,-0.0023050793585107222,0
373,2024-09-16 21:56:54.554371094,0,007,-0.2292018791187496,0.032433272628123413,-0.12888996288981872,-0.035754035636343794,2.1099218852814126,-1.0305201277733937,10.637649877319438,-0.25318802643640637,0
374,2024-09-16 21:56:54.621812988,0,007,-0.24040461776450378,0.026494923755733757,-0.11307504990281991,-0.025444860002582007,2.157135015679945,-1.0565302063022592,12.423211114239974,-0.41934480480366854,0
375,2024-09-16 21:56:54.694371094,0,007,-0.24540944977454038,0.01939952461403585,-0.10857540234315413,-0.004789726272843174,2.1954816080501707,-1.0821664398531394,13.697868377435977,-0.5023232888901633,0
376,2024-09-16 21:56:55.615773926,0,007,-0.24497346349410612,0.01145751717327995,-0.11389810998589302,0.024992308404780787,2.2229296286718556,-1.107011854539161,14.476524077216135,-0.5113432682492404,0
377,2024-09-16 21:56:55.678621094,0,007,-0.2401542078207461,0.003086628996221712,-0.1264063787423256,0.06176978152375199,2.235253696764397,-1.1304050290140621,14.816550470383502,-0.46127163417007677,0
378,2024-09-16 21:56:55.752168945,0,007,-0.23217357108575282,-0.005213038302365288,-0.14257289346867333,0.10272063136013813,2.226465207625633,-1.15179027777844,14.80429563507048,-0.36971723534909956,0
379,2024-09-16 21:56:55.819842041,0,007,-0.22227632922015148,-0.012893346422119822,-0.15843851855105723,0.14460959240369783,2.1895741499229837,-1.171000642167322,14.541079898250276,-0.2542287210959307,0
380,2024-09-16 21:56:55.887687012,0,007,-0.21158409646209989,-0.01940922674005967,-0.17016588773935798,0.1840448278599259,2.1176039488663836,-1.1883756481657684,14.129668311325691,-0.13023126982610947,0
381,2024-09-16 21:56:55.940525146,0,007,-0.20095626674898928,-0.024280477279188643,-0.1746163093177441,0.21769421062787747,2.004737746764732,-1.2047327655969913,13.662846132314487,-0.01004869725885405,0
382,2024-09-16 21:56:56.018681152,0,007,-0.19088928466193333,-0.02714467174022583,-0.16989325654140802,0.2425009488551747,1.8472249046889648,-1.2212257950796346,13.215985581090445,0.0970052609388995,0
383,2024-09-16 21:56:56.957719971,0,007,-0.18148554535444125,-0.027783847435596948,-0.1557299497675103,0.25592412130409004,1.6437548433183826,-1.239098820870458,12.843615913314656,0.18398599296043555,0
384,2024-09-16 21:56:57.020205078,0,007,-0.17249926159658696,-0.026123139903983007,-0.13359328104430784,0.2561764238886663,1.395442443329373,-1.2593922734598157,12.578567908813017,0.24572106505111108,0
385,2024-09-16 21:56:57.102368164,0,007,-0.16343983234818443,-0.022213997474713247,-0.10650618177282656,0.24241095624127057,1.1057488182409592,-1.2827136180552712,12.432721862281877,0.27842955596617763,0
386,2024-09-16 21:56:57.159425049,0,007,-0.15369811050681043,-0.016216666166151028,-0.07868290385019476,0.21481322236977454,0.7803935823202295,-1.3091517591790034,12.398916780407239,0.27955175621786105,0
387,2024-09-16 21:56:57.236612061,0,007,-0.1426627282860965,-0.008385513430423154,-0.05502655124616622,0.1745682808052126,0.42715218215825995,-1.3383511861277542,12.453500629350927,0.24791693668065168,0
388,2024-09-16 21:56:57.305557129,0,007,-0.12981061440150518,0.0009496029627266132,-0.040514288129283725,0.12370850217913809,0.05560997429259335,-1.3697286986580899,12.559677566390548,0.18413499588094973,0
389,2024-09-16 21:56:57.373407959,0,007,-0.11477238607237464,0.011409319205237129,-0.03957343852423269,0.0648817376763077,-0.3229422070577434,-1.402771008853931,12.67257449354052,0.09069679981236278,0
390,2024-09-16 21:56:58.314827881,0,007,-0.09737613805878233,0.022593701788168045,-0.05556647981839514,0.0010864223225310985,-0.6955186620267024,-1.4372882840838757,12.745683878815653,-0.028426535032932798,0
391,2024-09-16 21:56:58.376836182,0,007,-0.07767229584437124,0.034112042301946664,-0.09038722336712526,-0.06459329822502671,-1.0476960773444448,-1.4734883241626615,12.736376454861901,-0.16822685788450054,0
392,2024-09-16 21:56:58.439595947,0,007,-0.05594568815829012,0.04561595972128293,-0.14412599640347468,-0.12923297440161638,-1.364302327116432,-1.5118360658890575,12.608923759102245,-0.32270886247498487,0
393,2024-09-16 21:56:58.517231934,0,007,-0.03271537684412901,0.05683198599321572,-0.2148760297390808,-0.19027166381001342,-1.630264673479269,-1.5528012356902117,12.336026642030573,-0.4847082405509081,0
394,2024-09-16 21:56:58.587709961,0,007,-0.008710427586025651,0.0675804203212355,-0.29881031935353586,-0.24564264898984844,-1.8312997124332715,-1.5966292895922405,11.900636615104865,-0.6459739117226526,0
395,2024-09-16 21:56:58.643356934,0,007,0.015184744036745516,0.07776947264072699,-0.3905411247747665,-0.29381219773046036,-1.954493913348152,-1.643201468931623,11.298683339013731,-0.7978701106349465,0
396,2024-09-16 21:56:58.723356934,0,007,0.03800285754647306,0.08736708130065521,-0.4836440370207311,-0.33374193630882465,-1.9889611964926304,-1.6919967353582464,10.541933880373026,-0.9326666274665807,0
397,2024-09-16 21:56:59.667180176,0,007,0.05877319683261381,0.09636454659950673,-0.5712377886549644,-0.3648102346119836,-1.9266132714052073,-1.7421450267450038,9.65944218083211,-1.0449893219693216,0
398,2024-09-16 21:56:59.719928955,0,007,0.07661763698065607,0.10474769250119265,-0.6466208808317945,-0.3867167535024045,-1.7630140955550657,-1.7925251243298588,8.696533429434004,-1.1328854073555668,0
399,2024-09-16 21:56:59.797585938,0,007,0.090868769898578,0.11248504143983383,-0.7039874189153008,-0.3993830226859463,-1.498281518858593,-1.8418517282272662,7.711624727274188,-1.1982357094947742,0
400,2024-09-16 21:56:59.859114014,0,007,0.10118082299049484,0.11953305070247429,-0.7391093296476003,-0.4028709204691136,-1.137855984500805,-1.8887404653114443,6.771886888216544,-1.2466420645254421,0
401,2024-09-16 21:56:59.938235107,0,007,0.10758588113156377,0.12584918202076573,-0.7497954542386939,-0.3973457345370665,-0.6928177487146562,-1.9317759817340114,5.948591703426561,-1.2870069252346144,0
402,2024-09-16 21:56:59.998395020,0,007,0.11047394058341843,0.13140138587127853,-0.7360292805794425,-0.3830976876251158,-0.1794998618135172,-1.9695993961484384,5.312819514332108,-1.3308242538676642,0
403,2024-09-16 21:57:00.060880859,0,007,0.11051711822319923,0.13617010061654683,-0.6997823405435383,-0.3606227480607954,0.381607103747457,-2.000995297059486,4.9318224938963455,-1.391164469254464,0
404,2024-09-16 21:57:01.016820068,0,007,0.10857148603216976,0.14014824015218771,-0.6445534931364656,-0.33074466086514565,0.9673799039965152,-2.024935034756679,4.86553453606496,-1.4814893855384537,0
405,2024-09-16 21:57:01.083364014,0,007,0.10557187379827063,0.14334758981174056,-0.5747721045426741,-0.29472392661835123,1.5536257417100234,-2.0405614593902714,5.162284117765592,-1.6143665719115923,0
406,2024-09-16 21:57:01.150995117,0,007,0.10241967568512579,0.14581479924778465,-0.495240927331041,-0.2542850735042298,2.116438688203106,-2.047145128716344,5.853155756902054,-1.8000006757369893,0
407,2024-09-16 21:57:01.207083008,0,007,0.09986826563821598,0.14765016702423736,-0.41069020532665723,-0.2115325104425781,2.6333262303372345,-2.0440351507754695,6.945551526138,-2.044714112243847,0
408,2024-09-16 21:57:01.287958008,0,007,0.09842203131522971,0.14901560597103308,-0.32540773919353905,-0.16877622937762432,3.084180869653963,-2.030607816474038,8.417653158115874,-2.3497766576789827,0
409,2024-09-16 21:57:01.346764160,0,007,0.09826729129372029,0.15012226216014893,-0.24295971311565231,-0.12830572613697966,3.452167206508557,-2.0062478388394225,10.215655658771164,-2.71082185867618,0
410,2024-09-16 21:57:01.423518799,0,007,0.09925016723459301,0.1512000556249356,-0.16608960645358162,-0.0921521758823314,3.7245610844087436,-1.9704242084351848,12.254978504321707,-3.1178562456228063,0
411,2024-09-16 21:57:02.357343018,0,007,0.10091676694277804,0.15245913353255702,-0.09679248298266407,-0.06189217294695187,3.89351585044857,-1.9228790070227948,14.425963721950366,-3.555879452879212,0
412,2024-09-16 21:57:02.434518066,0,007,0.10261899782925374,0.1540527237886458,-0.03644364471366355,-0.038544509372667506,3.956600373464847,-1.8638676020263845,16.603539965235573,-4.006032757762039,0
413,2024-09-16 21:57:02.496543945,0,007,0.10365520473916663,0.15604854316105612,0.014106763660945652,-0.0225703285441055,3.916801627996049,-1.7943376323760876,18.65848399145038,-4.446937190986307,0
414,2024-09-16 21:57:02.570249023,0,007,0.10339234185217903,0.158415332616583,0.05446436810051701,-0.013940912801720147,3.7817983342906385,-1.715967670303997,20.46707227031935,-4.855936674317478,0
415,2024-09-16 21:57:02.626550049,0,007,0.10133560428667561,0.16102832847011392,0.08460969129022089,-0.01222731077587878,3.5626953480906525,-1.6310861386595068,21.91819199265024,-5.210297303671196,0
416,2024-09-16 21:57:02.704999023,0,007,0.09714966424109056,0.16369197765454813,0.10480704959162793,-0.016686552124072218,3.272540927398713,-1.5425320727686034,22.920011178767055,-5.488546866797186,0
417,2024-09-16 21:57:02.766625000,0,007,0.09065492712819598,0.16617461882296353,0.115546180466412,-0.02633949380265178,2.92478265825454,-1.4534697665860672,23.408140381977,-5.672025997518162,0
418,2024-09-16 21:57:03.692064941,0,007,0.0818181491008209,0.1682472213872934,0.11754871324995371,-0.04004317270880678,2.5318281884026415,-1.3671469701206378,23.354343284773872,-5.746617050752022,0
419,2024-09-16 21:57:03.752854980,0,007,0.0707427201846536,0.1697156106253368,0.11180954247785775,-0.056567888156575666,2.104019377704668,-1.2866234691615799,22.772677839574524,-5.704513587995401,0
420,2024-09-16 21:57:03.814726074,0,007,0.057651551115746436,0.17043868541039556,0.09960977437898118,-0.07469426928252869,1.6492367041402847,-1.2145021485552892,21.720447364451683,-5.545740578395331,0
421,2024-09-16 21:57:03.892833008,0,007,0.04286091363376923,0.17033245351669127,0.0824641454985991,-0.09332789648830737,1.1730869830340314,-1.1526599785511067,20.293537213398196,-5.279037059989149,0
422,2024-09-16 21:57:03.960625977,0,007,0.026762361309214375,0.16936294503701874,0.062018427766548714,-0.11160589030247649,0.6795391502291359,-1.1019957456794933,18.61706706212075,-4.921733546475946,0
423,2024-09-16 21:57:04.017492920,0,007,0.009828876772016711,0.16753131528537135,0.0399707293735118,-0.12898010803116133,0.17199581664385613,-1.0622788131254768,16.83229427094257,-4.4983754375189475,0
424,2024-09-16 21:57:04.094707031,0,007,-0.007364963829016071,0.16485634176806152,0.018058772582158364,-0.14527317006040333,-0.3452558587372495,-1.032191623358123,15.080971884616682,-4.038045221148428,0
425,2024-09-16 21:57:05.042357910,0,007,-0.024138212576965315,0.16136080068003406,-0.001983069428459206,-0.16067230846319205,-0.8656118006953862,-1.0095894978515902,13.489240533710323,-3.5706132898962104,0
426,2024-09-16 21:57:05.110485107,0,007,-0.0397377703539346,0.15706688279570816,-0.01860640796313171,-0.17561268135770122,-1.379334575147106,-0.9919192738844659,12.154015704698002,-3.1225481688638017,0
427,2024-09-16 21:57:05.178174072,0,007,-0.053411602627867996,0.15200306031019814,-0.03072252483672266,-0.19056071046842282,-1.8736509151678615,-0.976694396834823,11.13502132121174,-2.7133172466570756,0
428,2024-09-16 21:57:05.243916016,0,007,-0.06449720237307993,0.1462210741590028,-0.03794462846096776,-0.20577742440478006,-2.333570259609425,-0.9619355888353283,10.453612506685571,-2.3532970772147404,0
429,2024-09-16 21:57:05.305937988,0,007,-0.07249996191518862,0.13981817043657704,-0.04072318192899775,-0.2211594006523215,-2.743061183281585,-0.9465156531214917,10.096330341121986,-2.043422163183487,0
430,2024-09-16 21:57:05.367607178,0,007,-0.07715424084385482,0.13295756904825276,-0.04032586353371751,-0.2362177519978798,-3.086356703546575,-0.9303510841644558,10.02024281009267,-1.7762118102527367,0
431,2024-09-16 21:57:05.445257812,0,007,-0.07846990601819569,0.12587936138234465,-0.038652419429392494,-0.2501805112183641,-3.349314719451522,-0.9143783040938956,10.158532996133134,-1.5376050800101453,0
432,2024-09-16 21:57:06.367812012,0,007,-0.0767606889694379,0.11889749193157872,-0.03796411838000721,-0.26214144188041133,-3.520817731087371,-0.9002921520786115,10.425979794863121,-1.3090465100673794,0
433,2024-09-16 21:57:06.435520996,0,007,-0.07264097698239305,0.11238585398425197,-0.04067379492754738,-0.27117205665553046,-3.5940751137529943,-0.8901302529551034,10.724659429806566,-1.0695890925036098,0
434,2024-09-16 21:57:06.503355957,0,007,-0.06697331878257748,0.10675753839328003,-0.04929337837287588,-0.276358135640593,-3.567492465928417,-0.8858672288521691,10.950776961056834,-0.7982234433430853,0
435,2024-09-16 21:57:06.570663818,0,007,-0.06076079961130917,0.10243473474465853,-0.06645543572768192,-0.276789677985308,-3.44479080836693,-0.8891329958000277,11.003491008207657,-0.4766394135148625,0
436,2024-09-16 21:57:06.637762939,0,007,-0.055007172793901514,0.09980759355677042,-0.09482083063565858,-0.2715644587616096,-3.2343228400575765,-0.901060686612021,10.795804363613499,-0.09217753741670161,0
437,2024-09-16 21:57:06.699889893,0,007,-0.05058352252103425,0.09918986094056614,-0.13681655230348283,-0.25982951524098696,-2.947806892125309,-0.9222248453245591,10.266098334055462,0.35962781596927107,0
438,2024-09-16 21:57:06.761418945,0,007,-0.04812702899715908,0.10078247950502982,-0.19430841134371857,-0.24084565648499667,-2.5988432814852187,-0.9526348483183018,9.38732402069966,0.873498972063173,0
439,2024-09-16 21:57:07.715121094,0,007,-0.04797917892817283,0.10465160522932761,-0.26830407851732674,-0.21406339969040186,-2.201598048979841,-0.9917526023773092,8.171122041508685,1.4341526644526772,0
440,2024-09-16 21:57:07.785635986,0,007,-0.050164348898597985,0.11072247374942748,-0.3586945440110843,-0.17920956006847988,-1.7698812052358313,-1.0385200426072771,6.666258672645294,2.0172493314310675,0
441,2024-09-16 21:57:07.853420898,0,007,-0.054409612802696274,0.1187868112377038,-0.46402349873769494,-0.1363747476223201,-1.3165505490613845,-1.0914020229559487,4.952280890621181,2.591286901342601,0
442,2024-09-16 21:57:07.921198975,0,007,-0.060206727670038804,0.12851869189246484,-0.5813528450292006,-0.0860787531117596,-0.8530937668834598,-1.1484347781390856,3.1294430579562755,3.1202540937486867,0
443,2024-09-16 21:57:07.978969971,0,007,-0.06690693396458833,0.1394935421533379,-0.7063196940714135,-0.02929813983525674,-0.38941335439500585,-1.207256823294221,1.3061430110588161,3.5669849874079596,0
444,2024-09-16 21:57:08.056596924,0,007,-0.07382131275927592,0.15120924658377566,-0.8333569885913498,0.03253645995264149,0.0661696327382779,-1.2651479842721338,-0.4141769786909626,3.897014135818848,0
445,2024-09-16 21:57:08.118596924,0,007,-0.08030026802597699,0.1631133259020237,-0.9559984598505914,0.09756750253128317,0.5067700197496751,-1.3191406234432062,-1.9444176754282916,4.082380695674275,0
446,2024-09-16 21:57:09.055650879,0,007,-0.08578878609617534,0.17463677399660532,-1.0673112857591707,0.1635807574278281,0.9266116429221116,-1.3662092151074745,-3.222095422106993,4.1046534336999,0
447,2024-09-16 21:57:09.132847900,0,007,-0.08986934914697602,0.1852266268308251,-1.1605214192554205,0.22813006312154582,1.320497425645607,-1.403486976240004,-4.21419982259152,3.9565388678549906,0
448,2024-09-16 21:57:09.194354980,0,007,-0.09229470506220352,0.19436951118948861,-1.2297410106900177,0.2886963005397903,1.6832845308487534,-1.4285005188611315,-4.918360923822834,3.641730524610926,0
449,2024-09-16 21:57:09.257334961,0,007,-0.09299705967388291,0.20160791615083845,-1.2706070475511224,0.34285849999254947,2.009522995994556,-1.4394461777055179,-5.3596547605111295,3.1732830163799166,0
450,2024-09-16 21:57:09.337886963,0,007,-0.09206405219250595,0.2065584117357133,-1.280687611222232,0.3884731873201839,2.2931776369053676,-1.4354620022654823,-5.583313793994855,2.571377852747346,0
451,2024-09-16 21:57:09.397092041,0,007,-0.08968965909378239,0.20893896133531056,-1.2596282148356208,0.42385382271480165,2.527406420572646,-1.4167877695268412,-5.645113452236799,1.8611671229864413,0
452,2024-09-16 21:57:09.459300049,0,007,-0.08611883692523205,0.2086026744337794,-1.2090897887664167,0.44792214127102364,2.704578397100121,-1.3847363534053545,-5.601211302879797,1.0707122278130834,0
453,2024-09-16 21:57:10.416975098,0,007,-0.08160401310899851,0.20556730034095602,-1.1325122185700356,0.46030030014823253,2.8166691279296385,-1.3414576084700047,-5.498570526074031,0.22883281957586493,0
454,2024-09-16 21:57:10.473593994,0,007,-0.07638367422522217,0.2000306384370059,-1.0347221320179423,0.4613385538951687,2.855923098763967,-1.289525243820871,-5.367387656021979,-0.6370165028974208,0
455,2024-09-16 21:57:10.552562988,0,007,-0.0706807717575725,0.19236928847318877,-0.9214765409527073,0.4521051153170487,2.8155978652470743,-1.231455240757645,-5.217261424922711,-1.502522180155629,0
456,2024-09-16 21:57:10.619110107,0,007,-0.0647068491971528,0.18312259567994638,-0.7990458631155544,0.4343602542692343,2.690735579982712,-1.1693142006166601,-5.038278570399176,-2.347594446632141,0
457,2024-09-16 21:57:10.688062012,0,007,-0.05865204849652692,0.17296025889430194,-0.673810843342429,0.41048610929765106,2.478877640248962,-1.1044914401380694,-4.806748084729067,-3.1565578531143648,0
458,2024-09-16 21:57:10.755732178,0,007,-0.052648402324495074,0.16262917881471972,-0.5518008430042558,0.38331114248294257,2.1805063573865793,-1.037580943992708,-4.49316949356586,-3.917668891913113,0
459,2024-09-16 21:57:10.820328857,0,007,-0.046718708446964526,0.15288167860568835,-0.4382547822627995,0.35581618672576243,1.7991388500011911,-0.9683219811777037,-4.068825917042396,-4.622464272729925,0
460,2024-09-16 21:57:11.760320068,0,007,-0.040749487717248636,0.14439850564169102,-0.337397161938745,0.33078717084684994,1.3412148996523878,-0.8956280003790491,-3.5087031836529814,-5.265363496718357,0
461,2024-09-16 21:57:11.821971924,0,007,-0.03452164635978226,0.1377253579747663,-0.2524683141098152,0.31049057979025374,0.8158917063083027,-0.8177570496084986,-2.791265292683355,-5.843696879738227,0
462,2024-09-16 21:57:11.899128906,0,007,-0.027792011555036713,0.13323441985389256,-0.18580302975563578,0.2964050049956735,0.2347703245515045,-0.7326472652068237,-1.897460101843381,-6.357919676789081,0
463,2024-09-16 21:57:11.961614014,0,007,-0.020386240032045123,0.13110883793925088,-0.13874398662800924,0.2890287421754887,-0.38843965018150395,-0.638378403845943,-0.8107629262633544,-6.811457969008086,0
464,2024-09-16 21:57:12.023624023,0,007,-0.012272384301913037,0.131343915551118,-0.11139881766827399,0.2878005414799231,-1.0383553931930705,-0.5336409945670629,0.4812766991400436,-7.2098170432841,0
465,2024-09-16 21:57:12.105932861,0,007,-0.0036092008167593545,0.13376392436103074,-0.10242963898226415,0.29116389813215987,-1.698472563923175,-0.41809309909908116,1.9836629357879407,-7.559039073829618,0
466,2024-09-16 21:57:12.161907959,0,007,0.00523137827790595,0.1380541234097703,-0.10905581729036494,0.29676938984589685,-2.351695288314523,-0.29257866161106083,3.688869454668436,-7.863898019398185,0
467,2024-09-16 21:57:13.104468018,0,007,0.013675486804996551,0.14380262399181368,-0.1272841424564012,0.3017740145018858,-2.9807060426223884,-0.15923058526333678,5.5722645482506,-8.126451045020262,0
468,2024-09-16 21:57:13.178599121,0,007,0.021001330770098137,0.15054295033796167,-0.15222244981810282,0.30318315238711263,-3.5683596428716524,-0.021413592458606644,7.5914231582258225,-8.345699810667464,0
469,2024-09-16 21:57:13.240248047,0,007,0.02643704905813237,0.1577883329880544,-0.17837000210451376,0.298194435379241,-4.098495084412608,0.11658739544194921,9.69041769063407,-8.518591749278597,0
470,2024-09-16 21:57:13.317441895,0,007,0.02928625704364063,0.1650554101755773,-0.19993172372752183,0.2845205495997104,-4.55724582581258,0.2501278851092803,11.806536587310388,-8.64165253541109,0
471,2024-09-16 21:57:13.388184082,0,007,0.029047688648371397,0.17188419791993617,-0.21123739170894829,0.26066237235795764,-4.934422643800493,0.3748414343222204,13.875784522300801,-8.712354767046227,0
472,2024-09-16 21:57:13.442003906,0,007,0.025498741256033294,0.17786165519219715,-0.20722513926392658,0.22608469355180388,-5.224385721023864,0.4871263979103027,15.835698534936652,-8.729972142344733,0
473,2024-09-16 21:57:13.520564941,0,007,0.018736558265440025,0.18264668002214487,-0.1838455657391275,0.18125445038578405,-5.426066905764853,0.58437332821378,17.626749030760553,-8.696101512622489,0
474,2024-09-16 21:57:14.441374023,0,007,0.00918702661486969,0.18598763222718193,-0.1382766258983113,0.12754323459881328,-5.542166640032301,0.6649965766852309,19.194248671553954,-8.614876852564096,0
475,2024-09-16 21:57:14.503367920,0,007,-0.0024119436200852598,0.18772709548028146,-0.0689480942586665,0.06702988257908836,-5.577848544770009,0.728388430605004,20.491417938629176,-8.49269264761045,0
476,2024-09-16 21:57:14.577213135,0,007,-0.015054096664524065,0.18779553108862135,0.024540608422995398,0.0022491851992798,-5.539426609705724,0.7748581318236942,21.48309178122058,-8.337434844670378,0
477,2024-09-16 21:57:14.631581055,0,007,-0.027534575539273257,0.18619891944990888,0.14149760361345637,-0.06405828968039282,-5.433445293411924,0.8055613045941047,22.149268635319224,-8.157479941668573,0
478,2024-09-16 21:57:14.712781006,0,007,-0.03854209264561404,0.18300622722086768,0.2801466575654552,-0.12914509400188925,-5.266189001018437,0.8223937185450776,22.487527361526425,-7.960692792534246,0
479,2024-09-16 21:57:14.780471191,0,007,-0.04677061027066028,0.17834021248806672,0.4376108972075434,-0.1904017722638994,-5.043402490408057,0.8278152840453281,22.513454469757562,-7.753605910596544,0
480,2024-09-16 21:57:14.847966064,0,007,-0.051043700289888125,0.1723699659990621,0.6099756320423062,-0.245493814769508,-4.770123558646492,0.8246056250970623,22.25908019066305,-7.541062052149109,0
481,2024-09-16 21:57:15.788146973,0,007,-0.050436828639934844,0.16530017822828666,0.792454414266309,-0.29251861995624917,-4.450731532473421,0.8155952218381838,21.769879936504754,-7.326502740840519,0
482,2024-09-16 21:57:15.850635010,0,007,-0.044377722512135696,0.15735326349767784,0.9795748077400264,-0.33014564903140875,-4.089265919111026,0.8034042873748806,21.100702286016706,-7.11272777310232,0
483,2024-09-16 21:57:15.912653076,0,007,-0.032707175358866365,0.14874622093341394,1.1653113751282436,-0.3576768214472825,-3.6899210493737624,0.7901854461321671,20.310734802148474,-6.90261786040803,0
484,2024-09-16 21:57:15.995666016,0,007,-0.015694083209087186,0.1396706332060337,1.3431755647745878,-0.3750067377809285,-3.257599512694884,0.7773958225963228,19.4573427571656,-6.69923416603833,0
485,2024-09-16 21:57:16.052343994,0,007,0.005988344868585094,0.1302838105084083,1.5063165077206597,-0.382519426046919,-2.798426788159461,0.7657030404259215,18.58867549259465,-6.505107140516719,0
486,2024-09-16 21:57:16.131156982,0,007,0.031314526877718483,0.12071113854082309,1.6476816988402017,-0.3809671819085029,-2.320094387341587,0.7551324113971185,17.736095929039358,-6.321206959550877,0
487,2024-09-16 21:57:16.192007080,0,007,0.05898050401633814,0.11105328610732833,1.7602419837847145,-0.37133826754233956,-1.8318649899117638,0.7454411434087462,16.908857959020164,-6.146318018129486,0
488,2024-09-16 21:57:17.142405029,0,007,0.08749872484639673,0.10139267729396141,1.8372416665222395,-0.35469576152858073,-1.3441328619090067,0.7365598817143029,16.093482280167354,-5.977141438751965,0
489,2024-09-16 21:57:17.199342041,0,007,0.11531417518693368,0.09179734904323857,1.8724864186046206,-0.3320107966767391,-0.8676215467795251,0.7289041771523311,15.258770705186729,-5.809046635075781,0
490,2024-09-16 21:57:17.276506835,0,007,0.14093835206066063,0.08232121127359517,1.860765718756546,-0.30407294824987263,-0.41246612520348935,0.7234565272121086,14.365013095451816,-5.637209821920129,0
491,2024-09-16 21:57:17.338552002,0,007,0.16308546263762738,0.072998608490219,1.7984397700404828,-0.2715328615286942,0.012597981425378458,0.7216568589239245,13.373537159194935,-5.4575651405485335,0
492,2024-09-16 21:57:17.400585938,0,007,0.18078175078866743,0.063833596425845,1.68405290742476,-0.23502866679293044,0.4007842454691693,0.7252216498745246,12.252307300837977,-5.266822751050218,0
493,2024-09-16 21:57:17.481243896,0,007,0.19341771805417532,0.05479060625100439,1.5187672039488085,-0.1953004401863548,0.7473794647924202,0.7360143527844697,10.976451846374111,-5.061479109267737,0
494,2024-09-16 21:57:17.540297119,0,007,0.2007342214677777,0.04579457748696217,1.306477362641657,-0.15324462205232628,1.0494243788465443,0.7559954915368795,9.52688069109642,-4.8367728099545895,0
495,2024-09-16 21:57:18.455656006,0,007,0.20276537476169307,0.036742114639345305,1.053608026788566,-0.10991351691021577,1.3052086433745187,0.7871488780618524,7.890971008423126,-4.586608675410667,0
496,2024-09-16 21:57:18.532814941,0,007,0.1997748516862686,0.027518502663988996,0.768734180904198,-0.06647659524604516,1.5139176017927487,0.8312649496140249,6.066373353323873,-4.304521230881716,0
497,2024-09-16 21:57:18.596287109,0,007,0.19220474912808616,0.018013493775461048,0.46215946766197064,-0.02415610560748231,1.6756198346361382,0.8895828310564381,4.06602963247958,-3.984998175885904,0
498,2024-09-16 21:57:18.658772949,0,007,0.18062761973162303,0.00813042184559827,0.14542220826233962,0.015857629102729785,1.791555578137673,0.962407515985778,1.9219455342020375,-3.62457563210133,0
499,2024-09-16 21:57:18.736552002,0,007,0.16568561534242615,-0.002212664865779423,-0.16937354889815676,0.05251102185586311,1.8644789775272363,1.0488349291470394,-0.3133509723634784,-3.2225346315096273,0
500,2024-09-16 21:57:18.806178955,0,007,0.14801853308336319,-0.013085225857118713,-0.47037573457959,0.08500258255487694,1.898794582029414,1.146646654405608,-2.56753305149298,-2.7811927148230775,0
501,2024-09-16 21:57:18.861269043,0,007,0.1281989131556202,-0.02454081053106512,-0.746808879894994,0.1128861961143174,1.9003618022926059,1.2523619216900173,-4.751871229316439,-2.3057501833673957,0
502,2024-09-16 21:57:19.817584961,0,007,0.10669936553061277,-0.03660278979675188,-0.9896661104158827,0.13613624848385944,1.875904621606014,1.3614345120537217,-6.768587955639264,-1.8036934592740448,0
503,2024-09-16 21:57:19.885468018,0,007,0.08391309441121972,-0.04924553375076861,-1.192168694179762,0.15514931285767172,1.8320679477088744,1.468606648407427,-8.52179217539374,-1.2839139179321948,0
504,2024-09-16 21:57:19.951116943,0,007,0.0602210471490721,-0.06238370654595623,-1.349972393445689,0.17066739149786833,1.7744220525742256,1.5683996919572007,-9.929154425146713,-0.7558254687189195,0
505,2024-09-16 21:57:20.015039062,0,007,0.03606572157441906,-0.07587590947515573,-1.461180938346458,0.1836368176074379,1.706779339701652,1.6556762306620183,-10.9313729522174,-0.22876120280563833,0
506,2024-09-16 21:57:20.074960938,0,007,0.011989343867284305,-0.08953798698400244,-1.526185573996388,0.1950390286646559,1.630857905625936,1.7262089151360016,-11.49816525194396,0.28820477809118766,0
507,2024-09-16 21:57:20.152633789,0,007,-0.011375363916262253,-0.1031569073643736,-1.547249304252108,0.20571757241430397,1.5461152843140689,1.7771815081890807,-11.630900274743237,0.7860771422144989,0
508,2024-09-16 21:57:20.214708008,0,007,-0.03334485359711823,-0.11650031320654626,-1.527809776002283,0.21621297911359588,1.4498366360783141,1.8075036195107663,-11.362474488719755,1.255667311773135,0
509,2024-09-16 21:57:21.153812012,0,007,-0.05323322273527326,-0.12932473923371962,-1.4716801137915678,0.22663295389516655,1.3377871845083296,1.817844067196923,-10.754952311827603,1.6875805706907743,0
510,2024-09-16 21:57:21.231046875,0,007,-0.07039454274315297,-0.14139047655481066,-1.3824288320128013,0.23659420403750966,1.205451701557904,1.8104059715667913,-9.89504371551507,2.0726191972601025,0
511,2024-09-16 21:57:21.292335938,0,007,-0.0842484850997023,-0.15248809307267525,-1.2631181528796802,0.24525875674150846,1.0494439947865644,1.7885606797173064,-8.887124580205507,2.4023485126265647,0
512,2024-09-16 21:57:21.370837891,0,007,-0.09428833653151902,-0.16247114028170356,-1.1164199068268508,0.25147144000898464,0.8686477023380955,1.7564406877570995,-7.843812308269318,2.6694087233116943,0
513,2024-09-16 21:57:21.438584961,0,007,-0.10008898974245721,-0.1712793111689471,-0.9450222683065393,0.25397328967848687,0.6649592371446446,1.7185153386954692,-6.87468281083175,2.867401322419212,0
514,2024-09-16 21:57:21.506395996,0,007,-0.10134263777872672,-0.17893664024113332,-0.7521877310955416,0.2516271729858466,0.4436256612346679,1.6791451813132634,-6.074588997734929,2.9905548782018303,0
515,2024-09-16 21:57:21.574085938,0,007,-0.09793224641814662,-0.1855238412766807,-0.542274607953518,0.24359769101637263,0.21303510137582968,1.64215235348014,-5.5144715685333034,3.0336313890892477,0
516,2024-09-16 21:57:22.517677002,0,007,-0.0900188827399169,-0.19114082467011764,-0.3209891897473753,0.2294670265775115,-0.016153309458522055,1.6104861552655463,-5.237097421953119,2.992384085567729,0
517,2024-09-16 21:57:22.576965088,0,007,-0.07810508564208168,-0.19587698751492902,-0.09520740448709483,0.2092856761391294,-0.2323557112477619,1.5860529641539705,-5.257009244992072,2.8643911501791095,0
518,2024-09-16 21:57:22.641603027,0,007,-0.06304889484237279,-0.19979386734808088,0.12758009127739608,0.18355200368647284,-0.4245032658815759,1.569726397256422,-5.561996531693175,2.649847398823131,0
519,2024-09-16 21:57:22.720413086,0,007,-0.046017799101302846,-0.20291536448627817,0.3399742807666179,0.15312433810675108,-0.5832802016874015,1.5615044600153734,-6.114149644019713,2.3520110571502504,0
520,2024-09-16 21:57:22.782227051,0,007,-0.028385729375750735,-0.20522299596031518,0.5353065653198492,0.11909857618517346,-0.7020308024381874,1.560756838811351,-6.850179890792431,1.9771695121632065,0
521,2024-09-16 21:57:22.844714111,0,007,-0.011595744154880717,-0.20665944551859702,0.7081121481361987,0.08269837033298118,-0.7772776717033257,1.566484090116035,-7.68267248728442,1.534196727440292,0
522,2024-09-16 21:57:22.921551025,0,007,0.0029779345516994897,-0.20714428465815996,0.8544581454358328,0.04519516880307295,-0.808841380566538,1.5775059612916267,-8.504749246209753,1.0339048381974,0
523,2024-09-16 21:57:23.863701904,0,007,0.014146927505121436,-0.20660019402578061,0.9721681567838074,0.007832595841656968,-0.7996094632782518,1.5925444799297337,-9.198292042783859,0.4881936684604529,0
524,2024-09-16 21:57:23.935614990,0,007,0.021004829287922296,-0.20498085895894752,1.0609156778590105,-0.028268764326974897,-0.7549822478221361,1.6102258018204099,-9.643482858849234,-0.0910894164054089,0
525,2024-09-16 21:57:24.003396973,0,007,0.023002460510731584,-0.2022884312542667,1.1221120785028564,-0.06220681542164008,-0.6819724968491901,1.629037211086231,-9.728619538982134,-0.6931563976856385,0
526,2024-09-16 21:57:24.071110107,0,007,0.01998504745218058,-0.1985737646974626,1.1585528414608146,-0.09334769181819874,-0.5880180490049868,1.6472651537771885,-9.361498639890849,-1.3083071477046073,0
527,2024-09-16 21:57:24.126880859,0,007,0.012178396967236112,-0.19392513400482092,1.1738700668825395,-0.12131078344778103,-0.47977718464459296,1.6629471287807487,-8.482701990319125,-1.9267003227933994,0
528,2024-09-16 21:57:24.204145020,0,007,0.00013306691945528905,-0.1884587542168943,1.1719155394098186,-0.1459153381128375,-0.36230193678766454,1.6738862642078045,-7.077452098151837,-2.5366213842493233,0
529,2024-09-16 21:57:24.274332031,0,007,-0.015358797026551482,-0.1823173338419819,1.156207839092708,-0.16711827244325375,-0.238845091112719,1.677761340530352,-5.181039045217339,-3.1233447940654036,0
530,2024-09-16 21:57:25.184070068,0,007,-0.03336445796241064,-0.17566898723063198,1.129518093097032,-0.18494844468969063,-0.11123965770732697,1.6723189716968656,-2.8752923028880306,-3.669211073311692,0
531,2024-09-16 21:57:25.260014893,0,007,-0.05291662423232148,-0.16869552347820568,1.0936485356674708,-0.19945149176125632,0.019420679062012558,1.6556212896667555,-0.27724278355233456,-4.154949158213646,0
532,2024-09-16 21:57:25.323331055,0,007,-0.0731081861855236,-0.16157099107562747,1.049478716720965,-0.2106792002385706,0.15201652364022653,1.6263423611644143,2.476653946555409,-4.561881746240869,0
533,2024-09-16 21:57:25.395464111,0,007,-0.09316202114078576,-0.15444343241679737,0.9972738501465556,-0.21872141540405862,0.28460187404770837,1.5840879213453198,5.246423053912473,-4.874280788658011,0
534,2024-09-16 21:57:25.463088867,0,007,-0.11246486558362098,-0.14742996988961257,0.9371136162828969,-0.22372901406575058,0.41362161111860474,1.5296614840613703,7.900873430327481,-5.080970723256528,0
535,2024-09-16 21:57:25.524957031,0,007,-0.13056166270691077,-0.1406217799382258,0.8692958158612158,-0.22590154760900705,0.533442683226473,1.4651779588203417,10.32495116364873,-5.175735529594216,0
536,2024-09-16 21:57:25.598802002,0,007,-0.14711907725832102,-0.1340880627902222,0.7946394340441122,-0.2254709393294508,0.6366223002325119,1.3939525522624805,12.423228128566468,-5.156899714670634,0
537,2024-09-16 21:57:26.534303955,0,007,-0.1618720047029246,-0.12787410228059085,0.7145937544178945,-0.22269898228316773,0.7149613886678576,1.3201798665357158,14.121519063145682,-5.026870290588521,0
538,2024-09-16 21:57:26.604329102,0,007,-0.17457043670960154,-0.121998445479556,0.6310653938649433,-0.21784860837572947,0.7608219577087091,1.2485235658271887,15.36791696690515,-4.792145056680541,0
539,2024-09-16 21:57:26.673330078,0,007,-0.18494824815700192,-0.11645727219704073,0.5460439986939707,-0.21109663191024902,0.7681579658535657,1.1837297006987608,16.132921612810506,-4.46365256447482,0
540,2024-09-16 21:57:26.745151123,0,007,-0.19272552326673814,-0.11123862255178088,0.46126014925369635,-0.2024216145108715,0.7331819253994951,1.1302596555719722,16.407820494076606,-4.056938312408231,0
541,2024-09-16 21:57:26.805635010,0,007,-0.1976385620867716,-0.10633961775304138,0.37805325700498205,-0.1915347102957713,0.6548503700943485,1.091894417470039,16.2017037675055,-3.591787089125054,0
542,2024-09-16 21:57:26.868120117,0,007,-0.19948172519227667,-0.10177556902830337,0.2974719882414269,-0.17790380624623608,0.5351833922751146,1.0713425678098214,15.538049061061125,-3.0909569957518617,0
543,2024-09-16 21:57:26.945781982,0,007,-0.19814238555189834,-0.09757787942765231,0.22053593366147878,-0.16087901039835137,0.3792234476327581,1.0699427730725963,14.451293991453063,-2.577975247247795,0
544,2024-09-16 21:57:27.892551025,0,007,-0.19361543259639138,-0.093789402593916,0.1485405130985766,-0.13988347324536934,0.1945038538876419,1.0875100185087674,12.984001281358974,-2.074609987100285,0
545,2024-09-16 21:57:27.958328857,0,007,-0.18599417403212032,-0.09046669602802934,0.08324135992174798,-0.11460969696948059,-0.009829714293971618,1.1223147707283816,11.18520485723356,-1.5988305234550393,0
546,2024-09-16 21:57:28.022041992,0,007,-0.17544418020025757,-0.08768722901915918,0.026773665662969053,-0.08516284774542345,-0.2239467029940157,1.171183347660176,9.109432830484558,-1.1634652212936014,0
547,2024-09-16 21:57:28.082508057,0,007,-0.16217728724712482,-0.08554965059035338,-0.018697190038454152,-0.052117169226902134,-0.43809834286030497,1.2297192032217388,6.8156947632781035,-0.7753728294375158,0
548,2024-09-16 21:57:28.163537109,0,007,-0.1464436620791199,-0.08415902199980069,-0.05143963579628983,-0.01648839016048819,-0.6431642619244766,1.2926052187333292,4.36660869685646,-0.4352135008567354,0
549,2024-09-16 21:57:28.231327148,0,007,-0.12853886742225765,-0.08360325302842612,-0.07055025682013144,0.020354454766728126,-0.8310383178035536,1.3539347687954066,1.827535310996426,-0.13807592629270019,0
550,2024-09-16 21:57:28.286961182,0,007,-0.1088051849650149,-0.08393642038199427,-0.07618565016238542,0.05681816725921899,-0.9949484571427619,1.407582934354218,-0.7355931136467335,0.1252070182816157,0
551,2024-09-16 21:57:29.229705078,0,007,-0.08762252815838496,-0.08517815038071555,-0.06962534889569419,0.09124193190813222,-1.1296696196186888,1.4476353179932648,-3.260444535400214,0.3667243025717588,0
552,2024-09-16 21:57:29.307812012,0,007,-0.06541216395882997,-0.08732235118449409,-0.053142058113478156,0.12205547097993931,-1.231500389733183,1.4688075528692177,-5.692847476335484,0.6006419997814101,0
553,2024-09-16 21:57:29.369853027,0,007,-0.042668848208896944,-0.09034183500471615,-0.029615605835038694,0.14789724455284667,-1.2980661908614979,1.4667704923304756,-7.988751815963445,0.8425370724445723,0
554,2024-09-16 21:57:29.445419189,0,007,-0.02000181221235351,-0.09418400697252548,-0.0019210795191814233,0.16766980243287455,-1.3281796399466264,1.438375129645615,-10.11159775513597,1.1080692852137781,0
555,2024-09-16 21:57:29.509545166,0,007,0.001848315169726223,-0.09876417187974816,0.027717733074489735,0.18055214717491963,-1.3218044094646282,1.3818170545840665,-12.025958496995234,1.4106603359936496,0
556,2024-09-16 21:57:29.580808105,0,007,0.0220340268380734,-0.10396640372123904,0.05816706773792966,0.18600444926034723,-1.27990087720936,1.296734912586966,-13.690928022241152,1.7588184331898415,0
557,2024-09-16 21:57:29.634354980,0,007,0.03966560381986301,-0.10965614309400372,0.0894475125253744,0.18378364934342756,-1.2039772688393042,1.1841805770402885,-15.056958910048454,2.154166412363591,0
558,2024-09-16 21:57:30.592174072,0,007,0.053900048798681224,-0.11569723355911402,0.1224179652587194,0.17397624670737183,-1.0954616451005916,1.0464332163293468,-16.068012741211014,2.590918329752036,0
559,2024-09-16 21:57:30.648570068,0,007,0.06403042840621982,-0.12196019566115386,0.1582486376570044,0.15704928779484492,-0.9552171895813093,0.8867255082452075,-16.66854095257193,3.0568487542196396,0
560,2024-09-16 21:57:30.725753906,0,007,0.06955622091723365,-0.12831750681593532,0.19791014370929524,0.13389807273419732,-0.7834936501206233,0.7089780855004472,-16.813028070523004,3.5352188538299516,0
561,2024-09-16 21:57:30.788239014,0,007,0.0702258445403166,-0.13463547484605487,0.2418270728600987,0.1058496508448985,-0.5803942784142625,0.5175663300517566,-16.475458150258728,4.007043517154757,0
562,2024-09-16 21:57:30.850724854,0,007,0.0660506588040877,-0.14077336848187424,0.28974336212280954,0.07459433762229148,-0.3466598057857036,0.3170698407031278,-15.656777670393282,4.45328065673987,0
563,2024-09-16 21:57:30.927479980,0,007,0.05729336696862025,-0.14658872780087756,0.34078958771053225,0.04204111715446758,-0.08440591668380613,0.111967183343559,-14.389017897089133,4.856700895559392,0
564,2024-09-16 21:57:30.998662842,0,007,0.04443568394906494,-0.15193868871114377,0.39369157810729943,0.010118972129936472,0.20251891334154376,-0.09369873544577119,-12.735452651812698,5.203378089287023,0
565,2024-09-16 21:57:31.916752197,0,007,0.028131858042099167,-0.15667195672507261,0.44700663704307436,-0.019420260033754806,0.5087567633072501,-0.29664668493713203,-10.787321846930316,5.483822969557287,0
566,2024-09-16 21:57:31.984541016,0,007,0.009153014557277819,-0.1606198115057969,0.4993042386340693,-0.04514740704418507,0.8282535777031531,-0.49465790326459974,-8.6580823504138,5.693688089449377,0
567,2024-09-16 21:57:32.052322021,0,007,-0.011672565228855285,-0.1636008105068331,0.5492742353369873,-0.06604238178638584,1.1554142355530777,-0.6868046199082726,-6.475587830915516,5.833898668371692,0
568,2024-09-16 21:57:32.107789062,0,007,-0.0335118312811892,-0.1654438288022317,0.5957032489179479,-0.08151699524794925,1.4861993405995044,-0.8735198076673729,-4.3725015655404205,5.910158599132933,0
569,2024-09-16 21:57:32.185897217,0,007,-0.055559426612972876,-0.16601881203869143,0.6372272362869561,-0.09134658651473536,1.8188504463925161,-1.0564538016346066,-2.476053745050554,5.931947514209477,0
570,2024-09-16 21:57:32.247818115,0,007,-0.07704671812873809,-0.16526134636897769,0.6719129672460619,-0.09552053342770085,2.154073113468792,-1.238111759957806,-0.8985411234837785,5.9111082982125485,0
571,2024-09-16 21:57:32.309945068,0,007,-0.09723522541646908,-0.16318640618184108,0.6969074055129171,-0.09409413432559736,2.4945654055366155,-1.4212846353448807,0.2705399615613165,5.860042873409117,0
572,2024-09-16 21:57:33.261321045,0,007,-0.11540922488612168,-0.15989502354994628,0.7084116878709634,-0.08711884191842191,2.843939337410265,-1.6083480896404228,0.9699946150446304,5.789788039700428,0
573,2024-09-16 21:57:33.334633057,0,007,-0.13087891019758688,-0.1555785799287633,0.7020449653974293,-0.07464183038879627,3.205352050446969,-1.8005986268006182,1.1693916872045795,5.708535228295679,0
574,2024-09-16 21:57:33.402379883,0,007,-0.14299496367763423,-0.1505216107555697,0.6734425258358208,-0.05672502424303157,3.580260212257876,-1.9978011143638474,0.8681970971550479,5.620989965336509,0
575,2024-09-16 21:57:33.470101074,0,007,-0.1511718302969593,-0.14509768243402532,0.6189279558668411,-0.03348396971807614,3.9676186832674767,-2.198026831441825,0.09175192414956053,5.528592974093468,0
576,2024-09-16 21:57:33.537885010,0,007,-0.1549170286258926,-0.1397503309669475,0.5362096215751136,-0.0051785966559445545,4.363722552579793,-2.3977787365890917,-1.1144556901740788,5.430311767768519,0
577,2024-09-16 21:57:33.600083008,0,007,-0.15385519282657556,-0.13495954414299452,0.4249983056744846,0.027662279406025215,4.762701304866834,-2.592375843445344,-2.6895632384223664,5.323516706872161,0
578,2024-09-16 21:57:33.662583008,0,007,-0.14773179275503928,-0.13120494847349318,0.2873285355853445,0.06415091333334519,5.157400176509674,-2.776538594695142,-4.559979576248667,5.204684374923855,0
579,2024-09-16 21:57:34.614191162,0,007,-0.13639779710099276,-0.12893510900136734,0.1274474397843237,0.10303741359403973,5.540224396484792,-2.9450612104259983,-6.641559868769711,5.070126766586021,0
580,2024-09-16 21:57:34.676677002,0,007,-0.11979479364386378,-0.1285419279350122,-0.048653438584628034,0.1427973191981701,5.903649370167392,-3.0934536225380196,-8.843115353168272,4.916915653362307,0
581,2024-09-16 21:57:34.738684814,0,007,-0.09795826766933595,-0.13033385914394,-0.23385651611671474,0.18177777922481758,6.240416030360695,-3.2184933802498312,-11.070849752150737,4.743724490746005,0
582,2024-09-16 21:57:34.820179932,0,007,-0.07104249999083401,-0.13450579761093845,-0.4205163472831505,0.21836039710287877,6.543583658238634,-3.3186383511212645,-13.232026963091574,4.551188859088979,0
583,2024-09-16 21:57:34.877904053,0,007,-0.03936202572014983,-0.14111101235165463,-0.6010153484711463,0.2511157990600433,6.8064983605557,-3.3942144077071124,-15.236910677967954,4.341777238305934,0
584,2024-09-16 21:57:34.955693848,0,007,-0.003443265920774266,-0.15004353620121377,-0.7683192938592674,0.27894011166389787,7.022730363811615,-3.4473313267486705,-16.999779954362108,4.119544589595889,0
585,2024-09-16 21:57:35.023478027,0,007,0.03592370782873478,-0.16103552988647388,-0.9164490426423024,0.3011452323784734,7.186168362641653,-3.481572049368348,-18.440940395634264,3.8901175428894237,0
586,2024-09-16 21:57:35.938986084,0,007,0.07764815246925803,-0.17366670014822622,-1.040673503722822,0.3174581244324824,7.291328825345688,-3.5015220088061154,-19.490924791408986,3.6609433344046645,0
587,2024-09-16 21:57:36.010317139,0,007,0.12032896694052152,-0.18737876493166772,-1.1373433523236585,0.32792195627036114,7.333693474444766,-3.5121877342267553,-20.096217963779672,3.4415103989487985,0
588,2024-09-16 21:57:36.062560059,0,007,0.16228289284006644,-0.2014938260906231,-1.203510243549046,0.33275563646470235,7.3099322689339825,-3.518382137255725,-20.224610266527048,3.2431658839228703,0
589,2024-09-16 21:57:36.140444092,0,007,0.2016247459405677,-0.21524541417522447,-1.236584071882814,0.33224786400197254,7.218066336360735,-3.5241795467617756,-19.868588571423274,3.078360695853845,0
590,2024-09-16 21:57:36.213531982,0,007,0.23640512653939777,-0.22782939056367435,-1.2342299045838685,0.3267185743192584,7.057657097115109,-3.5324986611545297,-19.046212760297262,2.9593489110529867,0
591,2024-09-16 21:57:36.281316162,0,007,0.2647871760019171,-0.23846874592008746,-1.1945754712475862,0.31652303792495534,6.829909051090138,-3.5447873760309876,-17.79943719909086,2.8964193438155292,0
592,2024-09-16 21:57:36.349037842,0,007,0.285229479939546,-0.24647818013909795,-1.1166479042059103,0.3020550481792898,6.537445202116259,-3.560752861384692,-16.189940302619437,2.895852268769764,0
593,2024-09-16 21:57:37.287851074,0,007,0.29664461410537474,-0.2513184085466487,-1.0008588523320903,0.28372791015203647,6.183772904371654,-3.5781644155024264,-14.292941284633105,2.9579915998254,0
594,2024-09-16 21:57:37.360383057,0,007,0.2985058746497835,-0.2526369478928091,-0.8493900751518697,0.2619481648784138,5.772792176035842,-3.592870814159008,-12.189987419538983,3.07593952234468,0
595,2024-09-16 21:57:37.427481934,0,007,0.29087405565702695,-0.25029278843519465,-0.6664370656115803,0.23711957380042006,5.308659612847917,-3.599158840728306,-9.96193267428533,3.235383572247638,0
596,2024-09-16 21:57:37.488998047,0,007,0.27433259709941155,-0.24436006255470352,-0.45828368594281466,0.2096990439954046,4.796084519392793,-3.5904278585957163,-7.683596698510229,3.4159394597847337,0
597,2024-09-16 21:57:37.563601074,0,007,0.2498629729233572,-0.23510893472983593,-0.2331137795044961,0.1802823408610039,4.240975172127322,-3.560020412389954,-5.421465789286732,3.5940260528062686,0
598,2024-09-16 21:57:37.626715820,0,007,0.21872375050486106,-0.22297008663949877,-0.0005079732001038236,0.14967683030749615,3.651215239307407,-3.50204756623084,-3.234471563718415,3.746696704737781,0
599,2024-09-16 21:57:37.688775146,0,007,0.1823768783459435,-0.20849254972406972,0.22924600806336723,0.11894307467335472,3.037269648284386,-3.4121340096983857,-1.1762173992634573,3.8553376122703846,0
