,time,MARKER,pid,L_O_DSI,L_D_DSI,L_O_DSphi,L_D_DSphi,R_O_DSI,R_D_DSI,R_O_DSphi,R_D_DSphi,trial_id
0,2024-09-16 21:55:43.202464000,TASK_BEGIN,007,0.46936425816524635,-0.6649350570295219,-0.6909362636515322,0.16047694047839262,-1.5132373404987394,2.6894152012651555,-23.169657259854567,-2.8464655759589426,0
1,2024-09-16 21:55:43.270091008,TASK_BEGIN,007,0.3678139822480976,-0.6294417554442543,-0.9067080159911882,0.259119824309779,-3.3058517467432353,2.90095637575655,-30.86776784166312,-1.6137394847697208,0
2,2024-09-16 21:55:43.337946112,TASK_BEGIN,007,0.2702205907597201,-0.595087031904172,-1.108916997243845,0.3547696478143945,-5.047221036820779,3.1070032261152947,-38.24315900399047,-0.4601925570498926,0
3,2024-09-16 21:55:43.393757952,TASK_BEGIN,007,0.1795280457689711,-0.5631810976204876,-1.2879612518954036,0.44588001586237475,-6.688874532819551,3.3009974202473296,-44.982407153034764,0.5465674553199664,0
4,2024-09-16 21:55:43.472695040,TASK_BEGIN,007,0.09807974285539894,-0.5348196706504419,-1.4356933558381382,0.5313207403521271,-8.188210730768265,3.476845325422609,-50.82058034962704,1.352033988087031,0
5,2024-09-16 21:55:44.386989056,TASK_BEGIN,007,0.027456468633007415,-0.5108099660953466,-1.5459074487354425,0.6103300418027211,-9.510183495829988,3.6292362088856516,-55.56536403643086,1.9198918342130467,0
6,2024-09-16 21:55:44.449475072,TASK_BEGIN,007,-0.031577848261592045,-0.49164065755637315,-1.6147470165266364,0.6823931312461907,-10.62828953094295,3.753974701134119,-59.114658446286064,2.235130464972342,0
7,2024-09-16 21:55:44.527462912,TASK_BEGIN,007,-0.07903225927474625,-0.47749405924568394,-1.6409513155222182,0.7471196406397331,-11.525434567814743,3.8482406488744485,-61.46243967494887,2.3046406431944226,0
8,2024-09-16 21:55:44.595232000,TASK_BEGIN,007,-0.11557059154862513,-0.46828642986691,-1.625822703447662,0.8041458700803077,-12.194831192913313,3.910685156226758,-62.69141353893695,2.1554356287563157,0
9,2024-09-16 21:55:44.662892032,TASK_BEGIN,007,-0.14234045820066552,-0.46371993530091055,-1.572884932698842,0.853062913888918,-12.64054707462669,3.941341969330767,-62.95578401455911,1.8310918973072836,0
10,2024-09-16 21:55:44.721328896,TASK_BEGIN,007,-0.1607651799430234,-0.4633398605411931,-1.4873368265506286,0.8933840248793989,-12.877142792844069,3.9413890375901866,-62.45944155577603,1.3870882217878306,0
11,2024-09-16 21:55:44.784339968,TASK_BEGIN,007,-0.17233471292739214,-0.46659600898133435,-1.3754889953837028,0.9245887936567927,-12.928172033838882,3.9128335049298886,-61.43368605716521,0.8854708651835,0
12,2024-09-16 21:55:45.742087936,TASK_BEGIN,007,-0.17846099017734054,-0.47289997417672414,-1.2443429752188637,0.9462656955780626,-12.82383922809909,3.858209875104446,-60.11630001624919,0.3890152148528861,0
13,2024-09-16 21:55:45.800719104,TASK_BEGIN,007,-0.1804411530396096,-0.4816674204052403,-1.1013742574875063,0.9583009891084272,-12.59829335478062,3.780340254498375,-58.73281038750735,-0.044789135469191936,0
14,2024-09-16 21:55:45.863205120,TASK_BEGIN,007,-0.17950073435009234,-0.49234393495910683,-0.9544841550695908,0.9610144926045985,-12.286983058737063,3.6821910590938414,-57.4817042401378,-0.3691234795009184,0
15,2024-09-16 21:55:45.940485120,TASK_BEGIN,007,-0.1768468517930007,-0.5044196255557486,-0.8119845741295656,0.9551891193010663,-11.924470127894608,3.5669097683462048,-56.52547586574576,-0.5515724248137297,0
16,2024-09-16 21:55:46.002970880,TASK_BEGIN,007,-0.17369129173616452,-0.5174360755944042,-0.6824427383207273,0.942023659520815,-11.54291065068825,3.4380524306141202,-55.98687089250688,-0.5756178508088068,0
17,2024-09-16 21:55:46.080756736,TASK_BEGIN,007,-0.17125330151487378,-0.5309874222934287,-0.5743214399511491,0.9230691270660755,-11.171111630742006,3.299813954740884,-55.94748807985237,-0.4400521640764891,0
18,2024-09-16 21:55:46.142166016,TASK_BEGIN,007,-0.17075561009462464,-0.5447171073671236,-0.49544900817202064,0.9001664033168264,-10.833904653669292,3.157050693605496,-56.4468368153339,-0.15708580871261082,0
19,2024-09-16 21:55:47.087907840,TASK_BEGIN,007,-0.1733970051443521,-0.5583101974825353,-0.452305136946836,0.8753330155625905,-10.551565096996999,3.0150630228861504,-57.48236661794349,0.24976158160158313,0
20,2024-09-16 21:55:47.149931776,TASK_BEGIN,007,-0.180279949733029,-0.5714784570992473,-0.4491172518301815,0.8505423956932834,-10.33916234420598,2.8792147986912116,-59.012167134889275,0.7473775478723539,0
21,2024-09-16 21:55:47.227081984,TASK_BEGIN,007,-0.19230360722193202,-0.5839371603422944,-0.4870077885651519,0.8274378202009762,-10.205903384609897,2.754473748135286,-60.96109920092421,1.2948356849066711,0
22,2024-09-16 21:55:47.288594944,TASK_BEGIN,007,-0.21005849472170662,-0.5953827699704326,-0.5636424949771917,0.8071166466101986,-10.15456117698152,2.6449784472592333,-63.228816483238326,1.846011430764963,0
23,2024-09-16 21:55:47.363212032,TASK_BEGIN,007,-0.23375116690166214,-0.6054877782924187,-0.6736271895212033,0.7900851475138302,-10.181266545748745,2.5537526779044097,-65.69692768802064,2.353081248754869,0
24,2024-09-16 21:55:47.429204224,TASK_BEGIN,007,-0.26316966930238733,-0.6139174890147404,-0.8094391199565386,0.7763606030363811,-10.27623566323518,2.4826520990142202,-68.23417586100608,2.7702556620435517,0
25,2024-09-16 21:55:47.498713088,TASK_BEGIN,007,-0.2976988372000226,-0.6203534797131265,-0.9624529737086397,0.7656222460476302,-10.425672249720304,2.432538962753504,-70.70132105347503,3.0571406456276335,0
26,2024-09-16 21:55:48.414351104,TASK_BEGIN,007,-0.3363829939340565,-0.6245078112561203,-1.1237524461057748,0.7573360090416869,-10.614272124777608,2.403567912590674,-72.95855022053796,3.181709652646702,0
27,2024-09-16 21:55:48.484517120,TASK_BEGIN,007,-0.37800585545475607,-0.6261307393418036,-1.284666376404822,0.7508371919241024,-10.82749374794967,2.3954237513578205,-74.87662472622829,3.1231127245144545,0
28,2024-09-16 21:55:48.537935104,TASK_BEGIN,007,-0.421168777760884,-0.6250227629716467,-1.4371506329748676,0.7453878951165264,-11.053115004052584,2.407420403797275,-76.34968148284094,2.873874298315093,0
29,2024-09-16 21:55:48.608993792,TASK_BEGIN,007,-0.46438791282252645,-0.6210517835069563,-1.5741317567489286,0.7402234230129594,-11.281918526295382,2.438487565738867,-77.30550856058386,2.4405063340752307,0
30,2024-09-16 21:55:48.686674176,TASK_BEGIN,007,-0.506219252028992,-0.6141694488299407,-1.6897771465573144,0.7345885601524185,-11.507556865413658,2.4871533847692757,-77.71041298278821,1.8422544780965828,0
31,2024-09-16 21:55:48.749160960,TASK_BEGIN,007,-0.5453770322510474,-0.6044219865218843,-1.7796065828429235,0.7277687593360721,-11.725924792094842,2.551595405629143,-77.56918366395999,1.1086749570645231,0
32,2024-09-16 21:55:48.811175168,TASK_BEGIN,007,-0.5808123856261308,-0.5919511172109765,-1.8404354862863728,0.7191277541722668,-11.934565047903769,2.629704055961625,-76.92261394109265,0.27684699324066175,0
33,2024-09-16 21:55:49.754760960,TASK_BEGIN,007,-0.6117467021779885,-0.5769865634480947,-1.8701891223479925,0.7081425625717288,-12.132516614876435,2.7190532189840964,-75.84372877334947,-0.6115580504972619,0
34,2024-09-16 21:55:49.832381184,TASK_BEGIN,007,-0.6376614134008929,-0.5598416675254234,-1.8676758577528862,0.6944152855712256,-12.320615460951773,2.8167855126682846,-74.43151646938206,-1.5136787260105722,0
35,2024-09-16 21:55:49.901992192,TASK_BEGIN,007,-0.6582564046374595,-0.540919390626854,-1.8324581411587189,0.6776764545615015,-12.501861121224472,2.9195450611906826,-72.80064032682914,-2.389533940081052,0
36,2024-09-16 21:55:49.969645056,TASK_BEGIN,007,-0.6734095626968326,-0.5207213170792241,-1.7649227736639301,0.6578219298130226,-12.681236401081938,3.0235434028785475,-71.06728190010973,-3.2060639456764886,0
37,2024-09-16 21:55:50.034321152,TASK_BEGIN,007,-0.6831622926352926,-0.49984625113649817,-1.666571353165223,0.6349943616381257,-12.86442190520154,3.124685103250014,-69.3340567544912,-3.9396847387454277,0
38,2024-09-16 21:55:50.105107968,TASK_BEGIN,007,-0.6877290930569409,-0.4789692882507391,-1.5404467979639593,0.6096707308518774,-13.055425656436624,3.2186407385021183,-67.67916720234176,-4.576281509764587,0
39,2024-09-16 21:55:50.158822144,TASK_BEGIN,007,-0.6875184477962865,-0.45880138665614434,-1.3914281368223245,0.5826913790503301,-13.25405454868555,3.3008994002751613,-66.15344987218003,-5.108869149736772,0
40,2024-09-16 21:55:51.101008128,TASK_BEGIN,007,-0.683154336691698,-0.44003805936571455,-1.2260536717723365,0.555176183620378,-13.454503626191064,3.3669556912074667,-64.78436035085441,-5.534173617279441,0
41,2024-09-16 21:55:51.177773824,TASK_BEGIN,007,-0.6754869726080608,-0.42330673940813535,-1.0518072533154676,0.5283304924829635,-13.645681427244442,3.4127150502421855,-63.58293436953562,-5.849439531998993,0
42,2024-09-16 21:55:51.251981824,TASK_BEGIN,007,-0.6655784325314912,-0.4091184355397441,-0.8761656512149341,0.5032105664200163,-13.812915872755017,3.4350159421862956,-62.5504305095192,-6.050221226816385,0
43,2024-09-16 21:55:51.319730944,TASK_BEGIN,007,-0.6546509805589638,-0.3978284659275718,-0.7057573305759288,0.4805358009481258,-13.940254350858213,3.4320553646051324,-61.6837852979235,-6.129461511480355,0
44,2024-09-16 21:55:51.378998016,TASK_BEGIN,007,-0.6439968504462129,-0.3896141202538752,-0.5458350905993052,0.46059909519782094,-14.01273405272755,3.4035674243523877,-60.98100799134851,-6.077817365298143,0
45,2024-09-16 21:55:51.441059072,TASK_BEGIN,007,-0.6348689208038405,-0.3844764853368943,-0.4001643394264234,0.44327474747850665,-14.018223874541862,3.3507543778070517,-60.44750478818785,-5.884755227256432,0
46,2024-09-16 21:55:51.518685184,TASK_BEGIN,007,-0.6283915106062766,-0.38226313841446474,-0.27130517551771693,0.42809048816720924,-13.948491348987483,3.276013525034591,-60.101763801776535,-5.539900303473475,0
47,2024-09-16 21:55:52.457076224,TASK_BEGIN,007,-0.6255190630557201,-0.3826986604418983,-0.16109862379338105,0.41433167656023,-13.799382356077693,3.1824777025794377,-59.97722938019988,-5.034490299072101,0
48,2024-09-16 21:55:52.534451968,TASK_BEGIN,007,-0.6270246093464559,-0.3854154813914104,-0.07111088613052875,0.4011607132725104,-13.570479914736294,3.0734703781149117,-60.118993401664646,-4.362862065175025,0
49,2024-09-16 21:55:52.589817088,TASK_BEGIN,007,-0.6334720946049266,-0.3899904674494898,-0.0028631988472392015,0.3877451828095753,-13.264729450791483,2.952068235957596,-60.576246728781676,-3.52386307120464,0
50,2024-09-16 21:55:52.668260096,TASK_BEGIN,007,-0.6451507422136217,-0.3959940712776868,0.04219957447127202,0.3733993032077313,-12.8881032138006,2.8208839974827993,-61.39199402786665,-2.522246280231828,0
51,2024-09-16 21:55:52.730747136,TASK_BEGIN,007,-0.6619965264785233,-0.4030464296345512,0.06293114990622345,0.3577322864690003,-12.449056854653854,2.682033391724609,-62.59183975362684,-1.37004826717244,0
52,2024-09-16 21:55:52.792739072,TASK_BEGIN,007,-0.6835494997006893,-0.41086422198977063,0.05880216538884834,0.3407529352317509,-11.957677604708765,2.537194797055408,-64.17448641765098,-0.08759114702222537,0
53,2024-09-16 21:55:52.870887936,TASK_BEGIN,007,-0.7089769589780965,-0.41928416054366535,0.030257082027493352,0.3228684320435919,-11.424719137417219,2.3877094389149196,-66.1070444090381,1.2964574255747847,0
54,2024-09-16 21:55:53.813583104,TASK_BEGIN,007,-0.7371544530278069,-0.4282572447394165,-0.020979395308880613,0.3047717427781743,-10.860879469061345,2.2347368392737588,-68.3269521581104,2.7462915878324683,0
55,2024-09-16 21:55:53.884739072,TASK_BEGIN,007,-0.7667709451703877,-0.43781724535918654,-0.0917764640541091,0.2872687277780531,-10.276703817274026,2.0795199524533254,-70.74901222379957,4.221179468849383,0
56,2024-09-16 21:55:53.952590080,TASK_BEGIN,007,-0.7964211893847819,-0.44803646358829946,-0.17770255385100084,0.2711077811818456,-9.68329811424204,1.923789075609967,-73.27425466610453,5.678007822055564,0
57,2024-09-16 21:55:54.015312896,TASK_BEGIN,007,-0.8246774651111493,-0.4589819803809984,-0.27329135022489526,0.25686319122543777,-9.093602349782067,1.770223914958764,-75.79912409066979,7.0736125147806375,0
58,2024-09-16 21:55:54.077456128,TASK_BEGIN,007,-0.8501720746715583,-0.4706755020317524,-0.3723623094159449,0.24489775406338776,-8.52362543018669,1.6227711953111779,-78.22442127104486,8.366657251133022,0
59,2024-09-16 21:55:54.155564032,TASK_BEGIN,007,-0.8717106643643494,-0.48305557062875193,-0.46835473915915077,0.23539633940931243,-7.993052003898738,1.4866228771925256,-80.4616215223386,9.518971068377938,0
60,2024-09-16 21:55:54.223616000,TASK_BEGIN,007,-0.888377910318226,-0.4959493368771505,-0.5547317376670591,0.22844186986840423,-7.524884462231963,1.367817997631661,-82.43455422678699,10.49642720992431,0
61,2024-09-16 21:55:55.142521088,TASK_BEGIN,007,-0.8995736728718677,-0.509069281691639,-0.6254876635079756,0.22409493014762477,-7.144079203893124,1.2725976676696316,-84.07770241509748,11.269677107367242,0
62,2024-09-16 21:55:55.210448896,TASK_BEGIN,007,-0.9049725826378469,-0.5220420504131823,-0.6756522943516549,0.22243290055313292,-6.875364043474181,1.2066871029768584,-85.33383570556505,11.815104314318702,0
63,2024-09-16 21:55:55.274947072,TASK_BEGIN,007,-0.9044683095032707,-0.5344577061060426,-0.7016564492417273,0.22353222312820833,-6.740471776731693,1.1745983359116108,-86.1523815192171,12.116231453684666,0
64,2024-09-16 21:55:55.337071872,TASK_BEGIN,007,-0.8981556629254266,-0.5459206041337554,-0.7015286543588186,0.22742643711180102,-6.754925309317609,1.1789604536919225,-86.48856945801484,12.165486382948053,0
65,2024-09-16 21:55:55.399507968,TASK_BEGIN,007,-0.8863412939936717,-0.5560892286031744,-0.6749308681708587,0.2340732322565672,-6.924616759823344,1.219923880639249,-86.30352791592232,11.965777729578857,0
66,2024-09-16 21:55:55.477130752,TASK_BEGIN,007,-0.8695489336840436,-0.564697687370811,-0.6230257781567192,0.2433144667692409,-7.242964943137771,1.2948115307197607,-85.5667798040186,11.531353377712277,0
67,2024-09-16 21:55:55.539134976,TASK_BEGIN,007,-0.8485047217764626,-0.5715586420424373,-0.548199435743432,0.2547951728992229,-7.689982487224753,1.3982144956657474,-84.26266265451706,10.887885144532397,0
68,2024-09-16 21:55:56.492727040,TASK_BEGIN,007,-0.8240989649336532,-0.5765574031418157,-0.4537019505707634,0.2678503125870669,-8.234283038644463,1.5225854508637608,-82.39971359746465,10.071718245828263,0
69,2024-09-16 21:55:56.560153088,TASK_BEGIN,007,-0.7973220187330191,-0.5796464105114594,-0.34331077295599216,0.28142088044104224,-8.837602080620384,1.6591785002673334,-80.0199686996114,9.128052199609556,0
70,2024-09-16 21:55:56.618057984,TASK_BEGIN,007,-0.7691860618383409,-0.580840181084478,-0.22112973837863584,0.2940699085125161,-9.459981280587833,1.79906092772452,-77.2055946142211,8.108309143685965,0
71,2024-09-16 21:55:56.680545280,TASK_BEGIN,007,-0.7406522799837085,-0.5802084960379729,-0.09152346271153783,0.30412680799498426,-10.063890005267373,1.9339598004528187,-74.080621409373,7.067281991482182,0
72,2024-09-16 21:55:56.758203136,TASK_BEGIN,007,-0.712567483439645,-0.5778711061197043,0.04089159126616121,0.3099374767363893,-10.61683164586601,2.0568657386115,-70.80519694650197,6.060169214978592,0
73,2024-09-16 21:55:56.831446784,TASK_BEGIN,007,-0.6856029041427552,-0.574000207721585,0.17119270386306223,0.31016764946017816,-11.09289148156528,2.1624596917893864,-67.56165607157453,5.139273521378719,0
74,2024-09-16 21:55:56.897441024,TASK_BEGIN,007,-0.660200393989595,-0.5688322651020535,0.29401802002454697,0.30408514256124053,-11.473754565366875,2.247439973880967,-64.53504120861099,4.3504722742400865,0
75,2024-09-16 21:55:57.829212928,TASK_BEGIN,007,-0.6365436814212803,-0.5626820010744162,0.40347778384458305,0.291742417422301,-11.749424623996545,2.3107342967227016,-61.89251575898177,3.7298463225057676,0
76,2024-09-16 21:55:57.906347008,TASK_BEGIN,007,-0.614564365253205,-0.5559459858047412,0.4932403919494677,0.2740274275763515,-11.918570716045734,2.353501846931886,-59.76628248944361,3.3009121130040113,0
77,2024-09-16 21:55:57.968343040,TASK_BEGIN,007,-0.5939753256266203,-0.5490866646447652,0.5567929179837214,0.25261461458998336,-11.98823980532832,2.378838489041912,-58.243902541728474,3.07315661140535,0
78,2024-09-16 21:55:58.030831104,TASK_BEGIN,007,-0.5743184160521991,-0.5425993668344069,0.5878299841177059,0.22984807081946493,-11.972755997357684,2.3912168078529428,-57.36768143414352,3.0425882693067985,0
79,2024-09-16 21:55:58.108987136,TASK_BEGIN,007,-0.5550254963143615,-0.5369751055019639,0.5807581182686264,0.20853643424007529,-11.891938081390848,2.3958268304345807,-57.141290817712395,3.1941216368042977,0
80,2024-09-16 21:55:58.181571072,TASK_BEGIN,007,-0.5355032369161078,-0.5326699596640939,0.5312980355466799,0.19163518194663773,-11.768925686918623,2.397977271384045,-57.539100365515544,3.5045450186519242,0
81,2024-09-16 21:55:58.249445120,TASK_BEGIN,007,-0.515234239214862,-0.5300814143829956,0.43712460637607314,0.1818561384637223,-11.627821284972953,2.402607583155963,-58.51339553230544,3.9448378031569633,0
82,2024-09-16 21:55:59.159447040,TASK_BEGIN,007,-0.49385404982778147,-0.5295272824286374,0.29842506971810545,0.18129752661098633,-11.491330970409862,2.413899523941188,-59.99656980547506,4.481482321119296,0
83,2024-09-16 21:55:59.235254272,TASK_BEGIN,007,-0.47116800769506517,-0.5312273152119851,0.11820312091722536,0.1911863550468365,-11.378674099395022,2.434991565826772,-61.89884706429376,5.077132219294373,0
84,2024-09-16 21:55:59.297442816,TASK_BEGIN,007,-0.4471182470108214,-0.5352919263943012,-0.09780383453050462,0.21178370959589482,-11.304056601705263,2.4678363100002336,-64.10593611426116,5.691471930391227,0
85,2024-09-16 21:55:59.370693888,TASK_BEGIN,007,-0.42174339319243315,-0.5417214153345105,-0.3415516840292356,0.24245246838110646,-11.27586300521105,2.513226483537732,-66.48187953673941,6.283243067365774,0
86,2024-09-16 21:55:59.437403136,TASK_BEGIN,007,-0.3951648115075963,-0.5504149221003473,-0.6032468633458123,0.2818394514847459,-11.296443060671601,2.570914344993149,-68.87838624803787,6.813453579354997,0
87,2024-09-16 21:55:59.499787008,TASK_BEGIN,007,-0.3676074709120171,-0.561182472068041,-0.8718736165350017,0.32809441020982033,-11.362301442103758,2.639706550486586,-71.14738991748403,7.248422529823853,0
88,2024-09-16 21:55:59.573820160,TASK_BEGIN,007,-0.33943867195579036,-0.5737519509979286,-1.1357401989745082,0.3790652393445369,-11.464835913037136,2.7175445306073183,-73.15304035062307,7.561483962006661,0
89,2024-09-16 21:56:00.512440832,TASK_BEGIN,007,-0.3111959738507347,-0.5877712957896905,-1.383122504026745,0.432457336054337,-11.591919427298357,2.8016888540521023,-74.78181890008389,7.733721939429805,0
90,2024-09-16 21:56:00.584620800,TASK_BEGIN,007,-0.2835888745107998,-0.6028142454705585,-1.60294815504216,0.48598729231899357,-11.730134466150865,2.889037638927513,-75.95147205123023,7.7547749419034115,0
91,2024-09-16 21:56:00.645940224,TASK_BEGIN,007,-0.2574777913921261,-0.6183946013220925,-1.7854553624408291,0.5375708799769323,-11.866891441367002,2.976467270519379,-76.6187547072376,7.623727231395983,0
92,2024-09-16 21:56:00.708118784,TASK_BEGIN,007,-0.23383519316097603,-0.6339855967035022,-1.9228200433353473,0.5855321918453731,-11.991725509515854,3.0610787395641115,-76.78433645858114,7.3493093078626215,0
93,2024-09-16 21:56:00.785321984,TASK_BEGIN,007,-0.2136887164803405,-0.6490385959027275,-2.0097011820201702,0.6287525136080389,-12.096706711175592,3.1403259062798883,-76.49417018202143,6.94936852083319,0
94,2024-09-16 21:56:00.847805952,TASK_BEGIN,007,-0.1980468101124358,-0.6630010810017982,-2.043606055706224,0.6666921339442813,-12.176432973193625,3.212069009359184,-75.83803369444965,6.450227306949517,0
95,2024-09-16 21:56:00.909874944,TASK_BEGIN,007,-0.18780804638653747,-0.6753421699939294,-2.024989457654011,0.6993010121776744,-12.228066636275686,3.2746157062068453,-74.94391009612292,5.885810174911762,0
96,2024-09-16 21:56:01.866964992,TASK_BEGIN,007,-0.18365715016582895,-0.6855940641788384,-1.9570339612749914,0.7268862367554563,-12.251497123111555,3.3267984235831882,-73.96501332377571,5.2957049382147074,0
97,2024-09-16 21:56:01.920635136,TASK_BEGIN,007,-0.18596292619959026,-0.6934038149358313,-1.8451575667922455,0.7499879371147815,-12.24935287008108,3.3680857368296624,-73.05948717015781,4.721831454072515,0
98,2024-09-16 21:56:01.999439872,TASK_BEGIN,007,-0.19470974818744308,-0.6985728388181441,-1.6964342043049294,0.769279388332832,-12.226479729778248,3.398663199356554,-72.36724970818956,4.204230431831923,0
99,2024-09-16 21:56:02.059961088,TASK_BEGIN,007,-0.2094901426632166,-0.7010633946578873,-1.5191203471390735,0.7854968672308412,-12.188736217681296,3.4194013246266626,-71.98929738250011,3.7768434655258347,0
100,2024-09-16 21:56:02.137684992,TASK_BEGIN,007,-0.2295535271027163,-0.700975110573996,-1.3223442120115747,0.7994046787699705,-12.141521250907292,3.4317041358681033,-71.9745529923514,3.4643739568663636,0
101,2024-09-16 21:56:02.200169984,TASK_BEGIN,007,-0.2538823536388494,-0.6985131934788588,-1.11590742794925,0.811789648053461,-12.088870558614678,3.4373445115389663,-72.31858035738225,3.281233398083433,0
102,2024-09-16 21:56:02.273598976,TASK_BEGIN,007,-0.28127812652924267,-0.6939616135102715,-0.9101173771756431,0.8234707085505805,-12.033564209905336,3.43838300343864,-72.97366694815508,3.232622441121769,0
103,2024-09-16 21:56:03.197684992,TASK_BEGIN,007,-0.31045578339927354,-0.6876568848901721,-0.7155355112420039,0.8353067842764651,-11.97786741988065,3.4371408903187817,-73.86440823614085,3.316729826866063,0
104,2024-09-16 21:56:03.272439040,TASK_BEGIN,007,-0.3401382671118846,-0.679958042368523,-0.5425271431242638,0.8481781319289312,-11.924254397169644,3.4361347489956438,-74.90280709356273,3.526877469166383,0
105,2024-09-16 21:56:03.340055040,TASK_BEGIN,007,-0.3691340769217277,-0.6712212156433983,-0.4005872685203077,0.8629108762575792,-11.875779315313927,3.4379285261775716,-76.0000515301576,3.852868411490763,0
106,2024-09-16 21:56:03.407903744,TASK_BEGIN,007,-0.39639095845704825,-0.6617890743390271,-0.297544120164211,0.8801320971127206,-11.836121192929664,3.4449486499737474,-77.07435313693688,4.281239652409623,0
107,2024-09-16 21:56:03.475550720,TASK_BEGIN,007,-0.42103306921280137,-0.6519920250435005,-0.23884224060507472,0.9000847323302761,-11.809457430127079,3.4593647709543536,-78.05471733147304,4.794639761161628,0
108,2024-09-16 21:56:03.538021120,TASK_BEGIN,007,-0.4423897328163816,-0.642147035918192,-0.22709207163300119,0.922464682762427,-11.800201317708224,3.4830976249150303,-78.88079138448143,5.371011187799583,0
109,2024-09-16 21:56:03.596708864,TASK_BEGIN,007,-0.46002268921863493,-0.6325422300209174,-0.2619123034379391,0.9463381055493313,-11.812539852188625,3.5179207680269795,-79.50028773294353,5.983223211316497,0
110,2024-09-16 21:56:04.567155968,TASK_BEGIN,007,-0.4737557024310266,-0.6234077063188346,-0.33998706383786254,0.9701748473954723,-11.849792535568255,3.5655551404876493,-79.86650894267817,6.599459910018775,0
111,2024-09-16 21:56:04.626905088,TASK_BEGIN,007,-0.48369105979008137,-0.6148879667031449,-0.4553333016603694,0.9920110049625396,-11.91367658024683,3.62761883203353,-79.9376932816834,7.184610202911594,0
112,2024-09-16 21:56:04.689389824,TASK_BEGIN,007,-0.4901837018108671,-0.6070355993106951,-0.5998050840845736,1.0097087607895914,-12.003571224251552,3.7053475409410193,-79.67838457974815,7.7028569179429836,0
113,2024-09-16 21:56:04.767550976,TASK_BEGIN,007,-0.49376372882880015,-0.599831103600611,-0.7637540766034372,1.0212380557839273,-12.115974885459037,3.7991631969674176,-79.06235001833733,8.121132586938549,0
114,2024-09-16 21:56:04.830035968,TASK_BEGIN,007,-0.4950288211694468,-0.593214715312152,-0.9367386396352625,1.0249180431431624,-12.244418214845194,3.9082618755786402,-78.07666767836601,8.412646978934468,0
115,2024-09-16 21:56:04.905883136,TASK_BEGIN,007,-0.49453651755317984,-0.5871139866216474,-1.10825657364094,1.0195913674195476,-12.379966223383141,4.030337649304636,-76.7262052885742,8.55970694219626,0
116,2024-09-16 21:56:04.973625088,TASK_BEGIN,007,-0.4927209639174313,-0.5814632667737967,-1.2684666073379829,1.004706758399011,-12.5122655139706,4.161527627489983,-75.03668235000643,8.555257820337005,0
117,2024-09-16 21:56:05.905627904,TASK_BEGIN,007,-0.4898540533104984,-0.576219022879256,-1.408803684107116,0.9803023169893261,-12.630989705541996,4.296681596308285,-73.05459727534426,8.402981702738542,0
118,2024-09-16 21:56:05.983283968,TASK_BEGIN,007,-0.4860580556884083,-0.5713710689003374,-1.5224338498929295,0.9469326609915315,-12.727371198961366,4.429935733572697,-70.84364809527233,8.116284291917088,0
119,2024-09-16 21:56:06.044825856,TASK_BEGIN,007,-0.4813565272284764,-0.5669439470067715,-1.6045410569052028,0.9055937456712436,-12.795356546915485,4.55537780290607,-68.47806403437188,7.716548350930893,0
120,2024-09-16 21:56:06.120520960,TASK_BEGIN,007,-0.4757352978453992,-0.5629844703813645,-1.6524248121994658,0.857653078345082,-12.832084870464872,4.667609590472009,-66.0333048528841,7.230611964359571,0
121,2024-09-16 21:56:06.188239872,TASK_BEGIN,007,-0.46918364596073087,-0.5595395178182255,-1.665427477613621,0.8047639519722227,-12.837793176687695,4.762186029673694,-63.575066502927854,6.687274754120239,0
122,2024-09-16 21:56:06.245686016,TASK_BEGIN,007,-0.4617070710769199,-0.5566328863952333,-1.6447503454101873,0.7487602906817927,-12.815536230204884,4.835975250029075,-61.14876580206409,6.113206930154672,0
123,2024-09-16 21:56:06.323795200,TASK_BEGIN,007,-0.4533339514576067,-0.5542460002374021,-1.5931449939710323,0.6915434182825249,-12.771039890892396,4.8874296945416145,-58.7728445525022,5.529329252197617,0
124,2024-09-16 21:56:07.263299072,TASK_BEGIN,007,-0.44414023985429496,-0.5523021238867387,-1.5144634941386206,0.6349680685947484,-12.712592482034616,4.916731060457373,-56.4390278854721,4.948777530096441,0
125,2024-09-16 21:56:07.325783808,TASK_BEGIN,007,-0.4342870147815125,-0.5506564058538237,-1.4132220032088003,0.5807429782158833,-12.65050805270915,4.925781972951733,-54.12038096678355,4.377077217706055,0
126,2024-09-16 21:56:07.387810048,TASK_BEGIN,007,-0.4240429791163687,-0.5491002874799737,-1.29437278444586,0.5303569028907201,-12.595850318408875,4.918017145993384,-51.784837017791595,3.814492999011232,0
127,2024-09-16 21:56:07.466170112,TASK_BEGIN,007,-0.4137691232805342,-0.5473870549740735,-1.163254801699122,0.48501024317126046,-12.558688130121409,4.898015133132291,-49.41012914074384,3.2597528396198374,0
128,2024-09-16 21:56:07.538433024,TASK_BEGIN,007,-0.4038656831972668,-0.5452738083300088,-1.0255330074674947,0.44554075548475774,-12.546600946691292,4.87093201551397,-46.99597062630112,2.713691101068163,0
129,2024-09-16 21:56:07.606194944,TASK_BEGIN,007,-0.39470208732263545,-0.5425642203227065,-0.8870319453722932,0.4123796608593272,-12.5640572622,4.841843176074267,-44.570147084225496,2.181449937938612,0
130,2024-09-16 21:56:07.672651008,TASK_BEGIN,007,-0.3865532947219444,-0.5391356320499929,-0.7534984169738145,0.385574940229812,-12.612708278601474,4.815133124826076,-42.18764790884794,1.6729384992328347,0
131,2024-09-16 21:56:08.609592064,TASK_BEGIN,007,-0.3795515598380223,-0.534943091225003,-0.6303313819983376,0.36487052948799753,-12.692117192043327,4.794061806123826,-39.9246252152847,1.20217788576564,0
132,2024-09-16 21:56:08.670962176,TASK_BEGIN,007,-0.37365565551502705,-0.5300043373337365,-0.5223109600611688,0.3498151755394384,-12.800458711415022,4.780557443850046,-37.869606713903046,0.786080615812849,0
133,2024-09-16 21:56:08.747834880,TASK_BEGIN,007,-0.3686526520489168,-0.5243755399277275,-0.43339461380127914,0.3398925545825299,-12.935069235462313,4.775215923448272,-36.11454964624021,0.4428783861375735,0
134,2024-09-16 21:56:08.815769088,TASK_BEGIN,007,-0.36420519624374037,-0.5181276258760478,-0.3666267999703246,0.33465026935094083,-13.092881985659725,4.777474676647988,-34.74774921770864,0.19038908946590286,0
135,2024-09-16 21:56:08.873137920,TASK_BEGIN,007,-0.3599210774090787,-0.5113319813599856,-0.32412540247108934,0.3337823157971594,-13.270615627531924,4.785925971904828,-33.847447373014674,0.044084825398341285,0
136,2024-09-16 21:56:08.951243776,TASK_BEGIN,007,-0.3554063862093029,-0.5040583114733719,-0.3070663601756448,0.3371520428060649,-13.464465292116623,4.798701177201337,-33.473584196557965,0.014779680237279828,0
137,2024-09-16 21:56:09.013242880,TASK_BEGIN,007,-0.35029952522277635,-0.4963750878942668,-0.31563453128800867,0.34479176724598826,-13.669321999925797,4.813842980846805,-33.65885035554807,0.10654882572985179,0
138,2024-09-16 21:56:09.942497024,TASK_BEGIN,007,-0.3443136070332399,-0.488341228421298,-0.3489780242038651,0.35690150905625817,-13.878017543112069,4.829604226774295,-34.40354036616767,0.316291669710002,0
139,2024-09-16 21:56:10.010273024,TASK_BEGIN,007,-0.3373004693911146,-0.4799924352758475,-0.40520508648037584,0.37381091468237587,-14.08125595792676,4.844630634136018,-35.677413747597626,0.6356286875167376,0
140,2024-09-16 21:56:10.067172096,TASK_BEGIN,007,-0.32932052357129693,-0.47133506428958705,-0.4814377783302124,0.3958563594953478,-14.268532811712769,4.858002922380737,-37.42813748824944,1.0541842854503771,0
141,2024-09-16 21:56:10.144860160,TASK_BEGIN,007,-0.320685027579046,-0.46235299309851985,-0.5739437982635568,0.4231835768967335,-14.429676695576699,4.869139147527422,-39.592336404864575,1.5624616618754015,0
142,2024-09-16 21:56:10.206893056,TASK_BEGIN,007,-0.3119379799259562,-0.4530239368273465,-0.6783404815689739,0.455537179171148,-14.556277339523442,4.877591723802772,-42.103876577269574,2.1530518667334646,0
143,2024-09-16 21:56:10.281234944,TASK_BEGIN,007,-0.30377012238039797,-0.44334225313805536,-0.7898192469381884,0.4921009386043975,-14.642568306894356,4.882844286043632,-44.89654814268074,2.8202187894201143,0
144,2024-09-16 21:56:10.345997056,TASK_BEGIN,007,-0.296890081105245,-0.4333472447987475,-0.9033625206695228,0.531431350532114,-14.685842299806342,4.884251634284515,-47.90236896708396,3.558788933332668,0
145,2024-09-16 21:56:11.267521024,TASK_BEGIN,007,-0.29189080639723924,-0.423150111388619,-1.0139612580180666,0.5714910654282264,-14.686586207440593,4.881151725458444,-51.0484256233824,4.363019497550189,0
146,2024-09-16 21:56:11.326063104,TASK_BEGIN,007,-0.28914556479049347,-0.412946396165375,-1.1168464574491896,0.6097714956589015,-14.648335010973394,4.873005400679144,-54.254448423281886,5.225305219500318,0
147,2024-09-16 21:56:11.402803968,TASK_BEGIN,007,-0.2887583388263352,-0.4030058304817767,-1.207743068731126,0.6435152157788153,-14.577224411413932,4.859409807964111,-57.43255044522923,6.134488352341703,0
148,2024-09-16 21:56:11.464798720,TASK_BEGIN,007,-0.2905754677870558,-0.3936435552138772,-1.2831006446752813,0.6700421816524369,-14.48142356073287,4.839996997957208,-60.49032497331538,7.0744125687287625,0
149,2024-09-16 21:56:11.526795008,TASK_BEGIN,007,-0.2942415470684049,-0.38518436057685695,-1.3402057537014853,0.6871264077849041,-14.370621089236536,4.814355441552343,-63.33733834384073,8.023827066167692,0
150,2024-09-16 21:56:11.606426880,TASK_BEGIN,007,-0.29926778213472327,-0.3779325471927085,-1.3771511705984234,0.6933296636868667,-14.255404483090393,4.782071089865618,-65.89282417079326,8.957794636833277,0
151,2024-09-16 21:56:11.674015232,TASK_BEGIN,007,-0.30508510824974255,-0.3721546196933143,-1.392774241285025,0.688211412540212,-14.146269072578662,4.742880757387425,-68.09124458398918,9.849519859148042,0
152,2024-09-16 21:56:12.603651072,TASK_BEGIN,007,-0.31108007443074054,-0.36807052955375047,-1.3867268864044457,0.6723790220525911,-14.052410482559873,4.696890620946784,-69.88400139410749,10.671544809221894,0
153,2024-09-16 21:56:12.681292032,TASK_BEGIN,007,-0.3166386132314054,-0.36584244475629796,-1.3597166441920607,0.6473896830541177,-13.980814946934403,4.6448212360038355,-71.23830223695191,11.396306585866869,0
154,2024-09-16 21:56:12.743360000,TASK_BEGIN,007,-0.32121402275145433,-0.36555939296195433,-1.3137397735666207,0.6155401339777112,-13.935910839789097,4.588226738476551,-72.13503295601069,11.99684522334917,0
155,2024-09-16 21:56:12.805408000,TASK_BEGIN,007,-0.32439780290354714,-0.3672295141495001,-1.25204262388039,0.5795764234275484,-13.919520658449798,4.529575999662265,-72.56687551740656,12.448426223393014,0
156,2024-09-16 21:56:12.883038208,TASK_BEGIN,007,-0.32595721460171256,-0.37078754646439244,-1.1787270156120606,0.5423529473112728,-13.930789831182498,4.472065958677819,-72.5378269650835,12.731198562497289,0
157,2024-09-16 21:56:12.956302080,TASK_BEGIN,007,-0.3258331580191896,-0.3761079777762465,-1.0981864147257925,0.5064973796028165,-13.966220017215033,4.419166622299142,-72.0648456151846,12.833162683878767,0
158,2024-09-16 21:56:13.024171264,TASK_BEGIN,007,-0.3241281215338874,-0.38300780021590664,-1.014635624816575,0.4741609803318228,-14.020143529563107,4.374072018090763,-71.18057057175666,12.75219908706979,0
159,2024-09-16 21:56:13.967853056,TASK_BEGIN,007,-0.32110603224893436,-0.39123590937062286,-0.9318510182566435,0.4468945034446783,-14.08557725906013,4.3392627314660315,-69.93472122765078,12.49624080200112,0
160,2024-09-16 21:56:14.031081984,TASK_BEGIN,007,-0.3171884077822402,-0.40046391110119417,-0.8531169194906105,0.4256187792639439,-14.155016398029998,4.3162759295574,-68.39266776735477,12.081801767832433,0
161,2024-09-16 21:56:14.093140992,TASK_BEGIN,007,-0.3129274927207586,-0.4102967897164196,-0.7813562338081613,0.41063340963893274,-14.220857892158953,4.305672298493366,-66.63204624975812,11.531961156481366,0
162,2024-09-16 21:56:14.170889984,TASK_BEGIN,007,-0.3089673150501631,-0.4203079504554658,-0.7193435740598653,0.40163166099549436,-14.27550968486862,4.30716327422159,-64.73934821738277,10.874709998862143,0
163,2024-09-16 21:56:14.233374976,TASK_BEGIN,007,-0.3060108699317346,-0.43008400199090935,-0.6697985152629393,0.3977265054185263,-14.311505668418222,4.319854595342099,-62.8065385637631,10.141728010067165,0
164,2024-09-16 21:56:14.306554880,TASK_BEGIN,007,-0.3047864399079613,-0.43925937269751414,-0.6352518049975407,0.39752622186229725,-14.32192298774203,4.342516813612918,-60.92595488668256,9.36709514014559,0
165,2024-09-16 21:56:14.374320128,TASK_BEGIN,007,-0.30598920278360436,-0.44753456235239153,-0.6177962202401529,0.3993003319470629,-14.30106596106346,4.373788706558996,-59.18308292342881,8.585452311125927,0
166,2024-09-16 21:56:15.314315264,TASK_BEGIN,007,-0.3101930015528905,-0.4546848810235673,-0.6189090111860658,0.40123394126997075,-14.245085926868674,4.4122952607575225,-57.64890012393018,7.829386333537332,0
167,2024-09-16 21:56:15.376570112,TASK_BEGIN,007,-0.31776466055869707,-0.46056453610374204,-0.6394154591458139,0.40172284910571077,-14.152197204225626,4.456702511088635,-56.373768948999036,7.126187354281642,0
168,2024-09-16 21:56:15.441369088,TASK_BEGIN,007,-0.32882274521966665,-0.46510606567858964,-0.6795147719387165,0.39963811735577237,-14.0223206459374,4.5056987391740755,-55.38440928340776,6.494680620975718,0
169,2024-09-16 21:56:15.521549056,TASK_BEGIN,007,-0.3432480203113855,-0.4683169778548474,-0.738762518519888,0.39449153019656236,-13.856307014621772,4.557893225577342,-54.6847223520983,5.94313884787066,0
170,2024-09-16 21:56:15.589289728,TASK_BEGIN,007,-0.3607175182325077,-0.47027438894505186,-0.816009643529388,0.3864769644937346,-13.655270549252247,4.611680362725153,-54.25987392435796,5.468987416137994,0
171,2024-09-16 21:56:15.647889920,TASK_BEGIN,007,-0.3807384220422604,-0.4711127074381191,-0.9093785442990049,0.3764116895088394,-13.42055398184694,4.66514235119747,-54.08214222186812,5.060435022691264,0
172,2024-09-16 21:56:15.709422080,TASK_BEGIN,007,-0.40268179706828655,-0.47100223705525385,-1.0163195134794762,0.3656092929281746,-13.154321836580717,4.7160283207690235,-54.117113545804926,4.699647481780483,0
173,2024-09-16 21:56:16.666891008,TASK_BEGIN,007,-0.4258219857337215,-0.47012669647196803,-1.1337313601066576,0.3556990914858089,-12.860326791057966,4.76179541864786,-54.32909640941183,4.366763012866153,0
174,2024-09-16 21:56:16.734606080,TASK_BEGIN,007,-0.4493827762893866,-0.46866811310382855,-1.2580906810889954,0.3483997627501371,-12.544403199721756,4.799682947336252,-54.68503137697918,4.043927821267853,0
175,2024-09-16 21:56:16.789413888,TASK_BEGIN,007,-0.4725978273272855,-0.4667964865483334,-1.3855202408638816,0.3452710977181132,-12.21444116462036,4.826808081490429,-55.15719897195564,3.718586570714125,0
176,2024-09-16 21:56:16.867613952,TASK_BEGIN,007,-0.4947913977423506,-0.46465567317960055,-1.5118065445800604,0.347494039797698,-11.879777916068319,4.840286272325878,-55.72562753004324,3.3855807165142493,0
177,2024-09-16 21:56:16.929763840,TASK_BEGIN,007,-0.5154590234920405,-0.46234539710291556,-1.632478401959932,0.35572983377064243,-11.550204488508566,4.837419414751179,-56.379981307661495,3.047921914864241,0
178,2024-09-16 21:56:17.005547008,TASK_BEGIN,007,-0.5343121668545859,-0.45991100850006444,-1.7430448295447833,0.3700781816625699,-11.235069937373387,4.816029195428374,-57.11906386459213,2.715987093427686,0
179,2024-09-16 21:56:17.068761344,TASK_BEGIN,007,-0.5512677633821241,-0.4573532794847158,-1.8393780191855922,0.3901184932332199,-10.942908968557122,4.774929040428372,-57.94606530271167,2.404881058228132,0
180,2024-09-16 21:56:18.016862976,TASK_BEGIN,007,-0.566384011968658,-0.45465979546333807,-1.9181095911479804,0.4149938776947256,-10.681422494656271,4.7143715914733235,-58.859830255232744,2.130521729231706,0
181,2024-09-16 21:56:18.084055040,TASK_BEGIN,007,-0.5797611591688143,-0.451845000117365,-1.9768885703549481,0.44350155288874366,-10.457176766126413,4.636260498748854,-59.84527609276294,1.905776888284431,0
182,2024-09-16 21:56:18.142479104,TASK_BEGIN,007,-0.591442827719274,-0.44898024139758513,-2.014455467582928,0.47418733427369403,-10.274829217940963,4.5440293753507826,-60.86753293497097,1.737783812339648,0
183,2024-09-16 21:56:18.220152064,TASK_BEGIN,007,-0.6013447956522984,-0.44620637263848467,-2.0306023396038446,0.5054584748549869,-10.136442918538418,4.4422457026196165,-61.8733314460093,1.626987757198274,0
184,2024-09-16 21:56:18.287937024,TASK_BEGIN,007,-0.6092216509257949,-0.44373322777262714,-2.026118245006424,0.535712724424395,-10.041519522520202,4.336079306447017,-62.79970850557615,1.5679788435542503,0
185,2024-09-16 21:56:18.343407104,TASK_BEGIN,007,-0.6146918407209562,-0.44182631838086306,-2.0027831524452315,0.5634793809790956,-9.987915921050137,4.230789375676778,-63.585927861386075,1.5516042785975872,0
186,2024-09-16 21:56:18.423011840,TASK_BEGIN,007,-0.6173403879165582,-0.44077582453114766,-1.963396913714677,0.5875748902299874,-9.973333586870375,4.13135517470139,-64.18311094057613,1.5673233078872273,0
187,2024-09-16 21:56:19.367131136,TASK_BEGIN,007,-0.6168667490353805,-0.44085139255439704,-1.9117521153286614,0.6072452986353191,-9.99672215998074,4.04228441063405,-64.55856795887736,1.6049559111364635,0
188,2024-09-16 21:56:19.434850816,TASK_BEGIN,007,-0.6131914328071447,-0.44225932891044173,-1.8524870148287955,0.6222370776455637,-10.058872392503185,3.9674989944130212,-64.69522924901776,1.6556270419352617,0
189,2024-09-16 21:56:19.499944704,TASK_BEGIN,007,-0.6064514562454995,-0.44512164206050764,-1.790860113613771,0.6327673447498888,-10.161804789612175,3.910126621629379,-64.58876353264465,1.7122431100236828,0
190,2024-09-16 21:56:19.570329856,TASK_BEGIN,007,-0.5968990862703483,-0.44948377388860766,-1.732470372875832,0.6394240622690642,-10.307166475598098,3.8721399990505776,-64.24546112921625,1.7699471209163988,0
191,2024-09-16 21:56:19.631129856,TASK_BEGIN,007,-0.5847871558032164,-0.45533934430467493,-1.6828205150851607,0.6430462011607219,-10.494367363110534,3.854009960811512,-63.68129131916282,1.8264542441843996,0
192,2024-09-16 21:56:19.692914944,TASK_BEGIN,007,-0.5703073732452218,-0.4626519514796486,-1.646630156109671,0.6446008425391105,-10.71924619512964,3.8546029207923915,-62.918970433208706,1.881608733636565,0
193,2024-09-16 21:56:19.773600000,TASK_BEGIN,007,-0.5535806077376013,-0.4713595156805505,-1.6269961766247107,0.6450423898795268,-10.973738301556054,3.8713932048684407,-61.98129917247516,1.9360722316284567,0
194,2024-09-16 21:56:20.692048128,TASK_BEGIN,007,-0.5346660800138396,-0.4813594458894078,-1.6246858107832791,0.6451619162106226,-11.246662416262975,3.900910014769545,-60.88391116990706,1.9899976366074656,0
195,2024-09-16 21:56:20.759820032,TASK_BEGIN,007,-0.513578316178049,-0.4924861248321964,-1.637856803586057,0.6454843731755542,-11.525437486064124,3.939315340704466,-59.631629318147745,2.0423595574440725,0
196,2024-09-16 21:56:20.820770048,TASK_BEGIN,007,-0.49033063444616926,-0.5044952579674034,-1.6622971035557164,0.6462646914873381,-11.79820254963927,3.9830176951010396,-58.21931102101695,2.0908877899373697,0
197,2024-09-16 21:56:20.880660224,TASK_BEGIN,007,-0.46502014184810797,-0.5170596118890505,-1.6920619397755277,0.6475677044513239,-12.055588237988314,4.029212621370416,-56.63554005768202,2.13231005170191,0
198,2024-09-16 21:56:20.958312960,TASK_BEGIN,007,-0.4379333914467843,-0.5297710844861516,-1.720329772026296,0.6493740358696518,-12.291545217723664,4.076218490492347,-54.86823518014468,2.1627537826302268,0
199,2024-09-16 21:56:21.019906048,TASK_BEGIN,007,-0.40962671462233646,-0.5421462472656822,-1.740301725187196,0.6516651619287477,-12.503150089102016,4.123471142493579,-52.91273032189693,2.1784897388668742,0
200,2024-09-16 21:56:21.098012928,TASK_BEGIN,007,-0.3809454644870993,-0.5536425670928399,-1.7459486249391314,0.6544687526019023,-12.689826394563282,4.171141953035589,-50.781652374572076,2.1772204868787166,0
201,2024-09-16 21:56:22.008936704,TASK_BEGIN,007,-0.35297419943564634,-0.5636967725803237,-1.7324359226619899,0.657861578392196,-12.85247094025063,4.2195351309702245,-48.51332425608457,2.159404801668012,0
202,2024-09-16 21:56:22.072535808,TASK_BEGIN,007,-0.32693658663877767,-0.5717852335037409,-1.6961653120696532,0.661927171192362,-12.99256585623435,4.268496767045058,-46.17510233953141,2.1284827235220143,0
203,2024-09-16 21:56:22.148657920,TASK_BEGIN,007,-0.3040758803331427,-0.5774874408064778,-1.6345700049035317,0.6666744135498932,-13.111170923049702,4.31698811330059,-43.859850437755554,2.0892299305024222,0
204,2024-09-16 21:56:22.219849216,TASK_BEGIN,007,-0.28553510267749727,-0.5805283809875725,-1.5459887382592392,0.6719600698220333,-13.208005517045567,4.362906838004244,-41.67628269304641,2.044659948164713,0
205,2024-09-16 21:56:22.272196096,TASK_BEGIN,007,-0.2722424236080861,-0.580790155958879,-1.4298589286569237,0.6774685629845176,-13.281044292562918,4.403202881839256,-39.73640518865616,1.9930664730287793,0
206,2024-09-16 21:56:22.350302976,TASK_BEGIN,007,-0.26481692713201765,-0.5783018313475888,-1.287119432609564,0.6827442105411538,-13.326783361664047,4.4342569408770105,-38.1434650368356,1.9269169024742034,0
207,2024-09-16 21:56:22.423032832,TASK_BEGIN,007,-0.2635238225882688,-0.5732214138875664,-1.1205023312355058,0.6872217018724228,-13.341002653118199,4.452432710673986,-36.981644754202506,1.8341463011257295,0
208,2024-09-16 21:56:23.365120000,TASK_BEGIN,007,-0.268292385078742,-0.5658156239303616,-0.9345344898381753,0.6902332968300361,-13.319869374617985,4.454725043839144,-36.30785610830275,1.701175632583895,0
209,2024-09-16 21:56:23.427175936,TASK_BEGIN,007,-0.2787740660041647,-0.5564361104806151,-0.7353221279238175,0.6910308104147789,-13.261289418594712,4.4394090088056855,-36.14682544974887,1.516683253562497,0
210,2024-09-16 21:56:23.489660928,TASK_BEGIN,007,-0.29440533769655597,-0.5454911450818358,-0.5302380210898756,0.6888601213302871,-13.166148596003355,4.406514631487198,-36.490145307128536,1.275240182224032,0
211,2024-09-16 21:56:23.569976064,TASK_BEGIN,007,-0.3144616908655707,-0.5334144623370852,-0.32748210604488726,0.6830671430689276,-13.038840398188409,4.357940321146358,-37.298281058656556,0.9797422702593851,0
212,2024-09-16 21:56:23.626992896,TASK_BEGIN,007,-0.3381056127285532,-0.5206365820660332,-0.1354571431116956,0.6731749048435764,-12.886710863348432,4.297157501337712,-38.504075668115064,0.6416217462950703,0
213,2024-09-16 21:56:23.704611072,TASK_BEGIN,007,-0.3644214199596625,-0.5075666705263637,0.037928826948064716,0.6589005028762699,-12.718547098785798,4.2286239996606865,-40.01712252882581,0.27868943921842143,0
214,2024-09-16 21:56:23.767107840,TASK_BEGIN,007,-0.39242947350842444,-0.494585317605385,0.1858563912595125,0.640129683564412,-12.542541937179674,4.157078299015854,-41.72949863360236,-0.08821298807552855,0
215,2024-09-16 21:56:24.705033984,TASK_BEGIN,007,-0.42109622643933253,-0.4820347201591357,0.3030177748070039,0.6168804420001369,-12.364332305185767,4.0868802026993905,-43.524219317310845,-0.43796563096336993,0
216,2024-09-16 21:56:24.783139840,TASK_BEGIN,007,-0.4493667259984201,-0.47019423189578863,0.3858719589913639,0.5892809964294186,-12.185841077863062,4.021539897264962,-45.28705908543794,-0.7505013486547624,0
217,2024-09-16 21:56:24.844711936,TASK_BEGIN,007,-0.47622797171802295,-0.4592498972607337,0.43277430340339396,0.5575763071334227,-12.005390956462197,3.963488598995169,-46.919629663910044,-1.0074990973782507,0
218,2024-09-16 21:56:24.906735872,TASK_BEGIN,007,-0.500792045238652,-0.4492809506700709,0.44406875968626397,0.5221535772041507,-11.81891445014089,3.914056243505107,-48.349357158967756,-1.1936302778381587,0
219,2024-09-16 21:56:24.987840768,TASK_BEGIN,007,-0.5223784514569356,-0.44027723273268937,0.4221437828464126,0.4835679142359592,-11.621685575495365,3.8736058399754683,-49.53264035086824,-1.2986024248215031,0
220,2024-09-16 21:56:25.055470080,TASK_BEGIN,007,-0.5405675922443369,-0.4321808827229742,0.37131508369958066,0.4425647117105712,-11.409960175453277,3.841745622174073,-50.45045608352168,-1.319381065175881,0
221,2024-09-16 21:56:25.123315200,TASK_BEGIN,007,-0.5552004308991172,-0.42493111101403597,0.297424806714462,0.40009402553748286,-11.181938095040389,3.8175080515098387,-51.099292956175226,-1.2617935985541608,0
222,2024-09-16 21:56:26.060666880,TASK_BEGIN,007,-0.5663214146337036,-0.4184922420617005,0.20718501750669907,0.3572974393125602,-10.937700884036298,3.7994431462808014,-51.48216593997694,-1.14085952280783,0
223,2024-09-16 21:56:26.123153920,TASK_BEGIN,007,-0.5740853161816883,-0.4128627656797574,0.10741244377823585,0.3154576500479982,-10.678305925755499,3.785642820310532,-51.60288529227812,-0.9794648281919919,0
224,2024-09-16 21:56:26.202407936,TASK_BEGIN,007,-0.5786593632918441,-0.40807876070944976,0.004366276291012055,0.27592207270921804,-10.404674420484197,3.7737465844424385,-51.4639028663518,-0.8054545435934403,0
225,2024-09-16 21:56:26.262435072,TASK_BEGIN,007,-0.580155695128956,-0.4042204185748223,-0.09666525428876202,0.2400255621003544,-10.117009526723171,3.761049122646573,-51.066599669087445,-0.6478633401253313,0
226,2024-09-16 21:56:26.337894144,TASK_BEGIN,007,-0.5786252109620129,-0.40141360880634125,-0.19155593349405864,0.20903750163558077,-9.815108675180682,3.7448206646334468,-50.41235471222197,-0.5334355050961824,0
227,2024-09-16 21:56:26.405720832,TASK_BEGIN,007,-0.574116117470035,-0.3998127801119997,-0.2774039174643388,0.18412718696766897,-9.499332363552881,3.7227800450508908,-49.503254158828106,-0.48417403487947075,0
228,2024-09-16 21:56:26.464024832,TASK_BEGIN,007,-0.566756518244655,-0.3995652292752073,-0.3524911848181325,0.16630852866688695,-9.17169893777648,3.6935479128303736,-48.34320568720715,-0.5158237758283364,0
229,2024-09-16 21:56:27.408577024,TASK_BEGIN,007,-0.5568027117263539,-0.40077400123505674,-0.4161743177987366,0.15634244052905588,-8.836630164214364,3.656950345191538,-46.94063705260767,-0.6371383516397585,0
230,2024-09-16 21:56:27.471064832,TASK_BEGIN,007,-0.5446245496365432,-0.40347847342192783,-0.46883597005985606,0.15462827438317336,-8.501007419001578,3.614101015490206,-45.311755250624934,-0.8502420566583504,0
231,2024-09-16 21:56:27.551278080,TASK_BEGIN,007,-0.5306527486704318,-0.40765608314474217,-0.5119597639132858,0.16113671903103868,-8.173541426562213,3.5672667663579043,-43.48251845069089,-1.1519653815648776,0
232,2024-09-16 21:56:27.607415040,TASK_BEGIN,007,-0.5153454349632083,-0.41323013359616173,-0.5481305956557952,0.17538666303307696,-7.863962752763734,3.51964891405765,-41.4898135436046,-1.5350222515101148,0
233,2024-09-16 21:56:27.684647936,TASK_BEGIN,007,-0.499202836826868,-0.4200675773708968,-0.5806798479277931,0.19642313266691358,-7.582616437070241,3.4752147549400902,-39.38376234137137,-1.9879925686666609,0
234,2024-09-16 21:56:27.746649856,TASK_BEGIN,007,-0.482797427065816,-0.4279690003675624,-0.6130223654222053,0.22281067672861515,-7.340488755769325,3.438543088542629,-37.2306240965237,-2.4944506938069178,0
235,2024-09-16 21:56:27.823479040,TASK_BEGIN,007,-0.4667726720128431,-0.43666595550977527,-0.6480610890657863,0.2527270211272152,-7.149148898957502,3.4145517583839204,-35.112850709837446,-3.0327191820863604,0
236,2024-09-16 21:56:28.765805824,TASK_BEGIN,007,-0.45180718417192856,-0.44583353910513357,-0.6878950107922125,0.2841823353686925,-7.02013538512508,3.408055814563614,-33.124041012599356,-3.577418687989575,0
237,2024-09-16 21:56:28.828291072,TASK_BEGIN,007,-0.4385721043676436,-0.45511290967570983,-0.733703406727756,0.31528157929256756,-6.963705604875996,3.4231854333916187,-31.359935333651347,-4.1026055732322915,0
238,2024-09-16 21:56:28.902542080,TASK_BEGIN,007,-0.4276917747353449,-0.4641357197593276,-0.7855984383654426,0.34443527731895685,-6.98717108003155,3.462724600271836,-29.90771745887646,-4.585181877160923,0
239,2024-09-16 21:56:28.968006144,TASK_BEGIN,007,-0.41968655755392087,-0.4725499652983824,-0.8424187947817812,0.37047125098581574,-7.093332709129215,3.5275281589343264,-28.83525908894277,-5.00715985674755,0
240,2024-09-16 21:56:29.030082048,TASK_BEGIN,007,-0.41487859908590885,-0.48005336773800034,-0.9015817105925484,0.3926352922252605,-7.279701371260753,3.616266603936003,-28.182020362474013,-5.356141254490443,0
241,2024-09-16 21:56:29.105843968,TASK_BEGIN,007,-0.41327827464685835,-0.4864357900129633,-0.9591240176960314,0.4105084514826762,-7.538827748057647,3.7256459288039054,-27.953616643796842,-5.624494962313979,0
242,2024-09-16 21:56:29.169548032,TASK_BEGIN,007,-0.4145002867542487,-0.4916183945067772,-1.0099878545085108,0.4239014255881269,-7.859457643988473,3.850999932417635,-28.121349478187078,-5.808255300655684,0
243,2024-09-16 21:56:30.112315904,TASK_BEGIN,007,-0.4177529431877041,-0.49566841272624873,-1.0485339349108844,0.4327793356237532,-8.22801369755718,3.986996154171565,-28.626563167189644,-5.90634226029515,0
244,2024-09-16 21:56:30.174946048,TASK_BEGIN,007,-0.42191298971719055,-0.49877660299939214,-1.0692522498430055,0.4372413929403816,-8.630044417240656,4.128244315712864,-29.388373946918822,-5.920039356262629,0
245,2024-09-16 21:56:30.252172032,TASK_BEGIN,007,-0.4256689830473726,-0.5012066157562666,-1.0675742998967035,0.43753772736279906,-9.051503234015724,4.269754980126726,-30.31311400797456,-5.852374324053421,0
246,2024-09-16 21:56:30.320470272,TASK_BEGIN,007,-0.42770014905895676,-0.5032423902375369,-1.0405465705908226,0.4340640406432697,-9.479898282669714,4.407289714052983,-31.304398366588533,-5.707301235751007,0
247,2024-09-16 21:56:30.388123904,TASK_BEGIN,007,-0.4268517374443359,-0.5051527193713647,-0.9871272158738451,0.42730045653917864,-9.905291216940615,4.537584526445832,-32.27245033179868,-5.489092296361899,0
248,2024-09-16 21:56:30.453408000,TASK_BEGIN,007,-0.4222743804288937,-0.5071674729956905,-0.9080756395346054,0.4177379119723991,-10.320992534749617,4.658379296722697,-33.14120229644417,-5.202256038829565,0
249,2024-09-16 21:56:30.515461888,TASK_BEGIN,007,-0.41351745950116103,-0.509447495925747,-0.8055938766055499,0.40585474533198684,-10.723916988832599,4.768304475103249,-33.85287444027546,-4.851834945879079,0
250,2024-09-16 21:56:31.442652928,TASK_BEGIN,007,-0.4005826963784847,-0.5120458886153462,-0.6829255649594574,0.3921513275571828,-11.114616859855522,4.866784008116376,-34.37031295957347,-4.444114114191844,0
251,2024-09-16 21:56:31.502237184,TASK_BEGIN,007,-0.3839324758764815,-0.5148809335777854,-0.544051440765948,0.3771958665859355,-11.496816481262112,4.95401729302723,-34.67713325443118,-3.9879972386327918,0
252,2024-09-16 21:56:31.578305792,TASK_BEGIN,007,-0.36443244388768475,-0.5177419932181054,-0.39349252229469384,0.3616249154475845,-11.876296010974267,5.030961809142262,-34.77606820709188,-3.496658074810039,0
253,2024-09-16 21:56:31.636836864,TASK_BEGIN,007,-0.3432227530098317,-0.5203304817390298,-0.23616281910047776,0.3460785220680201,-12.259289242455797,5.09924547685655,-34.68607398752612,-2.988424182124644,0
254,2024-09-16 21:56:31.698833920,TASK_BEGIN,007,-0.32154412172743607,-0.5223190578237704,-0.07725891232898272,0.33110128614324885,-12.650706944706569,5.160984271891657,-34.43784381473264,-2.486303670132341,0
255,2024-09-16 21:56:31.775707136,TASK_BEGIN,007,-0.30055852506428127,-0.5234076045722572,0.07780974241809638,0.31706328709773135,-13.052478849360106,5.218465450465453,-34.06708357670515,-2.016468827345784,0
256,2024-09-16 21:56:31.838915072,TASK_BEGIN,007,-0.281196846982676,-0.5233636434067709,0.2235511916337205,0.3041330685288201,-13.46243412082523,5.273737287564689,-33.607194631602624,-1.6060640496814245,0
257,2024-09-16 21:56:32.757231872,TASK_BEGIN,007,-0.2640662092737761,-0.5220441525522103,0.35472818307627213,0.29229540430406986,-13.874168760044244,5.328307133769358,-33.085640438910055,-1.2803042249092327,0
258,2024-09-16 21:56:32.836144128,TASK_BEGIN,007,-0.24945243859758806,-0.5193976554885633,0.4668461174930105,0.2813974485047635,-14.277882260389486,5.383095175128714,-32.52693094483839,-1.0590974940522395,0
259,2024-09-16 21:56:32.895934208,TASK_BEGIN,007,-0.23741440950270057,-0.5154484473953816,0.5564942523088285,0.27122880619987993,-14.661619065895378,5.43854957898058,-31.96035308488116,-0.9540770354312222,0
260,2024-09-16 21:56:32.971707904,TASK_BEGIN,007,-0.22790686776136135,-0.5102714276778569,0.6213459513512074,0.26163615048462685,-15.012436079631826,5.494737012795286,-31.42673118922115,-0.96707418218456,0
261,2024-09-16 21:56:33.036294912,TASK_BEGIN,007,-0.22086035753039257,-0.5039679642058308,0.6599716386387922,0.2526321919912577,-15.317523338175857,5.551341393103658,-30.97910652965085,-1.0903578762439314,0
262,2024-09-16 21:56:33.107206144,TASK_BEGIN,007,-0.216192205815668,-0.4966504387723508,0.6717457178227358,0.2444398020624414,-15.565464891451645,5.607635703975862,-30.677004428632493,-1.3079326015640147,0
263,2024-09-16 21:56:33.175059968,TASK_BEGIN,007,-0.2137680459906128,-0.48843837337707185,0.6569447328602348,0.23744411897174925,-15.747502265053496,5.662490223313018,-30.578001143539016,-1.5971459640141046,0
264,2024-09-16 21:56:34.114448896,TASK_BEGIN,007,-0.21335919407425735,-0.47946274055198496,0.6169185942640885,0.23208645008064474,-15.858362059674393,5.714376431838716,-30.72997298716175,-1.9307623110539007,0
265,2024-09-16 21:56:34.176934144,TASK_BEGIN,007,-0.21463939764266113,-0.4698717912744789,0.5541790253703431,0.22876354335982166,-15.896373929735669,5.761318020395074,-31.165384860151498,-2.279746183172503,0
266,2024-09-16 21:56:34.252397824,TASK_BEGIN,007,-0.2172269645670207,-0.4598331765136624,0.472366306541687,0.2277539604262564,-15.863055818445293,5.800861632612206,-31.898342621039433,-2.6161207049359056,0
267,2024-09-16 21:56:34.320175104,TASK_BEGIN,007,-0.2207379236372567,-0.4495309858878959,0.37611679904599554,0.22914707571317972,-15.762490897248115,5.83016033932187,-32.92479457395268,-2.9150639015190944,0
268,2024-09-16 21:56:34.378642176,TASK_BEGIN,007,-0.22481948341640895,-0.4391607406242067,0.2707908026808393,0.23277967358853882,-15.600655524824832,5.846154875219317,-34.225196763029224,-3.156042910373011,0
269,2024-09-16 21:56:34.455704832,TASK_BEGIN,007,-0.2291664909445741,-0.4289272957856594,0.16199363167751474,0.23824386282468776,-15.38485701366306,5.8458158857768545,-35.76777097458528,-3.3232588942559236,0
270,2024-09-16 21:56:34.523396864,TASK_BEGIN,007,-0.23353451639393397,-0.4190467962698932,0.054901740492055026,0.24501715075433103,-15.123505223485193,5.826472485713492,-37.50990378801183,-3.4058315557607504,0
271,2024-09-16 21:56:35.458843136,TASK_BEGIN,007,-0.23775212444390417,-0.4097447438438495,-0.04645103779771585,0.25267241117048944,-14.826167879664812,5.78621974172162,-39.396494462907405,-3.398092553897903,0
272,2024-09-16 21:56:35.534676992,TASK_BEGIN,007,-0.24172999795806374,-0.4012403265414465,-0.13965844636014765,0.2610603890002923,-14.503411210610723,5.7242753171214025,-41.35688408505549,-3.3000533623108943,0
273,2024-09-16 21:56:35.602462976,TASK_BEGIN,007,-0.2454612366509427,-0.39372168519825584,-0.22400109404222557,0.2703963312228321,-14.165904940816887,5.641115271882931,-43.303934208380895,-3.1177492151705404,0
274,2024-09-16 21:56:35.662848768,TASK_BEGIN,007,-0.24900981544718032,-0.3873288074012396,-0.3001070641588696,0.281246738431413,-13.822923443331485,5.5383474656849385,-45.13858496481696,-2.862808113961888,0
275,2024-09-16 21:56:35.725715968,TASK_BEGIN,007,-0.2525002381535061,-0.38215306989144504,-0.369403606156478,0.2944233512444724,-13.481058751333089,5.418459708162031,-46.76108519153069,-2.550537017318689,0
276,2024-09-16 21:56:35.805702912,TASK_BEGIN,007,-0.25612135888064497,-0.3782482496477145,-0.4335809079266915,0.31080857084923225,-13.143919446417573,5.284630702451096,-48.08660157840394,-2.196546154764801,0
277,2024-09-16 21:56:35.864879872,TASK_BEGIN,007,-0.2601325356604235,-0.37564125176339175,-0.49423145567126925,0.3311848925647543,-12.812967491947468,5.140675357150388,-49.05975290966639,-1.813090869245334,0
278,2024-09-16 21:56:36.817184768,TASK_BEGIN,007,-0.2648473654782636,-0.37433281462355844,-0.5526991287453697,0.3561299046560869,-12.488986276423528,4.991023334859842,-49.66252896563969,-1.406759492537144,0
279,2024-09-16 21:56:36.884889856,TASK_BEGIN,007,-0.27058823685360206,-0.3742882729071595,-0.6100565070464934,0.38596208546008076,-12.173386593629758,4.840574028430069,-49.91373051256626,-0.9783119514685144,0
280,2024-09-16 21:56:36.951458048,TASK_BEGIN,007,-0.2776286384510165,-0.3754287836922766,-0.6671070120386292,0.4206900178864757,-11.868886133009346,4.6943905241718324,-49.861991514812956,-0.5242118734487109,0
281,2024-09-16 21:56:37.015223040,TASK_BEGIN,007,-0.28614241201556107,-0.37763392366006504,-0.7243118264832462,0.4599519119090308,-11.579626405407957,4.557321407594346,-49.57541239127399,-0.03888604738280932,0
282,2024-09-16 21:56:37.077708032,TASK_BEGIN,007,-0.2961669676166564,-0.3807572743870364,-0.7815429023909093,0.5029570997813121,-11.31087937777154,4.433619946809217,-49.13057291553297,0.48312771495652285,0
283,2024-09-16 21:56:37.154889984,TASK_BEGIN,007,-0.3075767690191031,-0.3846466443527179,-0.8376917482768403,0.5484374591441427,-11.068327780174057,4.326557964525703,-48.604086164436744,1.0459297506921559,0
284,2024-09-16 21:56:37.217942016,TASK_BEGIN,007,-0.32005630100670074,-0.38915996436452344,-0.8904049753059323,0.5946313749300874,-10.856957988402334,4.238040135162497,-48.06881759050885,1.6524548735983609,0
285,2024-09-16 21:56:38.167018752,TASK_BEGIN,007,-0.33306739515460415,-0.3941772306778648,-0.9362718987185273,0.6393546949536866,-10.679821593896913,4.1682923831474,-47.59385345330387,2.305865279171379,0
286,2024-09-16 21:56:38.235025920,TASK_BEGIN,007,-0.345830741449938,-0.39961502535406884,-0.9714983085761797,0.680200475371291,-10.537002955171275,4.115753611591317,-47.24539819489726,3.011071145903719,0
287,2024-09-16 21:56:38.302159104,TASK_BEGIN,007,-0.35735853496021847,-0.4054429209298754,-0.9927457084665224,0.7148305001119463,-10.425001093708927,4.077272256792071,-47.08622003222367,3.7751798591790084,0
288,2024-09-16 21:56:38.364239104,TASK_BEGIN,007,-0.3665556096605025,-0.41168963215301446,-0.9977540084608929,0.7412600652754885,-10.336659655863333,4.04858496199849,-47.17259718825402,4.606314203260348,0
289,2024-09-16 21:56:38.426274816,TASK_BEGIN,007,-0.372371047588664,-0.4184270930095349,-0.985610080718279,0.7580778746903621,-10.261883921269948,4.024964555567271,-47.549385199532836,5.511222366505316,0
290,2024-09-16 21:56:38.506141952,TASK_BEGIN,007,-0.37396956801413006,-0.4257337594466988,-0.9567707484764238,0.7646113991470777,-10.189291632740625,4.00193718538092,-48.24498551324544,6.492715455514532,0
291,2024-09-16 21:56:38.573800960,TASK_BEGIN,007,-0.37089693416808145,-0.43365131608367335,-0.9129628167775384,0.7610317468428331,-10.108522270269347,3.975962568948235,-49.267444588583736,7.547753117925573,0
292,2024-09-16 21:56:39.517252864,TASK_BEGIN,007,-0.3632118821990339,-0.4421505075967256,-0.8569969630535424,0.748353380407201,-10.01256800428952,3.944911241643213,-50.60208411864702,8.666428759451168,0
293,2024-09-16 21:56:39.584999936,TASK_BEGIN,007,-0.35155078663102657,-0.45111372286190143,-0.7925395041928966,0.728315225689464,-9.899417216650507,3.9082116666771523,-52.21127441506276,9.831842034488922,0
294,2024-09-16 21:56:39.644770048,TASK_BEGIN,007,-0.33709425255565084,-0.4603347047328639,-0.7238967260382067,0.7031756105600306,-9.772510438387163,3.866702616594702,-54.0369647125001,11.020799969957999,0
295,2024-09-16 21:56:39.720457984,TASK_BEGIN,007,-0.3214262677841339,-0.46953422334624684,-0.6557859870516257,0.675457105888136,-9.63997293937483,3.822324161698937,-56.00603755217843,12.205262092611346,0
296,2024-09-16 21:56:39.788271104,TASK_BEGIN,007,-0.30631320496167963,-0.47839023573153266,-0.5930006016281756,0.6476659958688706,-9.513093143314466,3.7777450981863168,-58.03785921126377,13.354451443091023,0
297,2024-09-16 21:56:39.845824000,TASK_BEGIN,007,-0.2934560361121833,-0.4865783845387761,-0.5399206180889751,0.6220100599735104,-9.404663952992783,3.73596467853494,-60.05200332060099,14.437355969207928,0
298,2024-09-16 21:56:39.923449856,TASK_BEGIN,007,-0.28426918616339103,-0.4938146696970726,-0.49997551360773584,0.6001519225992353,-9.327493301944463,3.6998938654961946,-61.97343219729553,15.424963571644694,0
299,2024-09-16 21:56:40.854642944,TASK_BEGIN,007,-0.27972418312970687,-0.499888681914483,-0.4752951868656497,0.5830448048061836,-9.293025120745282,3.6719114662962973,-63.73448869920273,16.291658625454264,0
300,2024-09-16 21:56:40.933227008,TASK_BEGIN,007,-0.2802695901576514,-0.5046783075630114,-0.4666868347058686,0.5708731814785298,-9.30991800365963,3.6534155605741354,-65.27584084535917,17.015920315206213,0
301,2024-09-16 21:56:40.995111936,TASK_BEGIN,007,-0.28581037360679823,-0.5081485369610659,-0.473816050373907,0.5630869743567024,-9.382573246500135,3.6444328633631344,-66.54849295775674,17.580988269573794,0
302,2024-09-16 21:56:41.056765184,TASK_BEGIN,007,-0.2957296747980199,-0.510345693183274,-0.4954005322472789,0.5585225273195348,-9.509939115490539,3.643385976173181,-67.51620411513775,17.97585327165861,0
303,2024-09-16 21:56:41.138453248,TASK_BEGIN,007,-0.3089595757846038,-0.5113916621660637,-0.529408729503608,0.5556245233533148,-9.685194772335903,3.6471422628818746,-68.1554720078311,18.196153020839567,0
304,2024-09-16 21:56:41.196387840,TASK_BEGIN,007,-0.32411233892481006,-0.5114709755081024,-0.5733799941449803,0.5527594187200036,-9.896639489116865,3.6514208334546616,-68.45150814821478,18.244209821744057,0
305,2024-09-16 21:56:41.273989888,TASK_BEGIN,007,-0.33966048874863985,-0.5108034662837115,-0.6248829376733569,0.5485492844659448,-10.129452245237061,3.6514874229173,-68.39216696334535,18.12792034461685,0
306,2024-09-16 21:56:42.177294848,TASK_BEGIN,007,-0.3541328377176284,-0.509605471307969,-0.6819418679963868,0.5421216747119106,-10.367682232469333,3.642925916252273,-67.96360776553543,17.85898170533956,0
307,2024-09-16 21:56:42.259578880,TASK_BEGIN,007,-0.3662875147400854,-0.5080516117847618,-0.7432019681547785,0.5331993177675629,-10.595936368165052,3.6222437854624983,-67.14983734625837,17.45119930793513,0
308,2024-09-16 21:56:42.316504832,TASK_BEGIN,007,-0.3752284953267755,-0.5062498689905093,-0.807772799076083,0.5220241495664433,-10.800331573300742,3.587140646010757,-65.93530323035712,16.919145158122276,0
309,2024-09-16 21:56:42.395120128,TASK_BEGIN,007,-0.380454248155592,-0.5042347134897822,-0.8749178881761513,0.5091825867791125,-10.968480090505086,3.536424650462051,-64.30860621061169,16.276979031756905,0
310,2024-09-16 21:56:42.462793984,TASK_BEGIN,007,-0.3818552127020044,-0.5019732023545319,-0.9437943510234265,0.49542016409586076,-11.088772094410741,3.4697421256954395,-62.26705752517996,15.537528812034758,0
311,2024-09-16 21:56:42.517704960,TASK_BEGIN,007,-0.3796837006150913,-0.499376060185769,-1.0133008659721272,0.4814930883007609,-11.14963301739478,3.3873252194682495,-59.823489378926176,14.712255515353739,0
312,2024-09-16 21:56:42.598300160,TASK_BEGIN,007,-0.37451047314707614,-0.4963105129710824,-1.0819654023739085,0.46806229915994335,-11.139382793450224,3.289836138612244,-57.01536207790307,13.812557762957702,0
313,2024-09-16 21:56:43.529952000,TASK_BEGIN,007,-0.3671741807015056,-0.4926179555510371,-1.147826922531724,0.4556323928161869,-11.046987374839912,3.1783098938491916,-53.91309844750962,12.852088585107275,0
314,2024-09-16 21:56:43.599844864,TASK_BEGIN,007,-0.3587174661725435,-0.4881408274006799,-1.2083865390434259,0.44454156034912073,-10.863590398882765,3.054221183588974,-50.623921191883824,11.849202156627785,0
315,2024-09-16 21:56:43.678003200,TASK_BEGIN,007,-0.35029615107695833,-0.4827559416932327,-1.2607442345102946,0.43499451407805007,-10.584310327974032,2.919642971791017,-47.28956966735339,10.828559997666881,0
316,2024-09-16 21:56:43.745651200,TASK_BEGIN,007,-0.34306319585064976,-0.4764028477758254,-1.3019337848204837,0.4271195777437832,-10.209688545225085,2.7773527218836915,-44.077785568531105,9.821112061485737,0
317,2024-09-16 21:56:43.812525056,TASK_BEGIN,007,-0.33804588280835274,-0.46909688970765095,-1.329358664376059,0.42103559080751746,-9.746519161121347,2.6307913705102504,-41.16837057676802,8.8622925829709,0
318,2024-09-16 21:56:43.881251840,TASK_BEGIN,007,-0.3360320124091856,-0.46092629533451346,-1.3412113673959098,0.4169216871672979,-9.208144665972915,2.483926462629464,-38.73655540888411,7.989096460125346,0
319,2024-09-16 21:56:43.949006080,TASK_BEGIN,007,-0.3374782272699779,-0.45204050384124767,-1.336793211878915,0.41508401280214896,-8.614272415480494,2.341067749036445,-36.937040624846425,7.236830377277896,0
320,2024-09-16 21:56:44.863888896,TASK_BEGIN,007,-0.34245967455170634,-0.4426392738044809,-1.3166840177841506,0.4159963928890932,-7.990181008968246,2.2065927931805893,-35.890234061077194,6.635834727977904,0
321,2024-09-16 21:56:44.935384064,TASK_BEGIN,007,-0.35067485395877657,-0.43296931872153127,-1.2827084346232596,0.42027062159020306,-7.365225483769269,2.0845806875892325,-35.67141534103202,6.2084216827684635,0
322,2024-09-16 21:56:45.003036928,TASK_BEGIN,007,-0.36150694276815076,-0.4233241100058918,-1.2376588785784268,0.4285339860188334,-6.770737655265833,1.978447278032359,-36.304571488429616,5.966611573753872,0
323,2024-09-16 21:56:45.065964032,TASK_BEGIN,007,-0.3741383060564064,-0.4140323194562429,-1.1848278367535243,0.441248737778766,-6.237559268413051,1.8906711494312571,-37.76227594263674,5.910994645331969,0
324,2024-09-16 21:56:45.126985216,TASK_BEGIN,007,-0.3876990195656583,-0.4054309631728595,-1.1274995457334789,0.4585415220255651,-5.7935479047191025,1.8226640284627935,-39.97075848442497,6.0304879800765026,0
325,2024-09-16 21:56:45.206383104,TASK_BEGIN,007,-0.4014029981353544,-0.3978389160801945,-1.0685514579965565,0.48010967328717696,-5.461384179014804,1.7748299394365696,-42.81791055978901,6.302889932396628,0
326,2024-09-16 21:56:45.266249984,TASK_BEGIN,007,-0.4146315645476029,-0.39154196281820314,-1.0102570484341897,0.505247702715232,-5.256870706286726,1.7468110589230141,-46.16267757913312,6.696641102369628,0
327,2024-09-16 21:56:46.207909120,TASK_BEGIN,007,-0.42696466419708085,-0.3867791848340228,-0.9543293529338572,0.5329848549375443,-5.18776326921256,1.737829471240744,-49.84581510647964,7.174102674471359,0
328,2024-09-16 21:56:46.285535232,TASK_BEGIN,007,-0.43818307290363184,-0.383716726232565,-0.9021851788646692,0.5622706642928064,-5.253078607321288,1.746973042388047,-53.702341940561986,7.6959934811346535,0
329,2024-09-16 21:56:46.343381760,TASK_BEGIN,007,-0.44825806049555056,-0.3824114915740953,-0.8553236495343919,0.5921304700155442,-5.442948349580674,1.7733021605092223,-57.574438968681655,8.226065382293836,0
330,2024-09-16 21:56:46.421628928,TASK_BEGIN,007,-0.4573306325286339,-0.38278234508402953,-0.8156262932597363,0.6217379556423263,-5.739392459522819,1.8157967016255876,-61.321905311036566,8.734948107025017,0
331,2024-09-16 21:56:46.482589184,TASK_BEGIN,007,-0.4656712346668689,-0.3846081176825967,-0.785392116602639,0.6504056494103128,-6.118307221627063,1.8733062822040931,-64.82817560500723,9.202406129323128,0
332,2024-09-16 21:56:46.549204992,TASK_BEGIN,007,-0.47361101002617023,-0.3875583809218934,-0.7670854976319524,0.6775481912306911,-6.552233000087038,1.9445999472937747,-68.0023401110715,9.617830840816833,0
333,2024-09-16 21:56:46.622289152,TASK_BEGIN,007,-0.48144986544932844,-0.39124227698426495,-0.7629560983413411,0.7026720207492378,-7.012862459425369,2.0283946483620707,-70.77898553428244,9.97925608730509,0
334,2024-09-16 21:56:47.567006976,TASK_BEGIN,007,-0.4893607689582242,-0.39525306950452055,-0.7746965539722741,0.7253867091487776,-7.472625385253008,2.1232121299100952,-73.11750936792646,10.291509479611017,0
335,2024-09-16 21:56:47.635440128,TASK_BEGIN,007,-0.4973130542293227,-0.39919950821283806,-0.8031884481810728,0.7453914872614127,-7.905566674969487,2.2271192893443175,-75.00090709240648,10.564127666465426,0
336,2024-09-16 21:56:47.703278080,TASK_BEGIN,007,-0.5050309439906011,-0.402730110360602,-0.848344415516507,0.7624204622690848,-8.288074472182684,2.3375382123060118,-76.43229812678514,10.809140747419647,0
337,2024-09-16 21:56:47.760606976,TASK_BEGIN,007,-0.5119941729724694,-0.40555525695925804,-0.9091173913974265,0.7761941637817905,-8.599784196944015,2.4512405073430554,-77.42845931972369,11.038554213940648,0
338,2024-09-16 21:56:47.838237184,TASK_BEGIN,007,-0.5174799069491777,-0.4074621049551435,-0.9837346599611054,0.786434756050212,-8.824749407865056,2.5645293457569793,-78.01223280222537,11.261820468860211,0
339,2024-09-16 21:56:47.901088768,TASK_BEGIN,007,-0.5206356934244026,-0.4083160476677649,-1.0700329536263875,0.792941101089343,-8.952787718403627,2.673565139700921,-78.20652493835169,11.483940119433566,0
340,2024-09-16 21:56:47.974256128,TASK_BEGIN,007,-0.5205629166809069,-0.40805276880514396,-1.1656693420521274,0.7956736949376093,-8.980637377312132,2.7747636663040676,-78.03141157732439,11.704553996980952,0
341,2024-09-16 21:56:48.913750016,TASK_BEGIN,007,-0.5163898555377688,-0.4066726009296839,-1.2681542704447863,0.7948089609104616,-8.912484669129606,2.8651739413489135,-77.50381179687251,11.917941882730242,0
342,2024-09-16 21:56:48.977722880,TASK_BEGIN,007,-0.5073291848056685,-0.4042435698395069,-1.3748403646077394,0.7907366528161696,-8.75971690089555,2.9427591803255493,-76.63802388207147,12.113703226711461,0
343,2024-09-16 21:56:49.037837824,TASK_BEGIN,007,-0.4927362441913999,-0.40090749214181737,-1.482948423075397,0.783985431992911,-8.539970365140428,3.0065349440527545,-75.4465811778562,12.278050369393835,0
344,2024-09-16 21:56:49.115535872,TASK_BEGIN,007,-0.4721918465107045,-0.396874501400716,-1.5895959669677096,0.7751009387432233,-8.275461641577108,3.0565268862279273,-73.94234988270888,12.395697060142687,0
345,2024-09-16 21:56:49.177974784,TASK_BEGIN,007,-0.4456136982569602,-0.3923945004050128,-1.6918447990763923,0.7645370192650564,-7.9907017120757455,3.0935427269631925,-72.14222825784198,12.452153781096781,0
346,2024-09-16 21:56:49.255182848,TASK_BEGIN,007,-0.4133630676531418,-0.387713710616133,-1.7868796750426643,0.7526112864691189,-7.71003675260479,3.11883937935614,-70.07187938292599,12.436187806061834,0
347,2024-09-16 21:56:49.324377856,TASK_BEGIN,007,-0.37629628730663617,-0.3830403813881341,-1.872342168033978,0.7395348886663191,-7.4554297045513565,3.133818810739487,-67.77115388145276,12.342233804153341,0
348,2024-09-16 21:56:50.265764864,TASK_BEGIN,007,-0.3357349900029844,-0.37853350944991326,-1.946653480676563,0.7254894349480882,-7.244612372352276,3.1398527164724186,-65.29972847733022,12.172291893399356,0
349,2024-09-16 21:56:50.328250112,TASK_BEGIN,007,-0.29336180897803454,-0.37430654445161987,-2.0091119644330377,0.7107122067136102,-7.089777606850352,3.138260172934649,-62.74102823170841,11.936523330782268,0
350,2024-09-16 21:56:50.390736128,TASK_BEGIN,007,-0.25106005728099684,-0.37043172226780074,-2.059702576956313,0.6955675693139646,-6.997056669147109,3.130375740642544,-60.201120858993065,11.651895001013852,0
351,2024-09-16 21:56:50.471217920,TASK_BEGIN,007,-0.2107210296525058,-0.36694198929467997,-2.098760226440429,0.6806019710171416,-6.966723191876249,3.1175930930935474,-57.80018378323412,11.338949272533997,0
352,2024-09-16 21:56:50.534614016,TASK_BEGIN,007,-0.1740557480616764,-0.3638379362988635,-2.1266744317590462,0.6665615366956756,-6.993802951259951,3.1013011389333354,-55.65760334804884,11.0176524787527,0
353,2024-09-16 21:56:50.603176960,TASK_BEGIN,007,-0.1424535488203658,-0.3611034856996793,-2.143687249072883,0.6543210127078094,-7.068909395703564,3.0827173165770247,-53.87504560689121,10.703772982632758,0
354,2024-09-16 21:56:50.674375936,TASK_BEGIN,007,-0.11690935156750276,-0.35872368083415285,-2.1497700844834573,0.644705134000014,-7.179380936045752,3.0626976622523236,-52.52257004078165,10.407089563013848,0
355,2024-09-16 21:56:51.602681856,TASK_BEGIN,007,-0.09801093553875884,-0.35669464935121103,-2.144651756593228,0.6382627337790888,-7.310764422984583,3.0416139788905476,-51.631324106490254,10.131834352217352,0
356,2024-09-16 21:56:51.680301056,TASK_BEGIN,007,-0.08596945783769795,-0.3550209526129229,-2.1280575839667635,0.6350882022545733,-7.448380008768894,3.0193363603187056,-51.19350983690012,9.878459804415758,0
357,2024-09-16 21:56:51.741816832,TASK_BEGIN,007,-0.08068660466389829,-0.3537028130929338,-2.100029335852383,0.6347487414435753,-7.578575035570249,2.995310215870408,-51.166801648938446,9.64513369176306,0
358,2024-09-16 21:56:51.819728896,TASK_BEGIN,007,-0.08185177250514329,-0.35272137782411744,-2.0611204215297296,0.6363214580336616,-7.689525654566842,2.9687139746440563,-51.47864601228878,9.428048888854555,0
359,2024-09-16 21:56:51.881274880,TASK_BEGIN,007,-0.08905082912015845,-0.3520308535231598,-2.012414170315778,0.6385100564010497,-7.771724737671835,2.9386900534405545,-52.02833982166063,9.220919856596726,0
360,2024-09-16 21:56:51.943798016,TASK_BEGIN,007,-0.10185904797266046,-0.3515596111466444,-1.9554274491425216,0.6397982773491931,-7.818379424370117,2.904606989241877,-52.68875612523691,9.014552581105743,0
361,2024-09-16 21:56:52.021530112,TASK_BEGIN,007,-0.1198904390822423,-0.3512150435803538,-1.8919291436757675,0.6386111660808375,-7.8258458747554664,2.866259916696627,-53.310736805349215,8.797063409332608,0
362,2024-09-16 21:56:52.932691200,TASK_BEGIN,007,-0.14278970384836365,-0.35088904396188386,-1.8237069176224128,0.6334898463917885,-7.793997543654607,2.8239398430600358,-53.732158153105736,8.55502978408995,0
363,2024-09-16 21:56:53.009232896,TASK_BEGIN,007,-0.17017593263963376,-0.35046958785392185,-1.752362755790329,0.6232877739621453,-7.726277477734663,2.7784012347258016,-53.79273478631497,8.275626547782922,0
364,2024-09-16 21:56:53.072623104,TASK_BEGIN,007,-0.20156145208602141,-0.34986536811910296,-1.6791808259396128,0.6073505157420962,-7.629282421803654,2.7307993961493318,-53.354567448807266,7.949413392706515,0
365,2024-09-16 21:56:53.134180864,TASK_BEGIN,007,-0.23627373554077866,-0.34903902993282476,-1.60509293322105,0.5856301123487979,-7.511917613093843,2.682606770702588,-52.32578755611535,7.573093206942187,0
366,2024-09-16 21:56:53.212556032,TASK_BEGIN,007,-0.2734051490549342,-0.34803354988229324,-1.5308189988414749,0.5587363405811795,-7.384258716542488,2.635463724621192,-50.68011157668506,7.151226659560367,0
367,2024-09-16 21:56:53.273861888,TASK_BEGIN,007,-0.31180163319884663,-0.34698064239596016,-1.4571704312836447,0.5279466069320106,-7.256235740957029,2.590935144701891,-48.463802916360834,6.695974827051677,0
368,2024-09-16 21:56:53.348056064,TASK_BEGIN,007,-0.35008937847335436,-0.34609308505293207,-1.3853315883501167,0.4951650211833065,-7.136261055011916,2.550195259276333,-45.78827985336695,6.225102044437032,0
369,2024-09-16 21:56:54.287420928,TASK_BEGIN,007,-0.3867381046787791,-0.3456479856319918,-1.3169750410337488,0.4628132509638176,-7.0300931664408,2.5137391267679035,-42.81433029740687,5.759578191332143,0
370,2024-09-16 21:56:54.350073088,TASK_BEGIN,007,-0.42016497517228246,-0.3459619369877715,-1.2542045657118652,0.4336408841120841,-6.940333713292292,2.481273949128867,-39.733309249313315,5.321681162610528,0
371,2024-09-16 21:56:54.412144128,TASK_BEGIN,007,-0.44888489583928237,-0.3473511297731664,-1.1993365871322714,0.41044008639126905,-6.866710259875726,2.4518750155483153,-36.746108647283165,4.933351868960189,0
372,2024-09-16 21:56:54.488803072,TASK_BEGIN,007,-0.47169640593689954,-0.35007362568044725,-1.154565301413638,0.3956934301245508,-6.806910894417762,2.4243310705338836,-34.040133025642795,4.61418344096471,0
373,2024-09-16 21:56:54.554371072,TASK_BEGIN,007,-0.487857863035235,-0.3542689911814249,-1.1216235762000586,0.39123936383667823,-6.7576543722534055,2.3975288845113965,-31.766699400815003,4.378850861252908,0
374,2024-09-16 21:56:54.621812992,TASK_BEGIN,007,-0.4971918730088837,-0.3599202410632305,-1.1014765872252748,0.3980146960398145,-6.715918974665885,2.3707831850230434,-30.022869991584418,4.234466274631909,0
375,2024-09-16 21:56:54.694371072,TASK_BEGIN,007,-0.5000842579562877,-0.3668488846767408,-1.0940063015900403,0.4158878717788067,-6.680266755650282,2.344047983583979,-28.84258474618065,4.178935325270194,0
376,2024-09-16 21:56:55.615773952,TASK_BEGIN,007,-0.4973928985010076,-0.3747328003534911,-1.097746898118222,0.4436121451317995,-6.651827110191388,2.3179007646648264,-28.199966693437226,4.201353652318418,0
377,2024-09-16 21:56:55.678621184,TASK_BEGIN,007,-0.49030797758552747,-0.383130828448341,-1.1098406855316285,0.4789378058572421,-6.634492163024427,2.2932443985816966,-28.02212238328242,4.284504983335203,0
378,2024-09-16 21:56:55.752168960,TASK_BEGIN,007,-0.48019698151377305,-0.39150879567044966,-1.1263129386639201,0.5188683758407721,-6.634410555625307,2.2708612989750496,-28.20554235933292,4.408410776530806,0
379,2024-09-16 21:56:55.819842048,TASK_BEGIN,007,-0.4684449311972573,-0.3992761864625185,-1.1426006882877202,0.5599755435021144,-6.659091490170953,2.251054826266815,-28.63257202901097,4.5536906797615035,0
380,2024-09-16 21:56:55.887686912,TASK_BEGIN,007,-0.45628782867101786,-0.4058438667589718,-1.1541990870468906,0.5986773714517636,-6.716208999025459,2.233501651298775,-29.186955910305546,4.703950747101868,0
381,2024-09-16 21:56:55.940525056,TASK_BEGIN,007,-0.4446516040530171,-0.41069585567914163,-1.1573424662330742,0.6314590333121309,-6.812247327091513,2.217287402334047,-29.766599603063856,4.846783928892385,0
382,2024-09-16 21:56:56.018681088,TASK_BEGIN,007,-0.4340351697719338,-0.4134504989962605,-1.1496573556913603,0.655092980737133,-6.951455287177896,2.2010820366209223,-30.29130296624128,4.9734246388628005,0
383,2024-09-16 21:56:56.957720064,TASK_BEGIN,007,-0.4244769755407382,-0.4138891866016619,-1.1306369876363842,0.6668967437210028,-7.13547809322267,2.1834462656800975,-30.705615548971846,5.077742833848524,0
384,2024-09-16 21:56:57.020205056,TASK_BEGIN,007,-0.4156142364929147,-0.41195072644033437,-1.1017765353532705,0.6649966039453077,-7.363467121948771,2.1631991323310364,-30.97878568930504,5.155349543985441,0
385,2024-09-16 21:56:57.102368256,TASK_BEGIN,007,-0.4068101735043902,-0.4077080488451989,-1.06637417334131,0.6485382357471445,-7.632237842614569,2.139703755196366,-31.10311110500443,5.2030287625353475,0
386,2024-09-16 21:56:57.159425024,TASK_BEGIN,007,-0.3973058005056135,-0.40134631764520223,-1.0291192922068506,0.6177901086084167,-7.936401222786663,2.1129711483926705,-31.091261789976592,5.218479114127812,0
387,2024-09-16 21:56:57.236612096,TASK_BEGIN,007,-0.38635562316439465,-0.3931467915224154,-0.9955254224153971,0.5741017005894526,-8.26860874732344,2.083562500584291,-30.973221066173938,5.200529843079134,0
388,2024-09-16 21:56:57.305557248,TASK_BEGIN,007,-0.37332888387656765,-0.3834671274786925,-0.9712307613238615,0.5197230113912469,-8.619817456099922,2.052310902151635,-30.79257918148392,5.149682551205028,0
389,2024-09-16 21:56:57.373408000,TASK_BEGIN,007,-0.3577793499673385,-0.3727132352273902,-0.9612896857967007,0.4575348701560183,-8.979332369944808,2.0199395109026437,-30.600880288711775,5.068304133754307,0
390,2024-09-16 21:56:58.314827776,TASK_BEGIN,007,-0.33948986047129154,-0.3613079686388712,-0.9695979278700115,0.3907468196273215,-9.334688120821614,1.986735173505319,-30.45036059393404,4.960194624598242,0
391,2024-09-16 21:56:58.376836096,TASK_BEGIN,007,-0.3184962370446237,-0.34965883549383536,-0.9984431846289056,0.32260094948400847,-9.671817062712899,1.9524511983859894,-30.387983910582257,4.830127792357706,0
392,2024-09-16 21:56:58.439596032,TASK_BEGIN,007,-0.295099348741729,-0.3381208888791508,-1.0481163954758173,0.25610206274114405,-9.975750450618731,1.916484406893779,-30.452711729006847,4.683931416402853,0
393,2024-09-16 21:56:58.517231872,TASK_BEGIN,007,-0.26986637662318175,-0.3269592091868618,-1.116671805476324,0.19379859457531287,-10.23150354217891,1.8781933042957508,-30.674613564187073,4.528891646881481,0
394,2024-09-16 21:56:58.587709952,TASK_BEGIN,007,-0.24360567365846586,-0.3163278352684305,-1.200002485758019,0.1376520411623416,-10.424738887018897,1.8371838283342332,-31.07340818700127,4.373828334902267,0
395,2024-09-16 21:56:58.643356928,TASK_BEGIN,007,-0.21730628618146688,-0.3062793395506945,-1.292248738101834,0.08901752169435219,-10.542284272193493,1.7934804427591304,-31.655574112073726,4.228367966606449,0
396,2024-09-16 21:56:58.723356928,TASK_BEGIN,007,-0.1920576249122698,-0.29680207389738356,-1.386390452440774,0.04871448493857906,-10.572762166281397,1.74756878064428,-32.41098641912009,4.101440698808405,0
397,2024-09-16 21:56:59.667180288,TASK_BEGIN,007,-0.16896211593227786,-0.2878670193863438,-1.4748902404507094,0.017141942394687127,-10.507390250212964,1.7003248426935047,-33.31105085246693,3.9995400446938594,0
398,2024-09-16 21:56:59.719928832,TASK_BEGIN,007,-0.14902631737218663,-0.2794642620169963,-1.5504008545154435,-0.005591654781399587,-10.34093043266947,1.6528917426659369,-34.30969340435159,3.925436098862634,0
399,2024-09-16 21:56:59.797585920,TASK_BEGIN,007,-0.13302113337231453,-0.2716171949773749,-1.6065798350035991,-0.01953853067516217,-10.072755168712169,1.6065755986247066,-35.34682097417117,3.8776737328470468,0
400,2024-09-16 21:56:59.859113984,TASK_BEGIN,007,-0.12134737035580505,-0.26437467291135536,-1.6388770231531915,-0.02480822180156629,-9.70781199810362,1.562774012349066,-36.352984541228516,3.8506768853154454,0
401,2024-09-16 21:56:59.938235136,TASK_BEGIN,007,-0.11396711386896154,-0.2577932533585378,-1.6450583663751623,-0.0215240872019542,-9.25708187067312,1.5229028377172813,-37.25421486088364,3.8351735505597824,0
402,2024-09-16 21:56:59.998395136,TASK_BEGIN,007,-0.11042813259195887,-0.2519243814330119,-1.6253455399716914,-0.009857135079874879,-8.737205035556627,1.4882986250501882,-37.976233750446745,3.8189248096742214,0
403,2024-09-16 21:57:00.060880896,TASK_BEGIN,007,-0.10995481566134495,-0.24681148280270065,-1.582170243467511,0.009861358883946594,-8.169263309616516,1.4601214874407071,-38.44774101419339,3.7877956683775613,0
404,2024-09-16 21:57:01.016819968,TASK_BEGIN,007,-0.11156294107066012,-0.24248966669002026,-1.519605635322195,0.03697062418770328,-7.577067353862512,1.4393141409963284,-38.60353038825685,3.72700949513191,0
405,2024-09-16 21:57:01.083364096,TASK_BEGIN,007,-0.11418005407976126,-0.23897687282546876,-1.4426478243443603,0.07032371295482424,-6.985438070399929,1.4266361632603157,-38.388761972900696,3.622519763662101,0
406,2024-09-16 21:57:01.150995200,TASK_BEGIN,007,-0.11677365786524384,-0.23625207934778694,-1.3565675183815273,0.10823174388062942,-6.4187770338549575,1.422734302169349,-37.765221725259586,3.462636206788375,0
407,2024-09-16 21:57:01.207083008,TASK_BEGIN,007,-0.11848352553446598,-0.2342292130210853,-1.2664147858557833,0.14854755500759106,-5.899931865977123,1.428219279545527,-36.71896439164835,3.239762151696817,0
408,2024-09-16 21:57:01.287958016,TASK_BEGIN,007,-0.11873939626063054,-0.23274435309330804,-1.1766209335053859,0.18886205209060797,-5.449237569939227,1.4437460575380792,-35.26723282376843,2.9517474376336454,0
409,2024-09-16 21:57:01.346764288,TASK_BEGIN,007,-0.117342037788738,-0.2315686442395921,-1.0907094371607842,0.22676575407738778,-5.08362412468046,1.4700526035400152,-33.46230250239956,2.6025679732384255,0
410,2024-09-16 21:57:01.423518720,TASK_BEGIN,007,-0.1144891999331981,-0.23044415248674394,-1.0112258403603718,0.2601268945607834,-4.8157272638335815,1.5078754467768896,-31.39072188139047,2.2023376392900698,0
411,2024-09-16 21:57:02.357342976,TASK_BEGIN,007,-0.11072660650646265,-0.22913006035870107,-0.9398811960694574,0.28732011187892054,-4.653021765170961,1.5577160741436182,-29.167257634472232,1.7666297033273592,0
412,2024-09-16 21:57:02.434518016,TASK_BEGIN,007,-0.10681874177358756,-0.22744743815836807,-0.8777507951955684,0.3073413297228222,-4.597170582903922,1.6195355756578529,-26.924122597279844,1.3152050821591137,0
413,2024-09-16 21:57:02.496544000,TASK_BEGIN,007,-0.10357796298418619,-0.22531389475359279,-0.8254142633402206,0.3197969490308438,-4.643988623668494,1.6925213511682249,-24.798425362887134,0.8705727720908586,0
414,2024-09-16 21:57:02.570248960,TASK_BEGIN,007,-0.10171948399796754,-0.22276000869682228,-0.7830511261746866,0.3248143175990573,-4.784280293659204,1.7750266375575898,-22.92185537291268,0.4567316335579335,0
415,2024-09-16 21:57:02.626550016,TASK_BEGIN,007,-0.1017847140042556,-0.2199227888508794,-0.7505422962790798,0.32293236084623556,-5.0053174538330305,1.8646545871285627,-21.413636192596798,0.09800015905159268,0
416,2024-09-16 21:57:02.704998912,TASK_BEGIN,007,-0.10412593917558896,-0.21701830297232258,-0.7275778811403626,0.315003641233561,-5.292559719296602,1.9584068553595544,-20.37382046582168,-0.1823344496772176,0
417,2024-09-16 21:57:02.766625024,TASK_BEGIN,007,-0.10892083645980578,-0.21430000363566948,-0.71371665602347,0.3021123557078845,-5.631442919502023,2.0528834643324694,-19.874229631824875,-0.36367047614222076,0
418,2024-09-16 21:57:03.692065024,TASK_BEGIN,007,-0.11619122416546038,-0.21201251437062293,-0.7083561237111305,0.285502633130792,-6.009048191990462,2.1445513029447563,-19.948115386321714,-0.4300367407493864,0
419,2024-09-16 21:57:03.752855040,TASK_BEGIN,007,-0.12581915679601272,-0.21035408164549566,-0.7106527589579569,0.266501935694093,-6.415272484183463,2.2300506351037015,-20.582488110055667,-0.37218304941535546,0
420,2024-09-16 21:57:03.814726144,TASK_BEGIN,007,-0.13756985441701927,-0.20945696039054856,-0.7194754046877575,0.2464176752700568,-6.8432330813038815,2.30650263454862,-21.716452866522722,-0.189468903920944,0
421,2024-09-16 21:57:03.892833024,TASK_BEGIN,007,-0.15112395917178809,-0.2093856061269745,-0.733440590828996,0.22640822032543967,-7.288973792172689,2.3718267730540457,-23.24609585245544,0.1089324589670828,0
422,2024-09-16 21:57:03.960625920,TASK_BEGIN,007,-0.1660969597110409,-0.21014855752990524,-0.751010226365802,0.20735982977552353,-7.750644285332137,2.4250512064112413,-25.034789376900807,0.5039842158289637,0
423,2024-09-16 21:57:04.017492992,TASK_BEGIN,007,-0.18202476609288454,-0.21171978837557934,-0.7705558547729898,0.18978776566062214,-8.227151313922054,2.466509621869163,-26.927874452733548,0.9682237708557482,0
424,2024-09-16 21:57:04.094706944,TASK_BEGIN,007,-0.1983288051399059,-0.2140629579681778,-0.7903353028749345,0.17376507688676757,-8.716329461489895,2.49780470116993,-28.770403631728957,1.468781509907509,0
425,2024-09-16 21:57:05.042358016,TASK_BEGIN,007,-0.21429912916349236,-0.2171503388636199,-0.8085092520721335,0.1589245152553566,-9.213122700776687,2.521505800231761,-30.425520582591968,1.971734466307372,0
426,2024-09-16 21:57:05.110484992,TASK_BEGIN,007,-0.22912669820083673,-0.22096986287197823,-0.8233434338890824,0.14459806580024515,-9.708532614769043,2.5406524332556066,-31.7898943732283,2.4470405416779935,0
427,2024-09-16 21:57:05.178173952,TASK_BEGIN,007,-0.24198556186311398,-0.225517162728136,-0.8335359475655651,0.13008294647022467,-10.189705976225799,2.5581899597069717,-32.802322562089074,2.872778135631874,0
428,2024-09-16 21:57:05.243916032,TASK_BEGIN,007,-0.25213506105167116,-0.23077418801728,-0.8385134095665308,0.11493315612739934,-10.640904020737308,2.5764474904161614,-33.444155741880934,3.237551572905451,0
429,2024-09-16 21:57:05.305937920,TASK_BEGIN,007,-0.25901038753665684,-0.2366804377692879,-0.838601232521153,0.0991527658144942,-11.044886124721373,2.596729830658903,-33.734288203115085,3.540804029058086,0
430,2024-09-16 21:57:05.367607296,TASK_BEGIN,007,-0.26229361887556985,-0.24310557292866658,-0.8350069693539807,0.08321468616334737,-11.38442619129007,2.6190919062721765,-33.7225350206944,3.791522557539183,0
431,2024-09-16 21:57:05.445257728,TASK_BEGIN,007,-0.26197020288915474,-0.24983324340274843,-0.8296036760765941,0.06792512543734214,-11.64388889898868,2.6423738196084368,-33.483314950779445,4.006067491639742,0
432,2024-09-16 21:57:06.367812096,TASK_BEGIN,007,-0.25836704532825006,-0.2565615851377873,-0.8246152007537354,0.05423382747531229,-11.810871361130129,2.664526587990145,-33.109984594914295,4.205823900238504,0
433,2024-09-16 21:57:06.435521024,TASK_BEGIN,007,-0.25215508933866865,-0.2629163744652569,-0.8223912157046716,0.04309742125482075,-11.877757134726755,2.683123385817135,-32.709266693931276,4.414938005927538,0
434,2024-09-16 21:57:06.503355904,TASK_BEGIN,007,-0.2442928692607015,-0.26847172566582955,-0.8253960422588476,0.035445000811527044,-11.842764897735648,2.695848094642758,-32.394441849308,4.657814748143666,0
435,2024-09-16 21:57:06.570663936,TASK_BEGIN,007,-0.23590220037915283,-0.2727820262639468,-0.8362997942104521,0.03220702922700115,-11.710089641865235,2.7008186483706256,-32.27601101365883,4.956050959152095,0
436,2024-09-16 21:57:06.637762816,TASK_BEGIN,007,-0.22810403867364704,-0.2754279418303044,-0.8579235942103568,0.03432820888586978,-11.489068898876436,2.6967439999816794,-32.44954241441969,5.3250634038321465,0
437,2024-09-16 21:57:06.699889920,TASK_BEGIN,007,-0.22186289867111644,-0.276066990748712,-0.8929627610861828,0.042732044850143425,-11.192651987336008,2.682970291188696,-32.98235418643976,5.771137557788214,0
438,2024-09-16 21:57:06.761419008,TASK_BEGIN,007,-0.21787088283088207,-0.2744747963289842,-0.9436208144484469,0.05825588767323496,-10.8356291076038,2.6594642315715444,-33.902744034545755,6.28961492792606,0
439,2024-09-16 21:57:07.715121152,TASK_BEGIN,007,-0.2164789285516438,-0.2705692524396883,-1.0112734683164033,0.08157031773250781,-10.433099752177146,2.626775109000239,-35.195187105445704,6.864571633242414,0
440,2024-09-16 21:57:07.785636096,TASK_BEGIN,007,-0.2176752221007301,-0.26441619276416806,-1.0961666475455651,0.11308211313780837,-9.999454826188753,2.585994515055171,-36.80223061554542,7.469879925861475,0
441,2024-09-16 21:57:07.853420800,TASK_BEGIN,007,-0.2211114828124598,-0.2562197848220116,-1.1971286986598022,0.1528316490460085,-9.547763683877063,2.5387060624692537,-38.63193022948123,8.071316861142984,0
442,2024-09-16 21:57:07.921198848,TASK_BEGIN,007,-0.22617882954186902,-0.24630429579264865,-1.3113816675223315,0.20041308510955952,-9.089360830945452,2.486937406084836,-40.56957576707148,8.629513398615025,0
443,2024-09-16 21:57:07.978969856,TASK_BEGIN,007,-0.2321221739684696,-0.2350939770877654,-1.4345744423929847,0.2549364304887684,-8.633658661712355,2.4331443375986006,-42.4922876465148,9.10372137026416,0
444,2024-09-16 21:57:08.056596992,TASK_BEGIN,007,-0.2381590916332648,-0.22309212377032686,-1.5610015032733373,0.3150206778566473,-8.188206013803535,2.3801924320531542,-44.28416750062141,9.456202262646386,0
445,2024-09-16 21:57:08.118596864,TASK_BEGIN,007,-0.24357032794066263,-0.21085368623038497,-1.683906423683525,0.37881003477728276,-7.758894195285809,2.3312507428952594,-45.849311040388336,9.656588159053808,0
446,2024-09-16 21:57:09.055650816,TASK_BEGIN,007,-0.24775920240631732,-0.19895016317398934,-1.7959334460768392,0.44403818311183346,-7.350369645083985,2.2895871666848686,-47.12106957114028,9.68533048842151,0
447,2024-09-16 21:57:09.132847872,TASK_BEGIN,007,-0.2502968026185521,-0.1879366309026961,-1.8898218008038548,0.508156972681269,-6.966692876622209,2.258329498534317,-48.067339002677315,9.535455581057228,0
448,2024-09-16 21:57:09.194354944,TASK_BEGIN,007,-0.25095677627580937,-0.17833055199524128,-1.9592356964963218,0.568505085193699,-6.611983429625608,2.2401997248193655,-48.69161262449217,9.212207780594891,0
449,2024-09-16 21:57:09.257335040,TASK_BEGIN,007,-0.24972259976314345,-0.1705996185413854,-1.9994923949864283,0.6224906269719699,-6.290856179966637,2.2371855013363118,-49.02892985364587,8.730952203394823,0
450,2024-09-16 21:57:09.337886976,TASK_BEGIN,007,-0.24675470957512768,-0.1651461232144767,-2.0080116034646727,0.6677859890537217,-6.008766526884609,2.250204148634434,-49.13699977158764,8.114450251818033,0
451,2024-09-16 21:57:09.397092096,TASK_BEGIN,007,-0.24232770900159536,-0.16227804786483355,-1.984458279117957,0.7025279051096662,-5.772309181241884,2.2788962176501832,-49.084681474005194,7.390369039397695,0
452,2024-09-16 21:57:09.459300096,TASK_BEGIN,007,-0.23676144244100222,-0.16216982665963717,-1.930650305261173,0.7254891499423348,-5.58923583240217,2.321647072579672,-48.939959950927665,6.589002281693107,0
453,2024-09-16 21:57:10.416975104,TASK_BEGIN,007,-0.23036866555064964,-0.16482624196769724,-1.8502748636567983,0.7361839180618738,-5.4680111630103605,2.3758623927809928,-48.75869049006055,5.740915125326787,0
454,2024-09-16 21:57:10.473594112,TASK_BEGIN,007,-0.2234318869528229,-0.17006182994931662,-1.7484336397136768,0.7349018667118082,-5.4170469978778435,2.438462576452183,-48.57577854965528,4.874624210476669,0
455,2024-09-16 21:57:10.552562944,TASK_BEGIN,007,-0.21620584646014623,-0.17749886282107502,-1.6311303127580619,0.7227067247929534,-5.4438470695422465,2.506461387122741,-48.400924351486765,4.014692849057291,0
456,2024-09-16 21:57:10.619110144,TASK_BEGIN,007,-0.20892688961715197,-0.18658144826916043,-1.5048282852635328,0.7014284660211113,-5.554119280441073,2.5774296320629757,-48.22039888015601,3.1806640222083544,0
457,2024-09-16 21:57:10.688061952,TASK_BEGIN,007,-0.2018030415260541,-0.19660806976262069,-1.3760367491082455,0.6736107478916817,-5.750950718708601,2.6497546513609858,-48.00451122103417,2.387074618720995,0
458,2024-09-16 21:57:10.755732224,TASK_BEGIN,007,-0.19496791669043986,-0.2067890525804614,-1.2508212555059168,0.6423312900079436,-6.0343157571707176,2.7227719036108913,-47.717686670549156,1.644259912375524,0
459,2024-09-16 21:57:10.820328960,TASK_BEGIN,007,-0.1884140235613746,-0.2163271929729962,-1.1343373324613837,0.6108741917750966,-6.401005706200202,2.796838943954221,-47.32654304507023,0.9592956776069641,0
460,2024-09-16 21:57:11.760320000,TASK_BEGIN,007,-0.18195543941197403,-0.22450524835059665,-1.0306332559931752,0.582334111777679,-6.844788686385758,2.873313765510394,-46.803061084258225,0.33653500050610186,0
461,2024-09-16 21:57:11.821971968,TASK_BEGIN,007,-0.1752639028730435,-0.23075703235333048,-0.9427696637997579,0.5592456317048606,-7.356650399120617,2.9543662007443983,-46.12361483271545,-0.2224740789082727,0
462,2024-09-16 21:57:11.899128832,TASK_BEGIN,007,-0.1679700578883761,-0.23470818315472441,-0.872984668951898,0.5432750908580016,-7.925084763529988,3.042587289926365,-45.2670042378906,-0.7193695483378844,0
463,2024-09-16 21:57:11.961614080,TASK_BEGIN,007,-0.1597794164284813,-0.23619008896612584,-0.8226238071889208,0.5349956337196452,-8.53642866575496,3.140440776049225,-44.2138681741283,-1.15892173302415,0
464,2024-09-16 21:57:12.023623936,TASK_BEGIN,007,-0.1505644701595568,-0.23523547632900801,-0.7918449371584079,0.5337905254434883,-9.175295484436438,3.2497032548116436,-42.9481018129155,-1.5480493907253903,0
465,2024-09-16 21:57:12.105932800,TASK_BEGIN,007,-0.14042678746092374,-0.2320570428097063,-0.7793429908246173,0.5379233017808288,-9.825135111411756,3.3710414098617707,-41.460744435535716,-1.8939989908372643,0
466,2024-09-16 21:57:12.161907968,TASK_BEGIN,007,-0.12972944564917188,-0.2270092819942286,-0.7823293225969729,0.5447688701461745,-10.468746034535231,3.50375270885515,-39.75626547102718,-2.2021663709011827,0
467,2024-09-16 21:57:13.104467968,TASK_BEGIN,007,-0.11908991568734,-0.2205398929866019,-0.7967841398545383,0.5511555472207109,-11.088564293054004,3.6456338018979437,-37.85842175204294,-2.474341648563128,0
468,2024-09-16 21:57:13.178599168,TASK_BEGIN,007,-0.10932121816755096,-0.21314198646449659,-0.8177957714734401,0.5537524358998613,-11.666977743109586,3.793033435068368,-35.811317712005604,-2.708343989956035,0
469,2024-09-16 21:57:13.240248064,TASK_BEGIN,007,-0.10131876949624577,-0.2053180504767788,-0.8398514131687713,0.5494555318308376,-12.187191966269388,3.941215385559449,-33.67424387268811,-2.8993443430557915,0
470,2024-09-16 21:57:13.317441792,TASK_BEGIN,007,-0.09591222423007373,-0.19755804030499002,-0.8571468865068098,0.5357494791233993,-12.634768504720787,4.085030307733194,-31.51358589897926,-3.04196029691014,0
471,2024-09-16 21:57:13.388184064,TASK_BEGIN,007,-0.09372404816467517,-0.19032203641438533,-0.8640283508044129,0.5110139982701963,-12.999296312183239,4.21968023344357,-29.396494474540617,-3.131974635896903,0
472,2024-09-16 21:57:13.442003968,TASK_BEGIN,007,-0.09507216201805319,-0.18401739154280813,-0.8555198993809924,0.47471760232012783,-13.275450583107197,4.341287201918253,-27.38814497452056,-3.1673768432206306,0
473,2024-09-16 21:57:13.520564992,TASK_BEGIN,007,-0.09992318619464395,-0.17897278778517298,-0.827755899583002,0.42744931446624285,-13.463006004376282,4.447132425058,-25.550851739796926,-3.148989642228465,0
474,2024-09-16 21:57:14.441373952,TASK_BEGIN,007,-0.10788153258121139,-0.17542052687172796,-0.7781801693033157,0.37079155912925615,-13.56583522908039,4.535654674448699,-23.942464858606233,-3.0807263645742498,0
475,2024-09-16 21:57:14.503367936,TASK_BEGIN,007,-0.11820556630949401,-0.17349375350039667,-0.7055140137418898,0.3070796033048746,-13.590301592533434,4.606365014470272,-22.613152797981357,-2.969245171117253,0
476,2024-09-16 21:57:14.577213184,TASK_BEGIN,007,-0.12985267477278722,-0.17323639671087768,-0.6096038381252294,0.23910435396851065,-13.543672632418678,4.659759288142893,-21.601191078651656,-2.8229948791976165,0
477,2024-09-16 21:57:14.631580928,TASK_BEGIN,007,-0.14155284522651393,-0.1746192876811644,-0.49129389860307265,0.16982603711994004,-13.433056042897308,4.6972342378961445,-20.928738745658322,-2.650983983073267,0
478,2024-09-16 21:57:14.712781056,TASK_BEGIN,007,-0.15190727967600984,-0.17755505116792872,-0.35240723564138315,0.1021599262983894,-13.264886883183843,4.720971122257563,-20.598820639657088,-2.4615596383960368,0
479,2024-09-16 21:57:14.780471296,TASK_BEGIN,007,-0.15951002925628294,-0.1819074418634915,-0.19577558799974942,0.03883361358261509,-13.044667016756286,4.733739346491073,-20.594602966316526,-2.2614197791948105,0
480,2024-09-16 21:57:14.847965952,TASK_BEGIN,007,-0.16308588252958575,-0.18749748539391767,-0.025182114257246188,-0.01774816848132805,-12.776821317955168,4.738618142447859,-20.880958570710703,-2.0552159885329067,0
481,2024-09-16 21:57:15.788146944,TASK_BEGIN,007,-0.16162754388884568,-0.19411324536050528,0.15481553030368994,-0.06567089452347254,-12.464805694612664,4.7386894374831,-21.407621945014764,-1.8459828455049818,0
482,2024-09-16 21:57:15.850635008,TASK_BEGIN,007,-0.1545083830735492,-0.2015285808430013,0.339073557768071,-0.10366415703453369,-12.111541947290018,4.736739007185245,-22.113523015667283,-1.6361692577166123,0
483,2024-09-16 21:57:15.912653056,TASK_BEGIN,007,-0.14154950620346382,-0.20952878452596815,0.5219683915095313,-0.13116154408688688,-11.720063992958123,4.734955532793162,-22.93224202776484,-1.4286161781527011,0
484,2024-09-16 21:57:15.995665920,TASK_BEGIN,007,-0.12303422799136435,-0.21793245650793047,0.6974349684327874,-0.1482404860154267,-11.294233479378185,4.73465651003286,-23.798913337470665,-1.2267202457538857,0
485,2024-09-16 21:57:16.052344064,TASK_BEGIN,007,-0.09967948652539482,-0.22659941205102255,0.8590086135500914,-0.15548954837889487,-10.83941015876619,4.736175122472171,-24.65884978907999,-1.0335371925121346,0
486,2024-09-16 21:57:16.131156992,TASK_BEGIN,007,-0.07257788377209609,-0.23542469967436433,0.9999356149745281,-0.153861071399349,-10.362915174127812,4.739048782878918,-25.476647567703417,-0.8504614867054385,0
487,2024-09-16 21:57:16.192007168,TASK_BEGIN,007,-0.04311739672337641,-0.24432704047214762,1.113359954520201,-0.1445153469699665,-9.8740769660463,4.742494422604028,-26.242721366129793,-0.6764163181942534,0
488,2024-09-16 21:57:17.142405120,TASK_BEGIN,007,-0.012878968971795546,-0.2532389030318336,1.1925374084998253,-0.12862994724705037,-9.383721426658678,4.74596779960799,-26.974136814956555,-0.5079687060339794,0
489,2024-09-16 21:57:17.199342080,TASK_BEGIN,007,0.016490641512155704,-0.2621005251823223,1.2310976102326034,-0.10720146763744116,-8.903208132437749,4.749555578225947,-27.70850638316816,-0.34026607791934216,0
490,2024-09-16 21:57:17.276506880,TASK_BEGIN,007,0.04342843621939616,-0.2708590639236987,1.2234869580258985,-0.08094568170092963,-8.443325390086164,4.754075948199442,-28.492753132417807,-0.16846148620471424,0
491,2024-09-16 21:57:17.338552064,TASK_BEGIN,007,0.0666091631643237,-0.27947561386253494,1.1656399845059686,-0.05036716194893448,-8.013320571014924,4.760940288368281,-29.37163884451156,0.011110757393161315,0
492,2024-09-16 21:57:17.400585984,TASK_BEGIN,007,0.08506789621567333,-0.28793963105284137,1.0557083107943672,-0.01593521309848385,-7.62025599634575,4.771933205388301,-30.38153162588728,0.20097800014085881,0
493,2024-09-16 21:57:17.481243904,TASK_BEGIN,007,0.09825330524403969,-0.29628213270725173,0.8945868089632933,0.02175781396905458,-7.268895578332622,4.789069874479957,-31.55076911736528,0.40389127845285927,0
494,2024-09-16 21:57:17.540297216,TASK_BEGIN,007,0.10600059269822591,-0.304577157789559,0.6860623689421965,0.06191689018634096,-6.962145615383284,4.814565667804599,-32.902409803392324,0.6242672251931813,0
495,2024-09-16 21:57:18.455655936,TASK_BEGIN,007,0.10845396803961407,-0.31292942100708193,0.43658969914465867,0.10353521061870526,-6.701715272703711,4.850779913190022,-34.45412476240824,0.868379957814083,0
496,2024-09-16 21:57:18.532814848,TASK_BEGIN,007,0.10598573194798132,-0.321454763587353,0.15487694481855996,0.1454332622376273,-6.488561035672747,4.899974488331882,-36.21381095520843,1.1432120995408803,0
497,2024-09-16 21:57:18.596287232,TASK_BEGIN,007,0.09913583860233419,-0.3302624322071409,-0.14854726137869778,0.1863300569343108,-6.322872585469054,4.963884439391058,-38.17336177931409,1.4548455838001972,0
498,2024-09-16 21:57:18.658772992,TASK_BEGIN,007,0.08855831256957516,-0.33944607135403815,-0.46183278381365656,0.2249405191350676,-6.203653270717011,5.043246677175074,-40.30373340615692,1.8071445090515208,0
499,2024-09-16 21:57:18.736551936,TASK_BEGIN,007,0.07495217926716886,-0.34908498359114865,-0.7725176924403317,0.2601002947269655,-6.128216128217292,5.137453882470983,-42.552635105449404,2.200933982533672,0
500,2024-09-16 21:57:18.806179072,TASK_BEGIN,007,0.05897797711567024,-0.35924952315245556,-1.0684262857754765,0.2909073173630899,-6.091931839530793,5.244409041208937,-44.84463368110228,2.633669264702234,0
501,2024-09-16 21:57:18.861268992,TASK_BEGIN,007,0.041182397118717705,-0.3699987773713694,-1.3385829607661417,0.31685239690636424,-6.088392790873401,5.360561398449369,-47.08433465761077,3.099643012365299,0
502,2024-09-16 21:57:19.817584896,TASK_BEGIN,007,0.021963106050572653,-0.38136358124010955,-1.5739725498508028,0.33790630935220667,-6.110080102304773,5.481108044276059,-49.164412891864124,3.5907305047680103,0
503,2024-09-16 21:57:19.885467904,TASK_BEGIN,007,0.0016009693826015824,-0.3933229130947008,-1.768027501682881,0.35453111554240635,-6.149490842781903,5.600380755733553,-50.97814827261351,4.09747520659049,0
504,2024-09-16 21:57:19.951117056,TASK_BEGIN,007,-0.019648402904168777,-0.4057900596566938,-1.916822083795556,0.3675957302820008,-6.2003456980355205,5.712398412260402,-52.432941732500794,4.610157203990474,0
505,2024-09-16 21:57:20.015038976,TASK_BEGIN,007,-0.04145504814055067,-0.4186165824378817,-2.0190558609370264,0.37821266063849085,-6.258415177571471,5.811508386126344,-53.46115839492158,5.119490559840482,0
506,2024-09-16 21:57:20.074960896,TASK_BEGIN,007,-0.06336114855291491,-0.43160796642362886,-2.0758500674250797,0.3875407593864193,-6.3219321892532605,5.893042899911795,-54.026828422094795,5.616767016913306,0
507,2024-09-16 21:57:20.152633856,TASK_BEGIN,007,-0.0847881578127358,-0.44453920332557567,-2.0902442992947403,0.39658258634264953,-6.391830713734813,5.953903460975653,-54.128491728921574,6.093535992666992,0
508,2024-09-16 21:57:20.214707968,TASK_BEGIN,007,-0.10508201615464913,-0.45716410740140706,-2.066349145472859,0.4059880721214311,-6.471701270635086,5.99292688986263,-53.799048191427076,6.541167408440719,0
509,2024-09-16 21:57:21.153811968,TASK_BEGIN,007,-0.12356839761110504,-0.46922252723629515,-2.0083766834502463,0.4158973142170844,-6.567049850616703,6.010913666203758,-53.10330710054272,6.950753262288391,0
510,2024-09-16 21:57:21.231046912,TASK_BEGIN,007,-0.13959900463269936,-0.4804561776871487,-1.9199038178352397,0.42586783960123364,-6.683814903486433,6.010349851027699,-52.13328890684236,7.313552222638017,0
511,2024-09-16 21:57:21.292335872,TASK_BEGIN,007,-0.15257565181771254,-0.4906400194055424,-1.8035928947501108,0.4349153921924645,-6.826666771164665,5.994972862647499,-51.00079933058467,7.621647406726991,0
512,2024-09-16 21:57:21.370838016,TASK_BEGIN,007,-0.16195135772855024,-0.4996224805267671,-1.6613899818279767,0.44167789710871086,-6.997639057400432,5.969306033729131,-49.82714894316949,7.868273827950796,0
513,2024-09-16 21:57:21.438585088,TASK_BEGIN,007,-0.16723183275069306,-0.5073543516454881,-1.495089295431732,0.4446721666390805,-7.195237445233092,5.938184930395221,-48.7305976756784,8.047592262582866,0
514,2024-09-16 21:57:21.506395904,TASK_BEGIN,007,-0.16801422723601483,-0.5138864130455879,-1.3070887271837968,0.44256360500814607,-7.414018541835764,5.90626115947971,-47.81322003595063,8.154175404609845,0
515,2024-09-16 21:57:21.574085888,TASK_BEGIN,007,-0.1640772659257827,-0.5193345262301848,-1.1011011680093792,0.4343770786871514,-7.644818887581675,5.8775238753052275,-47.15077047343679,8.182807225937626,0
516,2024-09-16 21:57:22.517677056,TASK_BEGIN,007,-0.15549272942712003,-0.5238328093643756,-0.8825260069562325,0.4196285845223238,-7.87578705676534,5.854934900748124,-46.788576185195105,8.129003001448996,0
517,2024-09-16 21:57:22.576965120,TASK_BEGIN,007,-0.1427101780800937,-0.5274973650493875,-0.6582745732267684,0.39837886325374194,-8.09399237120778,5.840262156448181,-46.74241512715865,7.990025708213397,0
518,2024-09-16 21:57:22.641603072,TASK_BEGIN,007,-0.1265827897748087,-0.5304059850693525,-0.4361190028553156,0.37120211116549606,-8.28713119423121,5.834129083989342,-47.00081257910857,7.765862061945319,0
519,2024-09-16 21:57:22.720413184,TASK_BEGIN,007,-0.10832055219096044,-0.5325870968343833,-0.22385264663486568,0.33907438150450125,-8.444969803520697,5.836236457985438,-47.5262156522769,7.459773523617161,0
520,2024-09-16 21:57:22.782226944,TASK_BEGIN,007,-0.0893741563048634,-0.5340143692325733,-0.028538834277623087,0.30322353169363314,-8.560378217924399,5.845684835525303,-48.25464265048889,7.078251782312443,0
521,2024-09-16 21:57:22.844713984,TASK_BEGIN,007,-0.07127758901722948,-0.5346111869214709,0.1440344149319459,0.26500051040232314,-8.62989737888085,5.861299420191569,-49.09601518098795,6.630475248775295,0
522,2024-09-16 21:57:22.921551104,TASK_BEGIN,007,-0.05549127721466925,-0.5342701918027526,0.28972895514484515,0.22579256636046133,-8.653837223114683,5.8818533461807005,-49.93847312140711,6.127527108381951,0
523,2024-09-16 21:57:23.863702016,TASK_BEGIN,007,-0.043271665548417104,-0.5328860128325213,0.40632132361901135,0.18694295496339422,-8.635971430842549,5.906147913960089,-50.6569662819242,5.581368804831433,0
524,2024-09-16 21:57:23.935614976,TASK_BEGIN,007,-0.035564833530025874,-0.5303900609118308,0.4936250006498464,0.1496438983370823,-8.582860226338136,5.932983282029895,-51.12332159441964,5.003438381011322,0
525,2024-09-16 21:57:24.003396864,TASK_BEGIN,007,-0.032922298423268756,-0.5267719627445212,0.5533729978855801,0.11482646674915944,-8.502759081478029,5.961067782137634,-51.21660540706426,4.403413254948206,0
526,2024-09-16 21:57:24.071110144,TASK_BEGIN,007,-0.03546032753387711,-0.5220790287259205,0.5888097912032161,0.08310623397962845,-8.404172908650503,5.988899131532273,-50.83569343956066,3.789238893077783,0
527,2024-09-16 21:57:24.126880768,TASK_BEGIN,007,-0.042879226371805086,-0.5164013388718419,0.6040483318146307,0.05480890233797218,-8.294388212667153,6.014659584884012,-49.91473034839149,3.1687966462684423,0
528,2024-09-16 21:57:24.204144896,TASK_BEGIN,007,-0.0545310907554358,-0.5098598585168737,0.603344988919864,0.030041502690521305,-8.178481702118084,6.036188542932614,-48.43734160724412,2.552241648172149,0
529,2024-09-16 21:57:24.274331904,TASK_BEGIN,007,-0.06951786125595207,-0.502605655686535,0.5904561847973299,0.008771183236257108,-8.059127484638319,6.051076211221514,-46.44323054261348,1.9535990112953119,0
530,2024-09-16 21:57:25.184070144,TASK_BEGIN,007,-0.08680890417632149,-0.4948200498807677,0.568164093766974,-0.009093932827535185,-7.937119039251557,6.056863005222142,-44.02392991398957,1.39082431513246,0
531,2024-09-16 21:57:25.260014848,TASK_BEGIN,007,-0.10536332273520008,-0.48670114853694824,0.5380348347272195,-0.02363896288481895,-7.812256121862823,6.051313497975401,-41.30915133512897,0.8842898133197102,0
532,2024-09-16 21:57:25.323331072,TASK_BEGIN,007,-0.12423757357502462,-0.4784377032374711,0.5005041594207721,-0.034935199168698756,-7.684326224120867,6.03276126087445,-38.44795990899536,0.4541510614975724,0
533,2024-09-16 21:57:25.395464192,TASK_BEGIN,007,-0.14266226704337717,-0.4701869946352557,0.4552850468862835,-0.043088731497457906,-7.5541340299393775,6.000497366324321,-35.59015372726416,0.11751998479625202,0
534,2024-09-16 21:57:25.463088896,TASK_BEGIN,007,-0.160074946199759,-0.462069773308811,0.4019169877741615,-0.04827713475571121,-7.42452580312722,5.955107677888762,-32.87246051539666,-0.11340907363543211,0
535,2024-09-16 21:57:25.524956928,TASK_BEGIN,007,-0.17610465230591743,-0.45417760889447323,0.34027416142570227,-0.050739614752385705,-7.301036123262655,5.898633955168413,-30.41108601949407,-0.23172568205516514,0
536,2024-09-16 21:57:25.598801920,TASK_BEGIN,007,-0.19051947944934322,-0.44657834937441443,0.2709420890371383,-0.05076175355565269,-7.191608249049213,5.8344659094146225,-28.299035959019903,-0.23516051963791387,0
537,2024-09-16 21:57:26.534304000,TASK_BEGIN,007,-0.20315444407666303,-0.4393132973314857,0.19534654016163813,-0.0486778876154709,-7.105320137446663,5.766981976590398,-26.605513787582797,-0.12546713745365917,0
538,2024-09-16 21:57:26.604329216,TASK_BEGIN,007,-0.21384129917715775,-0.4323927389825717,0.11552131636445942,-0.04483800672363056,-7.050785298970162,5.701091740864846,-25.375668950166208,0.09151131514150979,0
539,2024-09-16 21:57:26.673330176,TASK_BEGIN,007,-0.22236748432697084,-0.42580047014066474,0.03361907955068423,-0.0394957885181127,-7.034930260009379,5.641821384331314,-24.631121657987983,0.40526696940287216,0
540,2024-09-16 21:57:26.745151232,TASK_BEGIN,007,-0.2284786974020521,-0.4195109658592359,-0.048532671687440174,-0.03266048520518306,-7.062230468736735,5.593928950069742,-24.372392104541877,0.8001775840096619,0
541,2024-09-16 21:57:26.805635072,TASK_BEGIN,007,-0.23191715787546596,-0.4135104304056723,-0.12960163359879617,-0.024000190740643423,-7.134148458363281,5.561477952248851,-24.582780473357303,1.255719644035346,0
542,2024-09-16 21:57:26.868120064,TASK_BEGIN,007,-0.2324750211170128,-0.4078074153153315,-0.208619131039663,-0.012861744589983235,-7.248743815867125,5.547404005297129,-25.232537293932907,1.747779951148583,0
543,2024-09-16 21:57:26.945782016,TASK_BEGIN,007,-0.23003886113487224,-0.40242912482521775,-0.2846388128064711,0.0015814136211061538,-7.40070568726195,5.553186411955695,-26.28285542277642,2.2511566045439526,0
544,2024-09-16 21:57:27.892550912,TASK_BEGIN,007,-0.2246078880017499,-0.3974148564753,-0.35633609070490585,0.02009829290030352,-7.581979571857375,5.578683594203162,-27.688963823469003,2.7424809211187617,0
545,2024-09-16 21:57:27.958328832,TASK_BEGIN,007,-0.2162819517027073,-0.3928189929256342,-0.42175855912175064,0.04316130125055779,-7.782809093493339,5.622114708144909,-29.401608238970198,3.2025363921477656,0
546,2024-09-16 21:57:28.022042112,TASK_BEGIN,007,-0.20522777799461006,-0.388721043692607,-0.47841476883599626,0.07077215487249576,-7.992815770456503,5.680171306186622,-31.367619997363033,3.617738945364268,0
547,2024-09-16 21:57:28.082508032,TASK_BEGIN,007,-0.1916456984168545,-0.38522716000592777,-0.5237079016659006,0.10239435758275853,-8.201857511425382,5.748260520337922,-33.53053069999519,3.981049011623654,0
548,2024-09-16 21:57:28.163537152,TASK_BEGIN,007,-0.17576009521926364,-0.38245242574349,-0.5555177229969175,0.1369869720692733,-8.400602365052134,5.820831294524513,-35.83101066926548,4.292217226550616,0
549,2024-09-16 21:57:28.231327232,TASK_BEGIN,007,-0.15782945571899631,-0.3804918819448209,-0.5726966301186195,0.17310899772890082,-8.580906209942524,5.891720537142074,-38.20730892702927,4.557027860302422,0
550,2024-09-16 21:57:28.286961152,TASK_BEGIN,007,-0.13814888338014972,-0.37940054736300793,-0.5753651493871811,0.20906997443568595,-8.736126657094674,5.954540809235987,-40.59742919486622,4.7857473423081265,0
551,2024-09-16 21:57:29.229704960,TASK_BEGIN,007,-0.1170391003637844,-0.379194238585922,-0.5650031729429261,0.24311133799357854,-8.861324262667743,6.003140014085546,-42.94398376022949,4.991635993508882,0
552,2024-09-16 21:57:29.307812096,TASK_BEGIN,007,-0.09485269458179502,-0.3798622834574522,-0.5443067428469257,0.2735874604943955,-8.95318298297896,6.032053065901149,-45.19965170897225,5.190165385381725,0
553,2024-09-16 21:57:29.369852928,TASK_BEGIN,007,-0.07201857099183033,-0.3813744842450479,-0.5167234115987998,0.29909450962648026,-9.00973109121227,6.036841327207267,-47.32935418098496,5.398511019296514,0
554,2024-09-16 21:57:29.445419264,TASK_BEGIN,007,-0.04909962401571974,-0.38367602562385245,-0.48569834249534694,0.31851917275651953,-9.030162302796835,6.0143182468384735,-49.30652321131343,5.634192817499793,0
555,2024-09-16 21:57:29.509545216,TASK_BEGIN,007,-0.02682115847790192,-0.38667888452830246,-0.4538712235277976,0.33103460011698227,-9.014814257093946,5.962718077905757,-51.10452909702163,5.9123966879770204,0
556,2024-09-16 21:57:29.580808192,TASK_BEGIN,007,-0.006047641233968502,-0.3902627342537003,-0.4225314156320379,0.33609055000115123,-8.965009030057358,5.881803276215397,-52.68770544034091,6.242772747713566,0
557,2024-09-16 21:57:29.634354944,TASK_BEGIN,007,0.01229080211669139,-0.39429083590695563,-0.3915425907840067,0.3334223498212707,-8.882518212018143,5.772829693041911,-54.00671900773346,6.627054529124267,0
558,2024-09-16 21:57:30.592174080,TASK_BEGIN,007,0.027302285151218613,-0.3986314881390138,-0.35974345917871203,0.32308735073868733,-8.768795180027759,5.638331644309623,-55.00066999432712,7.0584441478305875,0
559,2024-09-16 21:57:30.648570112,TASK_BEGIN,007,0.03823756555815811,-0.4031678669019728,-0.3256070740017291,0.30553094645680273,-8.624387812085605,5.481812870423496,-55.6053213419153,7.522811620110225,0
560,2024-09-16 21:57:30.725753856,TASK_BEGIN,007,0.044571004613838415,-0.4077907700215143,-0.2878694515916403,0.28165486361703335,-8.448908925611665,5.307464460081089,-55.76459849634768,8.001020188504594,0
561,2024-09-16 21:57:30.788239104,TASK_BEGIN,007,0.046047766713824184,-0.4123867970618665,-0.2459421085227334,0.2528346575403769,-8.24166841285636,5.119935812078864,-55.442068931934145,8.471604028575383,0
562,2024-09-16 21:57:30.850724864,TASK_BEGIN,007,0.042697142956951026,-0.41683584633208676,-0.2000536037221945,0.22084987918743212,-8.002714233606733,4.924087814335748,-54.630057356848596,8.913292569792896,0
563,2024-09-16 21:57:30.927480064,TASK_BEGIN,007,0.034816136071272846,-0.4210164258209517,-0.15113657732397962,0.18772019170595425,-7.733817620263645,4.724673433494219,-53.354795925435454,9.307108369457934,0
564,2024-09-16 21:57:30.998662912,TASK_BEGIN,007,0.02292951107665762,-0.4248053800742367,-0.10053980400481745,0.1554738123534303,-7.438977144934336,4.5259729296800275,-51.676886384388176,9.637999847247134,0
565,2024-09-16 21:57:31.916752128,TASK_BEGIN,007,0.007734404565172757,-0.428064915454875,-0.049712218265666575,0.12591797465565088,-7.1241825362108475,4.3314271914848,-49.68779892851798,9.896070238617943,0
566,2024-09-16 21:57:31.984540928,TASK_BEGIN,007,-0.009964812537133471,-0.4306278170835249,3.5099175699522555e-05,0.10047388772670986,-6.796422132533799,4.1432847464792815,-47.50363321322655,10.07733165842237,0
567,2024-09-16 21:57:32.052322048,TASK_BEGIN,007,-0.029325680303872472,-0.43230006662691106,0.0476693658242512,0.08008335935084189,-6.462245670481619,3.9623189730556323,-45.256575056443815,10.183806288355148,0
568,2024-09-16 21:57:32.107789056,TASK_BEGIN,007,-0.04952678875850725,-0.4328870967755999,0.09240176310343863,0.06519156471152703,-6.126387925124035,3.7877259156338767,-43.08430983144959,10.222909471630283,0
569,2024-09-16 21:57:32.185897216,TASK_BEGIN,007,-0.06980112336725783,-0.4322301220516538,0.13335514274390295,0.05584229729581628,-5.790845139689664,3.617274010107217,-41.11868481025883,10.206256537566226,0
570,2024-09-16 21:57:32.247818240,TASK_BEGIN,007,-0.0894394031536394,-0.4302348327220508,0.1689975631249022,0.05187410748816337,-5.454615129527436,3.447717582503728,-39.47527684584833,10.148002391377968,0
571,2024-09-16 21:57:32.309945088,TASK_BEGIN,007,-0.10777367979977058,-0.42688687841776274,0.19664849151787323,0.053111537946326226,-5.114246269859528,3.275465842456294,-38.24486496477304,10.062706285554944,0
572,2024-09-16 21:57:33.261320960,TASK_BEGIN,007,-0.12416031520460644,-0.4222594524535894,0.2123894983154486,0.05945288065926658,-4.765142671342664,3.097421625022312,-37.487629872579724,9.96304218921638,0
573,2024-09-16 21:57:33.334632960,TASK_BEGIN,007,-0.1379769312070064,-0.4165194178411444,0.21146485436132378,0.07086800532411802,-4.403229233386523,2.9117812723917638,-37.23087019785344,9.858059484444066,0
574,2024-09-16 21:57:33.402379776,TASK_BEGIN,007,-0.1486342148542662,-0.40993333106514684,0.18897348331794703,0.08737235906993242,-4.026458408395177,2.718579642731606,-37.47057961417932,9.752485963684778,0
575,2024-09-16 21:57:33.470100992,TASK_BEGIN,007,-0.15559899933424018,-0.4028663118395115,0.14065264995655893,0.10897624616268126,-3.6357604052144636,2.5198854016306886,-38.17668103073539,9.647088341602643,0
576,2024-09-16 21:57:33.537884928,TASK_BEGIN,007,-0.15842530807923555,-0.3957631589451345,0.06370179760087752,0.13556609349935603,-3.235190788493866,2.3196545791506975,-39.30008835423053,9.53970972836831,0
577,2024-09-16 21:57:33.600082944,TASK_BEGIN,007,-0.15677878428941514,-0.3891120343670022,-0.042475055837237534,0.16673968897851238,-2.8312680328144735,2.123276975746862,-40.77819320919216,9.426358147905795,0
578,2024-09-16 21:57:33.662583040,TASK_BEGIN,007,-0.15043491725070315,-0.3834048600117738,-0.17588267329325089,0.20168285076476242,-2.431842332459982,1.9368840686110131,-42.53732201193306,9.302025497637672,0
579,2024-09-16 21:57:34.614191104,TASK_BEGIN,007,-0.1392527187526666,-0.379106168427032,-0.3320764034760202,0.23915470187537885,-2.045039900661706,1.7665566851143177,-44.49440275294701,9.161516315808557,0
580,2024-09-16 21:57:34.676677120,TASK_BEGIN,007,-0.12314933496093859,-0.3766284660343349,-0.5047339456007967,0.277586434854733,-1.6786592988372413,1.6175732106013037,-46.56026469246316,9.000528103446866,0
