,time,MARKER,pid,L_O_DSI,L_D_DSI,L_O_DSphi,L_D_DSphi,R_O_DSI,R_D_DSI,R_O_DSphi,R_D_DSphi,trial_id
0,2024-09-17 12:38:14.402961920,TASK_BEGIN,008,-0.40146140208070663,0.21436840013798203,6.788482450545565,-0.9484571661630037,-1.2130693442204918,0.30421760570677014,6.366660489344384,2.0202651260026845,1
1,2024-09-17 12:38:15.331291136,TASK_BEGIN,008,-0.47309814226648916,0.2139294784205609,6.059765505874441,-0.5849987890632561,-1.373365560363656,0.35239999258228205,9.50017544858087,1.9965105019132434,1
2,2024-09-17 12:38:15.412529152,TASK_BEGIN,008,-0.5406383438892409,0.21321599911393718,5.353957730643831,-0.23236147395165818,-1.5209116533357434,0.3973436567137217,12.560805947095389,1.9613918198335254,1
3,2024-09-17 12:38:15.470178048,TASK_BEGIN,008,-0.6002930973920189,0.2122774282178195,4.689816485351712,0.10107204753765316,-1.6503306550043102,0.43796474896994453,15.486913190054759,1.9003702498092487,1
4,2024-09-17 12:38:15.547639808,TASK_BEGIN,008,-0.6491556698245392,0.2113016540787455,4.0822913391817925,0.4086299058886556,-1.7583838453468403,0.4737034527071749,18.222059630685244,1.802424959052291,1
5,2024-09-17 12:38:15.615926016,TASK_BEGIN,008,-0.685362848748704,0.21060556224045282,3.5420723254756745,0.6855758946692974,-1.8441647802485877,0.5045356135765231,20.714868117353703,1.6616216776881376,1
6,2024-09-17 12:38:15.683720960,TASK_BEGIN,008,-0.7080598189725469,0.21057207315774867,3.0760433226467883,0.9289894712716651,-1.9088382399947927,0.5308571661202177,22.918090601267785,1.4782181549700675,1
7,2024-09-17 12:38:15.751525888,TASK_BEGIN,008,-0.7172715124846388,0.21156258030394876,2.688132158706716,1.1374941096297364,-1.9551199731927007,0.5532783426408899,24.78866086546579,1.2589206351161146,1
8,2024-09-17 12:38:16.691596800,TASK_BEGIN,008,-0.7137530383245797,0.2138395029581987,2.3799490696663645,1.3109656920114003,-1.9867766344209592,0.5724005000516718,26.289483422808615,1.0161789121382816,1
9,2024-09-17 12:38:16.753678080,TASK_BEGIN,008,-0.6988351273819734,0.21752871455334427,2.1508583788073534,1.450294593180312,-2.0082910735385067,0.5886626852198102,27.39212487975687,0.7668041778000861,1
10,2024-09-17 12:38:16.815736064,TASK_BEGIN,008,-0.6742695544295441,0.2226371138589155,1.9976487410788217,1.557236357708891,-2.02463056402843,0.6023158247890829,28.07957680205643,0.5301178101518769,1
11,2024-09-17 12:38:16.893402112,TASK_BEGIN,008,-0.6420951043047406,0.22911087501220279,1.9143000127104473,1.6343109233475994,-2.0410045803478476,0.6135222070517039,28.34905161330895,0.32562924058524806,1
12,2024-09-17 12:38:16.965986048,TASK_BEGIN,008,-0.6045524011282932,0.2368954710860331,1.8922201254647792,1.6846747620287172,-2.062603990674522,0.6225231006711276,28.214639512094465,0.17047650193329383,1
13,2024-09-17 12:38:17.033353984,TASK_BEGIN,008,-0.5640412302406644,0.24596625967743346,1.9209040396714858,1.711943316440828,-2.094370426575401,0.6297938696286499,27.708983279922794,0.07724392893470694,1
14,2024-09-17 12:38:17.101594112,TASK_BEGIN,008,-0.5230374436875684,0.2563250612825158,1.98860483834847,1.720022514516801,-2.140757466393268,0.6361136752511461,26.88299615493859,0.052696065767991566,1
15,2024-09-17 12:38:18.039958016,TASK_BEGIN,008,-0.4838863059972606,0.26797528228296974,2.082698943006581,1.7130221604217035,-2.205359756824691,0.6425110012434713,25.803073524439085,0.0975091353413372,1
16,2024-09-17 12:38:18.112611072,TASK_BEGIN,008,-0.4485302606244273,0.28089496977463563,2.1898789622862656,1.6952364481718416,-2.290371362533148,0.6501032070665123,24.54578448037252,0.20674871857823335,1
17,2024-09-17 12:38:18.180071168,TASK_BEGIN,008,-0.4183335994087932,0.2950266391284452,2.296548724213776,1.671090176957015,-2.3960372050641214,0.6598971673183205,23.19058140793745,0.3708303708415075,1
18,2024-09-17 12:38:18.241629952,TASK_BEGIN,008,-0.39408190111699587,0.3102890612897551,2.3896357008924713,1.6449721108255269,-2.520350828589322,0.6726202469684566,21.81188977282086,0.5767668237259089,1
19,2024-09-17 12:38:18.304118016,TASK_BEGIN,008,-0.37608509125706296,0.3265987117938701,2.4577931909189212,1.6209630067266199,-2.6591013941273354,0.6886094590244978,20.47257407883516,0.8094930659966463,1
20,2024-09-17 12:38:18.383770112,TASK_BEGIN,008,-0.3642670025029973,0.3438791753780371,2.4928152116779225,1.602517318787872,-2.806162439073506,0.7077459439801072,19.220118928004794,1.0531470628700024,1
21,2024-09-17 12:38:18.443644928,TASK_BEGIN,008,-0.3581845523138728,0.3620418230922824,2.4908945022061624,1.5921777317194998,-2.9538950619198334,0.7294234005548403,18.085505470529483,1.2923446718862424,1
22,2024-09-17 12:38:19.368968960,TASK_BEGIN,008,-0.3570031714898919,0.3809431345211715,2.4532122881473444,1.5914125225603537,-3.0936701143901733,0.752572257705326,17.084352665626454,1.5134124882328568,1
23,2024-09-17 12:38:19.430288128,TASK_BEGIN,008,-0.35948295327146434,0.40034151402956764,2.3856441117376948,1.6006126452872793,-3.2165516993957044,0.7757675167832014,16.22025323029788,1.7053037635597281,1
24,2024-09-17 12:38:19.504594944,TASK_BEGIN,008,-0.36400464055132026,0.41987013593251665,2.2979066863348425,1.6191798542115814,-3.3140407165304864,0.7974012340812326,15.490088534038978,1.8599195261593784,1
25,2024-09-17 12:38:19.572371968,TASK_BEGIN,008,-0.3686532219779745,0.4390290723684586,2.202567874335185,1.6456227004912192,-3.37867285771068,0.8158570535921356,14.890088644814217,1.9718945885302126,1
26,2024-09-17 12:38:19.624835840,TASK_BEGIN,008,-0.3713773694811758,0.4571977255814072,2.1140492549660137,1.677669547850405,-3.4043945598913594,0.829643849139554,14.420459948339667,2.038247194007958,1
27,2024-09-17 12:38:19.707958016,TASK_BEGIN,008,-0.37021563329021556,0.4736733105341316,2.047602507747124,1.7124373227361716,-3.386842112733638,0.8375043564198725,14.086977594875929,2.05824770568275,1
28,2024-09-17 12:38:19.763152128,TASK_BEGIN,008,-0.3635511965375299,0.4877380879871541,2.018144369574998,1.746645857950969,-3.323651704425861,0.8385350086667184,13.899855960209184,2.033511985445767,1
29,2024-09-17 12:38:20.704705024,TASK_BEGIN,008,-0.35035320191436187,0.4987380163279893,2.0387209694447814,1.7768689744233592,-3.2147457668504757,0.8323033032745063,13.871451250425089,1.9680882857121038,1
30,2024-09-17 12:38:20.782321920,TASK_BEGIN,008,-0.3303589601846787,0.5061393165017011,2.1186152796179423,1.7998478553621344,-3.0624386306421014,0.818903767475213,14.01383538503233,1.8683566023416933,1
31,2024-09-17 12:38:20.854337024,TASK_BEGIN,008,-0.3041399980063594,0.5095453115381197,2.2615336730639255,1.8128795568284763,-2.8713034177526895,0.7989254234140479,14.336056736394596,1.7427216477167669,1
32,2024-09-17 12:38:20.921740032,TASK_BEGIN,008,-0.273015063182362,0.5086906493204134,2.4644399738426137,1.8142191663445493,-2.647892135718207,0.7733640565869028,14.840509821250853,1.6011822626618457,1
33,2024-09-17 12:38:20.983366912,TASK_BEGIN,008,-0.23884113660933273,0.5034461574654827,2.7174127201116787,1.803353443145541,-2.4004648208603427,0.7435313119779802,15.518804424431654,1.4548257358514054,1
34,2024-09-17 12:38:21.045454080,TASK_BEGIN,008,-0.20377646960656026,0.49384821605192225,3.0044738084211082,1.7810515059786267,-2.1388127620796937,0.7109842643245428,16.348910292947266,1.3151254025519816,1
35,2024-09-17 12:38:21.125495808,TASK_BEGIN,008,-0.17009460007638585,0.48013095773742753,3.3049848109702427,1.7492511562484916,-1.8740876471273729,0.6774571900825923,17.29533584575261,1.192873919316061,1
36,2024-09-17 12:38:22.029498112,TASK_BEGIN,008,-0.14004327287466387,0.4627279420381228,3.5953377396481536,1.7108677816466464,-1.6184661264459372,0.6447746527853575,18.312221611706224,1.0968887983486755,1
37,2024-09-17 12:38:22.108830720,TASK_BEGIN,008,-0.11569482471378056,0.44223611068092,3.851044869527923,1.6694986695527179,-1.3845731598246043,0.6147562019103909,19.34753323736863,1.0329328631190757,1
38,2024-09-17 12:38:22.169735936,TASK_BEGIN,008,-0.09877539972784052,0.4193664423635117,4.04937079223796,1.6289672781391125,-1.18469366355499,0.5891247858849572,20.346836999318597,1.0032140716272582,1
39,2024-09-17 12:38:22.232562944,TASK_BEGIN,008,-0.09050728751006656,0.39490740291151455,4.172252836829098,1.5927539085059867,-1.029841553348391,0.5694120889982991,21.256494986508056,1.0065677272328297,1
40,2024-09-17 12:38:22.315208960,TASK_BEGIN,008,-0.09150567382621733,0.369703908275982,4.208871726322192,1.5634468098472125,-0.9288027870988045,0.5568655882238532,22.026763749070387,1.0391905409468802,1
41,2024-09-17 12:38:22.374051072,TASK_BEGIN,008,-0.10177483542486276,0.34463934012040887,4.157188446976914,1.5423743003512251,-0.8873121428550356,0.5523810662017363,22.615148775463204,1.0955800193018732,1
42,2024-09-17 12:38:22.449639936,TASK_BEGIN,008,-0.12082671385322363,0.32061240685066617,4.023958482092558,1.5295426336233489,-0.9074899843977179,0.5564659785022695,22.990055681748924,1.169363084485644,1
43,2024-09-17 12:38:23.392624896,TASK_BEGIN,008,-0.14787194241256463,0.29850362177914713,3.8231754067497246,1.5238779495003132,-0.9875782686648569,0.5692064079122015,23.13407044136471,1.2540472854119398,1
44,2024-09-17 12:38:23.454668032,TASK_BEGIN,008,-0.1819943446310312,0.27912300795679607,3.573631056504829,1.523621436995004,-1.1219565181065956,0.5902140933063023,23.045445090776507,1.3438896986741404,1
45,2024-09-17 12:38:23.531373056,TASK_BEGIN,008,-0.22225673168558718,0.2631381666046165,3.2967083494456646,1.5266756631904734,-1.3014288889812118,0.6185702189920115,22.73686105377795,1.4348090635973842,1
46,2024-09-17 12:38:23.599206912,TASK_BEGIN,008,-0.26772767040850703,0.2509990439702307,3.0149391147278077,1.5307956493490948,-1.513842220996644,0.6528175640445433,22.23201043930623,1.5250483418956209,1
47,2024-09-17 12:38:23.666206976,TASK_BEGIN,008,-0.3174524308065187,0.2428870153597119,2.750792515288018,1.5336818893069895,-1.7451174064204085,0.6910514854734717,21.561219709467952,1.615406896573095,1
48,2024-09-17 12:38:23.728692992,TASK_BEGIN,008,-0.3704352291100365,0.23871179666447132,2.5249942764857267,1.5330891646681981,-1.9806030420193148,0.7311105241209052,20.756684718507827,1.7090388868256763,1
49,2024-09-17 12:38:23.790205952,TASK_BEGIN,008,-0.42568475261789857,0.23815821358739958,2.354576567367003,1.5269670885462208,-2.20643723907936,0.7708058545117303,19.847343286766954,1.8108813716418872,1
50,2024-09-17 12:38:24.744265216,TASK_BEGIN,008,-0.48228499357223836,0.24075840520496064,2.2514677588801653,1.5135503676004267,-2.410650858508699,0.8081258244473586,18.8546033248806,1.9267445949255044,1
51,2024-09-17 12:38:24.812081920,TASK_BEGIN,008,-0.5394028236742917,0.2459570237798828,2.222094091010365,1.4913353607443582,-2.5839483492736037,0.8413889819649388,17.79165049366708,2.0620603880884105,1
52,2024-09-17 12:38:24.870978048,TASK_BEGIN,008,-0.5961948954971319,0.2531542913423564,2.2678917573314967,1.4589764540885584,-2.7201607299903774,0.8693302019441582,16.667625906589798,2.2204008620207234,1
53,2024-09-17 12:38:24.933017088,TASK_BEGIN,008,-0.6516618632827657,0.2617319483652048,2.3863337817705603,1.4152138853623533,-2.8163738389146076,0.891113134790682,15.494228979091151,2.402102463971473,1
54,2024-09-17 12:38:25.011251968,TASK_BEGIN,008,-0.7045406713531387,0.27107108845002004,2.571976912906041,1.3589422415360874,-2.8728117490320884,0.9063021360505792,14.290530436432077,2.6034589126197374,1
55,2024-09-17 12:38:25.083331072,TASK_BEGIN,008,-0.753305061822846,0.28056837034236787,2.817066791463695,1.2894730232585536,-2.8925436692170003,0.914847453430568,13.083604420432996,2.8168516220180364,1
56,2024-09-17 12:38:25.135813888,TASK_BEGIN,008,-0.7962729230161623,0.2896596663241027,3.111480221255845,1.2069665106820286,-2.880992568060391,0.9170992985655448,11.905607535382345,3.0318088769200697,1
57,2024-09-17 12:38:26.088905984,TASK_BEGIN,008,-0.8317449002774014,0.2978579238750353,3.4422890634816232,1.1128751708528408,-2.8452611542772077,0.9138159300998062,10.789688782080288,3.2365195181773068,1
58,2024-09-17 12:38:26.152146944,TASK_BEGIN,008,-0.8580884793545601,0.30479555176982814,3.793636356243719,1.0101456909834847,-2.793384573691253,0.9061178955578594,9.766934587078644,3.419226213736667,1
59,2024-09-17 12:38:26.218454016,TASK_BEGIN,008,-0.8737520562844662,0.31024962826027963,4.14739186292301,0.9030472954956841,-2.733563051143297,0.895353988324148,8.864958303785878,3.5692786304021906,1
60,2024-09-17 12:38:26.293035776,TASK_BEGIN,008,-0.8772745795100592,0.3141410508002978,4.484468471541304,0.7967299398764859,-2.6733826771514115,0.8828828162625297,8.107298838039803,3.6779403797527146,1
61,2024-09-17 12:38:26.355521024,TASK_BEGIN,008,-0.8673636529443969,0.3165190641093666,4.786441251567307,0.6966906116402297,-2.619189426605701,0.8698404850231365,7.512906405417943,3.738987746683191,1
62,2024-09-17 12:38:26.433382144,TASK_BEGIN,008,-0.8430580553765009,0.3175461694028885,5.037222809933683,0.6082285142006574,-2.5758325268256947,0.8569854221487078,7.095976811887594,3.7489926191804748,1
63,2024-09-17 12:38:26.495203072,TASK_BEGIN,008,-0.803937578486383,0.3174883769237209,5.224516095140735,0.5359285625831862,-2.5467351943250036,0.8446522347838191,6.866478756031559,3.7072266149792275,1
64,2024-09-17 12:38:27.434992896,TASK_BEGIN,008,-0.7503153550032157,0.3167042467635154,5.340626074735175,0.48329083728019645,-2.5340492801719274,0.8327945753036394,6.83076805461062,3.6152709996821004,1
65,2024-09-17 12:38:27.512329984,TASK_BEGIN,008,-0.6833508745655571,0.3156242847682258,5.382522737843201,0.45261795108029,-2.5386848853136437,0.8210878588733586,6.991010561239653,3.4765588063002077,1
66,2024-09-17 12:38:27.580200960,TASK_BEGIN,008,-0.605060843434749,0.3147196089249211,5.351694230857238,0.4450902929826167,-2.560095224426527,0.8090550318714685,7.342654489763916,3.2961123437892814,1
67,2024-09-17 12:38:27.633825024,TASK_BEGIN,008,-0.5182248310126997,0.31445852350655584,5.25433496202993,0.46083930884993946,-2.5959055292938946,0.7961828727453854,7.870769975835152,3.080535889297481,1
68,2024-09-17 12:38:27.715768064,TASK_BEGIN,008,-0.42617493582947613,0.3152468555339595,5.101595531042001,0.4989440736850917,-2.641772661473505,0.7820256891184769,8.547214750008504,2.838085574034754,1
69,2024-09-17 12:38:27.774223104,TASK_BEGIN,008,-0.33250653929680996,0.31736381630694904,4.909108996575898,0.5574231850105359,-2.691784209996493,0.7662977068205279,9.329997370833478,2.578641081992445,1
70,2024-09-17 12:38:27.836709888,TASK_BEGIN,008,-0.2408152937842612,0.320923763052203,4.6954495022629645,0.6332822965267072,-2.7392172268217156,0.748924362223166,10.16504202166841,2.3134595455613303,1
71,2024-09-17 12:38:28.779443968,TASK_BEGIN,008,-0.1545238906016669,0.32588204907141377,4.479920086695259,0.7226284367644938,-2.7772565507375195,0.7300243604306669,10.990112945740336,2.0546024115232924,1
72,2024-09-17 12:38:28.857065984,TASK_BEGIN,008,-0.0767505131968891,0.3320689220290067,4.28032465672527,0.8208811492209435,-2.7995846080127995,0.7098492108893799,11.740336171947234,1.8140906349654973,1
73,2024-09-17 12:38:28.919069184,TASK_BEGIN,008,-0.010148452337793377,0.3392226559644043,4.111098874116,0.9231105103710889,-2.8010196011922863,0.6887418958769175,12.354568273365778,1.6029838720828864,1
74,2024-09-17 12:38:28.996756224,TASK_BEGIN,008,0.04327037330894455,0.34701275113875646,3.9819376223395575,1.024459060741507,-2.7781983006145694,0.6671401078823387,12.782245105003891,1.4304885690240596,1
75,2024-09-17 12:38:29.059240960,TASK_BEGIN,008,0.0822631972565047,0.3550581408312209,3.8971982239026968,1.1205401419918322,-2.7300345813526365,0.6455929166298947,12.990032428859944,1.3031729210605716,1
76,2024-09-17 12:38:29.120356096,TASK_BEGIN,008,0.10641714757108776,0.3629408500920606,3.8562928981687823,1.207743228984329,-2.657788007495074,0.6247590840380453,12.966359612555737,1.224487260596626,1
77,2024-09-17 12:38:29.198226944,TASK_BEGIN,008,0.1161656066843331,0.3702202606358158,3.854724702798583,1.283466826307727,-2.564887359595777,0.6053936811564326,12.72193446662662,1.19472351790942,1
78,2024-09-17 12:38:30.110885120,TASK_BEGIN,008,0.1127385440827985,0.37646312753253414,3.8851275062024855,1.3463040814046277,-2.4566845627349703,0.588339143290417,12.286122655546382,1.2113011870173018,1
79,2024-09-17 12:38:30.173372160,TASK_BEGIN,008,0.09799835336691569,0.3812919630462621,3.9380581679532973,1.3961213270864072,-2.3400801301741163,0.5745179606724397,11.700668272955872,1.2691996447966216,1
80,2024-09-17 12:38:30.235856896,TASK_BEGIN,008,0.07418607321001523,0.384430363699519,4.002854249858722,1.4339249786507997,-2.2229153931727317,0.5649107901183601,11.012645684420526,1.3615614811450214,1
81,2024-09-17 12:38:30.318918912,TASK_BEGIN,008,0.04366351771752034,0.3857209102950925,4.068987946231885,1.4614887070136873,-2.113180965626084,0.5604905410990498,10.26815499623675,1.4806307144202737,1
82,2024-09-17 12:38:30.374914816,TASK_BEGIN,008,0.008690579713848413,0.385115048321787,4.127876119859319,1.480851043637947,-2.018116782220363,0.5620811662159022,9.507581179324971,1.6189549483645034,1
83,2024-09-17 12:38:30.452569088,TASK_BEGIN,008,-0.028771349267489695,0.3826550934777821,4.1745336948003215,1.493869925502906,-1.943274155483168,0.5701532918377148,8.76289884766801,1.7704146755230474,1
84,2024-09-17 12:38:30.514599168,TASK_BEGIN,008,-0.06719520414526539,0.378459164579386,4.2083498580341265,1.501978656543884,-1.8917664198193045,0.5846270147903898,8.057323084098869,1.9307117019677307,1
85,2024-09-17 12:38:31.468417024,TASK_BEGIN,008,-0.10549231174218648,0.3727004862214553,4.2327100569372895,1.5061607148907536,-1.864010686897026,0.6047637240110989,7.4065951922517534,2.0974398898459423,1
86,2024-09-17 12:38:31.525038080,TASK_BEGIN,008,-0.14287656266096574,0.3655735804547235,4.253789513836251,1.507051648013005,-1.8580821227300877,0.62919661580214,6.8205604152100685,2.270011968038234,1
87,2024-09-17 12:38:31.598853888,TASK_BEGIN,008,-0.17866616313613654,0.3572509000854564,4.279090070708866,1.5050768965852488,-1.8705462676236844,0.6561132694545165,6.304894456520505,2.449281150522304,1
88,2024-09-17 12:38:31.664899840,TASK_BEGIN,008,-0.21212947817820046,0.34784001366645145,4.316185284837604,1.5005771811284234,-1.8974757684623338,0.6835692274339394,5.863636292458768,2.6365336229826055,1
89,2024-09-17 12:38:31.738564864,TASK_BEGIN,008,-0.24245511956992952,0.33735660686953833,4.371988122943915,1.4938660406982254,-1.9353401539113027,0.7098585746485078,5.502020905514665,2.832061442271009,1
90,2024-09-17 12:38:31.800132096,TASK_BEGIN,008,-0.26885253271124226,0.3257242623979084,4.452542190350652,1.4851887519601068,-1.9815558907876674,0.7338096267474618,5.228269192150129,3.033982930409047,1
91,2024-09-17 12:38:31.862096896,TASK_BEGIN,008,-0.2907080024899201,0.31279501765631607,4.562889001719102,1.4746434152765933,-2.034603681731155,0.7548787772372575,5.053667138363032,3.2378000231475794,1
92,2024-09-17 12:38:32.794789120,TASK_BEGIN,008,-0.30769212097874626,0.2983744421611213,4.706611134286971,1.4621502592600473,-2.093731967938461,0.7730150381350482,4.991120031235303,3.436703044051255,1
93,2024-09-17 12:38:32.850402048,TASK_BEGIN,008,-0.3197552917880433,0.28224499645939427,4.885238146241773,1.4474854552216436,-2.1583977689646248,0.7883845559596783,5.052817917614447,3.6223236281028033,1
94,2024-09-17 12:38:32.928271104,TASK_BEGIN,008,-0.32704016578891787,0.26419902339620926,5.097874857391953,1.430358114743192,-2.227695819944851,0.8010898068778954,5.24776192162239,3.785626082433027,1
95,2024-09-17 12:38:32.998110208,TASK_BEGIN,008,-0.3298132316595855,0.24409274801572153,5.340951445723809,1.4105261624037273,-2.300032345511454,0.8109942449824278,5.5796227286954,3.917732734690944,1
96,2024-09-17 12:38:33.053481984,TASK_BEGIN,008,-0.32848289461823127,0.22191138917938588,5.607906705786366,1.3879244427189166,-2.373182276815876,0.8177033299117716,6.045239552005321,4.010566721562256,1
97,2024-09-17 12:38:33.133678848,TASK_BEGIN,008,-0.32365099456313556,0.197815826420074,5.88913008841349,1.362734960860609,-2.4446408690495067,0.8206775354306995,6.634099636316533,4.057360197563469,1
98,2024-09-17 12:38:33.201593088,TASK_BEGIN,008,-0.31608259993324417,0.17214381098075418,6.172708250571971,1.3353384984619254,-2.51201223865875,0.8194009248837626,7.328667980764404,4.053212230632699,1
99,2024-09-17 12:38:34.140436736,TASK_BEGIN,008,-0.3065647402078472,0.14536622633821722,6.446066530263587,1.3061384179682884,-2.573243720962853,0.8135246602306673,8.104871634053977,3.9957570676829954,1
100,2024-09-17 12:38:34.212701184,TASK_BEGIN,008,-0.29574989661290296,0.11802931590633454,6.69791035873173,1.2753391576299666,-2.6267196096552263,0.8029397794498159,8.932600097448546,3.885743969090846,1
101,2024-09-17 12:38:34.280489984,TASK_BEGIN,008,-0.28408634253156956,0.0907158259502604,6.919579701145723,1.2428308028392792,-2.6713179112160375,0.787787455867616,9.777169865609299,3.7272235601121517,1
102,2024-09-17 12:38:34.341846016,TASK_BEGIN,008,-0.27185724591307303,0.06403311651159697,7.105330565196738,1.2082442201757788,-2.706448815175554,0.7684439989318875,10.602373624111394,3.527196542612863,1
103,2024-09-17 12:38:34.404508160,TASK_BEGIN,008,-0.2593066190271549,0.03861256039559435,7.25176964211759,1.1710856791465782,-2.7320526280495234,0.7455063636987859,11.37421714830613,3.2948941185089184,1
104,2024-09-17 12:38:34.481720832,TASK_BEGIN,008,-0.24682304955150156,0.015098370431758134,7.357006136895968,1.1308495822133462,-2.748641657056518,0.7197882559555514,12.063908099020814,3.0410307341292646,1
105,2024-09-17 12:38:34.544208896,TASK_BEGIN,008,-0.23512418034205673,-0.0058854543755005925,7.419907910146492,1.087103797747722,-2.757466869862677,0.6923227601717008,12.649413715520406,2.7772558953820194,1
106,2024-09-17 12:38:35.494919936,TASK_BEGIN,008,-0.22534715119614668,-0.023787794588094487,7.439691780894637,1.0395478213033362,-2.760673647351595,0.6643443415974954,13.115686348208602,2.5157910020276,1
107,2024-09-17 12:38:35.562769664,TASK_BEGIN,008,-0.21895690607765783,-0.038198353478653156,7.41613144124582,0.9879866949920475,-2.7612176305448917,0.6372213193580465,13.454186037907855,2.2690343420026027,1
108,2024-09-17 12:38:35.626163200,TASK_BEGIN,008,-0.21747128172648708,-0.04892541261534564,7.350411461689737,0.9322215530852896,-2.762490243887543,0.6123457202918301,13.662555695765656,2.0488699992135477,1
109,2024-09-17 12:38:35.688647936,TASK_BEGIN,008,-0.22212638328262985,-0.05606114088446213,7.246061940141645,0.8719877014271751,-2.767775639512005,0.5910216883972509,13.74486195981306,1.8656113531055634,1
110,2024-09-17 12:38:35.765873920,TASK_BEGIN,008,-0.2336353917299025,-0.06000213033664036,7.10920471056703,0.8070774946251139,-2.7796739096475322,0.5743833629754849,13.712177243001987,1.7267906753582845,1
111,2024-09-17 12:38:35.833960960,TASK_BEGIN,008,-0.2520836574114532,-0.06141679698985205,6.947808787279417,0.7376435288310335,-2.799594033231401,0.5633337442495207,13.582937449664028,1.6361734866679751,1
112,2024-09-17 12:38:35.890216960,TASK_BEGIN,008,-0.27690846476097575,-0.06117968377888886,6.770265018897461,0.6645419578743078,-2.8274006944750787,0.5584810635891145,13.382163751155725,1.5934191629390198,1
113,2024-09-17 12:38:36.845009920,TASK_BEGIN,008,-0.30693833212731364,-0.060290673176266844,6.583862288312722,0.589553279461186,-2.8612759935197327,0.5600729829151962,13.138807569927074,1.5946165615434413,1
114,2024-09-17 12:38:36.912868864,TASK_BEGIN,008,-0.340500388937946,-0.059787245077108905,6.393653120138602,0.5153844325987008,-2.8978400837352236,0.5679576734337347,12.881809486414285,1.6334651569576446,1
115,2024-09-17 12:38:36.980658944,TASK_BEGIN,008,-0.3755666108061035,-0.0606620697403148,6.201867059001736,0.4454756000128336,-2.9325182027955874,0.5816011142993246,12.636358721114904,1.702584363147233,1
116,2024-09-17 12:38:37.048435968,TASK_BEGIN,008,-0.4098978491684208,-0.06379941604523644,6.0077846379764,0.3837254684004439,-2.9600301588877262,0.6001552814658727,12.420998976888894,1.7945952201612623,1
117,2024-09-17 12:38:37.116254208,TASK_BEGIN,008,-0.44119119444611654,-0.06993404277336325,5.808065928298054,0.3341911305557175,-2.974844016677247,0.6225385475216034,12.245308894193382,1.9028819280870353,1
118,2024-09-17 12:38:37.177805056,TASK_BEGIN,008,-0.4672275707769108,-0.07962929659040968,5.597555016736251,0.30072438738083024,-2.9715349058348277,0.6475003073459615,12.108439938057327,2.0220035984590665,1
119,2024-09-17 12:38:37.251870976,TASK_BEGIN,008,-0.48595010438628544,-0.09327374947746993,5.370334622815215,0.2865585191492036,-2.945075570550997,0.6736696911588065,11.999770807953606,2.147699356219854,1
120,2024-09-17 12:38:38.190347008,TASK_BEGIN,008,-0.4954263587438885,-0.11109752033941761,5.120760079590374,0.29396514778675764,-2.89107582825879,0.6995911654033355,11.902636283175067,2.2764488538767256,1
121,2024-09-17 12:38:38.251185664,TASK_BEGIN,008,-0.49377595280721387,-0.13319836081233702,4.844503100819148,0.32408180934437547,-2.805996733462766,0.7237570109154681,11.800499046259983,2.4046745304357477,1
122,2024-09-17 12:38:38.329584896,TASK_BEGIN,008,-0.4792061411327114,-0.1595560886233753,4.539753795598167,0.37688814792327496,-2.6874367987111167,0.7446702936609838,11.683447745761427,2.5279073776164576,1
123,2024-09-17 12:38:38.392071168,TASK_BEGIN,008,-0.450194248695719,-0.19002611718058773,4.20842667467258,0.4512440159955927,-2.534590210172304,0.7609599629610989,11.55259555923238,2.6403796288755528,1
124,2024-09-17 12:38:38.466313984,TASK_BEGIN,008,-0.40571599716208073,-0.22432716836765942,3.8569851411162985,0.5449664598891305,-2.348823319096875,0.7715114315497201,11.420989452513115,2.735312451925605,1
125,2024-09-17 12:38:38.531426048,TASK_BEGIN,008,-0.3453930622804568,-0.2620427602378257,3.4966263325162354,0.6550036407866237,-2.1341230473491537,0.7755285910958949,11.311172397029509,2.805768327654957,1
126,2024-09-17 12:38:38.592894976,TASK_BEGIN,008,-0.2695064100500798,-0.30263934038633195,3.1426302409300173,0.777773189085143,-1.897180371817307,0.7724676892036797,11.250066758241111,2.8457773581328096,1
127,2024-09-17 12:38:39.542439936,TASK_BEGIN,008,-0.17891413121829003,-0.3454875625398557,2.812671743149902,0.909680206853221,-1.6470844845475352,0.7618712876876069,11.26159400067167,2.851614188509892,1
128,2024-09-17 12:38:39.608408832,TASK_BEGIN,008,-0.07497526892675317,-0.38987335624026553,2.524369890529977,1.047712109506036,-1.3947122232172307,0.7431922282271242,11.358304859823082,2.823150744449591,1
129,2024-09-17 12:38:39.670479104,TASK_BEGIN,008,0.040430858550049784,-0.4350013407368922,2.2929916018266123,1.1898931673954902,-1.1518538751868053,0.7156843998542514,11.534882810905822,2.7649123376653675,1
130,2024-09-17 12:38:39.747707904,TASK_BEGIN,008,0.1648022345907783,-0.48000487552339866,2.130163407335426,1.3354251564203918,-0.9301891076841823,0.6783912547693188,11.76614340036833,2.6862545635852024,1
131,2024-09-17 12:38:39.815481856,TASK_BEGIN,008,0.29495204653150287,-0.5239729769455509,2.0437561151817127,1.4845216761648252,-0.7403896755821975,0.6302274142095808,12.009823711220937,2.60040501380602,1
132,2024-09-17 12:38:39.883249920,TASK_BEGIN,008,0.4271094633687754,-0.56599442570511,2.0385611719974954,1.6380616240623496,-0.5915750287740519,0.5701314120574409,12.212461063839585,2.5227368695314087,1
133,2024-09-17 12:38:39.949681152,TASK_BEGIN,008,0.5571776855763781,-0.6052048571936299,2.1172094544577376,1.7971644744638027,-0.4910787162938146,0.49725951606850904,12.316286452076636,2.4689459897495856,1
134,2024-09-17 12:38:40.863981824,TASK_BEGIN,008,0.6810137551804637,-0.6408023586906584,2.280791708908525,1.9627395687583133,-0.4443173353275074,0.41118227479597763,12.265423786855,2.453611785678665,1
135,2024-09-17 12:38:40.937568768,TASK_BEGIN,008,0.7946068648969009,-0.6720011726940998,2.5288461456212574,2.135064763052403,-0.45466241456937445,0.31205375058303414,12.010411604346107,2.4892409816143126,1
136,2024-09-17 12:38:41.004478976,TASK_BEGIN,008,0.8941790080578741,-0.6979375979630467,2.8587531386850045,2.3134734452217725,-0.5234246800953888,0.2007535804868405,11.511495849186986,2.5855960271169613,1
137,2024-09-17 12:38:41.073177856,TASK_BEGIN,008,0.9763357310613694,-0.7175781835818235,3.264837514089488,2.4962289324354714,-0.6500632703413909,0.07900529856491871,10.741941550324494,2.7490503422369676,1
138,2024-09-17 12:38:41.141062912,TASK_BEGIN,008,1.0383470562848647,-0.7296655318114486,3.7375777401865182,2.6806135187900617,-0.8325014920985643,-0.05056730046669589,9.691645947578394,2.9819062261978364,1
139,2024-09-17 12:38:41.205863936,TASK_BEGIN,008,1.078545011136524,-0.7327057712788613,4.263379219499185,2.8631593920004605,-1.0673050606182126,-0.1845085451558444,8.370142195154184,3.2818235636392923,1
140,2024-09-17 12:38:41.268347904,TASK_BEGIN,008,1.096779182121506,-0.7249991084301168,4.825250978337202,3.0399012750358434,-1.349652224705692,-0.31874788332300225,6.807892700996628,3.6416008387669274,1
141,2024-09-17 12:38:42.222183168,TASK_BEGIN,008,1.094811308872607,-0.7047272305717243,5.40425807945887,3.206624722195876,-1.6732535057951052,-0.4489198375883429,5.055086921998127,4.049557283078251,1
142,2024-09-17 12:38:42.281553920,TASK_BEGIN,008,1.0764471140081942,-0.6701039563919292,5.981098134840123,3.3591970717878885,-2.0303770778655457,-0.5707145527295793,3.1777943374011604,4.490581231643801,1
143,2024-09-17 12:38:42.343089152,TASK_BEGIN,008,1.0472456641864083,-0.6195640921329496,6.5370965326887776,3.494018327752694,-2.4119752354005453,-0.6802187478028089,1.2521895788079989,4.9475985132455085,1
144,2024-09-17 12:38:42.425599232,TASK_BEGIN,008,1.013860022858605,-0.5519373662873303,7.0543199179994485,3.608501214336452,-2.8078360301180023,-0.7742329567917778,-0.6420705620328162,5.403112835525579,1
145,2024-09-17 12:38:42.482774784,TASK_BEGIN,008,0.9832551320770017,-0.4665599495794986,7.515060951954942,3.701453416079927,-3.2067512466043744,-0.8505382691360052,-2.4285392672387367,5.840590118077599,1
146,2024-09-17 12:38:42.560710912,TASK_BEGIN,008,0.9620310826695648,-0.36331197737583815,7.9014914445497055,3.773240196246801,-3.5967938735099585,-0.9080639285398536,-4.040160543558978,6.245528687714322,1
147,2024-09-17 12:38:42.629020928,TASK_BEGIN,008,0.9559184848686257,-0.2426042369883993,8.19632287717868,3.8256275525871586,-3.965823881751191,-0.9469102363402022,-5.4242034703179565,6.606071337282263,1
148,2024-09-17 12:38:43.572180992,TASK_BEGIN,008,0.9694154111179903,-0.10535199567818072,8.384592616418246,3.8613376258448207,-4.3021981283392225,-0.9682338527548313,-6.545344163602313,6.913168816325411,1
149,2024-09-17 12:38:43.635823872,TASK_BEGIN,008,1.005553834936834,0.04703275829675873,8.456023191319755,3.8834809195722073,-4.59546968910679,-0.9740656836576423,-7.386906285128474,7.160549447451009,1
150,2024-09-17 12:38:43.707751936,TASK_BEGIN,008,1.0657933553133292,0.21262442056154757,8.407355685648092,3.8950032717697978,-4.836867453154539,-0.9671213235241262,-7.950729597198215,7.344764587591654,1
151,2024-09-17 12:38:43.775527168,TASK_BEGIN,008,1.1500058309265055,0.3889633552560689,8.244100550490057,3.898223781509874,-5.019530784062443,-0.9505989660662633,-8.256009947691108,7.465292997622264,1
152,2024-09-17 12:38:43.837179904,TASK_BEGIN,008,1.2565270005832572,0.5730647285889218,7.98103495454428,3.8945790550422985,-5.138627388782615,-0.9279345167104159,-8.337110014646958,7.524470707078834,1
153,2024-09-17 12:38:43.911180032,TASK_BEGIN,008,1.382298568016944,0.7614876762864924,7.641066173491972,3.8846793347152837,-5.191491527761748,-0.9025107409386423,-8.240265060005958,7.527075912184323,1
154,2024-09-17 12:38:43.978159872,TASK_BEGIN,008,1.523111014910197,0.9504857563935375,7.252788996426438,3.8686178331246492,-5.177803568224721,-0.8773493711575512,-8.01935637627702,7.479553297267197,1
155,2024-09-17 12:38:44.919459840,TASK_BEGIN,008,1.6739065321318,1.1362302926576076,6.847431969242445,3.8463511675203264,-5.099725165633192,-0.854837558452521,-7.731234408523461,7.389000153609535,1
156,2024-09-17 12:38:44.980476928,TASK_BEGIN,008,1.829096746454214,1.315058432577866,6.455669277023915,3.818031150593914,-4.961932572241024,-0.8365457441887972,-7.431063914471523,7.262163191612476,1
157,2024-09-17 12:38:45.055179264,TASK_BEGIN,008,1.9828718124228666,1.4836881312688488,6.104540557967794,3.7842679076329766,-4.771563543061501,-0.8231678206199401,-7.1679494682959,7.104702853841729,1
158,2024-09-17 12:38:45.122906112,TASK_BEGIN,008,2.1294798694812407,1.6393719462318246,5.814805478984941,3.746300085363967,-4.538056742983726,-0.8145733474517299,-6.981137198529838,6.920860027546236,1
159,2024-09-17 12:38:45.181708032,TASK_BEGIN,008,2.2634707099711706,1.7799887604807108,5.599098034687654,3.706021902750898,-4.272780343674904,-0.8099472593504629,-6.897066415802532,6.713528979298087,1
160,2024-09-17 12:38:45.244196096,TASK_BEGIN,008,2.3799171106591004,1.9040796116693928,5.461038226440268,3.6658498912401796,-3.9883779689536003,-0.8080041926993001,-6.92731397746118,6.4846273343415906,1
161,2024-09-17 12:38:45.326360064,TASK_BEGIN,008,2.4745977963886547,2.010841657918743,5.39538947766931,3.628443015316536,-3.697901923733905,-0.8072434436543671,-7.067772250766781,6.2355867382751,1
162,2024-09-17 12:38:46.230413824,TASK_BEGIN,008,2.5440989255200046,2.100099893184191,5.38943177962937,3.59629800218772,-3.413906171874603,-0.806156406271182,-7.299789386487969,5.967836712331459,1
163,2024-09-17 12:38:46.312335872,TASK_BEGIN,008,2.585817515923083,2.1722626720746536,5.425432113475345,3.5712842572818864,-3.147641540818092,-0.803312297535929,-7.593289890816752,5.683240014771837,1
164,2024-09-17 12:38:46.370526976,TASK_BEGIN,008,2.5978823141135825,2.2282482157646726,5.483504963685721,3.554238712336125,-2.9084170234793687,-0.7973487238310473,-7.910815865095733,5.384456028224119,1
165,2024-09-17 12:38:46.433011968,TASK_BEGIN,008,2.579041657111124,2.2693683965261306,5.54400711675486,3.5447349726377255,-2.7031679270857043,-0.7869554482706718,-8.211466079399736,5.075222001677931,1
166,2024-09-17 12:38:46.515739136,TASK_BEGIN,008,2.5285974818324255,2.297177041765518,5.589112540870821,3.54107052234581,-2.536257668784584,-0.7709049644831671,-8.45460223366586,4.76058088308405,1
167,2024-09-17 12:38:46.583527168,TASK_BEGIN,008,2.4464113848322233,2.3133167126104297,5.603736641272708,3.5404489698870365,-2.4094984584982377,-0.7481262539347209,-8.603638890528899,4.447047204106745,1
168,2024-09-17 12:38:46.651341824,TASK_BEGIN,008,2.332926652348322,2.3194064560367638,5.57612792738121,3.539296767181469,-2.3223704015690827,-0.7177931108317286,-8.629692664727665,4.142587066082587,1
169,2024-09-17 12:38:47.584682752,TASK_BEGIN,008,2.1891802998989047,2.31699647688284,5.498436451901629,3.533626269864083,-2.2724247571133707,-0.6794072650039995,-8.514172950813762,3.856268631441886,1
170,2024-09-17 12:38:47.663921152,TASK_BEGIN,008,2.0168598055516154,2.307587250690156,5.367420043691786,3.519382824449592,-2.255797531008553,-0.6328851221756592,-8.249773572629522,3.597617393052415,1
171,2024-09-17 12:38:47.724040960,TASK_BEGIN,008,1.8184359665679852,2.2926835449077387,5.184977814353403,3.492803352475127,-2.267690229343255,-0.5786620528029998,-7.84035859039905,3.3758823376019644,1
172,2024-09-17 12:38:47.799526912,TASK_BEGIN,008,1.5973017842979507,2.2738430211627034,4.957847564182842,3.4508381924766303,-2.302706524398312,-0.5177796233554487,-7.300312858674321,3.199335127369557,1
173,2024-09-17 12:38:47.864326912,TASK_BEGIN,008,1.357805920580085,2.2526946521790046,4.696210009280014,3.391576155979347,-2.355048437022085,-0.4518709752087283,-6.653085419346217,3.0745098697345963,1
174,2024-09-17 12:38:47.926418944,TASK_BEGIN,008,1.1051463610590604,2.23092446136518,4.411725213266572,3.3145098934961825,-2.418648076306815,-0.38299013652925407,-5.928463715379261,3.0052489489138416,1
175,2024-09-17 12:38:47.988419072,TASK_BEGIN,008,0.8451901187045135,2.2102306735856807,4.115767564724541,3.220542454653921,-2.487317801720901,-0.31332167039337555,-5.1589188535637085,2.991653376737273,1
176,2024-09-17 12:38:48.934031104,TASK_BEGIN,008,0.5842698081639817,2.1922468503004677,3.818303179643486,3.1117934740135644,-2.555004808087229,-0.2448617090469016,-4.376007552505899,3.029375061030261,1
177,2024-09-17 12:38:49.012040960,TASK_BEGIN,008,0.32891236960313175,2.1784411124961247,3.5274896794022985,2.9913344873196035,-2.6161637061544636,-0.17916175546852306,-3.6076877117661295,3.1097312704936826,1
178,2024-09-17 12:38:49.074016000,TASK_BEGIN,008,0.08544352947523193,2.170018048764782,3.24977575976632,2.862934027967472,-2.6660894383159293,-0.11720482333005018,-2.8769526072560954,3.2206826314596877,1
179,2024-09-17 12:38:49.149681920,TASK_BEGIN,008,-0.1404838083672818,2.167852571625986,2.9900962212188973,2.730819825490427,-2.701013815746032,-0.05943516322099191,-2.2017576495772557,3.3482395348601974,1
180,2024-09-17 12:38:49.213797120,TASK_BEGIN,008,-0.34429938377440983,2.1724644435437805,2.7519402728888074,2.5994400493168968,-2.717964902749934,-0.005901222004463276,-1.5957249562246956,3.4778365406809653,1
181,2024-09-17 12:38:49.275333888,TASK_BEGIN,008,-0.522743907358662,2.1840227138814594,2.537477347353413,2.4732125042051467,-2.7145708466337286,0.043559476163331334,-1.0688817692953512,3.595518203746443,1
182,2024-09-17 12:38:49.353079040,TASK_BEGIN,008,-0.6738832051002271,2.202366491217018,2.348024540751314,2.3562508892825127,-2.688975482170424,0.08915526660042182,-0.6281494153503211,3.6890468276911177,1
183,2024-09-17 12:38:50.283654912,TASK_BEGIN,008,-0.7969540152579697,2.2270328460785445,2.1847898779753803,2.2520657665715307,-2.6399358255360283,0.13103451213272685,-0.27793608193568187,3.749110378857141,1
184,2024-09-17 12:38:50.361731072,TASK_BEGIN,008,-0.892125590387665,2.257289626037256,2.0495773762090823,2.163261407541184,-2.567082918546735,0.16925645801572392,-0.021069766906647754,3.770630253373177,1
185,2024-09-17 12:38:50.430491904,TASK_BEGIN,008,-0.9602595317425761,2.2921818513165477,1.9452776390609903,2.091270422518788,-2.4712115680479507,0.2038238316279329,0.14050288980554881,3.7538357240947025,1
186,2024-09-17 12:38:50.485308160,TASK_BEGIN,008,-1.002717490770197,2.3306012581419324,1.8760931770048288,2.0361926853590537,-2.354393128038545,0.23472984228819688,0.20618217536961428,3.7045748423089586,1
187,2024-09-17 12:38:50.565934848,TASK_BEGIN,008,-1.021226097138426,2.3713698643449375,1.8474239148298395,1.9967991732652963,-2.219795856275413,0.2619682014915262,0.17850211985974612,3.6335054371113014,1
188,2024-09-17 12:38:50.633852160,TASK_BEGIN,008,-1.0177875420113778,2.4133151360518306,1.8653945203211872,1.9706900938422713,-2.071323501632306,0.285495780427559,0.06546566782587851,3.5542621325640833,1
189,2024-09-17 12:38:50.691928064,TASK_BEGIN,008,-0.9946204685280117,2.4553265723035973,1.936127292175613,1.9545405614490003,-1.9133415193883583,0.30519858528208377,-0.11744595139577454,3.481086713496786,1
190,2024-09-17 12:38:51.646403072,TASK_BEGIN,008,-0.9541173685151237,2.496396573388344,2.064903339116967,1.944390478262654,-1.7506308576050233,0.3209181149546369,-0.34632398865615943,3.4265520486839733,1
191,2024-09-17 12:38:51.707954176,TASK_BEGIN,008,-0.8988155934603623,2.53564555570866,2.2553001497145835,1.935967372455286,-1.5884484914750958,0.3325382381263414,-0.5895762918692599,3.3998802222112667,1
192,2024-09-17 12:38:51.769556992,TASK_BEGIN,008,-0.8313791914423363,2.5723310834531885,2.5083805292405965,1.9250180910147723,-1.4325249766807466,0.34009228082285836,-0.810216873463637,3.4059470353642753,1
193,2024-09-17 12:38:51.847664128,TASK_BEGIN,008,-0.7545649932716211,2.605849372732421,2.8219863814302917,1.9076317367249616,-1.2889186684039733,0.34384181459413105,-0.968809991914449,3.444768401468274,1
194,2024-09-17 12:38:51.909326080,TASK_BEGIN,008,-0.6711452548742112,2.635740224742353,3.190033368302264,1.8805831272899283,-1.1636849064307038,0.3442799204185316,-1.0266654297182298,3.511476592933113,1
195,2024-09-17 12:38:51.971004928,TASK_BEGIN,008,-0.5838001340716911,2.6616978838847594,3.601797101928323,1.8416912246103865,-1.0623996709578447,0.3420511673668236,-0.9495328197937019,3.5970319276484943,1
196,2024-09-17 12:38:52.048393984,TASK_BEGIN,008,-0.49501959706393317,2.683578202292969,4.041641688275781,1.7900669492857222,-0.9896802769342612,0.3378400906979238,-0.7116549140094804,3.689660374535828,1
197,2024-09-17 12:38:52.965009152,TASK_BEGIN,008,-0.4070325312363013,2.701387627844093,4.489742804050118,1.7261276908203664,-0.9488076069826598,0.3322881960132484,-0.2993550066377637,3.776660529968067,1
198,2024-09-17 12:38:53.027565056,TASK_BEGIN,008,-0.3217568622941305,2.715249909684471,4.9238888550712145,1.6513964056862127,-0.9414451055902803,0.3259549918831442,0.2867889034638656,3.846201929269111,1
199,2024-09-17 12:38:53.089167872,TASK_BEGIN,008,-0.24076383599040152,2.72536161793966,5.321946418612672,1.568176587532866,-0.9674216050810149,0.3193026497487566,1.0316292508828648,3.888869541265634,1
200,2024-09-17 12:38:53.167757056,TASK_BEGIN,008,-0.16523465671257037,2.7319460267926643,5.664280001206956,1.4791996262425995,-1.024567531322572,0.31268899613953777,1.906755736837073,3.8987912896908967,1
201,2024-09-17 12:38:53.240158976,TASK_BEGIN,008,-0.09587817250797334,2.7352053484453007,5.935362675084124,1.3873805558821415,-1.108603725781,0.3063645983253918,2.8730415860599345,3.8742131774194046,1
202,2024-09-17 12:38:53.307751936,TASK_BEGIN,008,-0.03283149735760592,2.735277316398691,6.124194870279939,1.2957897224932349,-1.2131157078192578,0.3004527383410893,3.8842945151346218,3.817425098617357,1
203,2024-09-17 12:38:53.370237952,TASK_BEGIN,008,0.024363563108557935,2.7322141114289424,6.223788897737576,1.2077729962111932,-1.3296845395145973,0.29488573363125303,4.8917434162323445,3.734056502587581,1
204,2024-09-17 12:38:54.307833088,TASK_BEGIN,008,0.07662674386411385,2.7259976331650004,6.230338329378969,1.1270028790808932,-1.4482364400996508,0.28931243466792056,5.848659517418405,3.631937579778072,1
205,2024-09-17 12:38:54.386390784,TASK_BEGIN,008,0.12507822632760543,2.716584351745768,6.142596847670536,1.0572935206743794,-1.5576686510959636,0.2830306317654962,6.714328805483804,3.5198187588739094,1
206,2024-09-17 12:38:54.454628864,TASK_BEGIN,008,0.17078020008031367,2.7039521506530844,5.961665032984329,1.002216231698705,-1.6467972376524684,0.2749849808399505,7.4571529259475,3.4061122260308,1
207,2024-09-17 12:38:54.522393088,TASK_BEGIN,008,0.2145787621206906,2.688122669334903,5.691068172854849,0.9647042636925187,-1.7055508752871353,0.2638358108652804,8.057346963743491,3.297632439129664,1
208,2024-09-17 12:38:54.590225920,TASK_BEGIN,008,0.25704481965513487,2.6691555532402176,5.336935740681754,0.9467893874342798,-1.7261698027712624,0.2480865284456477,8.509388408074852,3.19843850295842,1
209,2024-09-17 12:38:54.657351168,TASK_BEGIN,008,0.29849485921012536,2.647127468171066,4.908258276594607,0.9494598051446964,-1.704171505563711,0.22625263794773906,8.823153805057776,3.1091742447361037,1
210,2024-09-17 12:38:54.719410944,TASK_BEGIN,008,0.33909724539274255,2.6221061804258166,4.417271897768865,0.9725686665053499,-1.6390095682750523,0.1970574639083976,9.022281688055052,3.027233924048938,1
211,2024-09-17 12:38:55.656060928,TASK_BEGIN,008,0.3790142924888927,2.594126228841597,3.8798207969206238,1.0147947982338283,-1.5344169892287862,0.15964069755634364,9.139555458463697,2.947625379089468,1
212,2024-09-17 12:38:55.736922112,TASK_BEGIN,008,0.4184619847590704,2.563174794107941,3.3153179742281402,1.0737411993591113,-1.3983286340224848,0.11375123580882934,9.210909922994466,2.8640318100986795,1
213,2024-09-17 12:38:55.796664064,TASK_BEGIN,008,0.45763448317994915,2.5291911444333386,2.7460815412530364,1.1462151508557332,-1.2422517156136554,0.05987964162394989,9.270284173003887,2.7696604952170194,1
214,2024-09-17 12:38:55.872509952,TASK_BEGIN,008,0.49656846169020985,2.492076502637518,2.1962303739663205,1.228593193053476,-1.080083951644219,-0.0007112392851284972,9.346420292232672,2.6578740386106405,1
215,2024-09-17 12:38:55.936688896,TASK_BEGIN,008,0.5350308163315411,2.4517192021891483,1.6903637948331132,1.3171281674543007,-0.9265626927866282,-0.06607639840169635,9.461238360970436,2.5227815151286825,1
216,2024-09-17 12:38:55.998686976,TASK_BEGIN,008,0.5724361449140175,2.408043814720699,1.2520401616704444,1.408132268441174,-0.7956975303205768,-0.13378071847127118,9.62895061052199,2.3598148237420853,1
217,2024-09-17 12:38:56.060743168,TASK_BEGIN,008,0.6078005185287706,2.361074612646367,0.9021343123047008,1.4980315518024439,-0.6995520786023827,-0.2011373099187592,9.855427495262784,2.1662599042954316,1
218,2024-09-17 12:38:56.984787968,TASK_BEGIN,008,0.6398089104711603,2.310987754269592,0.6572762547108068,1.5833424361844934,-0.6474697532755218,-0.26543124022897324,10.13784343806312,1.9417716125390758,1
219,2024-09-17 12:38:57.061275904,TASK_BEGIN,008,0.6670736757828293,2.258130661273531,0.5285385117886506,1.660675402136032,-0.6455127723553278,-0.324102652819443,10.464916121257117,1.6888215963939026,1
220,2024-09-17 12:38:57.129554944,TASK_BEGIN,008,0.6885325806937374,2.203001021869116,0.5205455624090358,1.726833405500587,-0.6958832196478612,-0.3749040316524527,10.818084905846527,1.4129414077484563,1
221,2024-09-17 12:38:57.186062080,TASK_BEGIN,008,0.7037892821066837,2.146197692649077,0.6311270581812247,1.7790013083976546,-0.7964324140176869,-0.4160489040249119,11.173923221746143,1.1226521367455506,1
222,2024-09-17 12:38:57.264013056,TASK_BEGIN,008,0.7131942424756287,2.0883758164294157,0.8515555023335104,1.814977196355647,-0.9406481937953504,-0.4463340040204054,11.507786621384028,0.8290099350653892,1
223,2024-09-17 12:38:57.328165888,TASK_BEGIN,008,0.7176076885728029,2.030239720567563,1.1674870772774673,1.83334552903346,-1.1183922981136496,-0.46519599914401133,11.798095008667312,0.5447715007383332,1
224,2024-09-17 12:38:57.389032960,TASK_BEGIN,008,0.7179732600912868,1.9725752330531403,1.5606338611544175,1.8335229655560779,-1.317246713571593,-0.4726937824848634,12.030052591659253,0.2833590297582522,1
225,2024-09-17 12:38:58.344253952,TASK_BEGIN,008,0.714942871865074,1.916274054291984,2.0107570463749815,1.8157145157693453,-1.524062247166463,-0.4694458507897736,12.197403461780365,0.05791523511517281,1
226,2024-09-17 12:38:58.399787776,TASK_BEGIN,008,0.7087199663054481,1.862292763116147,2.497310708386181,1.7808198927307235,-1.726386775089873,-0.4565441951498684,12.301478371505265,-0.11936568437862793,1
227,2024-09-17 12:38:58.477454080,TASK_BEGIN,008,0.6990947845114476,1.8115437438043382,3.000381590792798,1.7302598602844925,-1.9136106432257867,-0.435441821677417,12.348191624940121,-0.2376611052327106,1
228,2024-09-17 12:38:58.540402176,TASK_BEGIN,008,0.6855454940488305,1.764776080646238,3.5010729151129834,1.6657431290342797,-2.0776951772243057,-0.4078151003247998,12.344657701512038,-0.28787354524215125,1
229,2024-09-17 12:38:58.608313856,TASK_BEGIN,008,0.6673217831811061,1.7225068481527337,3.9816606317982393,1.5891022171138467,-2.213403501808641,-0.37541687286187775,12.297002342538628,-0.26309511543287123,1
230,2024-09-17 12:38:58.670405120,TASK_BEGIN,008,0.6434909655034788,1.6850169195530218,4.425780090957289,1.5022809423671435,-2.3180908305090586,-0.3399468562115424,12.210271549917902,-0.1592977388288446,1
231,2024-09-17 12:38:58.748101120,TASK_BEGIN,008,0.6129568629280844,1.6523859400617544,4.818769566513075,1.4074139684318678,-2.391199609241452,-0.30296264503725456,12.090541128032397,0.023692260707617572,1
232,2024-09-17 12:38:59.693751040,TASK_BEGIN,008,0.5744842765647074,1.6245400085656911,5.148173964553385,1.3068950094904728,-2.4336660521648796,-0.26581689027228267,11.94817145788243,0.2810620015399335,1
233,2024-09-17 12:38:59.747565824,TASK_BEGIN,008,0.5267711922208562,1.6013039339077937,5.404367200144624,1.203391860491271,-2.447476164678639,-0.2295809023815963,11.800081330363072,0.6022031385916389,1
234,2024-09-17 12:38:59.829405952,TASK_BEGIN,008,0.4685931449363667,1.5824555381196124,5.581144303342132,1.0998499713887842,-2.4354635002323626,-0.1949559901616107,11.669049606731871,0.9708781879863219,1
235,2024-09-17 12:38:59.897200128,TASK_BEGIN,008,0.3990063440249964,1.5677714187793108,5.676025356671994,0.999556818274782,-2.4012485637151535,-0.16221543330621407,11.579584315785802,1.366727847691554,1
236,2024-09-17 12:38:59.949436928,TASK_BEGIN,008,0.31754856726549974,1.557054675269297,5.69021237574805,0.9062504189216773,-2.3492317335080433,-0.1311945899907344,11.552054037242096,1.7678309140578754,1
237,2024-09-17 12:39:00.027842048,TASK_BEGIN,008,0.22436564347664625,1.5501488219263275,5.628369000129185,0.8241461006197083,-2.284632558070368,-0.10131700045622825,11.598240870854728,2.153397793061631,1
238,2024-09-17 12:39:00.090327808,TASK_BEGIN,008,0.12024818688776447,1.5469440673852155,5.498253621939565,0.7577962318953602,-2.213493346147315,-0.071665546397223,11.72067121152264,2.5056801602459986,1
239,2024-09-17 12:39:01.043822080,TASK_BEGIN,008,0.006620543930906014,1.5473665469559792,5.310136394185414,0.7118036001267937,-2.1424789638359183,-0.041117942323852796,11.915268759648235,2.810895505851863,1
240,2024-09-17 12:39:01.111686912,TASK_BEGIN,008,-0.11449554392350487,1.5513388619511719,5.076176724964445,0.6904014436808509,-2.0784479697766085,-0.008520828962929291,12.174726727311157,3.0595940777192263,1
241,2024-09-17 12:39:01.179361024,TASK_BEGIN,008,-0.2405712249996242,1.5587245959572331,4.809959519488481,0.6968916459268941,-2.0279868974309236,0.027158114707593335,12.490433335399407,3.246839522044454,1
242,2024-09-17 12:39:01.246002944,TASK_BEGIN,008,-0.36872631700024094,1.5692879093164405,4.526038303273152,0.7330242800246639,-1.99705087600137,0.06672781793104171,12.852777108143078,3.372156648809271,1
243,2024-09-17 12:39:01.302941184,TASK_BEGIN,008,-0.4958985090575837,1.582687560464415,4.239384978278016,0.7984638046892892,-1.9906445153123602,0.11069838252745245,13.250926400873217,3.4390198535681424,1
244,2024-09-17 12:39:01.380214016,TASK_BEGIN,008,-0.6189669726699092,1.598497871353607,3.9650784485455968,0.8904489483009956,-2.01245271303863,0.15921076053046423,13.67295424688585,3.45387954167815,1
245,2024-09-17 12:39:01.442248960,TASK_BEGIN,008,-0.734829687471993,1.6162321419174877,3.7184521716471703,1.0037438814634734,-2.0644224599954355,0.21197706302078792,14.106392460179398,3.425021431042109,1
246,2024-09-17 12:39:02.388837888,TASK_BEGIN,008,-0.8404899573705537,1.6353524335031053,3.5153156428384547,1.1309716422095162,-2.1463103619618713,0.2682419793309275,14.538895156347772,3.3615708199064978,1
247,2024-09-17 12:39:02.451322880,TASK_BEGIN,008,-0.933214364571619,1.6552763296714617,3.37166548240414,1.263286892656995,-2.2552843633225246,0.32678297195605466,14.958943097148406,3.272764216734531,1
248,2024-09-17 12:39:02.527971840,TASK_BEGIN,008,-1.0107701278706744,1.675401162639817,3.30272625655862,1.3911861862784487,-2.3857897730230797,0.38597884712984226,15.356971494787805,3.1674466774881624,1
249,2024-09-17 12:39:02.598512896,TASK_BEGIN,008,-1.0716779086094035,1.6951457412615092,3.3216649602937074,1.5052626576747925,-2.5297929165920836,0.4439429597570525,15.72694385860391,3.0536724073773307,1
250,2024-09-17 12:39:02.651391232,TASK_BEGIN,008,-1.115390098464744,1.713991999635891,3.4383393437893575,1.5968539472969456,-2.6773210852775127,0.4986685985918151,16.067404319693235,2.9383478122121662,1
251,2024-09-17 12:39:02.728903936,TASK_BEGIN,008,-1.1423268953455314,1.7315148908076046,3.6581118278123848,1.658628344172454,-2.817206539876888,0.5481412238422476,16.381183711751103,2.827000647707093,1
252,2024-09-17 12:39:02.791865856,TASK_BEGIN,008,-1.153750270796337,1.7474001633843024,3.9808265654642137,1.685121485913669,-2.938002189413637,0.5904182210198505,16.67419634631563,2.7237203226809283,1
253,2024-09-17 12:39:03.719537152,TASK_BEGIN,008,-1.1515210785291459,1.7614525318200982,4.40034459712768,1.6731617055666148,-3.0290306299751215,0.6237142512372532,16.954071712987883,2.6311505610740316,1
254,2024-09-17 12:39:03.776176896,TASK_BEGIN,008,-1.1378222938151397,1.7735960705534672,4.90473079592977,1.6221183737209406,-3.0815220723734154,0.6465458346560503,17.228769370858718,2.5504162591881823,1
255,2024-09-17 12:39:03.855214080,TASK_BEGIN,008,-1.1149149711575777,1.7838721594891187,5.476750803378094,1.5339433679708305,-3.0897432987322,0.6579556065160803,17.505363419125736,2.4809873487803653,1
256,2024-09-17 12:39:03.916990976,TASK_BEGIN,008,-1.0849679909177143,1.7924464958186415,6.0946261595783,1.412991421342911,-3.051887909484663,0.6577557378264596,17.789279049684986,2.4206209378958055,1
257,2024-09-17 12:39:03.979027968,TASK_BEGIN,008,-1.0499765784511224,1.7996287988275406,6.733341980234597,1.2656319793154274,-2.970490919777633,0.6466935709428248,18.08359179933187,2.3656410887960866,1
258,2024-09-17 12:39:04.058559744,TASK_BEGIN,008,-1.0117338423230113,1.8058841779003616,7.366420892385278,1.0997155675594192,-2.85231753353323,0.6264964316584929,18.387745969098933,2.3116802332813715,1
259,2024-09-17 12:39:04.119176960,TASK_BEGIN,008,-0.9717919952275702,1.8118072915813472,7.967638390553351,0.923972234843049,-2.7078128106345103,0.599805064222948,18.695846121258985,2.2546822798310395,1
260,2024-09-17 12:39:05.068332032,TASK_BEGIN,008,-0.9313984782308049,1.8180593397779867,8.512335399783263,0.7473682994506122,-2.550175772824108,0.5699971190273287,18.995473786107787,2.1918517212691406,1
261,2024-09-17 12:39:05.137436928,TASK_BEGIN,008,-0.891465000119301,1.8252977382387001,8.97833331655109,0.5784238641812481,-2.394085689096611,0.5408928201711136,19.26813372050924,2.122329305948899,1
262,2024-09-17 12:39:05.192709888,TASK_BEGIN,008,-0.8526137037621108,1.8341179762410136,9.346496822253261,0.4245795883595095,-2.254166407750086,0.5163668354881835,19.491980215590395,2.0474374645699456,1
263,2024-09-17 12:39:05.272988928,TASK_BEGIN,008,-0.8152404149359102,1.8449934548781652,9.600954104129064,0.291760898427936,-2.1434160836840923,0.4999295704678825,19.64639298855221,1.9703970731070721,1
264,2024-09-17 12:39:05.332888064,TASK_BEGIN,008,-0.779491793665794,1.8581916438919521,9.729108680711882,0.1841902543102766,-2.071899470833304,0.49434890136147625,19.716701600801816,1.895629900308938,1
265,2024-09-17 12:39:05.396457984,TASK_BEGIN,008,-0.7451656206087856,1.873679754698211,9.721693781473093,0.10438004447911532,-2.0458457403003343,0.5013584529759785,19.69680246866566,1.8279878157203895,1
266,2024-09-17 12:39:05.476387840,TASK_BEGIN,008,-0.7116777639997027,1.8910732359927878,9.573140159649533,0.05322306634356662,-2.0670829073757093,0.5214647717908607,19.588315379829798,1.7721685281450439,1
267,2024-09-17 12:39:06.419373056,TASK_BEGIN,008,-0.6782008794712713,1.9096722577871255,9.282464351617302,0.030118571318023018,-2.132743155852801,0.5538573875557524,19.396935706081255,1.732299850228338,1
268,2024-09-17 12:39:06.481394944,TASK_BEGIN,008,-0.6439077724891056,1.928572393283314,8.854568201973489,0.03310931944953789,-2.2353463431275955,0.5964515476920195,19.1278977484754,1.7115874146441423,1
269,2024-09-17 12:39:06.543880960,TASK_BEGIN,008,-0.6081736843840043,1.9467913746566723,8.301339229085391,0.05908414004928804,-2.3634223384971254,0.6460980354277037,18.782131151864373,1.7119853118353225,1
270,2024-09-17 12:39:06.618148864,TASK_BEGIN,008,-0.570674221945265,1.9633696189569412,7.641751194368284,0.1041382497024522,-2.5026582860889586,0.6989350937479815,18.354131404082,1.733855519989922,1
271,2024-09-17 12:39:06.679151104,TASK_BEGIN,008,-0.5314042888650836,1.9774398244699862,6.9006649213404865,0.16408887306171765,-2.637387191867788,0.7507988141493448,17.8323351237296,1.7756507051026433,1
272,2024-09-17 12:39:06.756382976,TASK_BEGIN,008,-0.49063952695730173,1.9882685050333835,6.106866552645392,0.23498969718510113,-2.7522457873264683,0.7976256628000201,17.202075386626113,1.8338550533464824,1
273,2024-09-17 12:39:06.818870016,TASK_BEGIN,008,-0.44883893042518086,1.9952669320010015,5.2911603600026,0.3134526567062313,-2.833855713573211,0.835829245498617,16.45028500850497,1.9034222674042853,1
274,2024-09-17 12:39:07.770432768,TASK_BEGIN,008,-0.40651147804966503,1.997984990669884,4.484894868604965,0.3967086210279469,-2.8722545402651156,0.8626313386656381,15.570989640443711,1.9785779075792675,1
275,2024-09-17 12:39:07.838015232,TASK_BEGIN,008,-0.36408343114099373,1.996113294906332,3.7188365130712735,0.48249238921473026,-2.861711545234514,0.8762951244751419,14.570822810771174,2.0535846009740113,1
276,2024-09-17 12:39:07.900929024,TASK_BEGIN,008,-0.3217799636747203,1.9894984083680336,3.022051518769739,0.5689160046907703,-2.800749568292902,0.8762111395092261,13.473378517625706,2.1232848653854894,1
277,2024-09-17 12:39:07.963414784,TASK_BEGIN,008,-0.2795475783786057,1.9781559158962985,2.4203529479408403,0.6544590157357382,-2.691515635948484,0.8628210428024838,12.32068092898869,2.1835327823149204,1
278,2024-09-17 12:39:08.041105920,TASK_BEGIN,008,-0.23707419756360815,1.9622745948902025,1.9342707776781227,0.7380691559542544,-2.5388210367427004,0.8374035601868451,11.170146859876652,2.2316569081819053,1
279,2024-09-17 12:39:08.103601152,TASK_BEGIN,008,-0.19390782038621104,1.9422165845617785,1.5772135598142336,0.8192443433105563,-2.349159253902802,0.8017836708842826,10.08659142669632,2.2669844083257256,1
280,2024-09-17 12:39:08.166110208,TASK_BEGIN,008,-0.14957463340796967,1.9185103960743581,1.3545071317275463,0.8979921902016442,-2.129921727894792,0.7580458073544548,9.1314772370742,2.291234435964031,1
281,2024-09-17 12:39:09.092830720,TASK_BEGIN,008,-0.10359910778552563,1.8918250007709596,1.2632800335305838,0.9746898953136569,-1.888952765645513,0.7083238977200169,8.35370311455073,2.308380628503674,1
282,2024-09-17 12:39:09.155316224,TASK_BEGIN,008,-0.055439596035376376,1.8629245535752066,1.2928604020341619,1.0498999683465162,-1.6344524886119551,0.6547037573798314,7.784997075881664,2.323683436098231,1
283,2024-09-17 12:39:09.230468096,TASK_BEGIN,008,-0.0044491907732515205,1.8326217756926237,1.4257486180250207,1.1241284641506386,-1.3750529763975576,0.5992185158073493,7.440019998813887,2.3420227053437594,1
284,2024-09-17 12:39:09.296750080,TASK_BEGIN,008,0.050040928595954194,1.8017494623340926,1.6394492537468186,1.1975211599662363,-1.1198729070001892,0.5438879614117075,7.3194734718766385,2.3662109597156107,1
285,2024-09-17 12:39:09.357650944,TASK_BEGIN,008,0.10852551146114997,1.77114881103474,1.9090080977478288,1.2695871063939757,-0.8784838130275868,0.4907636251104036,7.413748949160415,2.396171854394783,1
286,2024-09-17 12:39:09.419833088,TASK_BEGIN,008,0.17111587895658503,1.741649777631989,2.209546371682905,1.3390679724454306,-0.6607402802179372,0.44195530441971853,7.7051480437408175,2.429286051831853,1
287,2024-09-17 12:39:09.496566272,TASK_BEGIN,008,0.23740874266647882,1.7140202670484865,2.5181754761792923,1.4039897917472863,-0.47639835196262736,0.39961282243043017,8.168834948342003,2.461365579979266,1
288,2024-09-17 12:39:10.432512000,TASK_BEGIN,008,0.306465178120616,1.6888913765402092,2.8153080409643993,1.4618426101508422,-0.33455883673110803,0.3658434992563635,8.774050979697895,2.487571131978429,1
289,2024-09-17 12:39:10.511368960,TASK_BEGIN,008,0.37688437529658053,1.66669167234853,3.085714378416015,1.5098446723907626,-0.24306773158701997,0.34256955179743515,9.486196714550976,2.503045043406815,1
290,2024-09-17 12:39:10.579852032,TASK_BEGIN,008,0.4469324552894765,1.6476155636611023,3.319373079126402,1.545310304762454,-0.20791896277397606,0.3313421063741173,10.269234232850724,2.503347426662757,1
291,2024-09-17 12:39:10.643275776,TASK_BEGIN,008,0.5146883548378752,1.6316270286448415,3.5117998389967515,1.5660992216271525,-0.2326213173724542,0.3331286229241045,11.087764470280643,2.4848326136053362,1
292,2024-09-17 12:39:10.715548160,TASK_BEGIN,008,0.578192658531978,1.6184904592930507,3.6637019920652554,1.5709995415248097,-0.3175924904079634,0.34811692075918804,11.908233862247219,2.4451389618653976,1
293,2024-09-17 12:39:10.783668992,TASK_BEGIN,008,0.6356088323130963,1.607819204686976,3.780224192159982,1.5598755901644625,-0.45978447866061467,0.3756166171121597,12.6991978220973,2.3838323450271286,1
294,2024-09-17 12:39:10.844625920,TASK_BEGIN,008,0.6854112611824821,1.5991257082656372,3.870071053659463,1.5335564657467644,-0.6527412616531606,0.4141191558396859,13.43129486884507,2.3029443312475193,1
295,2024-09-17 12:39:11.788459008,TASK_BEGIN,008,0.7265965834148231,1.5918592422986717,3.9445118040794336,1.4935979205557577,-0.8871745614393487,0.46150147679065157,14.077347292385394,2.207135558615125,1
296,2024-09-17 12:39:11.862295808,TASK_BEGIN,008,0.7588746178034079,1.5854396857327215,4.016240116780494,1.4420407486899964,-1.1519746339133736,0.5153028974569583,14.61242754940391,2.1034782127014964,1
297,2024-09-17 12:39:11.928143104,TASK_BEGIN,008,0.7827560776551934,1.5793114242469621,4.098258582196671,1.381161875403831,-1.4353746719022555,0.573003556822403,15.013696980314096,2.0010097636381317,1
298,2024-09-17 12:39:11.990142976,TASK_BEGIN,008,0.7994900623411049,1.573015669301336,4.202924708990073,1.3131913784610145,-1.7259102183081008,0.6322508284549013,15.259932502921265,1.9102472751129425,1
299,2024-09-17 12:39:12.052143104,TASK_BEGIN,008,0.8109104702252269,1.5662390797569519,4.341064521898975,1.2400669161701334,-2.012958203083,0.6909960240649744,15.331232126000776,1.8427295823150092,1
300,2024-09-17 12:39:12.133436928,TASK_BEGIN,008,0.8192782517762776,1.5588047538707206,4.521024576253765,1.1633244927411575,-2.2868770183911464,0.747532256741476,15.210277384169766,1.8103186493320222,1
301,2024-09-17 12:39:12.201233920,TASK_BEGIN,008,0.8271232593432294,1.5506208668793902,4.747564870472485,1.0841488068912246,-2.538965866971897,0.8004677903461325,14.886179496508253,1.8239001690285739,1
302,2024-09-17 12:39:13.135034112,TASK_BEGIN,008,0.8370372530745939,1.5416282988284973,5.020464590619276,1.0035483932396874,-2.761529401563295,0.8486927913676379,14.360032385994494,1.8915702719820058,1
303,2024-09-17 12:39:13.212271104,TASK_BEGIN,008,0.8513946444721167,1.5317732969592144,5.333015086672088,0.92261913146412,-2.9481689349516995,0.8913690127258392,13.649619241632646,2.016875308499762,1
304,2024-09-17 12:39:13.280761088,TASK_BEGIN,008,0.8720217546121899,1.5210041102183498,5.671055596602205,0.8428637102109208,-3.094170844503392,0.9279274316987725,12.790937317115487,2.1976748821385943,1
305,2024-09-17 12:39:13.336550144,TASK_BEGIN,008,0.8998864486620028,1.5092766175115129,6.013177697657878,0.7665054756101114,-3.1968157944885642,0.9580584732387109,11.835904853967904,2.425864408469636,1
306,2024-09-17 12:39:13.416331008,TASK_BEGIN,008,0.934919717386126,1.4965575625440697,6.332174019993036,0.6967005134150869,-3.25552856102358,0.9817002075471442,10.847245148850336,2.687882056512891,1
307,2024-09-17 12:39:13.483354880,TASK_BEGIN,008,0.9760457880397835,1.4828204664275169,6.597347684732287,0.6375551996125995,-3.2718277740682513,0.9990214035292001,9.892239807351412,2.965792532836855,1
308,2024-09-17 12:39:13.538232064,TASK_BEGIN,008,1.021400304635352,1.4680248711317254,6.7773057271479304,0.593884922340965,-3.249072972165366,1.0103820133486892,9.036648806318446,3.2388213454082067,1
309,2024-09-17 12:39:14.456229888,TASK_BEGIN,008,1.0686554378980797,1.452067376041689,6.843065425694409,0.5706916123278015,-3.19209446066052,1.0162696422055515,8.339028074100986,3.485399601031954,1
310,2024-09-17 12:39:14.533875968,TASK_BEGIN,008,1.115377076762903,1.4347140536039826,6.7712385537543875,0.572415166645716,-3.1068486824489523,1.0172401829093174,7.8450480471582065,3.6857255773795137,1
311,2024-09-17 12:39:14.594515200,TASK_BEGIN,008,1.1593660478582903,1.4155510399264941,6.546787000717007,0.6021102400230228,-3.0002128817054645,1.0138984033104075,7.582080306312438,3.8244077035974327,1
312,2024-09-17 12:39:14.672614912,TASK_BEGIN,008,1.1989504091123442,1.3939855429669445,6.164800458790989,0.6607602924724633,-2.879898142177321,1.006926194927287,7.555536484871704,3.892416047336901,1
313,2024-09-17 12:39:14.740395008,TASK_BEGIN,008,1.233176615954929,1.3692985229992045,5.631044920776921,0.7469197450477991,-2.754311793746806,0.9971241686647435,7.7485896659512505,3.8878228206341894,1
314,2024-09-17 12:39:14.795787008,TASK_BEGIN,008,1.261823980913595,1.3407273641016717,4.961381022482364,0.8567551586118182,-2.632188271030023,0.9854144248522642,8.125711876595247,3.815387392351166,1
315,2024-09-17 12:39:14.873947904,TASK_BEGIN,008,1.2852251894820745,1.3075506060938298,4.180353553980589,0.984401840491621,-2.5219325017625525,0.972776846219377,8.63902680560972,3.6854163529073753,1
316,2024-09-17 12:39:15.819264768,TASK_BEGIN,008,1.3039811524890597,1.2691529967133754,3.319296667950121,1.1224969726060947,-2.430789017739781,0.9601351093542805,9.235680549852262,3.5123059835358386,1
317,2024-09-17 12:39:15.887138048,TASK_BEGIN,008,1.3186822324708998,1.2250688922494966,2.4141204704059547,1.262834866037604,-2.364084264335641,0.9482372393059343,9.864568364968887,3.3128498965385034,1
318,2024-09-17 12:39:15.941903104,TASK_BEGIN,008,1.3296974578997893,1.1750207782119373,1.5027129407312139,1.3971631240168656,-2.3247848409770153,0.9375819247400438,10.481621991883681,3.104218563735541,1
319,2024-09-17 12:39:16.020034816,TASK_BEGIN,008,1.3370660793021465,1.1189663502342768,0.6220532712383456,1.5180347222261001,-2.3134144863918897,0.9284139546882868,11.053560459954141,2.9018179523990915,1
320,2024-09-17 12:39:16.082523136,TASK_BEGIN,008,1.3405149746192189,1.0571497997884003,-0.19446184715793355,1.619466513795833,-2.328164158860973,0.9207487333185678,11.559849504765271,2.7175479313414397,1
321,2024-09-17 12:39:16.144539136,TASK_BEGIN,008,1.3395781308571049,0.9901444852880151,-0.9190144226991321,1.6972129305762143,-2.365056805979744,0.9143582976092821,11.992293064530594,2.5587866529548315,1
322,2024-09-17 12:39:16.225852160,TASK_BEGIN,008,1.3337413594937189,0.918874235834553,-1.5306066138478236,1.7487157482444924,-2.4182004969344217,0.9087080737446266,12.352124369517966,2.4280777443325303,1
323,2024-09-17 12:39:17.170906880,TASK_BEGIN,008,1.3225220457595335,0.8446026779494316,-2.015512004994066,1.7729185765689648,-2.480235934608459,0.9029042489928207,12.645412930922152,2.3234694089560253,1
324,2024-09-17 12:39:17.234792960,TASK_BEGIN,008,1.3054252216104987,0.7688941526958494,-2.366785378253017,1.7700483867977024,-2.543011528246436,0.8957141690389947,12.878357799716557,2.2395124845182868,1
325,2024-09-17 12:39:17.306519040,TASK_BEGIN,008,1.2818096756533102,0.6935592269080668,-2.5830589058392723,1.7413795166101649,-2.5983756109391103,0.8856665430010098,13.05398810503393,2.168769922410126,1
326,2024-09-17 12:39:17.359159808,TASK_BEGIN,008,1.2508025131137117,0.6205780190834976,-2.6673225237721105,1.68901541567711,-2.638863836985997,0.8711920931556102,13.170753083937086,2.103510133395719,1
327,2024-09-17 12:39:17.438054912,TASK_BEGIN,008,1.2113792872056388,0.5519791560151949,-2.6261841321889263,1.6157359267370686,-2.658136730942603,0.8507815276446232,13.222595204604966,2.037239982085211,1
328,2024-09-17 12:39:17.499424000,TASK_BEGIN,008,1.1625715996574935,0.4896772496872168,-2.469576113503611,1.5249159591355896,-2.6512744295729416,0.823180141950653,13.200218360051872,1.9658370925110338,1
329,2024-09-17 12:39:17.577799168,TASK_BEGIN,008,1.1036545571931973,0.43530771897904136,-2.2106905618134367,1.420489118657255,-2.6151285431534177,0.7876156759587466,13.093337218414291,1.8881885787597052,1
330,2024-09-17 12:39:18.515187968,TASK_BEGIN,008,1.0342204009956757,0.3901028387493793,-1.8659513323768169,1.3069061957374333,-2.5487033287992613,0.7439889781247313,12.893082890221187,1.80632760917535,1
331,2024-09-17 12:39:18.587333888,TASK_BEGIN,008,0.9541786187448672,0.35482527152612714,-1.4547885834968297,1.1890259740238824,-2.4533521667121128,0.6929561713646615,12.593609778932779,1.7250824334032513,1
332,2024-09-17 12:39:18.655134976,TASK_BEGIN,008,0.8637820728990044,0.3297454051836024,-0.9989718529576437,1.0719095272539187,-2.332684711983849,0.6358939212775802,12.192870938073192,1.6513232642521933,1
333,2024-09-17 12:39:18.722893056,TASK_BEGIN,008,0.7637165535979407,0.3146481371770303,-0.5213608574754897,0.9605307798675349,-2.1922188993249185,0.5747732699811949,11.693222300321967,1.592928707754413,1
334,2024-09-17 12:39:18.790675968,TASK_BEGIN,008,0.6552035221451201,0.30887345592071996,-0.044196048692689144,0.8594358554060284,-2.0388131535953185,0.5119629954054701,11.102222942489451,1.5575247600643345,1
335,2024-09-17 12:39:18.855184128,TASK_BEGIN,008,0.5400544986151282,0.31139732606860926,0.4125813830393917,0.7724131246884108,-1.8799725609630755,0.4499946737193344,10.433745639353665,1.5510714145942166,1
336,2024-09-17 12:39:18.917910272,TASK_BEGIN,008,0.42066422289290306,0.3209407640238218,0.8324270953665215,0.7022664425964773,-1.7232339519637812,0.39133824160410574,9.709456337601324,1.576602642758564,1
337,2024-09-17 12:39:19.830142208,TASK_BEGIN,008,0.2999617752170804,0.3360803668721581,1.2026336349329663,0.6507528443722251,-1.5757470762841845,0.3382141993075044,8.959930560692936,1.6335789823626823,1
338,2024-09-17 12:39:19.908670976,TASK_BEGIN,008,0.18132155867360036,0.3553402513638242,1.5145452363115468,0.618643624487551,-1.4439220477255343,0.29243506875707126,8.224046372625033,1.7180666745519975,1
339,2024-09-17 12:39:19.970843904,TASK_BEGIN,008,0.06839973503362469,0.37726896826340517,1.763887575098226,0.6057961291976482,-1.3329242581833496,0.2552735174917891,7.54604764909467,1.823536973873905,1
340,2024-09-17 12:39:20.033785088,TASK_BEGIN,008,-0.035123358421953285,0.4005172840128398,1.9510660219066411,0.6111738457057341,-1.245964145869713,0.2273725666763519,6.970951472541389,1.9418683733727853,1
341,2024-09-17 12:39:20.111096064,TASK_BEGIN,008,-0.12584257213727212,0.42391449835432693,2.081066992795903,0.6328617766975684,-1.1835978861749332,0.2087170727935375,6.539741893402859,2.064160974225157,1
342,2024-09-17 12:39:20.173132800,TASK_BEGIN,008,-0.2008881675112766,0.4465187545922111,2.1627671277917404,0.6681600373004336,-1.1434792152777877,0.1986973519724895,6.285693886138519,2.1812212813981464,1
343,2024-09-17 12:39:20.250756096,TASK_BEGIN,008,-0.25811727440330007,0.46762461762890145,2.2076487226883774,0.7137980937103792,-1.1209242999123723,0.19629224504767037,6.232105414704134,2.2839333483495636,1
344,2024-09-17 12:39:21.183535104,TASK_BEGIN,008,-0.2962486286853679,0.48673741447717384,2.2279993118553434,0.7662784061413519,-1.1101488885639965,0.2003386194391119,6.390698626406738,2.363846374993235,1
345,2024-09-17 12:39:21.261774848,TASK_BEGIN,008,-0.31493445065600234,0.5035379451549709,2.234841465436126,0.8223093053319579,-1.1056050624392924,0.2097970765810049,6.760046713686705,2.4141093597575374,1
346,2024-09-17 12:39:21.322760960,TASK_BEGIN,008,-0.31474407609564364,0.5178577153852653,2.23612305618237,0.8791963855952857,-1.1029397211740977,0.223940454153889,7.3241206597195925,2.4306067848002293,1
347,2024-09-17 12:39:21.397377024,TASK_BEGIN,008,-0.297059714048631,0.5296720500485134,2.2357313381512283,0.9350472056422613,-1.0994771412132447,0.24244681677736413,8.05164396701281,2.412930191044249,1
348,2024-09-17 12:39:21.462031872,TASK_BEGIN,008,-0.2639227121819092,0.5391052572089582,2.2334643534660876,0.988763228701026,-1.0944080010591093,0.26541008876077643,8.897148163185303,2.3647642796622583,1
349,2024-09-17 12:39:21.524070144,TASK_BEGIN,008,-0.2178768810181007,0.546438917209456,2.2256466434638753,1.0399113271182758,-1.0888738717690007,0.29327876238889533,9.804316675592222,2.2934586055890325,1
350,2024-09-17 12:39:21.600824320,TASK_BEGIN,008,-0.1618290872744118,0.5521165228212872,2.2061204572987116,1.0885641028142554,-1.085861303438162,0.3267141613603652,10.71164444487948,2.2088463468392203,1
351,2024-09-17 12:39:22.543686912,TASK_BEGIN,008,-0.09891031782161572,0.5567346259812513,2.1675327160577775,1.1351340338253626,-1.0896065333238152,0.36635142300086243,11.559691531902887,2.121613965676652,1
352,2024-09-17 12:39:22.603435008,TASK_BEGIN,008,-0.03231263587330374,0.5610105298803667,2.10261469373731,1.180232539281984,-1.1044159154248552,0.4124783607851603,12.298086886073875,2.041696212925543,1
353,2024-09-17 12:39:22.669327872,TASK_BEGIN,008,0.03489679750792388,0.5657270848561933,2.0049923501801072,1.2246194357219686,-1.1332628739468287,0.4647208692811286,12.889963144966739,1.9771095012763538,1
354,2024-09-17 12:39:22.744374016,TASK_BEGIN,008,0.09997462422083025,0.5716671513964835,1.8696031760117782,1.2692216009220445,-1.1767784656805185,0.5218749654121572,13.312710760359266,1.9333127832712935,1
355,2024-09-17 12:39:22.806858240,TASK_BEGIN,008,0.16072671267565175,0.5795527045202553,1.6933593564012068,1.3150774596902075,-1.233036091925675,0.581967859395786,13.555855873415743,1.9129311696785978,1
356,2024-09-17 12:39:22.872484864,TASK_BEGIN,008,0.21576557114511816,0.5899943108779517,1.4763900961879706,1.363108668453732,-1.2980069474336604,0.6424903630994084,13.617900919660443,1.9157263184321873,1
357,2024-09-17 12:39:22.950851840,TASK_BEGIN,008,0.2647206034368282,0.6034496145370113,1.2234029362559502,1.4137798451924009,-1.3662874717156566,0.7006748763849499,13.503823566516578,1.9388538637618633,1
358,2024-09-17 12:39:23.886162176,TASK_BEGIN,008,0.3082547234952601,0.6201974482357395,0.9443882891762523,1.4667984574403166,-1.431875128979664,0.7537487226267888,13.224151128790508,1.9774085623785778,1
359,2024-09-17 12:39:23.962558976,TASK_BEGIN,008,0.34783029401925064,0.6403378078902364,0.6543427428256039,1.5209729730051602,-1.4889204401730045,0.7991461156971171,12.795333165698485,2.025092125774005,1
360,2024-09-17 12:39:24.030347776,TASK_BEGIN,008,0.38533818858379815,0.6638109928331459,0.37227204805068376,1.574251733581917,-1.5323046590836504,0.8346580491320195,12.240148377763832,2.0748146432211443,1
361,2024-09-17 12:39:24.094630912,TASK_BEGIN,008,0.422744930245297,0.690417881559227,0.11971357459641922,1.6239006362280315,-1.5579488812329838,0.8585168598723587,11.587344929846664,2.119141309785111,1
362,2024-09-17 12:39:24.164190976,TASK_BEGIN,008,0.4618268406418167,0.7198338669619853,-0.08134744500237123,1.6667652238500454,-1.5629967690974031,0.8694662320838427,10.87081145520203,2.1505934194230227,1
363,2024-09-17 12:39:24.226238976,TASK_BEGIN,008,0.5040015664569693,0.7516219298383732,-0.211197505673262,1.699570611414105,-1.54604920846416,0.8668724398414948,10.128470918576053,2.1618823217814875,1
364,2024-09-17 12:39:24.288724224,TASK_BEGIN,008,0.550264354987813,0.785249858488391,-0.2552219639368832,1.71922514798284,-1.5073813544484025,0.850851681992798,9.40075017774904,2.1461077538813376,1
365,2024-09-17 12:39:25.244815104,TASK_BEGIN,008,0.6012220536188412,0.8201034318011078,-0.20601308817097552,1.7230945310103105,-1.4488730010267916,0.8223168137091635,8.728886486198276,2.0968699416426455,1
366,2024-09-17 12:39:25.301452032,TASK_BEGIN,008,0.6571673682098685,0.8554807904470672,-0.06426338331536625,1.7092146076436943,-1.3735086725522365,0.7828893277906802,8.153036003843477,2.0084027558034125,1
367,2024-09-17 12:39:25.379560960,TASK_BEGIN,008,0.7181091432079161,0.8905703139455963,0.1615421469683971,1.6764490366403852,-1.284646088719262,0.7347283398761191,7.7094397024216414,1.8760399772128775,1
368,2024-09-17 12:39:25.441410048,TASK_BEGIN,008,0.7837383248626879,0.9244325547954908,0.45647361719249857,1.624641975685464,-1.1854334612508826,0.6803637214314302,7.426591086995952,1.6971163213888634,1
369,2024-09-17 12:39:25.503447040,TASK_BEGIN,008,0.8533860362970811,0.956001880881294,0.8013806281319734,1.5547908808512383,-1.0785731240936112,0.6225519720306334,7.321612420611123,1.471956881282157,1
370,2024-09-17 12:39:25.583816960,TASK_BEGIN,008,0.926006622138052,0.98410966016559,1.175594843419651,1.4691730911723782,-0.9663219582117344,0.5641030466461392,7.398051258543598,1.2045415840391196,1
371,2024-09-17 12:39:25.648125952,TASK_BEGIN,008,1.0001604142517342,1.0075240942177726,1.5594916431345043,1.3712948019339368,-0.8505517019948293,0.5076539147132488,7.64540583105266,0.9027774427121468,1
372,2024-09-17 12:39:26.569830912,TASK_BEGIN,008,1.0739809595157666,1.0250004745908374,1.936400566530556,1.2655642234017055,-0.7328569928138131,0.4554441126128437,8.039966319239003,0.5785346475092299,1
373,2024-09-17 12:39:26.630632960,TASK_BEGIN,008,1.1451542946225108,1.0353367873587485,2.293598510615513,1.1567222086452722,-0.6147944714587461,0.40916795727867794,8.546115112791025,0.24753668084623356,1
374,2024-09-17 12:39:26.694787072,TASK_BEGIN,008,1.2109517469554296,1.0374304999455564,2.622289440156411,1.0492147028208623,-0.49822522159100574,0.36993212701524486,9.117611303921452,-0.0709900732843317,1
375,2024-09-17 12:39:26.769926144,TASK_BEGIN,008,1.268339326922256,1.0303307551729084,2.9166798933644484,0.9467278586203467,-0.38557883870437093,0.3383051884957192,9.699864625169159,-0.3552197211070424,1
376,2024-09-17 12:39:26.831968000,TASK_BEGIN,008,1.3141590346739704,1.013278996421087,3.1725012933154835,0.8519885209715925,-0.2798760532390205,0.31443004254618107,10.234678327505874,-0.5824951299875515,1
377,2024-09-17 12:39:26.893554944,TASK_BEGIN,008,1.345361534992524,0.9857377271337664,3.385498261146536,0.7667786920095676,-0.1845409403348401,0.2981622156542934,10.667148178122549,-0.7318539145281274,1
378,2024-09-17 12:39:26.976619008,TASK_BEGIN,008,1.3592556099870703,0.9474219018811187,3.5505086960206533,0.6920443468237286,-0.10316752276523103,0.2891935171931685,10.952350813443505,-0.7866468299529887,1
379,2024-09-17 12:39:27.902367232,TASK_BEGIN,008,1.3537220171258235,0.8983535784701182,3.6616060714406498,0.6280159188383312,-0.03931013509368045,0.287130099187433,11.059422448383028,-0.7364374340595721,1
380,2024-09-17 12:39:27.964372992,TASK_BEGIN,008,1.3273509681933608,0.8389473627842288,3.713245762324068,0.5743408733047362,0.0037861775168103757,0.2915069559012878,10.972520573683266,-0.5778800018581739,1
381,2024-09-17 12:39:28.042021888,TASK_BEGIN,008,1.2795049378197743,0.7701118527360898,3.7019654152725283,0.5302563540603796,0.023576539645339473,0.30173107401420757,10.689713571820656,-0.3148540353158453,1
382,2024-09-17 12:39:28.110656000,TASK_BEGIN,008,1.2103342816174132,0.6933322207900011,3.6281774673057154,0.4947835802077199,0.01865041724772797,0.3169724372030673,10.220803292499948,0.041874487835944475,1
383,2024-09-17 12:39:28.165746176,TASK_BEGIN,008,1.120755847769849,0.6106968476519543,3.497514380306813,0.46690472134847444,-0.010958417644029796,0.336064028197255,9.58473728438387,0.47547029127762663,1
384,2024-09-17 12:39:28.243742976,TASK_BEGIN,008,1.012371209618295,0.5248581835404036,3.321132561736885,0.4456882747781369,-0.06370456562063546,0.3574738490289947,8.80733166478492,0.9643402110745376,1
385,2024-09-17 12:39:28.306163200,TASK_BEGIN,008,0.887304300673046,0.43894682131967483,3.114861187618649,0.4303053910338545,-0.13667429356110486,0.379359891801317,7.919551194259342,1.48388638680676,1
386,2024-09-17 12:39:29.264724736,TASK_BEGIN,008,0.747995255953544,0.35645034660320707,2.89765974805337,0.41992571140992513,-0.22587962395196717,0.39969165785845684,6.955411958859905,2.0086919233215617,1
387,2024-09-17 12:39:29.328461056,TASK_BEGIN,008,0.5970414182993041,0.2810392120734541,2.6898411896954753,0.41361355102900416,-0.3267543055598465,0.41644210718237934,5.948317301195736,2.5149717052446183,1
388,2024-09-17 12:39:29.404635904,TASK_BEGIN,008,0.4371532640051869,0.2163186199854588,2.511274014185152,0.4103554656716501,-0.43483940976595514,0.4278412797573316,4.926353135674856,2.9827218536091356,1
389,2024-09-17 12:39:29.466958080,TASK_BEGIN,008,0.27120663669475475,0.16552565881040568,2.379726260403105,0.40920185966949324,-0.5464069344518901,0.4326220733534002,3.908810476898167,3.3969670523990407,1
390,2024-09-17 12:39:29.528549888,TASK_BEGIN,008,0.10230617625298005,0.1312403220879222,2.3094054451815382,0.40942466542118483,-0.6587119792559704,0.43015608162964614,2.905650730004151,3.7480558037074907,1
391,2024-09-17 12:39:29.597347840,TASK_BEGIN,008,-0.06623870748399485,0.1151844854884055,2.309596232287321,0.41064515120672274,-0.7698186673710623,0.4204194195717329,1.9197262147633871,4.031385814576467,1
392,2024-09-17 12:39:29.675879936,TASK_BEGIN,008,-0.23109243145463848,0.11813647662107336,2.3834711456473694,0.4129211373934007,-0.8782648020335094,0.40382200556881975,0.9504435054112625,4.246823698762902,1
393,2024-09-17 12:39:30.594216960,TASK_BEGIN,008,-0.3892218259113391,0.13994602970557796,2.527456329633608,0.41675637650956804,-0.9828661852419192,0.3810045177097679,-0.0025427422773835976,4.397875584859096,1
394,2024-09-17 12:39:30.659118848,TASK_BEGIN,008,-0.5382893846474349,0.17963194349885764,2.7315062570649307,0.42299023780098727,-1.082700259009902,0.35269848028163386,-0.9365319214853324,4.490693481287891,1
395,2024-09-17 12:39:30.730748672,TASK_BEGIN,008,-0.6769737441378348,0.2355509430483299,2.9803277566833484,0.4325806067785682,-1.1770922348035273,0.31968030946110804,-1.8440895772636698,4.533073346402924,1
396,2024-09-17 12:39:30.798551040,TASK_BEGIN,008,-0.8050843440123164,0.3056101779976979,3.255307925611189,0.4463505213763452,-1.2654237907836032,0.28278280859747473,-2.712519015158144,4.533601875563096,1
397,2024-09-17 12:39:30.866334976,TASK_BEGIN,008,-0.9234190765001418,0.3874750222856671,3.5367377382121195,0.464777301647261,-1.3467271866784516,0.2428980954984673,-3.5246575911071534,4.501028184634756,1
398,2024-09-17 12:39:30.921554944,TASK_BEGIN,008,-1.0334362723911177,0.4787301158429451,3.8058680730959793,0.48788677052677665,-1.4192509653562275,0.20094310585198397,-4.260701945159203,4.443794633031535,1
399,2024-09-17 12:39:30.998743040,TASK_BEGIN,008,-1.1368820338728844,0.5769861344257802,4.046401751769823,0.515288060049136,-1.4802951788865297,0.15782348926925965,-4.900236310668207,4.369625328616036,1
400,2024-09-17 12:39:31.944226048,TASK_BEGIN,008,-1.235477114325176,0.6799501934760689,4.245275578698542,0.5463234339657788,-1.526444172497481,0.11443823559607647,-5.423763843952576,4.285158347385659,1
401,2024-09-17 12:39:32.012116992,TASK_BEGIN,008,-1.3306759591065673,0.7854707472665059,4.392999501152671,0.5802426968024408,-1.5540888745116812,0.07171838601499635,-5.813689197138359,4.195698490064425,1
402,2024-09-17 12:39:32.077574912,TASK_BEGIN,008,-1.4234554771796097,0.8915527740904431,4.483961042033406,0.6163144823372348,-1.5600971359365432,0.030665859584151314,-6.055279294124894,4.1052222555483535,1
403,2024-09-17 12:39:32.137118208,TASK_BEGIN,008,-1.514103014974114,0.9963411008986315,4.516709336669989,0.6538606181323026,-1.542535053667976,-0.0076321557174551065,-6.137892840648827,4.016699538807602,1
404,2024-09-17 12:39:32.214300928,TASK_BEGIN,008,-1.6020263441673455,1.0980842161505184,4.494014745601409,0.6922248827630454,-1.5012833982336937,-0.042026100695333364,-6.055974533030667,3.9325734356648767,1
405,2024-09-17 12:39:32.281583104,TASK_BEGIN,008,-1.6856652673977688,1.1951041329604803,4.422884027492728,0.7306221460647528,-1.438338161862959,-0.07136954789228783,-5.809113801670203,3.8550475443670686,1
406,2024-09-17 12:39:32.338541056,TASK_BEGIN,008,-1.7625996121707943,1.2857996960879714,4.314803218327632,0.7678465910673256,-1.3576720878329414,-0.09462199284927911,-5.40127265093533,3.785956779564471,1
407,2024-09-17 12:39:33.291931904,TASK_BEGIN,008,-1.829880981009098,1.3686954431146894,4.185822497859479,0.8020152668839973,-1.264712381233772,-0.11096220311754597,-4.84034353994776,3.726464489515044,1
408,2024-09-17 12:39:33.348443136,TASK_BEGIN,008,-1.8844994002287248,1.4425236567385642,4.055658163530214,0.8306148149762126,-1.1656145797652493,-0.11986032563277753,-4.139164883980256,3.6770986313272194,1
409,2024-09-17 12:39:33.425739008,TASK_BEGIN,008,-1.9238512434487869,1.5063155209333001,3.9454872290092653,0.8509182921055297,-1.0665389992540653,-0.121068415765661,-3.3176193906131117,3.6382954620130232,1
410,2024-09-17 12:39:33.488225024,TASK_BEGIN,008,-1.9461255072828705,1.5594827395603248,3.8749936464773884,0.8605645642758399,-0.9731017329157662,-0.1145456303528542,-2.4041281651441033,3.611121829134135,1
411,2024-09-17 12:39:33.564898048,TASK_BEGIN,008,-1.9505657865628192,1.6018737021288623,3.859547072662742,0.8580551439553648,-0.8900613223135894,-0.10037732395505536,-1.4351380588083855,3.5977539781354513,1
412,2024-09-17 12:39:33.624706048,TASK_BEGIN,008,-1.9375821767719847,1.6337879620182796,3.9080480316560426,0.843077997371743,-0.8211795737977575,-0.07873278066728968,-0.45224409118702585,3.6014383897139752,1
413,2024-09-17 12:39:33.686700288,TASK_BEGIN,008,-1.9087224247898749,1.6559442412490604,4.02165863346615,0.8166589966522431,-0.7691787639074412,-0.049866908071280504,0.5025193851036761,3.625869697856964,1
414,2024-09-17 12:39:34.639523072,TASK_BEGIN,008,-1.8665100292484664,1.6694095476585034,4.193650445442681,0.7811240355437137,-0.7357523586313537,-0.014151905024879856,1.3915954543148121,3.674313515674087,1
415,2024-09-17 12:39:34.701573888,TASK_BEGIN,008,-1.8141265745022652,1.6754983712637743,4.410541606166886,0.7398341548385989,-0.7216316623909603,0.027883996887271292,2.185032644236189,3.7489868095830454,1
416,2024-09-17 12:39:34.765010944,TASK_BEGIN,008,-1.754969331485599,1.6756550211599024,4.654293482123835,0.6966982465097806,-0.7267857097589283,0.07554117317033254,2.8615987539721397,3.8507407595639016,1
417,2024-09-17 12:39:34.843944192,TASK_BEGIN,008,-1.6922295602336754,1.6713417447882355,4.9048574889229934,0.655591263395539,-0.7508331398042583,0.12797996352916235,3.409499840685712,3.9786496220390957,1
418,2024-09-17 12:39:34.903909888,TASK_BEGIN,008,-1.628647760730674,1.663951007327457,5.142342715187164,0.6198870317709497,-0.7936454677720518,0.18431401019283028,3.8275257052581413,4.129432675232749,1
419,2024-09-17 12:39:34.981602048,TASK_BEGIN,008,-1.5664658811359204,1.6547425021642856,5.3485896542033275,0.5922208718491708,-0.8559775326598048,0.24375606256089935,4.125745172886011,4.29708328069722,1
420,2024-09-17 12:39:35.044087040,TASK_BEGIN,008,-1.507466934677177,1.6447982711020845,5.508374442607949,0.5744406736529041,-0.9398019982819685,0.3057340928273759,4.324888128247551,4.472916025818153,1
421,2024-09-17 12:39:35.990700032,TASK_BEGIN,008,-1.4530059617930218,1.6349969893542982,5.6103806225393935,0.567660577366967,-1.0480493716492805,0.3698705845467674,4.454520837390878,4.645915924976835,1
422,2024-09-17 12:39:36.062205184,TASK_BEGIN,008,-1.4040317432262701,1.6260097881855364,5.647722069487623,0.5723736929017121,-1.183789682210946,0.435824933261855,4.550597518229131,4.8032729327541395,1
423,2024-09-17 12:39:36.114885120,TASK_BEGIN,008,-1.3611356836232082,1.6183112017031145,5.617714154982176,0.5885969113284206,-1.3492087065537681,0.5031006641548902,4.652745178084375,4.931107864832318,1
424,2024-09-17 12:39:36.192112128,TASK_BEGIN,008,-1.3246285706128127,1.6121978390955993,5.520886539228568,0.6160157174471352,-1.544694370818232,0.5708887209418639,4.801107702870267,5.015429194620965,1
425,2024-09-17 12:39:36.253675008,TASK_BEGIN,008,-1.2946084939250968,1.6078114348152486,5.359603783051728,0.6541116931781281,-1.768145426772973,0.6379564482047415,5.032735557848867,5.043285022521498,1
426,2024-09-17 12:39:36.333358080,TASK_BEGIN,008,-1.270975904280458,1.6051588322294281,5.136865706949136,0.7022519830534839,-2.0145730440423835,0.7025983755036823,5.378399672492744,5.003893339938023,1
427,2024-09-17 12:39:36.401172224,TASK_BEGIN,008,-1.2533828001477847,1.604122621212031,4.855762461033675,0.7597053166638839,-2.27612115218025,0.7626824788904423,5.860717624048186,4.8894140138733695,1
428,2024-09-17 12:39:37.317564928,TASK_BEGIN,008,-1.2411589026890923,1.6044707456695748,4.519670291823129,0.8255725060557503,-2.5425596613542494,0.8157939467338597,6.493284138719941,4.695203138483448,1
429,2024-09-17 12:39:37.380050176,TASK_BEGIN,008,-1.2332885294248956,1.6058810542657649,4.13291745665972,0.8986494486809133,-2.8021000649760395,0.8594221708781482,7.279868807123143,4.419749737796571,1
430,2024-09-17 12:39:37.442783232,TASK_BEGIN,008,-1.228486905087759,1.6079865563590063,3.701551751137756,0.9772629874161339,-3.0422488454155467,0.8911233769695249,8.21343205434135,4.064630297198003,1
431,2024-09-17 12:39:37.519977984,TASK_BEGIN,008,-1.2253577288832838,1.6104312395271523,3.2339355877122737,1.0591557464389882,-3.2505435808159633,0.9086537834420849,9.275483044437888,3.634619985499807,1
432,2024-09-17 12:39:37.589869056,TASK_BEGIN,008,-1.2225496382667964,1.612919795218342,2.741077489738679,1.1414900441002331,-3.4152701308707876,0.9101309136565398,10.43624528651169,3.137851528721395,1
433,2024-09-17 12:39:37.652110080,TASK_BEGIN,008,-1.2188191728458877,1.6152494117730933,2.2366632868904617,1.2209783013658249,-3.5263123321802397,0.8942600824269479,11.65575212978572,2.5857938757062615,1
434,2024-09-17 12:39:37.714950912,TASK_BEGIN,008,-1.2129804816731913,1.6173194336829395,1.7366193267149734,1.29412688576815,-3.576118262150714,0.8605975999692416,12.885988753556296,1.9928255355421236,1
435,2024-09-17 12:39:38.667731968,TASK_BEGIN,008,-1.203841989688876,1.619123322520505,1.258129869217225,1.3575979310643322,-3.560592342430612,0.8097811256717179,14.074059670315616,1.375376366122249,1
436,2024-09-17 12:39:38.737394944,TASK_BEGIN,008,-1.1902713542251881,1.6207337059695741,0.8183648361994645,1.4086463386440735,-3.4796479609024007,0.7436466434398082,15.16573989449299,0.7509665849567325,1
437,2024-09-17 12:39:38.805198080,TASK_BEGIN,008,-1.1714151221858893,1.6222870548979833,0.4331771629175911,1.4455279717493277,-3.3372045292683676,0.6651695526147475,16.108685709032834,0.1375437986562399,1
438,2024-09-17 12:39:38.869410048,TASK_BEGIN,008,-1.1469518897033348,1.6239670013502985,0.11574785318877238,1.4678018987550288,-3.1406188525357623,0.5782230788755942,16.855636785332308,-0.44693227677810665,1
439,2024-09-17 12:39:38.931549184,TASK_BEGIN,008,-1.1172393692578035,1.6259808187204663,-0.12479192859305123,1.4764887518276402,-2.8997942077184207,0.4872093114936722,17.36859663332511,-0.9851275380875909,1
440,2024-09-17 12:39:38.994035968,TASK_BEGIN,008,-1.083309122610499,1.6285178357710548,-0.28438996934918803,1.4740165266533651,-2.626268474862302,0.39664757618783025,17.62380949253883,-1.4614508814861988,1
441,2024-09-17 12:39:39.076297984,TASK_BEGIN,008,-1.0467466272301593,1.6316834445767867,-0.3643487824451785,1.463887196841038,-2.332433074355026,0.3108073672652495,17.615538082376414,-1.8633189180392447,1
442,2024-09-17 12:39:40.017419264,TASK_BEGIN,008,-1.0095058742603138,1.6354220308120002,-0.37088638192484774,1.450122773936177,-2.0309093792396475,0.233453324484941,17.35648125481435,-2.1819512310491285,1
443,2024-09-17 12:39:40.080141056,TASK_BEGIN,008,-0.9736812564069449,1.639449787202781,-0.31438566606128554,1.4366692528114646,-1.7340745888657303,0.16771258998339195,16.874509316232913,-2.4123474098071087,1
444,2024-09-17 12:39:40.155233024,TASK_BEGIN,008,-0.9412653372819674,1.6432058420449076,-0.20852279645031055,1.4268926153567387,-1.453687675548006,0.11600984543788019,16.207378516488273,-2.5526465995558265,1
445,2024-09-17 12:39:40.222974208,TASK_BEGIN,008,-0.9139545468582326,1.6458255083659237,-0.06904229335990612,1.4231642797313102,-1.2005469270826312,0.080004733541338,15.397682976557439,-2.6034452761958957,1
446,2024-09-17 12:39:40.282337792,TASK_BEGIN,008,-0.8930579873412322,1.646153450214984,0.08796584035727413,1.4264904749622895,-0.9841604570733802,0.06051651160455437,14.489477749853933,-2.5675029289590268,1
447,2024-09-17 12:39:40.358511104,TASK_BEGIN,008,-0.8795008345606112,1.6428153190788346,0.24790914427722652,1.4362237635781374,-0.81245281540739,0.05747348568864961,13.526546983155058,-2.449797874454173,1
448,2024-09-17 12:39:40.421581056,TASK_BEGIN,008,-0.8738425724562463,1.6343312755373143,0.3990328564208763,1.449977662885008,-0.6915394574852004,0.06993643754298932,12.551551181157144,-2.257720013873199,1
449,2024-09-17 12:39:41.343152128,TASK_BEGIN,008,-0.8762274927269821,1.6192246502416194,0.5328778552770346,1.463840795390825,-0.6256006625498045,0.096222907416527,11.605751735548393,-2.0013611802906013,1
450,2024-09-17 12:39:41.405636864,TASK_BEGIN,008,-0.886277027666569,1.5961050505321155,0.6438743250601457,1.472881043392523,-0.6168314940754814,0.1341211766145241,10.729218614369612,-1.6938648845448954,1
451,2024-09-17 12:39:41.467543040,TASK_BEGIN,008,-0.9030163937386685,1.5637548689832534,0.7284867304823391,1.471842071781308,-0.6653312796915505,0.18114026560853996,9.960661439089831,-1.3515258134063088,1
452,2024-09-17 12:39:41.549164032,TASK_BEGIN,008,-0.9249091570127562,1.5212491107765116,0.784542459020439,1.4558871436027778,-0.7687884684330321,0.23472548970985527,9.335832975573,-0.9931917910573052,1
453,2024-09-17 12:39:41.602168832,TASK_BEGIN,008,-0.9500119807060282,1.46809579398863,0.8110503719422598,1.42123147684053,-0.9220760375433947,0.29240305175824105,8.884744099190831,-0.6388063911842938,1
454,2024-09-17 12:39:41.679351040,TASK_BEGIN,008,-0.9762064709334941,1.4043584343833093,0.8081989123263591,1.3655853020834334,-1.117153750632443,0.35186087516792,8.629345564586798,-0.30749539461516984,1
455,2024-09-17 12:39:41.745947904,TASK_BEGIN,008,-1.001396670284172,1.3307286290424194,0.7770788161539034,1.28844363352949,-1.343545757185061,0.4109801333678819,8.583351662403665,-0.01593545572902228,1
456,2024-09-17 12:39:42.681374976,TASK_BEGIN,008,-1.023557908531653,1.2485321686259951,0.7190749131297267,1.1912424447422263,-1.5892582599989764,0.4678323361334768,8.754444620663858,0.22247945354318513,1
457,2024-09-17 12:39:42.760997120,TASK_BEGIN,008,-1.0406597355850558,1.1596687048961094,0.6352056774673733,1.0773180778494156,-1.8417925943375606,0.5206660151553736,9.147165734010391,0.3977210036847438,1
458,2024-09-17 12:39:42.820977920,TASK_BEGIN,008,-1.0506372984506054,1.066503063259205,0.5257624819343866,0.951622958470194,-2.088977681663292,0.567896218168413,9.764114776680236,0.5029028279060375,1
459,2024-09-17 12:39:42.882970112,TASK_BEGIN,008,-1.0515786690760163,0.9717365405139466,0.3906032463438044,0.8202167610734811,-2.319501999703704,0.6081003335432585,10.604820894932695,0.5340850381281487,1
460,2024-09-17 12:39:42.960566784,TASK_BEGIN,008,-1.04212405472312,0.8782760813866195,0.23023533790053335,0.6895852750980566,-2.5231757890659026,0.6400347540458813,11.663856874109381,0.49007141202300913,1
461,2024-09-17 12:39:43.022597120,TASK_BEGIN,008,-1.0218912088100325,0.7890915947545978,0.04722392459196145,0.5659117179756747,-2.6910834161014043,0.6626812266574744,12.929890945590524,0.3720425384663324,1
462,2024-09-17 12:39:43.100704000,TASK_BEGIN,008,-0.9917240764962659,0.7070401818288459,-0.15304545937823105,0.45452601771036505,-2.8158110451700153,0.6753072540273861,14.386045096886404,0.18305490495580604,1
463,2024-09-17 12:39:44.043566848,TASK_BEGIN,008,-0.953704266184175,0.634661760810151,-0.3629702950984783,0.3597112005238314,-2.891797166653555,0.6775222269552968,16.01063959817983,-0.07233872949270867,1
464,2024-09-17 12:39:44.105568768,TASK_BEGIN,008,-0.9109728620558986,0.5739811933394089,-0.5744534741421722,0.2848107132457143,-2.915673947336203,0.6693207713608658,17.776991873146407,-0.38809817025126797,1
465,2024-09-17 12:39:44.179920896,TASK_BEGIN,008,-0.8673930224243485,0.5263508003092743,-0.7806982150613242,0.2323645918033043,-2.886401190084863,0.6510924211934958,19.65205370175166,-0.7563962329714337,1
466,2024-09-17 12:39:44.245789184,TASK_BEGIN,008,-0.8270783708841092,0.4923514202046754,-0.977105540569865,0.20403045506584444,-2.805105630175435,0.6235744628775053,21.594812734063822,-1.1672961649147806,1
467,2024-09-17 12:39:44.308100864,TASK_BEGIN,008,-0.7938803733095463,0.47176698409630036,-1.1610076200822295,0.20029887769518656,-2.674747256175742,0.5877639442591779,23.55495889974721,-1.6085492991174928,1
468,2024-09-17 12:39:44.370100992,TASK_BEGIN,008,-0.7709428459758196,0.4636404991820055,-1.3306486822820893,0.22022656929696116,-2.4997905913015757,0.5448294894843518,25.47195006596864,-2.065537942355056,1
469,2024-09-17 12:39:44.447233792,TASK_BEGIN,008,-0.7603641139677493,0.4663960356893641,-1.4840957013985905,0.2613935011146325,-2.285937899939032,0.496048647181654,27.27552107822464,-2.5215298765820116,1
470,2024-09-17 12:39:45.385637888,TASK_BEGIN,008,-0.7629611960276625,0.477996567811617,-1.6185763484307731,0.32013470700101426,-2.039968017602565,0.44279095605058816,28.88896398905448,-2.958432622698962,1
471,2024-09-17 12:39:45.447920128,TASK_BEGIN,008,-0.7781486470672739,0.4961157183181905,-1.7303867492864187,0.3919622600166988,-1.769796476547822,0.3865654835672108,30.234986066797696,-3.357950485140913,1
472,2024-09-17 12:39:45.530477056,TASK_BEGIN,008,-0.8039958518116789,0.5183153101935943,-1.8153111806523765,0.47201748075437194,-1.4847412941717086,0.32911649452433805,31.242384074496325,-3.702813823249956,1
473,2024-09-17 12:39:45.598227968,TASK_BEGIN,008,-0.8375262336143942,0.5422195891627237,-1.8694105474871228,0.5554115829131893,-1.1956974438568138,0.2724994791662873,31.851922208048716,-3.9778461610427733,1
474,2024-09-17 12:39:45.663407872,TASK_BEGIN,008,-0.8752226190114857,0.5656656858021274,-1.8898611648818242,0.6374448828649175,-0.9148182572694455,0.21904463204885688,32.020987480239995,-4.1708342335980575,1
475,2024-09-17 12:39:45.724320768,TASK_BEGIN,008,-0.9136026959823561,0.5868127132948568,-1.875385673625584,0.7138071499157151,-0.6545440028767886,0.17115659464297453,31.726994949630658,-4.273119766744791,1
476,2024-09-17 12:39:45.801629184,TASK_BEGIN,008,-0.9497202406863338,0.6042093073317907,-1.826022043468215,0.7808244929819125,-0.42624703305465705,0.13099928667896024,30.968951700192296,-4.279682269351932,1
477,2024-09-17 12:39:46.740070144,TASK_BEGIN,008,-0.9815033742630087,0.6168246923265583,-1.7424027402921622,0.8357155455304563,-0.23900881255862738,0.10018677057499027,29.76671213328875,-4.188684664842087,1
478,2024-09-17 12:39:46.812902912,TASK_BEGIN,008,-1.0079072320681082,0.6240403865484015,-1.6250023723957374,0.8767881713482857,-0.09891240111043333,0.07959150400328192,28.158592685355252,-4.000941514542586,1
479,2024-09-17 12:39:46.879808000,TASK_BEGIN,008,-1.0288993325991698,0.6256022978731048,-1.4738682925808078,0.9035332085090129,-0.008918113524995518,0.06932117108925724,26.198437175909298,-3.719881388316144,1
480,2024-09-17 12:39:46.942292992,TASK_BEGIN,008,-1.0452971793236154,0.6215461958929829,-1.2891207698442606,0.9165813679179576,0.03081358097157965,0.06884486394938544,23.952632990249615,-3.3520560889480526,1
481,2024-09-17 12:39:47.004344064,TASK_BEGIN,008,-1.0584869553216831,0.6121164468544817,-1.071991922942422,0.9175037084955712,0.02232473552488806,0.07719719040008578,21.49720207588093,-2.907695491847848,1
482,2024-09-17 12:39:47.082653952,TASK_BEGIN,008,-1.0701079867121341,0.597697323603374,-0.825801149403662,0.908504962894587,-0.03084461772754441,0.09318204708972187,18.914747598668665,-2.400760702717806,1
483,2024-09-17 12:39:47.151792896,TASK_BEGIN,008,-1.0818144851551863,0.5787710426668805,-0.5564396737318436,0.8921208589170403,-0.12429934390484845,0.11552981168677355,16.290620149818835,-1.848303775492766,1
484,2024-09-17 12:39:48.065239040,TASK_BEGIN,008,-1.0951483723382027,0.5559017769103066,-0.27234879355050784,0.8709864304878594,-0.2532157403428525,0.1429914708165724,13.708192447274229,-1.2693402879739994,1
485,2024-09-17 12:39:48.127724800,TASK_BEGIN,008,-1.1114586997066525,0.5297264044838376,0.01587410362319106,0.8476368386542666,-0.4124611341334401,0.17436671017049538,11.24392447320186,-0.6835759427195399,1
486,2024-09-17 12:39:48.204905984,TASK_BEGIN,008,-1.131800870936416,0.500930760130586,0.2961394086914002,0.824283348370683,-0.5964932960823585,0.20849008891183685,8.962921759375483,-0.11020088749688645,1
487,2024-09-17 12:39:48.267390976,TASK_BEGIN,008,-1.156810030121022,0.47021002925429917,0.5557011317809144,0.8025865695054798,-0.7992964113508518,0.2442330521615655,6.915828519421949,0.4331296210872978,1
488,2024-09-17 12:39:48.335055104,TASK_BEGIN,008,-1.1865867723771077,0.4382306422688912,0.7821603417309758,0.7834861539573288,-1.0145249366569449,0.28056698561128757,5.138095513462161,0.9310517531821124,1
489,2024-09-17 12:39:48.408045056,TASK_BEGIN,008,-1.2206489749684952,0.40560490006962246,0.9647098754967108,0.7671204528287304,-1.2357964940381658,0.3166741909072609,3.651810151836966,1.3709985841644345,1
490,2024-09-17 12:39:48.476784896,TASK_BEGIN,008,-1.2579894041524808,0.3728703218964596,1.0954919866747719,0.7528660330741651,-1.4570285590727567,0.35204852327727026,2.4693058656745364,1.743426300294596,1
491,2024-09-17 12:39:49.405541888,TASK_BEGIN,008,-1.2972377938077544,0.340466640995646,1.1706385031707711,0.7395065313675747,-1.6728106811737977,0.3865294635393123,1.597476036760398,2.0416751289116077,1
492,2024-09-17 12:39:49.488564992,TASK_BEGIN,008,-1.3368832183635846,0.3087221061146038,1.190543546622069,0.7254807205738906,-1.878765986577705,0.4202475355527426,1.0410087683445066,2.2616522040956717,1
493,2024-09-17 12:39:49.546972928,TASK_BEGIN,008,-1.375476443215507,0.2778609205024288,1.1592948825928273,0.7091483916160564,-2.0717115679843663,0.4534899442195815,0.8023596399438252,2.401810665551999,1
494,2024-09-17 12:39:49.612521984,TASK_BEGIN,008,-1.4117427966356582,0.2480245239982986,1.0836319153649094,0.6890362791051048,-2.249430307161183,0.48650396624543596,0.8780012607305002,2.4636657561528406,1
495,2024-09-17 12:39:49.690189056,TASK_BEGIN,008,-1.4446203695834519,0.2192931810762499,0.9718481368240837,0.6640271880620795,-2.410052471320682,0.5192669893527762,1.2529115083154234,2.4525886320396335,1
496,2024-09-17 12:39:49.752656896,TASK_BEGIN,008,-1.4732922726479902,0.1917038325428593,0.8328605542188656,0.6334611780730448,-2.5512532599387097,0.5512841786314712,1.8961169571943333,2.3783600009653885,1
497,2024-09-17 12:39:49.815349248,TASK_BEGIN,008,-1.4972366663968666,0.1652675972943239,0.6755912012712668,0.5971440140741954,-2.6695855164371616,0.58148267672263,2.7594854948336045,2.2550333699217373,1
498,2024-09-17 12:39:50.769093120,TASK_BEGIN,008,-1.5162628767620205,0.13998956045074346,0.5086132087763559,0.555307491566715,-2.7602478215915833,0.6082319887026981,3.7805041527414516,2.099952256330859,1
499,2024-09-17 12:39:50.838587904,TASK_BEGIN,008,-1.5304987761058368,0.1158854598909751,0.33962357273703353,0.5086194481575907,-2.8174524203652433,0.6294826444390105,4.8880735608780865,1.9320800464791348,1
500,2024-09-17 12:39:50.891273984,TASK_BEGIN,008,-1.5403225572479957,0.09298446314070158,0.174328884403686,0.4583082643572769,-2.835353919286796,0.6430045055071238,6.009501755699902,1.7699622404687276,1
501,2024-09-17 12:39:50.969430016,TASK_BEGIN,008,-1.546260326541291,0.07131510274994032,0.015023144049278245,0.4063312346040799,-2.8092956892080134,0.646698730429126,7.0772454878510365,1.6297201604923648,1
502,2024-09-17 12:39:51.041950976,TASK_BEGIN,008,-1.5488743387173671,0.050884751411284866,-0.14018874670646164,0.35541595620554767,-2.737011086882561,0.6389396208058487,8.034788379273703,1.5234586122624625,1
503,2024-09-17 12:39:51.094515200,TASK_BEGIN,008,-1.5486625576378839,0.03166668543076578,-0.2967801248299081,0.30887317115668156,-2.6194523163363552,0.6188831568041008,8.84129706254034,1.4583201196865783,1
504,2024-09-17 12:39:51.172689920,TASK_BEGIN,008,-1.5459972672535374,0.013599454782482623,-0.4621722965750263,0.27027681933870307,-2.461094653869945,0.5866775998004423,9.474063083363466,1.4362795339698535,1
505,2024-09-17 12:39:52.104775936,TASK_BEGIN,008,-1.541126211831903,-0.0034057179063191833,-0.6442470277726169,0.2432041080477142,-2.2697630512249094,0.5435373259623831,9.927703468252297,1.454598013170647,1
506,2024-09-17 12:39:52.181961984,TASK_BEGIN,008,-1.5342421797506591,-0.019449164701714976,-0.8505860273842752,0.23108761088303495,-2.0561297099269025,0.4916804372382917,10.210538228019178,1.5066651404179505,1
507,2024-09-17 12:39:52.243553024,TASK_BEGIN,008,-1.5255897678643466,-0.03461438519319776,-1.0879147927191584,0.23704905568139484,-1.832989870138542,0.43415898086351384,10.339581165006226,1.5830388369503903,1
508,2024-09-17 12:39:52.321660928,TASK_BEGIN,008,-1.5155259967238446,-0.04893655647432922,-1.3611080686661459,0.2635919293691103,-1.6143503253181304,0.37461327761023067,10.335051757042732,1.6726793238949345,1
509,2024-09-17 12:39:52.384145920,TASK_BEGIN,008,-1.5044790905529193,-0.06238703335860483,-1.6718759113357573,0.3121692766389838,-1.414399972938205,0.31697544961291124,10.215020626273882,1.7642772014942933,1
510,2024-09-17 12:39:52.446204928,TASK_BEGIN,008,-1.4928626418509021,-0.07487943305397554,-2.0177432805483035,0.38275742925243744,-1.2465117611546603,0.2651577875025543,9.991584876853072,1.8473768798163566,1
511,2024-09-17 12:39:52.524150016,TASK_BEGIN,008,-1.4810288562418092,-0.08629121717747615,-2.391668353221159,0.47358044855093256,-1.1224215329421103,0.22277472284760275,9.670101498978951,1.9130701871724038,1
512,2024-09-17 12:39:53.444381952,TASK_BEGIN,008,-1.469254462673863,-0.09650043974118852,-2.782148694833909,0.5810529603295104,-1.0516440915226875,0.1929299449922329,9.251419064550065,1.9543131611347748,1
513,2024-09-17 12:39:53.510331904,TASK_BEGIN,008,-1.4577184328857988,-0.10543874452106873,-3.173677327914486,0.6999419654803388,-1.0411158679281023,0.17806792323157958,8.735316263537868,1.9660566713285375,1
514,2024-09-17 12:39:53.579976192,TASK_BEGIN,008,-1.446489409242408,-0.11314777256474096,-3.547697881782664,0.8237279123455311,-1.095026271353615,0.17987336025338505,8.123448556874541,1.945298651892466,1
515,2024-09-17 12:39:53.641974784,TASK_BEGIN,008,-1.4355588130100245,-0.119816442832379,-3.8840946486142096,0.9451136630691929,-1.2147500561361515,0.19919626032532742,7.421470733984791,1.8910841849536766,1
516,2024-09-17 12:39:53.701856000,TASK_BEGIN,008,-1.4248871907211629,-0.1257896030902985,-4.162990921234777,1.0566164552443602,-1.3987648688295677,0.235984380747959,6.640567889204233,1.804474985220444,1
517,2024-09-17 12:39:53.783310848,TASK_BEGIN,008,-1.4143921620534274,-0.13155827824864894,-4.366664052366927,1.1512122918203458,-1.6425314822631834,0.2892367175065267,5.798102549182599,1.688494955953179,1
518,2024-09-17 12:39:53.851122944,TASK_BEGIN,008,-1.403880713348699,-0.137737227703486,-4.481399640206212,1.22298567407907,-1.9384349119038922,0.35702285092734937,4.917011503094055,1.5480055099723695,1
519,2024-09-17 12:39:54.780656896,TASK_BEGIN,008,-1.3930016404283199,-0.1450190344258294,-4.498935216970827,1.267657476199072,-2.275870295154331,0.4365884781656478,4.024179962185196,1.3894147755757054,1
520,2024-09-17 12:39:54.858302976,TASK_BEGIN,008,-1.3812458810666481,-0.154100119073075,-4.417216483851172,1.2828779838442275,-2.6414687703004556,0.524512972243277,3.147948188652857,1.2202300034090283,1
521,2024-09-17 12:39:54.919866880,TASK_BEGIN,008,-1.3679698750428904,-0.16559265004994148,-4.240564741923895,1.2683160867716998,-3.0194932438055693,0.6168854607314481,2.314496637592613,1.048658643117376,1
522,2024-09-17 12:39:54.997088000,TASK_BEGIN,008,-1.3524666590764052,-0.17993920528362609,-3.9795369062061896,1.2256680749687037,-3.392559496086804,0.7095150968555376,1.543805075921431,0.8833373112474148,1
523,2024-09-17 12:39:55.065150976,TASK_BEGIN,008,-1.334122189786403,-0.19734063017321152,-3.650535633371795,1.1586376967434062,-3.742790423282092,0.7982002835251895,0.847451053737309,0.7328892753849406,1
524,2024-09-17 12:39:55.132925952,TASK_BEGIN,008,-1.3125934319742585,-0.2177061112829234,-3.2748945390823057,1.072802045592628,-4.05324388756663,0.8790330889675798,0.23019631063231158,0.6050016335077911,1
525,2024-09-17 12:39:55.198029056,TASK_BEGIN,008,-1.2878935240378762,-0.24063395202285692,-2.877157288043952,0.9752382593973625,-4.309287515370575,0.9486796649079264,-0.30501058616630083,0.5051412322224078,1
526,2024-09-17 12:39:56.143973120,TASK_BEGIN,008,-1.2603610525617859,-0.26542598650879634,-2.482691652428194,0.8738931271060226,-4.499708004406006,1.0045949226727298,-0.7511696570023455,0.43539200847580994,1
527,2024-09-17 12:39:56.206491904,TASK_BEGIN,008,-1.2306015608450398,-0.2911295731291602,-2.1151636205266278,0.7768050538865132,-4.617489713486234,1.0451586832698494,-1.0936277209458793,0.3939486671559391,1
528,2024-09-17 12:39:56.279577856,TASK_BEGIN,008,-1.1994856814921386,-0.31659811032562035,-1.7943359825259269,0.691299518214712,-4.6602131427548725,1.069723548978999,-1.3106046942840575,0.3755566122864865,1
529,2024-09-17 12:39:56.346201856,TASK_BEGIN,008,-1.168197479367911,-0.3405681580141743,-1.5344089772597278,0.6232404241456203,-4.6300682216323725,1.0785657034120655,-1.377333768212214,0.3727580202779394,1
530,2024-09-17 12:39:56.408687104,TASK_BEGIN,008,-1.1382765606963672,-0.36175177381347307,-1.3430823370050318,0.57644982216767,-4.533540802646536,1.0727480812293855,-1.271386360319421,0.3774677814295479,1
531,2024-09-17 12:39:56.471180032,TASK_BEGIN,008,-1.111618037926923,-0.37893057544581116,-1.221556927085216,0.5524388330774831,-4.380737948379838,1.053914040601836,-0.9767301845942749,0.38237315478702916,1
532,2024-09-17 12:39:56.550200832,TASK_BEGIN,008,-1.0904034012653911,-0.39103797779981586,-1.1655080373339168,0.5505168280879938,-4.18422975809844,1.0240247015351136,-0.48575282584464313,0.381866225827511,1
533,2024-09-17 12:39:57.489708032,TASK_BEGIN,008,-1.076911592540436,-0.39723415885361496,-1.1667201482913347,0.568210134966685,-3.9574956660774827,0.9850779531015357,0.19987746707148277,0.37245925573548333,1
534,2024-09-17 12:39:57.562396928,TASK_BEGIN,008,-1.0731757788860612,-0.39698538016237467,-1.2148308169223856,0.6018130891885106,-3.713403272994881,0.9388904803490011,1.0683537674262793,0.35278811408286354,1
535,2024-09-17 12:39:57.630210048,TASK_BEGIN,008,-1.0805514482113086,-0.3901424876940679,-1.2987164744537518,0.6468744219214432,-3.463166075730542,0.8870108587479992,2.0965397410520676,0.32339456130735755,1
536,2024-09-17 12:39:57.682486016,TASK_BEGIN,008,-1.0993750070504216,-0.37699266616251914,-1.4074506615561573,0.6985219171425173,-3.2159153628317396,0.8307655698083231,3.2492892279458685,0.28642524995697644,1
537,2024-09-17 12:39:57.760118016,TASK_BEGIN,008,-1.128884648922102,-0.358255803750183,-1.531014392568633,0.7516675741029655,-2.978797387924174,0.771398176824467,4.4807443212687,0.24522277711005647,1
538,2024-09-17 12:39:57.822172160,TASK_BEGIN,008,-1.1674141423409452,-0.33501772660876716,-1.6608254931775694,0.8012108846704113,-2.757457182383064,0.7102485247154224,5.738111305117164,0.20380236698387783,1
539,2024-09-17 12:39:57.901330176,TASK_BEGIN,008,-1.2126995192588992,-0.3086222028540776,-1.7900673621961298,0.8423550335558082,-2.5566666088076433,0.6488923008421658,6.9665523942825605,0.166403449967255,1
540,2024-09-17 12:39:58.812399872,TASK_BEGIN,008,-1.2621304608156876,-0.2805570930883345,-1.91389650714888,0.8710765201013357,-2.380776432102937,0.5891611804460957,8.113499690462668,0.1372657511015026,1
541,2024-09-17 12:39:58.874458880,TASK_BEGIN,008,-1.3129321364026576,-0.2523550612877943,-2.0296007976961077,0.8846561021053775,-2.233835380853328,0.5330364743982945,9.1321537948292,0.12050495586835054,1
542,2024-09-17 12:39:58.951094016,TASK_BEGIN,008,-1.3623902766411717,-0.2255033936309353,-2.136621169587704,0.882065349134182,-2.119457307293716,0.48248345986813324,9.984821027533512,0.11986238018005577,1
543,2024-09-17 12:39:59.013168896,TASK_BEGIN,008,-1.4081729864194497,-0.2013561769194192,-2.2363773546335333,0.8640341452726028,-2.040539697510542,0.4392868896521771,10.646186718392915,0.13822664696675985,1
544,2024-09-17 12:39:59.090326784,TASK_BEGIN,008,-1.448642672961951,-0.18106582731707735,-2.3320553201473753,0.8328105893532787,-1.9988423529500736,0.4049016669859643,11.105802368612592,0.17700203382800217,1
545,2024-09-17 12:39:59.151839232,TASK_BEGIN,008,-1.4830034853606784,-0.16555741413612082,-2.4284694963034226,0.7917682993651004,-1.9945077741126989,0.3803228459327972,11.368853836346252,0.23559524374413363,1
546,2024-09-17 12:39:59.214616832,TASK_BEGIN,008,-1.5112311360188726,-0.15554391669696432,-2.5317880006741404,0.7449850117342298,-2.0257795750539023,0.3659987141354048,11.454734470387065,0.31134700069021326,1
547,2024-09-17 12:40:00.155510016,TASK_BEGIN,008,-1.5338363307944163,-0.15155737816692347,-2.6487610665135772,0.6968140494553857,-2.0891385159550775,0.361808324927055,11.393649707897776,0.3999643857411253,1
548,2024-09-17 12:40:00.232704000,TASK_BEGIN,008,-1.5515515236191875,-0.15397392991346212,-2.78532778353373,0.6514337933943003,-2.179785832642108,0.3670925598954694,11.221848333741638,0.4962115567383839,1
549,2024-09-17 12:40:00.296692992,TASK_BEGIN,008,-1.5650529767024586,-0.16302582954376646,-2.944945268828784,0.6124197344764183,-2.292171169597245,0.38071001008173244,10.976080833842458,0.5946757727527959,1
550,2024-09-17 12:40:00.357109248,TASK_BEGIN,008,-1.5748125455045257,-0.17880151748298787,-3.1273342483688173,0.5824406575488327,-2.4203112777357907,0.4011104945933074,10.687998180290363,0.6906071756585703,1
551,2024-09-17 12:40:00.440092928,TASK_BEGIN,008,-1.581067306140204,-0.20123775693726376,-3.3282339012602553,0.5631243359462963,-2.5578816829303177,0.42643829953068907,10.37957140273139,0.7807763049433467,1
552,2024-09-17 12:40:00.507852032,TASK_BEGIN,008,-1.5838137260991534,-0.23011297933202185,-3.540247452928664,0.555032994876547,-2.6982795241594237,0.4546611320244609,10.06080330957486,0.8641575128692475,1
553,2024-09-17 12:40:00.575653120,TASK_BEGIN,008,-1.582796530570831,-0.2650515216353479,-3.7543210076627074,0.5576655411065765,-2.834874973672195,0.4837054554568457,9.730563549106177,0.9422197126793325,1
554,2024-09-17 12:40:01.507607808,TASK_BEGIN,008,-1.5775657078902305,-0.3055379950655203,-3.961219543102864,0.5694704143023815,-2.961476326133003,0.5115905202478652,9.38042181589203,1.0186238356279858,1
555,2024-09-17 12:40:01.586807040,TASK_BEGIN,008,-1.5676545008522857,-0.3509280833078242,-4.152649831458393,0.5879354124442101,-3.072855272376701,0.5365631629907236,9.000206247375212,1.0982819927911693,1
556,2024-09-17 12:40:01.648605952,TASK_BEGIN,008,-1.5528118642349094,-0.4004471809397209,-4.322123612910073,0.6098432565408051,-3.1651588024793487,0.5572248618333681,8.582951782205795,1.1861307201186788,1
557,2024-09-17 12:40:01.722390016,TASK_BEGIN,008,-1.5331621022812763,-0.4531922606876445,-4.465766540257268,0.6316976587832532,-3.236123591317588,0.5726303579185711,8.127206359950305,1.2861943928267525,1
558,2024-09-17 12:40:01.788403200,TASK_BEGIN,008,-1.5092414867136956,-0.5081593092243487,-4.582960772613822,0.6501904776793055,-3.2851361730401476,0.5823411281511505,7.636925274922255,1.401170872394777,1
559,2024-09-17 12:40:01.850980096,TASK_BEGIN,008,-1.4819831763540807,-0.5642906098854865,-4.676398753180564,0.6625483159709887,-3.313206931778886,0.5864272363228359,7.1208684111829825,1.5323039835477437,1
560,2024-09-17 12:40:01.913077760,TASK_BEGIN,008,-1.4527373525386422,-0.6205124739281986,-4.751255923132814,0.6667054087004195,-3.3228301665116895,0.5854166779682098,6.592720911369271,1.6792367183775143,1
561,2024-09-17 12:40:02.856342016,TASK_BEGIN,008,-1.4232998751772925,-0.6757525525227809,-4.8136911485560425,0.6613491172390648,-3.31769108742977,0.5802051066038187,6.071885127590602,1.8396788346840194,1
562,2024-09-17 12:40:02.934007808,TASK_BEGIN,008,-1.3958320700044387,-0.7289599796446695,-4.869185563507266,0.6458704658445564,-3.3022521092599697,0.5719520078227874,5.584390984382461,2.0089199712440653,1
563,2024-09-17 12:40:02.995542016,TASK_BEGIN,008,-1.372629385809899,-0.7791492523782878,-4.921039741293895,0.620207627860085,-3.2812670103853097,0.5619747582995179,5.1630802077940565,2.179492156641288,1
564,2024-09-17 12:40:03.057609216,TASK_BEGIN,008,-1.355837785867067,-0.8254551752560506,-4.969182626416499,0.5846064567180602,-3.2592883940035726,0.5516331597494208,4.846160482092865,2.3413109102573224,1
565,2024-09-17 12:40:03.135219968,TASK_BEGIN,008,-1.347220942711599,-0.8671711956250691,-5.009636914195356,0.5393869829365506,-3.240212857161388,0.5421994660214685,4.673628123927057,2.4823766116714103,1
566,2024-09-17 12:40:03.208076032,TASK_BEGIN,008,-1.3479801482706153,-0.9037601069088165,-5.035005815852426,0.48478573903513394,-3.22675682842245,0.5347061716680972,4.681600041205861,2.5900190074798815,1
567,2024-09-17 12:40:03.274947072,TASK_BEGIN,008,-1.3586078650706086,-0.9348454855674475,-5.035899940653147,0.42089853186612125,-3.219750692511419,0.529770155242917,4.895349580271124,2.652665111199511,1
568,2024-09-17 12:40:04.192481024,TASK_BEGIN,008,-1.3788255557298619,-0.9601935738246944,-5.002861079638486,0.3477735908756165,-3.2174536012071036,0.527443224307291,5.322839843536747,2.661846517246489,1
569,2024-09-17 12:40:04.254969088,TASK_BEGIN,008,-1.4076641506294927,-0.9796857114342737,-4.928387931245423,0.2656976549755854,-3.215308869431728,0.5271710588178965,5.9511187662426295,2.613783402547033,1
570,2024-09-17 12:40:04.316572928,TASK_BEGIN,008,-1.4436490736523258,-0.9932847482043804,-4.808738855706477,0.17558659466301513,-3.206361625074148,0.5278873682775138,6.747231399241588,2.5098772503410385,1
571,2024-09-17 12:40:04.394305792,TASK_BEGIN,008,-1.4849840360005933,-1.001015606851652,-4.645143740756805,0.07929546884520876,-3.1822209261000816,0.5281888341749098,7.663338149489527,2.355958772077215,1
572,2024-09-17 12:40:04.466228992,TASK_BEGIN,008,-1.5296775868502623,-1.0029787652779996,-4.444166865598027,-0.020266638558823047,-3.1342901336934026,0.526520066897407,8.644009152292636,2.1607579693463275,1
573,2024-09-17 12:40:04.533498112,TASK_BEGIN,008,-1.5756395711042819,-0.9993886050997156,-4.217138177616162,-0.11921452144483538,-3.0550088053899485,0.5213471841480074,9.633523602366855,1.9342888417729995,1
574,2024-09-17 12:40:04.601826048,TASK_BEGIN,008,-1.6207811217464796,-0.9906068962283897,-3.9786589515791375,-0.21293078563258103,-2.93893501764192,0.5113414959200563,10.581933281456406,1.6866459323908447,1
575,2024-09-17 12:40:05.543246080,TASK_BEGIN,008,-1.6630958109943017,-0.9771475666498786,-3.744382741158552,-0.29648178616539467,-2.7835831162458087,0.4955762702020671,11.449469955219786,1.4274153249643584,1
576,2024-09-17 12:40:05.598355968,TASK_BEGIN,008,-1.7006779177986888,-0.9596524958321996,-3.528613914513199,-0.3651795438091175,-2.589974963319499,0.47369361453243103,12.209047678170325,1.165682390363621,1
577,2024-09-17 12:40:05.680879104,TASK_BEGIN,008,-1.731689507142854,-0.9388504907620306,-3.342428550052391,-0.4151515417235261,-2.3628299907545314,0.4459931790320981,12.84654496443307,0.9104101609647886,1
578,2024-09-17 12:40:05.737696768,TASK_BEGIN,008,-1.754347563545281,-0.9155033866859812,-3.192744802050439,-0.44375242608609444,-2.1102555258038653,0.4134204774367429,13.359261712611977,0.670733111148319,1
579,2024-09-17 12:40:05.815802880,TASK_BEGIN,008,-1.7669869543889314,-0.8903376384845663,-3.082254964939769,-0.4497793614680334,-1.8428655867142214,0.3774474030307619,13.753984268549301,0.4556673157163538,1
580,2024-09-17 12:40:05.878631168,TASK_BEGIN,008,-1.7681930580838872,-0.8639723800031598,-3.009881313608095,-0.4335371782413163,-1.5724850656107467,0.3398593398053651,14.045650500076379,0.2731038757975533,1
581,2024-09-17 12:40:05.940229120,TASK_BEGIN,008,-1.756954651617915,-0.8368701813161142,-2.971541597386798,-0.396744521156234,-1.3107476422443471,0.30250128860222325,14.25604195039105,0.12850800632646608,1
582,2024-09-17 12:40:06.884901120,TASK_BEGIN,008,-1.7327747896002583,-0.8093321830583825,-2.9611168682543143,-0.3422669344776713,-1.0678626346869908,0.26704527517750826,14.411409672905945,0.02396007842454137,1
583,2024-09-17 12:40:06.962071040,TASK_BEGIN,008,-1.6956890583157744,-0.7815335472874413,-2.97140786454321,-0.27377149900247333,-0.8517577440578114,0.23481729486486994,14.538746256133695,-0.042121736027896796,1
584,2024-09-17 12:40:07.025437952,TASK_BEGIN,008,-1.6461919126241145,-0.7535712150835465,-2.9948472476701995,-0.19542800935503982,-0.6676917070973689,0.20669759456927994,14.661291318073548,-0.0746206061861766,1
585,2024-09-17 12:40:07.087832064,TASK_BEGIN,008,-1.5851411089265737,-0.7254937351387424,-3.024058970851961,-0.11164898447530319,-0.5182315181975564,0.18309301666534808,14.794295401809338,-0.08084220690775962,1
586,2024-09-17 12:40:07.149851136,TASK_BEGIN,008,-1.5137213245422019,-0.6972976680806886,-3.05263537709714,-0.026744576635199014,-0.40344804418107166,0.16397690121808758,14.941966141431589,-0.06917781964017763,1
587,2024-09-17 12:40:07.227958016,TASK_BEGIN,008,-1.433484609359865,-0.6688952254152787,-3.076244113470873,0.05555192365892922,-0.32133595920741187,0.1489973081686341,15.095957934342271,-0.0474889235789058,1
