,time,MARKER,pid,L_O_DSI,L_D_DSI,L_O_DSphi,L_D_DSphi,R_O_DSI,R_D_DSI,R_O_DSphi,R_D_DSphi,trial_id
0,2024-09-18 21:31:01.373826048,TASK_BEGIN,009,0.9381425298756724,0.24148452207943222,2.2621398819503873,-0.8409362996786393,0.9567848850521843,-0.307245853463737,-5.932268890403339,1.8515316545436875,2
1,2024-09-18 21:31:01.434353920,TASK_BEGIN,009,0.9629761095416196,0.21525497505550292,2.1465563133834515,-0.5147541068052137,1.0032659642339934,-0.297353461007897,-6.337456466450384,1.6688598345510055,2
2,2024-09-18 21:31:01.509797120,TASK_BEGIN,009,0.9872914539870914,0.18849991706503666,2.0413948093127563,-0.20027473164329443,1.0496971725816429,-0.2886846037160875,-6.749082362984815,1.4968368343085627,2
3,2024-09-18 21:31:01.566379264,TASK_BEGIN,009,1.0089666170868554,0.16090152717068554,1.9516449293145934,0.09352131231412629,1.095035505938564,-0.2816061372148713,-7.162195493094547,1.342173397473085,2
4,2024-09-18 21:31:01.643173120,TASK_BEGIN,009,1.0257646044280178,0.13224782488917483,1.8808277690845625,0.3589053588685292,1.1380221387041587,-0.2762918031930606,-7.573036876686601,1.2106612645814305,2
5,2024-09-18 21:31:01.713434112,TASK_BEGIN,009,1.0353526778044932,0.10250255801479832,1.830330973797323,0.5898390945926645,1.1771774738611884,-0.2727022755957371,-7.979436062486593,1.1069783984216017,2
6,2024-09-18 21:31:01.780347904,TASK_BEGIN,009,1.0353641402620273,0.0718716500761877,1.7989579783931573,0.7822696740738939,1.2108658470329752,-0.27058940708431606,-8.380982270874053,1.0346187172935986,2
7,2024-09-18 21:31:02.724631040,TASK_BEGIN,009,1.0235429635650266,0.0408357321061224,1.7828642071413483,0.9342733622908873,1.2374235629394994,-0.26951734080201456,-8.77879073037699,0.9958726196507908,2
8,2024-09-18 21:31:02.790615040,TASK_BEGIN,009,0.9979732374353707,0.01013057825533126,1.7760288542987712,1.0460236063858943,1.2553304852291076,-0.2689063411425463,-9.17472687953176,0.9917668999570504,2
9,2024-09-18 21:31:02.860041984,TASK_BEGIN,009,0.9573319655471003,-0.01931647486482337,1.7713179432239856,1.1195524781264097,1.2633809616079177,-0.2680962516277375,-9.570384347942507,1.021958373808475,2
10,2024-09-18 21:31:02.927375872,TASK_BEGIN,009,0.9010880847809518,-0.04647444754167136,1.761918856541829,1.1583385426093982,1.260808356308816,-0.2664098840932279,-9.966140096071038,1.0846334259276629,2
11,2024-09-18 21:31:02.993458944,TASK_BEGIN,009,0.8296013066847862,-0.07030987430718166,1.742786327332273,1.1668085786169458,1.2473520949158057,-0.2631979311170776,-10.360301361746968,1.1764657274821002,2
12,2024-09-18 21:31:03.063288832,TASK_BEGIN,009,0.7440877617336391,-0.0898951490484989,1.711821309147594,1.1498335286230659,1.2232727029694712,-0.2578610015891843,-10.74834814373226,1.2926817750438826,2
13,2024-09-18 21:31:03.130705152,TASK_BEGIN,009,0.646436321707479,-0.10450713841008186,1.6705015183227812,1.1122956190127793,1.1893130939796646,-0.24985721159576738,-11.122567990475382,1.427288237950203,2
14,2024-09-18 21:31:04.074616064,TASK_BEGIN,009,0.5389350043813818,-0.11369358387558245,1.6236188569298375,1.0588323584109827,1.146623398858105,-0.23871007132634783,-11.472481920611767,1.5734965663559657,2
15,2024-09-18 21:31:04.135767808,TASK_BEGIN,009,0.42402043089791214,-0.11729559899776043,1.578031315552132,0.9938258241436161,1.0966811754940717,-0.2240258897152853,-11.786112655714904,1.7242930215517718,2
16,2024-09-18 21:31:04.198131968,TASK_BEGIN,009,0.30410914366883834,-0.11542523350109055,1.540838040727791,0.9215621681102368,1.0412003833830386,-0.20551564492922822,-12.051642402625903,1.8729866802896724,2
17,2024-09-18 21:31:04.275992064,TASK_BEGIN,009,0.18149337121695897,-0.10840623964637575,1.5176507906285446,0.8463773158361447,0.9819995678357549,-0.183010763321244,-12.258868094288234,2.0135765125429996,2
18,2024-09-18 21:31:04.337651200,TASK_BEGIN,009,0.058273922255051916,-0.0967000992833733,1.511521578033133,0.7726360250923328,0.9208442713065574,-0.15647390524823104,-12.400191107421554,2.140941905510916,2
19,2024-09-18 21:31:04.404197888,TASK_BEGIN,009,-0.06368063648097318,-0.08084219321267805,1.522793503797934,0.7044998846332663,0.8593070674215733,-0.1260154009552273,-12.471254531150331,2.250992144597292,2
20,2024-09-18 21:31:04.481376000,TASK_BEGIN,009,-0.18274864346795253,-0.06139942527591512,1.5497460635050702,0.6455484383111341,0.7986560529870631,-0.09191607120952808,-12.471418589289062,2.3408618309839997,2
21,2024-09-18 21:31:05.423683840,TASK_BEGIN,009,-0.29753602093949,-0.038947366379218334,1.5895268465499937,0.598400859069895,0.7397718380792003,-0.05464338443707478,-12.404131331755472,2.409100395036195,2
22,2024-09-18 21:31:05.482606848,TASK_BEGIN,009,-0.4068350274008805,-0.014059138318992396,1.6388443406676598,0.564496637320066,0.6831221568310465,-0.014847441630702594,-12.27706233244215,2.4557341235927117,2
23,2024-09-18 21:31:05.559305984,TASK_BEGIN,009,-0.5095916688990437,0.012699305643256026,1.6943242521355595,0.5440937933088835,0.6288109501379925,0.026669587639976573,-12.101699878465174,2.482104120700534,2
24,2024-09-18 21:31:05.626779904,TASK_BEGIN,009,-0.6048797016242476,0.04076483718950073,1.7528655302599847,0.5363938777077963,0.5766739487514461,0.06900630637723575,-11.89220314035766,2.49047464479216,2
25,2024-09-18 21:31:05.693725184,TASK_BEGIN,009,-0.6918503181475358,0.06956105992351275,1.8122633912602961,0.5396579771983931,0.5263840305843943,0.11122210260117081,-11.663686341571438,2.483529253074508,2
26,2024-09-18 21:31:05.751581696,TASK_BEGIN,009,-0.7696479965661189,0.09847592516020146,1.8718544257673269,0.5512971506784942,0.47753918542281015,0.15238990118051435,-11.430401853827355,2.463930800074262,2
27,2024-09-18 21:31:05.830516224,TASK_BEGIN,009,-0.8373204266143485,0.12684294946939315,1.932685143610135,0.5680435296374522,0.42970887164522004,0.19163601183981538,-11.204256102005003,2.4340562051573924,2
28,2024-09-18 21:31:06.773484800,TASK_BEGIN,009,-0.8937852937402121,0.153936568954155,1.9970313887224875,0.5862811835177456,0.3824442455191143,0.22816518593705828,-10.993864108955185,2.3958820314881653,2
29,2024-09-18 21:31:06.835971072,TASK_BEGIN,009,-0.9379122281107037,0.17898829626686974,2.0674522303384313,0.602505459638711,0.3353003777667879,0.26126996943530584,-10.80411847163194,2.3509121057232227,2
30,2024-09-18 21:31:06.897980928,TASK_BEGIN,009,-0.9686993510442247,0.20122031981457394,2.145596276010879,0.6138099770651907,0.28790968910554543,0.2903277906261411,-10.636172269821726,2.300093999894563,2
31,2024-09-18 21:31:06.977837824,TASK_BEGIN,009,-0.9854576973055355,0.21989035207893,2.2309871204725202,0.6182866225746778,0.24008571773614767,0.3147950557359113,-10.48779391521682,2.2437907395415464,2
32,2024-09-18 21:31:07.037230080,TASK_BEGIN,009,-0.9879494016586154,0.23434782192044962,2.320157752184628,0.6152444273892405,0.19189653378820734,0.3342114974782904,-10.354095054904299,2.181897209419945,2
33,2024-09-18 21:31:07.113462784,TASK_BEGIN,009,-0.9764851961679013,0.24409795826758088,2.4065185396718065,0.6052119225588013,0.1436701842843226,0.34822322669788414,-10.228594707634514,2.114103095007352,2
34,2024-09-18 21:31:07.181242880,TASK_BEGIN,009,-0.9519808040586644,0.24885827885917156,2.4810665387948676,0.589756141429349,0.09594383221207821,0.3566178459572407,-10.104502202621868,2.0402109257307,2
35,2024-09-18 21:31:08.091582976,TASK_BEGIN,009,-0.9159450987301722,0.24859172642184696,2.5336988435068966,0.5711935023878955,0.04938584896693318,0.3593563930465844,-9.976065415269835,1.9603983028353007,2
36,2024-09-18 21:31:08.154674176,TASK_BEGIN,009,-0.8704010466932169,0.24351068807761006,2.554743739699414,0.5522836456601331,0.004712320228617408,0.35659526917016837,-9.839789952919736,1.8753722508483435,2
37,2024-09-18 21:31:08.234456064,TASK_BEGIN,009,-0.817775260999125,0.23405064630981795,2.536373187798609,0.5359601857569988,-0.03736785700527557,0.3486994575226007,-9.695205327545452,1.7864261320169599,2
38,2024-09-18 21:31:08.302234880,TASK_BEGIN,009,-0.760765528485889,0.2208129865342682,2.4736804958449308,0.5250792894883538,-0.0761364726659182,0.33624152799677604,-9.544891849690222,1.6954141106784086,2
39,2024-09-18 21:31:08.363742208,TASK_BEGIN,009,-0.7021679198874288,0.20448475551002698,2.365326324147156,0.5221647376602143,-0.11079456375986435,0.31997540648735695,-9.393832441869606,1.6046358724715846,2
40,2024-09-18 21:31:08.434361088,TASK_BEGIN,009,-0.6446760055605957,0.18575386127940152,2.2137681617598046,0.5291885499203708,-0.14043154264070387,0.30078680809757297,-9.248386958095592,1.5166259895491077,2
41,2024-09-18 21:31:08.496450048,TASK_BEGIN,009,-0.590698957231754,0.16523793407476417,2.0251701328572067,0.5474316664855844,-0.16411318319532547,0.27963709207387183,-9.11507050554699,1.433878637698708,2
42,2024-09-18 21:31:09.447686144,TASK_BEGIN,009,-0.5422419575389966,0.14343688275525918,1.8090803395104407,0.5774176871412251,-0.18106134836355015,0.25751288219248347,-8.999269960099282,1.358582214278904,2
43,2024-09-18 21:31:09.516107264,TASK_BEGIN,009,-0.5008772282563464,0.12071457124796851,1.5778368868920485,0.6188915865160515,-0.1908237628771739,0.23537860292845894,-8.904247670727285,1.2924349705703297,2
44,2024-09-18 21:31:09.575490048,TASK_BEGIN,009,-0.4678060793307316,0.09731106959518918,1.3455526290978466,0.670841554607772,-0.19335357998961974,0.2141236939237274,-8.830833187488189,1.2365642333359446,2
45,2024-09-18 21:31:09.637818112,TASK_BEGIN,009,-0.44395841768576855,0.07337492605615298,1.1266463053525022,0.7315875806662607,-0.18900025453948305,0.19450702176446158,-8.77788306653002,1.1915455549723373,2
46,2024-09-18 21:31:09.715144960,TASK_BEGIN,009,-0.43004282195531757,0.04899399269511074,0.9341398193583481,0.79896071908205,-0.17846422557845126,0.17711225528065322,-8.743212611301468,1.157500468477502,2
47,2024-09-18 21:31:09.781367040,TASK_BEGIN,009,-0.426498364802237,0.024210329561498975,0.7780332127276323,0.8705615578910318,-0.1627361150524466,0.16232117529620219,-8.724535789686698,1.1341993309154654,2
48,2024-09-18 21:31:09.854953216,TASK_BEGIN,009,-0.43337505804790805,-0.0009754364270394706,0.6640887805454949,0.9440051738580102,-0.14299478887348538,0.1502978174818428,-8.720058838514145,1.121106167212321,2
49,2024-09-18 21:31:10.798449920,TASK_BEGIN,009,-0.45021810117393873,-0.026592953844013615,0.59342287166702,1.0170160918497664,-0.12045296054692387,0.14097701086888045,-8.728704145535042,1.1174198724987892,2
50,2024-09-18 21:31:10.866231808,TASK_BEGIN,009,-0.4760282193585839,-0.05267220490321938,0.5630846479198915,1.0873409881396676,-0.09618718434976627,0.13406125652921808,-8.750152812487231,1.1222042071410614,2
51,2024-09-18 21:31:10.921545984,TASK_BEGIN,009,-0.5093195577144424,-0.07919885816348464,0.5673128426223625,1.152608233145434,-0.07102453282624205,0.12903386628790062,-8.784766274142417,1.1345729353302976,2
52,2024-09-18 21:31:10.998697984,TASK_BEGIN,009,-0.5482375077759769,-0.10607249284731037,0.5989857994804574,1.2102882566976902,-0.04555344292617341,0.12519241990387886,-8.833300644229015,1.1538046373144242,2
53,2024-09-18 21:31:11.060722176,TASK_BEGIN,009,-0.5906889227990098,-0.13308574927208658,0.650966458564205,1.257814431584937,-0.02026683079793821,0.12170240417030057,-8.896414995495354,1.179320866374069,2
54,2024-09-18 21:31:11.137415680,TASK_BEGIN,009,-0.6344725493327736,-0.15993006907742377,0.7171577992422289,1.2928416714454698,0.004230917414422676,0.11767064584158331,-8.974099188900645,1.2105520463610935,2
55,2024-09-18 21:31:11.200478976,TASK_BEGIN,009,-0.6774247569426562,-0.18622003644544688,0.7931171844423109,1.3135535596185408,0.027057077366687905,0.11223613289989119,-9.065182720513784,1.246758915574723,2
56,2024-09-18 21:31:12.114015232,TASK_BEGIN,009,-0.7175914047661768,-0.2115267182008865,0.876191190709859,1.318892781564588,0.04699713475437918,0.10466872935836743,-9.167080312077468,1.2869045986393737,2
57,2024-09-18 21:31:12.191633920,TASK_BEGIN,009,-0.7534155544056336,-0.2354187880531925,0.9652027588693952,1.30865595401897,0.06256857741045334,0.09446205092529256,-9.275842484472658,1.329656539737819,2
58,2024-09-18 21:31:12.254080000,TASK_BEGIN,009,-0.7839102294858133,-0.2575085033472977,1.0597285627474735,1.2834887341088457,0.07215857720611292,0.08140537524613087,-9.386440720408839,1.3735130390181134,2
59,2024-09-18 21:31:12.317583104,TASK_BEGIN,009,-0.8087744054302594,-0.2774859161857834,1.159145209097743,1.2448155176869278,0.0741874227283519,0.06561804758893071,-9.493200481373401,1.4169922070597005,2
60,2024-09-18 21:31:12.395215104,TASK_BEGIN,009,-0.8284105129549377,-0.2951297776207616,1.2618094883319484,1.1946955392673404,0.06726383032455481,0.04753860827471256,-9.590418160244791,1.4588430842403373,2
61,2024-09-18 21:31:12.456811008,TASK_BEGIN,009,-0.843826005311289,-0.31030640509195057,1.3646496544417637,1.1356270847201713,0.050316479518003054,0.027877628823706355,-9.673179948050457,1.4982479345348023,2
62,2024-09-18 21:31:12.530755072,TASK_BEGIN,009,-0.8564577746709106,-0.3229661417230858,1.4631942461404572,1.0703687703232039,0.022696032006455504,0.007548215512170456,-9.73810285158937,1.5349423097416914,2
63,2024-09-18 21:31:13.470351104,TASK_BEGIN,009,-0.8679986666286849,-0.33312484278572796,1.5519693900461748,1.0018072127311233,-0.015758435017991953,-0.012419539848078575,-9.783581341032228,1.5691797811794286,2
64,2024-09-18 21:31:13.542042112,TASK_BEGIN,009,-0.8802730505107205,-0.34082128290079566,1.6251507554883153,0.9328448059341362,-0.06468951247237427,-0.03097443533020849,-9.809520984604541,1.6015644374599067,2
65,2024-09-18 21:31:13.602957056,TASK_BEGIN,009,-0.8951330174263549,-0.3460693084212869,1.6772384613014384,0.8663110124949607,-0.1232248527522058,-0.04713436578244243,-9.81696005630131,1.6328670542878474,2
66,2024-09-18 21:31:13.675908864,TASK_BEGIN,009,-0.9143200525185031,-0.34883171823042375,1.7035101398054966,0.8049315013523721,-0.19002335255053057,-0.06005293269776827,-9.807858510918399,1.6639213026867603,2
67,2024-09-18 21:31:13.743752960,TASK_BEGIN,009,-0.9392825907355805,-0.34902317368564656,1.7001660113863306,0.7513287853918231,-0.26338000231598796,-0.06905807505864835,-9.785042468094273,1.695596745230874,2
68,2024-09-18 21:31:13.812517888,TASK_BEGIN,009,-0.9709857746774517,-0.3465342373561344,1.6642734064262639,0.707964670084406,-0.34137257852625946,-0.0736723670543011,-9.752243415187175,1.7287662618569088,2
69,2024-09-18 21:31:13.867948032,TASK_BEGIN,009,-1.0097544410591002,-0.34126897534652745,1.5936956148773012,0.6769744178916289,-0.4219948968627515,-0.0736272707493497,-9.714123532847346,1.7641897913348215,2
70,2024-09-18 21:31:14.808975872,TASK_BEGIN,009,-1.055181439460071,-0.3331885776878535,1.4871023841474151,0.6599416275736077,-0.5032513853417605,-0.06887360904554424,-9.676028679856374,1.802318133893397,2
71,2024-09-18 21:31:14.887186944,TASK_BEGIN,009,-1.1061231241028755,-0.32234846865766054,1.3440558375847624,0.6577083285036149,-0.5832559815287521,-0.05957804044149797,-9.643246095803304,1.8430976027495631,2
72,2024-09-18 21:31:14.949249024,TASK_BEGIN,009,-1.16078397877649,-0.3089167124094582,1.1651730584765987,0.6702772666168378,-0.6603622054940689,-0.046099268163800125,-9.619864100168392,1.8858552202294234,2
73,2024-09-18 21:31:15.027629824,TASK_BEGIN,009,-1.2168771027159402,-0.2931709735186348,0.9523714317434813,0.6968202284277624,-0.7332645549157304,-0.02895547208247004,-9.607651601006788,1.9292871446269253,2
74,2024-09-18 21:31:15.095204096,TASK_BEGIN,009,-1.2718465191113038,-0.2754796825468286,0.7091142911740256,0.7357925779018835,-0.8010083016050484,-0.00879760321526018,-9.605398676637103,1.9715292342750745,2
75,2024-09-18 21:31:15.151757056,TASK_BEGIN,009,-1.3231369581467958,-0.2562727536590106,0.4405444545200175,0.7851121264763835,-0.8629415739719555,0.013616656562860945,-9.60896802680402,2.010290736932676,2
76,2024-09-18 21:31:15.231010048,TASK_BEGIN,009,-1.368488587343765,-0.23600488453416485,0.15355395774462396,0.8422948288697855,-0.9186811465739712,0.0374653380141148,-9.612091394653662,2.0430529442363468,2
77,2024-09-18 21:31:16.164540160,TASK_BEGIN,009,-1.4062144652442377,-0.21511815418675104,-0.14304653008864604,0.9044567941970226,-0.9680910607651552,0.06192132706490035,-9.607694981339495,2.0673323620025603,2
78,2024-09-18 21:31:16.241358080,TASK_BEGIN,009,-1.4353933997033412,-0.19401479950063222,-0.43833096215379,0.9682241671486146,-1.0112308297959542,0.08621095264948311,-9.58931877319535,2.0809741892263975,2
79,2024-09-18 21:31:16.309959936,TASK_BEGIN,009,-1.4559187482220024,-0.1730457656379109,-0.7194303030578599,1.0297112753189421,-1.0482815830002807,0.10966270420543066,-9.552157864787251,2.082404410139462,2
80,2024-09-18 21:31:16.365815040,TASK_BEGIN,009,-1.4683983906784361,-0.15251070352529603,-0.9724181651387875,1.0847078383910855,-1.0794998849010373,0.1317477654783275,-9.493419708973063,2.070787365288211,2
81,2024-09-18 21:31:16.443923200,TASK_BEGIN,009,-1.4739561889012855,-0.13266200753606058,-1.1838850286377365,1.1290826369667708,-1.1052305666213846,0.15210756922789767,-9.412018712614842,2.0461118421509545,2
82,2024-09-18 21:31:16.505924096,TASK_BEGIN,009,-1.474009263968615,-0.11370746183007575,-1.3428039384611634,1.1592764183533257,-1.1259829427556873,0.17055956103174186,-9.307916871199353,2.009238845030943,2
83,2024-09-18 21:31:16.570462976,TASK_BEGIN,009,-1.4700913703476337,-0.09580561150191827,-1.4421454308574717,1.172729819208703,-1.1425492406011757,0.18708270416104367,-9.181401378322164,1.961854421850354,2
84,2024-09-18 21:31:17.524380928,TASK_BEGIN,009,-1.4637520968678541,-0.079050601522798,-1.4799056429162636,1.1681864386199345,-1.1561050164263365,0.20179108069022295,-9.032467276067035,1.906247561983555,2
85,2024-09-18 21:31:17.592222976,TASK_BEGIN,009,-1.4565015689449243,-0.06345743073091663,-1.459511058755878,1.1458899212429938,-1.1682114555743248,0.21490057558766204,-8.86056103072455,1.844949212822589,2
86,2024-09-18 21:31:17.645565952,TASK_BEGIN,009,-1.4497482162576965,-0.048969266972015354,-1.3895923779522807,1.1076599777757272,-1.1806864972218725,0.22669537909443171,-8.664957177678028,1.7803776322559108,2
87,2024-09-18 21:31:17.723222016,TASK_BEGIN,009,-1.4447075483609475,-0.03549399009952176,-1.2830441926795495,1.05679098890536,-1.1954019444313135,0.23750822303919966,-8.445700102575872,1.7146096840110046,2
88,2024-09-18 21:31:17.795561984,TASK_BEGIN,009,-1.4423008466416862,-0.022951014660792395,-1.1554129186564583,0.9977598269707081,-1.2140927557315448,0.24771675851959515,-8.20468621940461,1.6492854983503877,2
89,2024-09-18 21:31:17.863353088,TASK_BEGIN,009,-1.4430833971752663,-0.011302437407611747,-1.02281333945758,0.9357743637506316,-1.23820381446243,0.2577306711783478,-7.94645024406074,1.5856027970540862,2
90,2024-09-18 21:31:17.930145024,TASK_BEGIN,009,-1.4472378714760004,-0.0005572028864932019,-0.8996308634385842,0.8761982562143558,-1.2687530455265514,0.2679423868245249,-7.678445701370056,1.524394586113399,2
91,2024-09-18 21:31:18.849461248,TASK_BEGIN,009,-1.4546400935659822,0.00924542405317976,-0.7964237773305358,0.8239180142427016,-1.306206365704072,0.278647939820432,-7.410801981523139,1.4662846586252878,2
92,2024-09-18 21:31:18.914350080,TASK_BEGIN,009,-1.464963027137734,0.0180585546539492,-0.718555986951808,0.7827621870111938,-1.3503780008037976,0.28997144200223685,-7.155659186369412,1.4118703550264082,2
93,2024-09-18 21:31:18.976375040,TASK_BEGIN,009,-1.4777667127573333,0.025844966047949974,-0.6658454449609693,0.7550774051434123,-1.4003731946807605,0.30182448161134867,-6.926300309540645,1.3618899927043253,2
94,2024-09-18 21:31:19.038338816,TASK_BEGIN,009,-1.4925547235577747,0.03258674385417575,-0.6331243007908894,0.7415278363210905,-1.4545992367317635,0.31391423191419454,-6.7362643063476915,1.3173478028081593,2
95,2024-09-18 21:31:19.120719104,TASK_BEGIN,009,-1.5088255361971392,0.03829160389209356,-0.6114171286673028,0.7411417601315473,-1.5108550704993275,0.32579256258285655,-6.598367558870569,1.279529903495271,2
96,2024-09-18 21:31:19.188509952,TASK_BEGIN,009,-1.5261491231482065,0.042998228823295875,-0.5894420951135299,0.7515707480053329,-1.5664817990236481,0.336925787202629,-6.523445875370441,1.249846596752945,2
97,2024-09-18 21:31:19.256322048,TASK_BEGIN,009,-1.5442614756540642,0.04677847938700368,-0.555229139543437,0.7694733508927699,-1.6185678913379395,0.3467697278006292,-6.518886629922802,1.2295294103237646,2
98,2024-09-18 21:31:20.189699840,TASK_BEGIN,009,-1.5631420887319982,0.049735871183268984,-0.49773870587643926,0.7909413459415339,-1.6642076641806824,0.3548397245316812,-6.58735673946876,1.2193021895993728,2
99,2024-09-18 21:31:20.251709952,TASK_BEGIN,009,-1.5830364894783966,0.052003452175336286,-0.40833410855855795,0.8119311827559615,-1.700770167028857,0.3607609833224594,-6.726182592271561,1.2191673691439857,2
100,2024-09-18 21:31:20.334419968,TASK_BEGIN,009,-1.6044064544547683,0.0537443045783834,-0.2818634377702483,0.8286713742768138,-1.7261260221881864,0.36429256276885214,-6.927564126089686,1.228398985440499,2
101,2024-09-18 21:31:20.391406080,TASK_BEGIN,009,-1.627829774220945,0.055155044358237,-0.11716094140904307,0.8380139497571515,-1.7388173586572375,0.36533546685180707,-7.179436899106287,1.2457302603644202,2
102,2024-09-18 21:31:20.470066176,TASK_BEGIN,009,-1.6538905998761084,0.056468397650254305,0.08300541905661947,0.8377267371163465,-1.738163505408411,0.36393288125200385,-7.4666277513340376,1.2696275669818313,2
103,2024-09-18 21:31:20.538029056,TASK_BEGIN,009,-1.6830797990296094,0.057950581627066816,0.31238517723941167,0.8267157081055747,-1.7242758410945076,0.3602556260711172,-7.7720386032005235,1.2985063519557256,2
104,2024-09-18 21:31:20.605794816,TASK_BEGIN,009,-1.7156942611397312,0.05989302706870147,0.5619637289500429,0.8051230217484332,-1.6979553187453407,0.354565377025592,-8.077718191451993,1.3307865943057025,2
105,2024-09-18 21:31:21.549098752,TASK_BEGIN,009,-1.751715538098442,0.06259602778376573,0.8208008438486505,0.774271166785424,-1.6604683364248165,0.347157992378959,-8.36576658464774,1.3648178739653258,2
106,2024-09-18 21:31:21.613490944,TASK_BEGIN,009,-1.7906768804172657,0.06633965972021688,1.0768264150971347,0.7364862189455561,-1.6132451619040107,0.33829660119625937,-8.619165528190482,1.3988304760949457,2
107,2024-09-18 21:31:21.684715008,TASK_BEGIN,009,-1.8315738209438088,0.07134627777502751,1.317616428409321,0.6948213289038025,-1.5576005560248831,0.32815387704046695,-8.8227333237229,1.4310343589253312,2
108,2024-09-18 21:31:21.751500032,TASK_BEGIN,009,-1.872868597753529,0.07774566510505503,1.5313465008807914,0.6526743146493726,-1.4945678233475794,0.3167867982195041,-8.964304324252819,1.4598329282682934,2
109,2024-09-18 21:31:21.820334848,TASK_BEGIN,009,-1.9125817609916882,0.08554732230622455,1.7079321850681752,0.6133593407659595,-1.4248640633033354,0.3041469921528935,-9.036002888480914,1.4840257529731398,2
110,2024-09-18 21:31:21.887375872,TASK_BEGIN,009,-1.9484385342307522,0.09461759763485705,1.8400416193117735,0.5797561202254369,-1.3489510267148763,0.29010430400034265,-9.035266863935275,1.5029007810977388,2
111,2024-09-18 21:31:21.955937024,TASK_BEGIN,009,-1.978043729815496,0.10465892502045387,1.9236535298298805,0.5540970329008272,-1.2671453102349806,0.2744627787278786,-8.965198349205874,1.5161927675299882,2
112,2024-09-18 21:31:22.871649024,TASK_BEGIN,009,-1.9990435923626042,0.11519062560957691,1.9580794583775576,0.5378639349963272,-1.1797387068161052,0.2569711474853072,-8.833999077187991,1.5239504087225997,2
113,2024-09-18 21:31:22.933991936,TASK_BEGIN,009,-2.009237678742147,0.12553950070153108,1.9455657208703103,0.5317700080931964,-1.087117273549019,0.23734565951924042,-8.653669980033111,1.526393822540263,2
114,2024-09-18 21:31:23.008155136,TASK_BEGIN,009,-2.0066543749669243,0.13485713729926027,1.8906668073314064,0.5358191711872524,-0.989880118618619,0.21531458749389565,-8.438524059499427,1.523854127982943,2
115,2024-09-18 21:31:23.075493120,TASK_BEGIN,009,-1.9896204422272439,0.1421710329102032,1.7995821429180308,0.5494069937157481,-0.888928496103588,0.19067334316059772,-8.203977916608208,1.5168277322721786,2
116,2024-09-18 21:31:23.142821120,TASK_BEGIN,009,-1.9568215051765476,0.14645517010603762,1.6795816155990655,0.571429465751797,-0.7854866653179949,0.16333405775563734,-7.9656300061983245,1.50605323238632,2
117,2024-09-18 21:31:23.211523840,TASK_BEGIN,009,-1.907338888769726,0.1466989692248191,1.538540409636781,0.6004042026452368,-0.6810565109782277,0.13336216717801294,-7.738415498032145,1.4924739015727586,2
118,2024-09-18 21:31:23.274728960,TASK_BEGIN,009,-1.8406771634681889,0.14196677045358075,1.3845066445788594,0.6346094663690179,-0.5773342707883921,0.1009954584207054,-7.535842979787677,1.477063532551717,2
119,2024-09-18 21:31:24.222993920,TASK_BEGIN,009,-1.756820976488743,0.1314553643849921,1.2252329957479369,0.6722287186993422,-0.4761097708496844,0.06664141779456825,-7.369470397897712,1.4606310682962333,2
120,2024-09-18 21:31:24.290806272,TASK_BEGIN,009,-1.6563386108166096,0.11455746948082089,1.067697145592769,0.7115058427354026,-0.3791707019368537,0.030856983924376094,-7.2486099071881345,1.4437349876898253,2
121,2024-09-18 21:31:24.358586880,TASK_BEGIN,009,-1.5404993931303481,0.09092517658548445,0.917658689125802,0.7509356794416561,-0.2882409812383791,-0.0056781926922778855,-7.18002545855236,1.4267400347316752,2
122,2024-09-18 21:31:24.426387968,TASK_BEGIN,009,-1.4113504901193634,0.060518268819628275,0.7793341544472813,0.7894728322398049,-0.20495565887522368,-0.04219107822500377,-7.167358148803394,1.4099400846792467,2
123,2024-09-18 21:31:24.484751104,TASK_BEGIN,009,-1.271715919356389,0.023628676401057175,0.6553987482164289,0.8266647981742563,-0.13083945577627681,-0.0778565531686849,-7.210268510642746,1.3936437014218077,2
124,2024-09-18 21:31:24.561999104,TASK_BEGIN,009,-1.1251057996748408,-0.019116263902701262,0.5474367694570559,0.8626100514368309,-0.0672498086018327,-0.11185883552654899,-7.303711229356721,1.3781820751039469,2
125,2024-09-18 21:31:24.629818112,TASK_BEGIN,009,-0.9755488284379529,-0.06676675244232905,0.4565916358804871,0.8977373988677145,-0.01526426052407248,-0.14346338680367246,-7.437954867357021,1.3638761797129533,2
126,2024-09-18 21:31:25.572678912,TASK_BEGIN,009,-0.8273769486218366,-0.11808313894243826,0.38399953838539436,0.9324961054148924,0.024469296764868725,-0.17207575838841196,-7.599596504935825,1.350999309987183,2
127,2024-09-18 21:31:25.640492032,TASK_BEGIN,009,-0.6849810972884766,-0.17159649014529207,0.3308453959262016,0.9670598900813113,0.051862620822290616,-0.197270376498292,-7.773221294043688,1.3397149412525868,2
128,2024-09-18 21:31:25.708276992,TASK_BEGIN,009,-0.5525430336040104,-0.22569562715157557,0.2981788779308789,1.001120267031156,0.06745669552959774,-0.21879490186448408,-7.943218013375085,1.3299812356919596,2
129,2024-09-18 21:31:25.776058880,TASK_BEGIN,009,-0.4337710813167007,-0.27872565316521797,0.2866833985615261,1.033817991746816,0.07244932233819068,-0.23657188295882128,-8.095605766508148,1.3214891642604074,2
130,2024-09-18 21:31:25.843851008,TASK_BEGIN,009,-0.33170674756875773,-0.32908065297366323,0.29649384145139673,1.0638211346187043,0.06869599377174246,-0.25070667229440613,-8.21984221129031,1.3136916880674991,2
131,2024-09-18 21:31:25.901487104,TASK_BEGIN,009,-0.24865798964251906,-0.37527973198914494,0.32706040292163,1.0895080848646543,0.058632320133462264,-0.261481461380719,-8.310236360887385,1.3058727686914928,2
132,2024-09-18 21:31:25.979454976,TASK_BEGIN,009,-0.18624868450667273,-0.4160212477786659,0.37703490594676886,1.1091840734365175,0.045077053172964836,-0.26931323518906464,-8.366413075855533,1.297170384092196,2
133,2024-09-18 21:31:26.921112064,TASK_BEGIN,009,-0.14551826234929388,-0.45021608148387765,0.44422026869033004,1.1212602117093968,0.030968140161059123,-0.27468411672171383,-8.392662402818786,1.286561795759546,2
134,2024-09-18 21:31:26.990125056,TASK_BEGIN,009,-0.127000017269468,-0.47700884143203903,0.5256638324153716,1.1243644582989072,0.01910461172143198,-0.278068643460163,-8.396543670890104,1.2728898933083361,2
135,2024-09-18 21:31:27.043676928,TASK_BEGIN,009,-0.13073606893083883,-0.49579590376714683,0.6179421993469641,1.1174148702101327,0.011907098591855445,-0.27986862994517525,-8.387356983760414,1.2549764283269322,2
136,2024-09-18 21:31:27.126084864,TASK_BEGIN,009,-0.1562249240874425,-0.5062408319569477,0.7176078300917395,1.0996959703432954,0.0112011210230373,-0.2803591460193035,-8.374945406934032,1.2318107310572255,2
137,2024-09-18 21:31:27.183249920,TASK_BEGIN,009,-0.20233298782490905,-0.5082842872380464,0.821577554415005,1.0709450910913907,0.018059564924611006,-0.2796571229702483,-8.368869778889074,1.2027737201298943,2
138,2024-09-18 21:31:27.261615872,TASK_BEGIN,009,-0.2672215828482489,-0.5021473782546882,0.927074857607718,1.0314571904614296,0.03271495381460953,-0.2777212554663411,-8.377714330229654,1.167840467658335,2
139,2024-09-18 21:31:27.328749056,TASK_BEGIN,009,-0.3483249659032577,-0.4883273021323242,1.0309452559939727,0.9822298102505759,0.05452268201161954,-0.27438276447563936,-8.408390859872146,1.1277136830423247,2
140,2024-09-18 21:31:28.265731328,TASK_BEGIN,009,-0.44237658086260173,-0.4675840920996047,1.1286764465638286,0.9251033073793153,0.0820041722659457,-0.26940847968557874,-8.465541051394188,1.0838830694544586,2
141,2024-09-18 21:31:28.340634112,TASK_BEGIN,009,-0.545470491976916,-0.4409180451755475,1.2137662776927516,0.8627587497934566,0.11302397292674154,-0.2625942845398752,-8.55121129570703,1.0386132582263818,2
142,2024-09-18 21:31:28.408396032,TASK_BEGIN,009,-0.6531755921499186,-0.4095365145499212,1.277897280885562,0.7984729312862662,0.14507775327476724,-0.2538668232752669,-8.664902122405415,0.9948193047837651,2
143,2024-09-18 21:31:28.467191040,TASK_BEGIN,009,-0.7607351166553702,-0.37481117007665227,1.311878124772246,0.7356849736920955,0.1755948215893366,-0.243359373706126,-8.803923229780198,0.9557795747987106,2
144,2024-09-18 21:31:28.543929088,TASK_BEGIN,009,-0.8633413143339526,-0.3382333870847915,1.306942816449254,0.6775223340469553,0.20217375852864666,-0.23144052480276162,-8.963816662172555,0.9246917307222887,2
145,2024-09-18 21:31:28.611700992,TASK_BEGIN,009,-0.9564285315771618,-0.30137349906556476,1.2560246789955076,0.626407319025838,0.22272428900794985,-0.21869547126097263,-9.138643530165256,0.9041604675684148,2
146,2024-09-18 21:31:28.679322112,TASK_BEGIN,009,-1.0359364469318006,-0.2658368444234877,1.154808202030413,0.5838214029642952,0.23552683192795812,-0.2058706112504247,-9.321135758300416,0.8957655915508259,2
147,2024-09-18 21:31:29.590363136,TASK_BEGIN,009,-1.0985309333055693,-0.23320258194526802,1.0023901023775774,0.5502718155296119,0.23923464243748035,-0.19379304361034974,-9.502838285131961,0.8998431942177945,2
148,2024-09-18 21:31:29.666004992,TASK_BEGIN,009,-1.1417911455073788,-0.20493792016141169,0.8014235072360506,0.5254338460537312,0.23284557035347309,-0.18327927373176722,-9.674347216321848,0.9155387477674612,2
149,2024-09-18 21:31:29.734095872,TASK_BEGIN,009,-1.1643714318081428,-0.18229104348300373,0.5578620734213341,0.5083849845630097,0.2156776014321246,-0.17505262764187593,-9.825708219964278,0.9410983866264748,2
150,2024-09-18 21:31:29.795776000,TASK_BEGIN,009,-1.1661244974426312,-0.1661761485160044,0.280569478251078,0.49786376045087893,0.18737584536296295,-0.16968215658905927,-9.947001903692986,0.9742589404520791,2
151,2024-09-18 21:31:29.869926912,TASK_BEGIN,009,-1.148145020816729,-0.1570760873506121,-0.01910181278495874,0.49251222898903574,0.14794355384199706,-0.16754037346257697,-10.029098090536236,1.0125588630787445,2
152,2024-09-18 21:31:29.937452032,TASK_BEGIN,009,-1.1126983142840927,-0.15499218890774674,-0.3278644413667882,0.4910516872351314,0.09777026751525585,-0.16877428851895346,-10.06447328291992,1.0535015435716568,2
153,2024-09-18 21:31:30.005395968,TASK_BEGIN,009,-1.0630396116725267,-0.1594564792809633,-0.631227842968066,0.49234784108588264,0.03764577376910159,-0.17329243178470669,-10.047828580535404,1.0946513318140807,2
154,2024-09-18 21:31:30.939612928,TASK_BEGIN,009,-1.003168288890048,-0.16960033450836473,-0.9142834532351788,0.4953734448575986,-0.03124348093420582,-0.18077329797998373,-9.976289572498487,1.1337667080218727,2
155,2024-09-18 21:31:31.002097920,TASK_BEGIN,009,-0.9375669295514524,-0.18426110548299504,-1.1624530063471001,0.4991311903845651,-0.10734486338840271,-0.19069816785077287,-9.849331877970739,1.1689885054417228,2
156,2024-09-18 21:31:31.084829184,TASK_BEGIN,009,-0.8709434260514142,-0.20210512885257084,-1.362230761350842,0.5026044307405025,-0.18879715877554,-0.20240729624115095,-9.668772850650853,1.1990294926504086,2
157,2024-09-18 21:31:31.151730944,TASK_BEGIN,009,-0.8079593705168837,-0.22174785928362728,-1.5019697074124512,0.504766743497672,-0.27349805037672936,-0.21517057236011772,-9.43897853612039,1.2233040775814215,2
158,2024-09-18 21:31:31.219300096,TASK_BEGIN,009,-0.7529335296110208,-0.2418588450280092,-1.5727751734790374,0.5046456110920994,-0.3591587419937712,-0.2282584751331145,-9.167202539180574,1.2419578637844433,2
159,2024-09-18 21:31:31.288182784,TASK_BEGIN,009,-0.7095407389007974,-0.2612495573961737,-1.569502913190549,0.5014113795962956,-0.44334342592391307,-0.24100204251600169,-8.8638238340705,1.255788203338217,2
160,2024-09-18 21:31:31.356014848,TASK_BEGIN,009,-0.680538124551227,-0.2789483654074822,-1.4916201430900022,0.4944598151603879,-0.5235350010894643,-0.252834479841033,-8.542172931423929,1.2660847850096495,2
161,2024-09-18 21:31:32.299264768,TASK_BEGIN,009,-0.6675403311651291,-0.2942618323776597,-1.3435616469905962,0.4834817533209212,-0.5972820115588813,-0.26331001757240263,-8.217796712138805,1.274423743854085,2
162,2024-09-18 21:31:32.357048064,TASK_BEGIN,009,-0.6708745882034086,-0.3068093192570831,-1.1343846876309445,0.4685302848089015,-0.6624332340082612,-0.2721023384016558,-7.907248900552213,1.2824199798055018,2
163,2024-09-18 21:31:32.434799104,TASK_BEGIN,009,-0.6895834469933726,-0.3165116891141293,-0.8767678312154754,0.45007526897934774,-0.7174112967389473,-0.2789897140645907,-7.6265228853106,1.2914478990188343,2
164,2024-09-18 21:31:32.502742016,TASK_BEGIN,009,-0.7216308305295869,-0.32352725180317005,-0.5855444280269506,0.4290089537544972,-0.7614588278419148,-0.28383200508297357,-7.38928257916515,1.3023939325271683,2
165,2024-09-18 21:31:32.570547968,TASK_BEGIN,009,-0.764263677917795,-0.3281554661813416,-0.27614242654475696,0.40658502329339863,-0.7947968562705783,-0.2865433832608737,-7.205267651798807,1.3155325386743741,2
166,2024-09-18 21:31:32.638405120,TASK_BEGIN,009,-0.8144012103267365,-0.330743352338418,0.036578474539575516,0.38431605183008405,-0.8186655137540634,-0.28706563882989056,-7.079328162255571,1.3305736774408174,2
167,2024-09-18 21:31:32.706204160,TASK_BEGIN,009,-0.8689609716480855,-0.33161656055645583,0.3388628826194577,0.3638672348862631,-0.8352611937763333,-0.2853420623519425,-7.011271206365503,1.346858008379819,2
168,2024-09-18 21:31:33.643233792,TASK_BEGIN,009,-0.9251022677496354,-0.3310395544620162,0.6181447044278303,0.3469803943509104,-0.8475892779548916,-0.2812888677519063,-6.996336243814501,1.3636280479271858,2
169,2024-09-18 21:31:33.717597952,TASK_BEGIN,009,-0.9803882597954252,-0.32920237944051295,0.86295221612901,0.33544766108291635,-0.859216855816297,-0.27477326587382744,-7.025971304704909,1.3802708954340308,2
170,2024-09-18 21:31:33.785728000,TASK_BEGIN,009,-1.0328719332339338,-0.32622492044639834,1.0628743420139644,0.3310887958321092,-0.8739181037709165,-0.2656153433473902,-7.0887104176158315,1.396429236537959,2
171,2024-09-18 21:31:33.853172992,TASK_BEGIN,009,-1.0811271306023926,-0.3221655466399234,1.2088718193703585,0.3356337789632776,-0.8952780930845016,-0.25361447911948864,-7.171189676952173,1.4119577484579484,2
172,2024-09-18 21:31:33.907179264,TASK_BEGIN,009,-1.1242438424925945,-0.3170289705515502,1.2940475673135932,0.3504828511267882,-0.9263588290561152,-0.23858472639896705,-7.259410584146499,1.4268001070626155,2
173,2024-09-18 21:31:33.988028160,TASK_BEGIN,009,-1.1617850927595308,-0.310776112293248,1.3146343225978698,0.37644573963157824,-0.9694770021594563,-0.22038723771915691,-7.340153773933376,1.44086240115534,2
174,2024-09-18 21:31:34.050425088,TASK_BEGIN,009,-1.1937033298028088,-0.30333493678300194,1.2708015817171567,0.41359742937567484,-1.0260811826224046,-0.1989499223708169,-7.4022353916031784,1.453887035690632,2
175,2024-09-18 21:31:34.974457088,TASK_BEGIN,009,-1.220242308552752,-0.29460908905271527,1.1669971943960784,0.46130540306530005,-1.096711697058153,-0.17426170645345126,-7.437393220156729,1.4653282900226228,2
176,2024-09-18 21:31:35.042334976,TASK_BEGIN,009,-1.2418578789720764,-0.2844907940261,1.0117353379524283,0.5183761707336076,-1.181021417366897,-0.1463453266377159,-7.440872446162847,1.4743089250876957,2
177,2024-09-18 21:31:35.110184704,TASK_BEGIN,009,-1.2591594189544744,-0.2728890769748276,0.8168701876048304,0.5832227534426214,-1.2778085035935822,-0.11523448220161159,-7.411812829563747,1.4797372157861404,2
178,2024-09-18 21:31:35.177992192,TASK_BEGIN,009,-1.2728513673330826,-0.25977055168349195,0.5964612906387234,0.6539840226575421,-1.385030887174613,-0.08097494777159993,-7.353287511585144,1.4805487908383026,2
179,2024-09-18 21:31:35.245659136,TASK_BEGIN,009,-1.2836727914092763,-0.24519447869819747,0.36546140335423277,0.7285772383690856,-1.4998350735392318,-0.04364623852426879,-7.271804845253043,1.4759593527508827,2
180,2024-09-18 21:31:35.313405952,TASK_BEGIN,009,-1.2923440993687434,-0.22932812066705474,0.1385334022586763,0.8046846514249939,-1.618649855005925,-0.003391108444595533,-7.176360735967121,1.4656349957822812,2
181,2024-09-18 21:31:35.381425920,TASK_BEGIN,009,-1.2995137321398884,-0.21244341447479637,-0.07079250431469604,0.8796796695934826,-1.737346354269745,0.039553746596996044,-7.0773345372526535,1.4497519489300874,2
182,2024-09-18 21:31:36.324551936,TASK_BEGIN,009,-1.3057072009648998,-0.19490033706066137,-0.2505275268963129,0.9505327350587678,-1.8514291250821666,0.08482904805173194,-6.985486852552363,1.4289844407370864,2
183,2024-09-18 21:31:36.392440064,TASK_BEGIN,009,-1.3113046311341499,-0.1771208539034535,-0.3903084526763398,1.0138053006172356,-1.9562429248493018,0.13193353985548553,-6.911106854624797,1.4044660320504492,2
184,2024-09-18 21:31:36.460299008,TASK_BEGIN,009,-1.316557734087348,-0.15955933042163445,-0.48161256251123435,1.06586617092809,-2.0472077027138194,0.18022014532868905,-6.863187173945436,1.3777099394070935,2
185,2024-09-18 21:31:36.528072960,TASK_BEGIN,009,-1.321635429578601,-0.1426718443560633,-0.518484295696573,1.103346533336642,-2.1200917296581503,0.2289098657155993,-6.848615327628881,1.350461406070183,2
186,2024-09-18 21:31:36.595918080,TASK_BEGIN,009,-1.3266899872793199,-0.12688225576073248,-0.4984988169176686,1.123664798756195,-2.1713049962987987,0.2771262812895768,-6.871576584257255,1.3245207743070484,2
187,2024-09-18 21:31:36.663723008,TASK_BEGIN,009,-1.3319186352035293,-0.11255135909175137,-0.4233540269058226,1.125420893486835,-2.198156215447452,0.32394802507831283,-6.933314507718226,1.3016015317675287,2
188,2024-09-18 21:31:36.724631040,TASK_BEGIN,009,-1.3375649166644443,-0.09996218854184682,-0.2989051258286991,1.1085907630977934,-2.1990089131260406,0.36846250139969927,-7.032179345831816,1.2832279005285612,2
189,2024-09-18 21:31:37.674977024,TASK_BEGIN,009,-1.3438375818538844,-0.08932102899896391,-0.13490302508916527,1.0745503898937463,-2.173326566559326,0.4098014210250906,-7.163840947336508,1.27062296461467,2
190,2024-09-18 21:31:37.742993152,TASK_BEGIN,009,-1.3508085857139978,-0.08075900511807908,0.055403457410080015,1.0259515496330205,-2.121649584397794,0.44715108019335836,-7.321687036765254,1.264552863756817,2
191,2024-09-18 21:31:37.810743040,TASK_BEGIN,009,-1.3583733698540277,-0.07432536505233986,0.25597466285262577,0.9664390892514987,-2.045522311645907,0.4797403309969232,-7.4975002608438235,1.265147669933899,2
192,2024-09-18 21:31:37.877736960,TASK_BEGIN,009,-1.366291781129436,-0.06997701816395716,0.4491724102265246,0.9002325162943436,-1.9473451404543252,0.506813162380934,-7.682342725070309,1.2717764064518084,2
193,2024-09-18 21:31:37.946263296,TASK_BEGIN,009,-1.3742566516118535,-0.06757303524287292,0.6173071474747062,0.8316710410560609,-1.8301524446137372,0.527599077293838,-7.867394414247217,1.283071529896762,2
194,2024-09-18 21:31:38.014195712,TASK_BEGIN,009,-1.3819203739443122,-0.06688230515339126,0.7442732733790812,0.7648128934493678,-1.6973682795018732,0.5412983009009439,-8.044580941554198,1.2971319577091827,2
195,2024-09-18 21:31:38.082042880,TASK_BEGIN,009,-1.3888625431230037,-0.06760707034117584,0.8170619533824861,0.7031136408227945,-1.5526051215265466,0.5470935155083501,-8.207008144251008,1.3118300141176988,2
196,2024-09-18 21:31:39.024583936,TASK_BEGIN,009,-1.3945485796664532,-0.06941345777137921,0.8268565368547314,0.6492288906391351,-1.3995542486216606,0.5441956131804601,-8.349236831135697,1.3251304120707839,2
197,2024-09-18 21:31:39.092173056,TASK_BEGIN,009,-1.3983232606665594,-0.07195857067780131,0.7694037548494351,0.6050037873303119,-1.2419750517562929,0.5319329992158068,-8.467418915431805,1.3353985800834618,2
198,2024-09-18 21:31:39.159834112,TASK_BEGIN,009,-1.399434889909494,-0.07491785501413233,0.6447405477654116,0.5715868964010294,-1.083737910133549,0.509889172204203,-8.559327055752874,1.3416847799761542,2
199,2024-09-18 21:31:39.228254208,TASK_BEGIN,009,-1.3970899338525569,-0.07802488074652117,0.4567330770475316,0.5495069740421118,-0.9288474867412467,0.4780730466482109,-8.624240491916982,1.3438880196361596,2
200,2024-09-18 21:31:39.286578944,TASK_BEGIN,009,-1.3905691220175243,-0.08111791103705947,0.21274089866199364,0.5386488359565117,-0.7813752728188071,0.43707207841747103,-8.662658400986071,1.3426912969294678,2
201,2024-09-18 21:31:39.363820032,TASK_BEGIN,009,-1.379405210886961,-0.08415928091846689,-0.07670149499871798,0.5382139678425664,-0.6452737704682159,0.38811495060449935,-8.67595753268914,1.3392844759489395,2
202,2024-09-18 21:31:39.430409984,TASK_BEGIN,009,-1.3635480800775586,-0.08720086806902462,-0.398410288250438,0.5467521566572797,-0.5241332751447212,0.33300572519239346,-8.666086507537038,1.334990589984476,2
203,2024-09-18 21:31:40.349271040,TASK_BEGIN,009,-1.34342448079776,-0.09031503201417235,-0.7372807173166688,0.5622526189148324,-0.4209742455514598,0.27396560314078766,-8.635201095061404,1.3308945314582559,2
204,2024-09-18 21:31:40.417170944,TASK_BEGIN,009,-1.319862781171048,-0.09353667046785126,-1.0771135389012414,0.5822595976199088,-0.33809130513611424,0.21344625077339927,-8.58521104782966,1.3275591396615576,2
205,2024-09-18 21:31:40.484455168,TASK_BEGIN,009,-1.2939302147605658,-0.09684158949902738,-1.4015786119026634,0.604027147478252,-0.2769152563612034,0.15394664598386626,-8.517430645512377,1.3249247814282037,2
206,2024-09-18 21:31:40.552673024,TASK_BEGIN,009,-1.2667633566997325,-0.10015431028584783,-1.6953205565372704,0.6247292813514554,-0.2379118611618108,0.09783783520881205,-8.432448762114987,1.3224092255175521,2
207,2024-09-18 21:31:40.615133952,TASK_BEGIN,009,-1.2394463736833043,-0.10336679823180167,-1.9449314710015368,0.6416955659320891,-0.22057194914854286,0.04720410999497,-8.330120099339275,1.3191111746048956,2
208,2024-09-18 21:31:40.688376064,TASK_BEGIN,009,-1.2129347062344218,-0.10635781955604064,-2.139488653705219,0.6526264251492866,-0.2234965254316619,0.0037173447689759155,-8.209616539344987,1.3140234289512045,2
209,2024-09-18 21:31:40.756196096,TASK_BEGIN,009,-1.187995658785993,-0.10901363984773468,-2.270748851491256,0.6557729633762215,-0.24453208062238035,-0.031445951029216136,-8.069649854801158,1.3062327674938734,2
210,2024-09-18 21:31:41.698031872,TASK_BEGIN,009,-1.1651586166782613,-0.1112510606774797,-2.3334126799537023,0.6501102577997169,-0.2809326218559234,-0.057644149731798884,-7.908972061929059,1.2950922238028488,2
211,2024-09-18 21:31:41.766434816,TASK_BEGIN,009,-1.144688755299564,-0.11303452927039168,-2.3256807322412127,0.6355276701787345,-0.3295499047973152,-0.07476653863669237,-7.727046653364956,1.2803164100494198,2
212,2024-09-18 21:31:41.834438912,TASK_BEGIN,009,-1.1265969864685026,-0.11437271150619213,-2.2498191126293983,0.6129786014528121,-0.38703226993716705,-0.08318813394288958,-7.524638920070653,1.2619685012694086,2
213,2024-09-18 21:31:41.901230848,TASK_BEGIN,009,-1.1107006619176982,-0.11528751595547536,-2.1122214155131767,0.5844699135256298,-0.45000860052119557,-0.08369063741690058,-7.304187028088968,1.240387943818352,2
214,2024-09-18 21:31:41.969323008,TASK_BEGIN,009,-1.0967476193411942,-0.11576708084458186,-1.9227198545727322,0.5528284376358711,-0.5152634654261062,-0.0773607621290336,-7.069985578570245,1.2161575963255802,2
215,2024-09-18 21:31:42.037777920,TASK_BEGIN,009,-1.0845840740950676,-0.11572651539124108,-1.6933373457917973,0.521302265866499,-0.5799051937151779,-0.06548117901071476,-6.828232492460041,1.1901539307647782,2
216,2024-09-18 21:31:42.105536000,TASK_BEGIN,009,-1.0743080020350213,-0.11499420400471957,-1.4368725683094277,0.49310016559086595,-0.6415033591305541,-0.04942618942108875,-6.586918648703635,1.1636208619503923,2
217,2024-09-18 21:31:43.048113920,TASK_BEGIN,009,-1.0663436181048715,-0.1133257256268188,-1.165585955687385,0.4709437611412811,-0.6981847999897134,-0.030563411272848964,-6.355438446614729,1.1381637219128522,2
218,2024-09-18 21:31:43.116295168,TASK_BEGIN,009,-1.0614119537654634,-0.11043545594806538,-0.8901283516659428,0.4567173548853986,-0.7486995332045981,-0.010163194282995076,-6.1437786339199585,1.1156046096020422,2
219,2024-09-18 21:31:43.184566784,TASK_BEGIN,009,-1.060438692577023,-0.10603173587283023,-0.6189036356527261,0.4513239061591746,-0.7924594002611435,0.010670108948050695,-5.961358509553327,1.0977370460543376,2
220,2024-09-18 21:31:43.246462208,TASK_BEGIN,009,-1.0644726792942953,-0.09984717930123739,-0.35793801665007496,0.454764892535293,-0.8295386589464633,0.031032231931602258,-5.815881616395473,1.086091688628531,2
221,2024-09-18 21:31:43.308946944,TASK_BEGIN,009,-1.0746441738026882,-0.0916671375127013,-0.110993469801372,0.46630826985875934,-0.8606248379442809,0.05022490740347785,-5.712601479540478,1.081808083790378,2
222,2024-09-18 21:31:43.386699008,TASK_BEGIN,009,-1.0921218750270136,-0.08136257831658188,0.12034139555698205,0.4845942106561751,-0.886910786457608,0.06775048584643252,-5.654099519644859,1.0856179837213424,2
223,2024-09-18 21:31:43.449017088,TASK_BEGIN,009,-1.118019340898959,-0.06892463969400417,0.3364894736830513,0.5076827536495258,-0.909931640832254,0.08330364712976877,-5.640283984879157,1.097866492082363,2
224,2024-09-18 21:31:44.398521856,TASK_BEGIN,009,-1.1532599432193493,-0.05448870318325384,0.5393959755078492,0.5331778016194579,-0.9313737165443724,0.09676167969824095,-5.6683754686096295,1.1184955023381906,2
225,2024-09-18 21:31:44.451736064,TASK_BEGIN,009,-1.1984558886034302,-0.03833530868238325,0.7316080602639621,0.5585370955639769,-0.9528865348817176,0.10817646201080343,-5.733085350337796,1.146980044014609,2
226,2024-09-18 21:31:44.534605056,TASK_BEGIN,009,-1.2538445236218814,-0.020861833151106637,0.9150807440132158,0.5815305461796783,-0.9759044839460783,0.1177649875584812,-5.827267369527617,1.182266314590688,2
227,2024-09-18 21:31:44.592950272,TASK_BEGIN,009,-1.3192859079045125,-0.002528902386469723,1.090115021874303,0.6006622540608527,-1.0014761868056345,0.1258852392275557,-5.942897694525172,1.222761941149463,2
228,2024-09-18 21:31:44.664429824,TASK_BEGIN,009,-1.3942922386405738,0.016202724698192623,1.2547665715078553,0.615390004834077,-1.0301244497658457,0.13299047696085697,-6.071929725991882,1.266385721347582,2
229,2024-09-18 21:31:44.733503232,TASK_BEGIN,009,-1.4780417947779487,0.034922626670259374,1.4047090450493223,0.6261360541557354,-1.0617682518362084,0.139571095375288,-6.206680625160977,1.3106415136896647,2
230,2024-09-18 21:31:44.805970944,TASK_BEGIN,009,-1.5693380063765514,0.05329215720153588,1.5334921092820344,0.6341509014049147,-1.0957220616836234,0.14610035176566338,-6.33977745988676,1.3527006168832643,2
231,2024-09-18 21:31:45.723290112,TASK_BEGIN,009,-1.6665070380568596,0.07103515962153913,1.6333532656010008,0.6412403005422798,-1.1307879417259667,0.1529971583211769,-6.464006853563135,1.3895400407494374,2
232,2024-09-18 21:31:45.791245824,TASK_BEGIN,009,-1.7672834516078115,0.08791299123029973,1.6965637058769456,0.649384692405747,-1.1654594308732082,0.16061211771697248,-6.572362788345885,1.418177602086432,2
233,2024-09-18 21:31:45.859800064,TASK_BEGIN,009,-1.8687774769520764,0.10370590269683203,1.7168568252308822,0.6603737386887912,-1.1982168791534877,0.16923324856369026,-6.658267359297084,1.4359623769654442,2
234,2024-09-18 21:31:45.927376896,TASK_BEGIN,009,-1.9675794380267102,0.11820899717976979,1.6904901608426963,0.6755818352879671,-1.2278351174410136,0.1790974327253156,-6.715795551154413,1.440855350833322,2
235,2024-09-18 21:31:45.995370240,TASK_BEGIN,009,-2.059974258086288,0.13123262513171677,1.616862478971931,0.6958966295047536,-1.2536135020587555,0.1903922272978584,-6.739875287645257,1.4316826009296406,2
236,2024-09-18 21:31:46.059123968,TASK_BEGIN,009,-2.142214734000585,0.14259812114196044,1.4987584632459654,0.7217181498070345,-1.2754758035252292,0.20324532914463797,-6.726531851052634,1.4083286092230813,2
237,2024-09-18 21:31:46.120217088,TASK_BEGIN,009,-2.210821224394092,0.15213122975178026,1.342165513877684,0.7529553486511946,-1.2939237007662057,0.21771020147507666,-6.673179900886924,1.3717858758855883,2
238,2024-09-18 21:31:47.073659904,TASK_BEGIN,009,-2.262873816992091,0.15965903735350984,1.1555776670195594,0.7890164483070623,-1.3098543898762598,0.23375220784332215,-6.57896370024953,1.3240389430844028,2
239,2024-09-18 21:31:47.141585152,TASK_BEGIN,009,-2.296250518982846,0.1650130212454163,0.9488540896447507,0.8288423781847116,-1.3242852455476528,0.2512321479559265,-6.445222567623009,1.267872515125235,2
240,2024-09-18 21:31:47.198742016,TASK_BEGIN,009,-2.3097681434066324,0.1680376660666693,0.7318506731983082,0.8710179101792763,-1.3380606274241393,0.2698868790727528,-6.276057752574642,1.2066788646541264,2
241,2024-09-18 21:31:47.276398848,TASK_BEGIN,009,-2.303207581154989,0.16860392666029111,0.513136968175986,0.9139344197072735,-1.3516312573015312,0.2893142495721951,-6.078703722804213,1.1442398216246235,2
242,2024-09-18 21:31:47.338407936,TASK_BEGIN,009,-2.2772424530171786,0.16662734630553117,0.2991629413576146,0.9559453081216095,-1.3649708553887427,0.308972880182682,-5.863275974499077,1.084432936695235,2
243,2024-09-18 21:31:47.412894976,TASK_BEGIN,009,-2.23330827462712,0.16208634037547198,0.094111132577405,0.9954838498800539,-1.377626089444422,0.3282032252129785,-5.6417467161358745,1.030888276931697,2
244,2024-09-18 21:31:47.480720896,TASK_BEGIN,009,-2.1734440343044614,0.15503174669474765,-0.099684550087391,1.0311694193114087,-1.388841368754514,0.34626924227687395,-5.4265464292815935,0.9866955336604954,2
245,2024-09-18 21:31:48.417027840,TASK_BEGIN,009,-2.100136387212551,0.14558397300901021,-0.2811248591278027,1.0619350451935734,-1.3977012867806269,0.36241842015622755,-5.229412498554095,0.954231699825674,2
246,2024-09-18 21:31:48.490525952,TASK_BEGIN,009,-2.016184817702819,0.13392366963915092,-0.44980396649848203,1.0871530594160108,-1.4032518949597947,0.37595663951997327,-5.060752626930261,0.9350855344098027,2
247,2024-09-18 21:31:48.559385088,TASK_BEGIN,009,-1.9245672228136257,0.12028204998172976,-0.6055546255354425,1.1066934392123007,-1.404567277751541,0.38632279654324403,-4.92936093141659,0.9300233137856525,2
248,2024-09-18 21:31:48.627191040,TASK_BEGIN,009,-1.8282704661714233,0.10492972705445154,-0.7480273911788522,1.1208632758526185,-1.4007561224326535,0.39313863121035014,-4.842241959580711,0.938986729794855,2
249,2024-09-18 21:31:48.694902016,TASK_BEGIN,009,-1.7300890032920817,0.08816199995490343,-0.876436689489161,1.130249172335103,-1.3909491110744927,0.396219917706486,-4.804385534803151,0.9611296954247958,2
250,2024-09-18 21:31:48.762406912,TASK_BEGIN,009,-1.632429197882002,0.07028433282826722,-0.9897270339146497,1.13557382106018,-1.3742997277992781,0.3955557029348462,-4.818398773323803,0.9948661628576487,2
251,2024-09-18 21:31:48.830679808,TASK_BEGIN,009,-1.5371503032613085,0.05160247365950312,-1.0871354340946195,1.1376537050240385,-1.3499774293282107,0.39126948607235257,-4.884060019143443,1.0379100905471388,2
252,2024-09-18 21:31:49.774447104,TASK_BEGIN,009,-1.4454603018300576,0.03241552763457494,-1.1687014668920706,1.1374083090385532,-1.3171318011274904,0.38357049122618375,-4.9980370791588165,1.0873429403429344,2
253,2024-09-18 21:31:49.832761856,TASK_BEGIN,009,-1.3578876296896407,0.013008676429884472,-1.2352608053776324,1.1358030040237244,-1.274866421589455,0.372700418256056,-5.153936038349492,1.139752929911981,2
254,2024-09-18 21:31:49.895138048,TASK_BEGIN,009,-1.2743436998293909,-0.006350394462666375,-1.287858719702888,1.1336732192238883,-1.2222737202304035,0.35888066856614304,-5.34265608135701,1.191448610902086,2
255,2024-09-18 21:31:49.972561920,TASK_BEGIN,009,-1.1942600041687905,-0.02540472845897177,-1.3268908739174876,1.131486277201337,-1.1585174169534218,0.34226135483961473,-5.552999978029774,1.2387196129130968,2
256,2024-09-18 21:31:50.034899968,TASK_BEGIN,009,-1.116750792465832,-0.04389846842861821,-1.3513992528963352,1.1291586343380802,-1.0829111590920262,0.32287650338934154,-5.772522498422431,1.278119661605589,2
257,2024-09-18 21:31:50.112919296,TASK_BEGIN,009,-1.040754340002225,-0.06158576211498671,-1.358881404001708,1.126007802997953,-0.9949744405296056,0.30061864504113933,-5.9885519224097665,1.30675782560037,2
258,2024-09-18 21:31:50.181241088,TASK_BEGIN,009,-0.9651422073826752,-0.07826833718360265,-1.3457485013958188,1.120831190631214,-0.8944762687301734,0.2752429009891086,-6.189263693963656,1.3225795070314041,2
259,2024-09-18 21:31:51.125233920,TASK_BEGIN,009,-0.8888171284605975,-0.09384702396878454,-1.3082551415899313,1.1120814918912025,-0.7814812832639362,0.2463995443026523,-6.364690101832979,1.3245970763797108,2
260,2024-09-18 21:31:51.187226112,TASK_BEGIN,009,-0.8108233790848,-0.10836546319149012,-1.2435061416795516,1.0981262961978056,-0.6564200133106896,0.21369202159161804,-6.50759669661233,1.3130083320245896,2
261,2024-09-18 21:31:51.249873920,TASK_BEGIN,009,-0.7304709072664076,-0.12203712784208028,-1.150152120108455,1.077545909760375,-0.5201892610389457,0.1767603599477524,-6.614126852514754,1.2891540927340122,2
262,2024-09-18 21:31:51.327122944,TASK_BEGIN,009,-0.6474409818507034,-0.135256808172827,-1.028614976107855,1.0493812521263928,-0.37424421010708847,0.13538453829363978,-6.684024786772454,1.255326725298816,2
263,2024-09-18 21:31:51.396112128,TASK_BEGIN,009,-0.5618448578943779,-0.14859059691090057,-0.8809753273951128,1.013262800333932,-0.2206292064167066,0.08958910932598799,-6.720323103151163,1.2144903437878956,2
264,2024-09-18 21:31:51.452521984,TASK_BEGIN,009,-0.47425022794403593,-0.1627280805162852,-0.710736567207286,0.9694027013871251,-0.06194035458671298,0.03972256014546667,-6.728611990124462,1.1699613507317634,2
265,2024-09-18 21:31:51.532007936,TASK_BEGIN,009,-0.38569003813662744,-0.17839302454553949,-0.5225467150869196,0.9184867223268113,0.09873827776703914,-0.013505532197693255,-6.716117555336802,1.1250653830700608,2
266,2024-09-18 21:31:52.442846976,TASK_BEGIN,009,-0.29762946351778385,-0.19623411885674344,-0.32187060550354074,0.8615504190692005,0.25790408582011276,-0.0690310287597308,-6.690761476022768,1.0827857229361233,2
267,2024-09-18 21:31:52.502808064,TASK_BEGIN,009,-0.21188009669227997,-0.2167221055410736,-0.11464512650370919,0.7999231449111676,0.4117308860817213,-0.1254802815261965,-6.66029351036059,1.0454341632410702,2
268,2024-09-18 21:31:52.584513024,TASK_BEGIN,009,-0.1304898320688393,-0.24006712394750188,0.09303293220684376,0.735251717689326,0.556192432931645,-0.18124375644089818,-6.631520762777582,1.0143897803205881,2
269,2024-09-18 21:31:52.653057024,TASK_BEGIN,009,-0.055623993377099744,-0.2661634434025644,0.2951927602402065,0.66953205094363,0.6872064510832196,-0.2345670766381478,-6.609636863794026,0.9899759200176756,2
270,2024-09-18 21:31:52.714703104,TASK_BEGIN,009,0.010580763288611298,-0.2945691261951335,0.4862475832223946,0.6050795694873197,0.8008266931002973,-0.2836576170509795,-6.59767152385225,0.971530272293403,2
271,2024-09-18 21:31:52.786695936,TASK_BEGIN,009,0.06618946066007643,-0.32452399651092134,0.6611931832997792,0.5444340019383345,0.8934957194951499,-0.3268060640265698,-6.596094621795485,0.9576305405382185,2
272,2024-09-18 21:31:52.848707072,TASK_BEGIN,009,0.10961130275640892,-0.3549974184722252,0.8157793021569424,0.49020666827535775,0.9622956464931273,-0.36250708150376526,-6.6027229290033285,0.9463783026997942,2
273,2024-09-18 21:31:53.796922112,TASK_BEGIN,009,0.13964749896014278,-0.38475203255629836,0.9466075686954657,0.444879328275852,1.0051199600907652,-0.38955615119302694,-6.613199006547036,0.9356847047751718,2
274,2024-09-18 21:31:53.858506752,TASK_BEGIN,009,0.15544283442574988,-0.412419247517145,1.0509024356274292,0.41063271344184155,1.0207537685872337,-0.40711156083726824,-6.622147118748606,0.9235635968680647,2
275,2024-09-18 21:31:53.934895872,TASK_BEGIN,009,0.15639179018614818,-0.4365893793606844,1.1258692886605386,0.3892901099087144,1.0088907991374774,-0.41472085655727087,-6.624745461936845,0.9084518143912806,2
276,2024-09-18 21:31:53.997427968,TASK_BEGIN,009,0.14205841443760356,-0.45591545927541527,1.168002746097987,0.38233488029923973,0.9701099101198106,-0.4123133624326203,-6.618193507673414,0.8895275735242921,2
277,2024-09-18 21:31:54.059422976,TASK_BEGIN,009,0.1121634331726593,-0.46922622210062337,1.1728064109579595,0.3908839747354741,0.9058235516866363,-0.40016525837155253,-6.6025343506461125,0.8669312373060009,2
278,2024-09-18 21:31:54.136584960,TASK_BEGIN,009,0.0666658178704246,-0.47563733879373093,1.1350896125818697,0.41557286950076744,0.8181863487488962,-0.3788444622474552,-6.580594469028754,0.8418014073578688,2
279,2024-09-18 21:31:54.201482240,TASK_BEGIN,009,0.005905431581482178,-0.4746365731200137,1.0497394510880727,0.45639274898701687,0.7099273188790824,-0.3491381700640044,-6.557294319284525,0.8161181995934141,2
280,2024-09-18 21:31:55.147045888,TASK_BEGIN,009,-0.06927364770765698,-0.46611673938816733,0.9127920068046201,0.512516606062904,0.5841025920719939,-0.31197349869600927,-6.538773899509354,0.7924060236841886,2
281,2024-09-18 21:31:55.209552896,TASK_BEGIN,009,-0.15747990651954732,-0.4503500325182372,0.7226709500724231,0.5821298586749719,0.4438304854934744,-0.2683512248269779,-6.531518481328144,0.7733726566244503,2
282,2024-09-18 21:31:55.285313024,TASK_BEGIN,009,-0.25681460170201265,-0.427921392662014,0.48147620328303414,0.6623148510981942,0.29209584747661177,-0.21930244089816178,-6.5414675314607065,0.7615680528869769,2
283,2024-09-18 21:31:55.352334080,TASK_BEGIN,009,-0.3649689135098086,-0.39964821973791914,0.19604648108307499,0.749071105303335,0.1316933695235738,-0.16586388336475782,-6.57320110342851,0.7591140732380466,2
284,2024-09-18 21:31:55.420883712,TASK_BEGIN,009,-0.4793610197077552,-0.3665051586450285,-0.12165418708157832,0.8375170946996321,-0.03468418256553347,-0.10906692793022986,-6.62938847559211,0.7675015882163061,2
285,2024-09-18 21:31:55.474766080,TASK_BEGIN,009,-0.5973173434028651,-0.32955448413554417,-0.4551595040431627,0.9222521156384054,-0.20431699389799624,-0.04993415574728873,-6.7105883994150455,0.787432229460767,2
286,2024-09-18 21:31:55.556354048,TASK_BEGIN,009,-0.7163001404689151,-0.28987224446683596,-0.7851085333052973,0.9978199117117056,-0.3744272430748904,0.010525077331562336,-6.81538366284362,0.8187089032933974,2
287,2024-09-18 21:31:56.474769152,TASK_BEGIN,009,-0.8341428143658012,-0.2484688498487318,-1.0914698614525153,1.0592133705701023,-0.5422664549371496,0.07131903847216221,-6.940739410748232,0.8602184763992852,2
288,2024-09-18 21:31:56.542621952,TASK_BEGIN,009,-0.9492249641535556,-0.2062192272230292,-1.355825960670337,1.1023727769601521,-0.7052270884628212,0.13147132125659686,-7.082381423140353,0.9100555978713903,2
289,2024-09-18 21:31:56.602827776,TASK_BEGIN,009,-1.0605489201210418,-0.16382187856242741,-1.5632609596251812,1.124636485425258,-0.860920682014937,0.19002138363580187,-7.235089447365059,0.9657833895982162,2
290,2024-09-18 21:31:56.678139904,TASK_BEGIN,009,-1.1677304432790623,-0.12179264638275011,-1.7037483331543721,1.1250891789269954,-1.007248499657187,0.2460480653451965,-7.392995372660096,1.0247461115419547,2
291,2024-09-18 21:31:56.745585920,TASK_BEGIN,009,-1.2709328532484725,-0.08048067510124464,-1.7731210663810568,1.1047436356093696,-1.1424827090223582,0.29871496906393563,-7.549884177017393,1.084306054014697,2
292,2024-09-18 21:31:56.799523072,TASK_BEGIN,009,-1.3707550659886139,-0.040089755520434874,-1.7735591972695361,1.0665146132772916,-1.2653266574189588,0.34731263542928165,-7.699267605255244,1.1419279925894477,2
293,2024-09-18 21:31:56.881509120,TASK_BEGIN,009,-1.468065601780965,-0.0007012692041841607,-1.7134859094590882,1.0149875884142205,-1.374923355109143,0.39128027406722565,-7.834146254643364,1.1951591686140772,2
294,2024-09-18 21:31:57.822600960,TASK_BEGIN,009,-1.5637887411482387,0.037693619132073294,-1.6069736880008134,0.956020384193344,-1.470812623228367,0.43021257099001664,-7.946796548974955,1.2416351111525215,2
295,2024-09-18 21:31:57.890457088,TASK_BEGIN,009,-1.6586784904002843,0.07514726893855121,-1.4727743987066317,0.8962221663480593,-1.5528652367688138,0.4638659601898086,-8.02899033348214,1.2791890387040947,2
296,2024-09-18 21:31:57.958059008,TASK_BEGIN,009,-1.753123356743489,0.11169736250492655,-1.3328354485280274,0.8423508520275068,-1.6212472493468655,0.49217427434110256,-8.072614891856515,1.3060075329724934,2
297,2024-09-18 21:31:58.017203200,TASK_BEGIN,009,-1.8470209905900403,0.14730957761811672,-1.2101786453360726,0.8006868845794834,-1.6764584724534422,0.5152728107009344,-8.070303271076497,1.320716177415831,2
298,2024-09-18 21:31:58.093880832,TASK_BEGIN,009,-1.939760734582264,0.1818417023356423,-1.126404891937214,0.7764596285099146,-1.7194351497282618,0.5335160697650707,-8.015858126925433,1.3223620451876636,2
299,2024-09-18 21:31:58.155148800,TASK_BEGIN,009,-2.0303277904769357,0.2150443887757559,-1.0993083846970724,0.7733902557828165,-1.751661931892373,0.5474707631838946,-7.904614756424982,1.3103781128757521,2
300,2024-09-18 21:31:58.216740096,TASK_BEGIN,009,-2.11748620539149,0.24659357007955562,-1.1409283673290331,0.793381972287196,-1.7752204006356147,0.5578758195099468,-7.733973160068759,1.2846489250720028,2
301,2024-09-18 21:31:59.172340992,TASK_BEGIN,009,-2.19995002760758,0.27613286683527083,-1.256248386126498,0.8363663742639111,-1.7926990464145125,0.5655717184864356,-7.504143315937938,1.2457160441280584,2
302,2024-09-18 21:31:59.240168960,TASK_BEGIN,009,-2.27646865851741,0.3033046531197967,-1.442829531006256,0.9003242552324943,-1.806940500522858,0.5714092741759939,-7.2189009119375624,1.1950214270612054,2
303,2024-09-18 21:31:59.307987968,TASK_BEGIN,009,-2.3458304517414703,0.32776235733549436,-1.6915315390026644,0.9815102526575245,-1.820695892807515,0.5761567049724625,-6.886050432062102,1.135023383917305,2
304,2024-09-18 21:31:59.375268096,TASK_BEGIN,009,-2.40684792164243,0.34917127626247807,-1.9880011798465909,1.07485609767419,-1.836290172914703,0.5804248314448254,-6.517401883075227,1.0691020737152355,2
305,2024-09-18 21:31:59.438391808,TASK_BEGIN,009,-2.4583827345168,0.36721112783854104,-2.31430966935722,1.174442961471343,-1.8553567739101757,0.5846198573770415,-6.128211649142831,1.0012957140681078,2
306,2024-09-18 21:31:59.496198912,TASK_BEGIN,009,-2.499431234817599,0.3815909390965263,-2.6504028199308327,1.2739568488564932,-1.87867252459478,0.588925519851495,-5.736134059602917,0.935954798236419,2
307,2024-09-18 21:31:59.564600832,TASK_BEGIN,009,-2.529247337869019,0.3920772148316275,-2.9755139547451517,1.367157874759693,-1.9061325829394813,0.593318304824739,-5.359843375637925,0.8773796075189837,2
308,2024-09-18 21:32:00.521831168,TASK_BEGIN,009,-2.547440410567848,0.3985208369458753,-3.2697812190333058,1.4484212751896783,-1.9368770857331317,0.5976189284675781,-5.017572324079236,0.8294801891973496,2
309,2024-09-18 21:32:00.579528960,TASK_BEGIN,009,-2.553990289802605,0.4008625062002518,-3.516029560660609,1.5133018892960075,-1.969520413785508,0.6015723733418804,-4.725783636588401,0.7954870867590744,2
310,2024-09-18 21:32:00.658013184,TASK_BEGIN,009,-2.5491831030045735,0.39911594811201084,-3.701405460105545,1.5589751208472824,-2.0024077016915944,0.6049352031191716,-4.498076421867937,0.7777382668999516,2
311,2024-09-18 21:32:00.725538048,TASK_BEGIN,009,-2.533519285343106,0.39335074168227413,-3.818441946868606,1.5843987384970768,-2.0338405315144072,0.6075451622537414,-4.344360130654347,0.7775506232365108,2
312,2024-09-18 21:32:00.793652224,TASK_BEGIN,009,-2.507627970530529,0.3836921462755453,-3.86522179602465,1.5901207907305657,-2.062245530552224,0.6093590806507382,-4.270359991421189,0.795149814702249,2
313,2024-09-18 21:32:00.861040896,TASK_BEGIN,009,-2.4722098047811985,0.3703374187971743,-3.844622695910424,1.5778220750771144,-2.0862879628184734,0.6104607562540774,-4.277517167441844,0.8296380607315531,2
314,2024-09-18 21:32:00.929324032,TASK_BEGIN,009,-2.428052332718579,0.35358083169073373,-3.762978756002341,1.5498236403015353,-2.1049365214080105,0.611047311062071,-4.363236277008083,0.8790316760505877,2
315,2024-09-18 21:32:01.872721920,TASK_BEGIN,009,-2.3761256216647,0.3338358191529823,-3.628622588889627,1.5087526115912433,-2.1174706704810866,0.6114029577328726,-4.52137034937157,0.9404164657147656,2
316,2024-09-18 21:32:01.940665088,TASK_BEGIN,009,-2.317687295136543,0.31163864140955344,-3.450693211050123,1.457383002911116,-2.1234307429344863,0.611869246322952,-4.742872642159709,1.0102278199145551,2
317,2024-09-18 21:32:02.008491008,TASK_BEGIN,009,-2.2543252609854285,0.28762574032536686,-3.2385034933582997,1.3985785849215377,-2.122542193750489,0.6128140839122812,-5.016523954873932,1.0846081997476813,2
318,2024-09-18 21:32:02.076260864,TASK_BEGIN,009,-2.1879209260429997,0.26249172112870384,-3.00160866311685,1.335320151229533,-2.1146493531605395,0.6145907832546814,-5.32958589456846,1.1597488447399835,2
319,2024-09-18 21:32:02.131040000,TASK_BEGIN,009,-2.120537814028403,0.23693977026115093,-2.7503156824258195,1.270810331555421,-2.0996724032337184,0.6174822681311672,-5.668280224864575,1.232109015202473,2
320,2024-09-18 21:32:02.211876096,TASK_BEGIN,009,-2.0542492132548693,0.2116323034940871,-2.4960467730914058,1.2085517971584758,-2.0776014231032462,0.6216440877108592,-6.018162188795603,1.2984765905683713,2
321,2024-09-18 21:32:02.279680000,TASK_BEGIN,009,-1.9909488676362759,0.18715025868306237,-2.251177939673012,1.1522648433526854,-2.0485545698458827,0.6270683221135842,-6.364654526923829,1.3559643815213382,2
322,2024-09-18 21:32:03.199175936,TASK_BEGIN,009,-1.932208166833656,0.16397185224528202,-2.0284126318905327,1.1056188367572746,-2.012904089095882,0.6335792017863009,-6.693953140360742,1.4020741638637102,2
323,2024-09-18 21:32:03.264201984,TASK_BEGIN,009,-1.8792162355914686,0.14247297903039605,-1.8399138110667321,1.0718538229077905,-1.9714222018625638,0.6408553761697556,-6.994095203841089,1.434840891104067,2
324,2024-09-18 21:32:03.326689024,TASK_BEGIN,009,-1.8327791557954953,0.12293831899009909,-1.696341352567875,1.053364225312958,-1.9253611890610274,0.6484635474408904,-7.255726825055333,1.4529661000786347,2
325,2024-09-18 21:32:03.402516992,TASK_BEGIN,009,-1.7933193548333766,0.1055686067881757,-1.6058393619210407,1.0512774214587168,-1.8763813064272274,0.6558836109165191,-7.472389134169076,1.4558912595349942,2
326,2024-09-18 21:32:03.470285824,TASK_BEGIN,009,-1.7608449325895905,0.09047314288486265,-1.5730302199936763,1.0650892368363498,-1.8263111344315568,0.6625150057966708,-7.640524004838296,1.443834633569871,2
327,2024-09-18 21:32:03.538042880,TASK_BEGIN,009,-1.7349123544189213,0.07764447955525293,-1.5982182537562701,1.0924831234204022,-1.7768414099010434,0.6676776591346139,-7.759446722494385,1.4178155426905186,2
328,2024-09-18 21:32:03.605882880,TASK_BEGIN,009,-1.7146305843220222,0.06692847806397705,-1.6770442660914475,1.1294382642286516,-1.7292904410337178,0.6706308100602517,-7.831355689508382,1.3796600411256126,2
329,2024-09-18 21:32:04.549256960,TASK_BEGIN,009,-1.698740013299926,0.05801628012901036,-1.8006436606335816,1.1706198361240843,-1.6845070541333085,0.6706163144355225,-7.861247941848118,1.3319427310432819,2
330,2024-09-18 21:32:04.616794112,TASK_BEGIN,009,-1.6857471022713342,0.05047446493038884,-1.9562019859835331,1.2099503369372648,-1.642899084979858,0.6669165749954434,-7.856518003265222,1.2777885108065938,2
331,2024-09-18 21:32:04.672083968,TASK_BEGIN,009,-1.6740448912758779,0.04380248108190641,-2.1278677481403347,1.2412462814433785,-1.604540380622353,0.658918108603859,-7.826200226086788,1.2205204578331514,2
332,2024-09-18 21:32:04.749228032,TASK_BEGIN,009,-1.6619795069191858,0.03749266693727238,-2.298117692188343,1.2588577229387563,-1.5693010356167336,0.6461761351979469,-7.780057993659839,1.1632716496107998,2
333,2024-09-18 21:32:04.811315968,TASK_BEGIN,009,-1.647910054040203,0.031074936707610225,-2.449615291896037,1.2582984988488835,-1.5369704037387215,0.6284762019810296,-7.727651652998559,1.1087233325444927,2
334,2024-09-18 21:32:04.888165120,TASK_BEGIN,009,-1.6303269221009846,0.02413676478644913,-2.5673132297765644,1.2368212665696754,-1.507381218834057,0.6058896334001884,-7.677370199623773,1.059031050132604,2
335,2024-09-18 21:32:04.955943168,TASK_BEGIN,009,-1.6080253495985215,0.016321529719546042,-2.6402486313977422,1.193800425864811,-1.480528270926978,0.578811855045448,-7.635570096906956,1.0158641851989894,2
336,2024-09-18 21:32:05.899298048,TASK_BEGIN,009,-1.5802809162000697,0.007329761583080406,-2.6625010347393374,1.13078330727551,-1.4566163928136278,0.5479594411316767,-7.606124666897847,0.9804454372297321,2
337,2024-09-18 21:32:05.967127296,TASK_BEGIN,009,-1.5469758349280043,-0.003053422213492266,-2.633204998534782,1.0512224269101316,-1.4359853227652057,0.5143121732392435,-7.590465069184326,0.9535436641159247,2
338,2024-09-18 21:32:06.034437120,TASK_BEGIN,009,-1.5086470478551408,-0.014912068009231299,-2.5559375887931393,0.9600482996520895,-1.4189559417287594,0.4790187481255209,-7.587853634886921,0.9354464432255057,2
339,2024-09-18 21:32:06.102617856,TASK_BEGIN,009,-1.4664529713128265,-0.02815827633826614,-2.437882923076105,0.863218988499972,-1.4056951499936656,0.44330030591314584,-7.595579726708791,0.9259494394271565,2
340,2024-09-18 21:32:06.170406912,TASK_BEGIN,009,-1.4220662523647796,-0.042510755775328354,-2.289008892702428,0.7672658067697357,-1.3961605208926546,0.4083755469584419,-7.609009414695423,0.9243770399886996,2
341,2024-09-18 21:32:06.237172224,TASK_BEGIN,009,-1.3775021668941323,-0.05749642879019208,-2.121284626841002,0.6787982873113025,-1.3901257425092386,0.37541264538666613,-7.621723288248315,0.929652971289379,2
342,2024-09-18 21:32:06.305920000,TASK_BEGIN,009,-1.3349176280328556,-0.07247413044062338,-1.94786056746525,0.6039655124957963,-1.3872503043849314,0.3454944560993431,-7.626072185133603,0.9404557978077471,2
343,2024-09-18 21:32:07.250005248,TASK_BEGIN,009,-1.2964302305013602,-0.08668084814478026,-1.7821509772040796,0.5479248573546831,-1.3871582732341035,0.31957645879323415,-7.614241695961036,0.9554587686554366,2
344,2024-09-18 21:32:07.317601792,TASK_BEGIN,009,-1.2639660675174036,-0.09930426320638379,-1.6367625339723153,0.5143880023047398,-1.3895122915316038,0.29843140395061585,-7.579564066598179,0.9735916563757141,2
345,2024-09-18 21:32:07.385562112,TASK_BEGIN,009,-1.239108167122501,-0.10957699431387033,-1.5222779384160756,0.505313010423641,-1.3940674633251762,0.2825938695021375,-7.517685829881788,0.9942422161793006,2
346,2024-09-18 21:32:07.444007936,TASK_BEGIN,009,-1.222952574883561,-0.11686718840529521,-1.4461520118762348,0.5207886528902573,-1.4006798435160572,0.2723213109775906,-7.427346658786237,1.0173251071350462,2
347,2024-09-18 21:32:07.506094848,TASK_BEGIN,009,-1.2160330243165993,-0.12073265014739763,-1.412064203087918,0.5591057284350117,-1.4092713753196884,0.2675804879230788,-7.310708847325841,1.0431720574353065,2
348,2024-09-18 21:32:07.588404736,TASK_BEGIN,009,-1.218356649729322,-0.12092694546846139,-1.4197898769235402,0.6169844690103641,-1.4197932037467333,0.2680628861449869,-7.173193902675044,1.072267587249553,2
349,2024-09-18 21:32:07.652324096,TASK_BEGIN,009,-1.2295197092444887,-0.11737305015608535,-1.4654078404214603,0.6899247601485641,-1.4322256754578548,0.27322979252362606,-7.022751128144772,1.104941870268586,2
350,2024-09-18 21:32:08.574161152,TASK_BEGIN,009,-1.2488414166451354,-0.11012782567621983,-1.5417245870216614,0.7726173519610319,-1.4466147657759927,0.28238199091632105,-6.868664125309285,1.1411557256937042,2
351,2024-09-18 21:32:08.636661248,TASK_BEGIN,009,-1.275487950927875,-0.0993527726294044,-1.6389591630963067,0.8593496736818045,-1.463125370312328,0.2947433347696092,-6.720253217050172,1.1804276449674933,2
352,2024-09-18 21:32:08.699148032,TASK_BEGIN,009,-1.3085801759706668,-0.08529702780522269,-1.7457878894248544,0.9444032787943223,-1.482101647224556,0.3095458060120434,-6.58578335480508,1.221829236696838,2
353,2024-09-18 21:32:08.777875968,TASK_BEGIN,009,-1.3472603904364626,-0.06829199447994251,-1.8507434720188414,1.0224764124564534,-1.50411359869744,0.3261035514544336,-6.471747975503518,1.2639801992595936,2
354,2024-09-18 21:32:08.845593088,TASK_BEGIN,009,-1.3906935709750516,-0.048752899908736,-1.9437250194617361,1.0890978928456536,-1.5299377149385966,0.3438633934052027,-6.382729145219457,1.3051015798475825,2
355,2024-09-18 21:32:08.913259008,TASK_BEGIN,009,-1.4380198952317993,-0.027180035819108134,-2.0172481444970227,1.140931124879734,-1.5604398658853627,0.3624258709577325,-6.321831064499848,1.3432098552433769,2
356,2024-09-18 21:32:08.981164032,TASK_BEGIN,009,-1.4883163632370875,-0.004147688055620128,-2.0672537695323197,1.1759254990318826,-1.5963949986865165,0.3815433931524269,-6.291278207565782,1.3764168953698426,2
357,2024-09-18 21:32:09.923644928,TASK_BEGIN,009,-1.540620457591524,0.019733376209767912,-2.0935273635053013,1.1933793454648547,-1.6383119230301686,0.4011068233518373,-6.29274248019429,1.4032326098728596,2
358,2024-09-18 21:32:09.991744000,TASK_BEGIN,009,-1.5940094518846204,0.04387768778586963,-2.099729388369785,1.1939739557395617,-1.6863213415670761,0.4211244064424211,-6.32721917187802,1.4227865332518927,2
359,2024-09-18 21:32:10.059534848,TASK_BEGIN,009,-1.6476720849222029,0.06778496301369383,-2.0928932627469488,1.179750487844505,-1.7401531880642649,0.44168921665128974,-6.394482965964043,1.4349104700399904,2
360,2024-09-18 21:32:10.127350016,TASK_BEGIN,009,-1.7009209283983953,0.09107394069509435,-2.082341768412669,1.153978581031448,-1.7991739302695031,0.4629314922058969,-6.4923766772863445,1.4400617477647444,2
361,2024-09-18 21:32:10.195122176,TASK_BEGIN,009,-1.7531500730980338,0.11348987600606442,-2.0782163768680313,1.1209022987576718,-1.8624218639893295,0.4849600842033205,-6.616297735158489,1.4391180407865154,2
362,2024-09-18 21:32:10.262873856,TASK_BEGIN,009,-1.8037755810068483,0.13489700087159673,-2.0899129352267583,1.0853637032229961,-1.9286148795820264,0.507807782892743,-6.7591496659860475,1.4331151554295167,2
363,2024-09-18 21:32:10.330712064,TASK_BEGIN,009,-1.8521907022534956,0.1552604642791476,-2.124702469726862,1.0523423581063511,-1.9961532495484233,0.5313956789351656,-6.911906217873915,1.423043510805279,2
364,2024-09-18 21:32:11.271514880,TASK_BEGIN,009,-1.8977409793844782,0.17461475402844834,-2.1868382797540704,1.0265167094546368,-2.0631458859704037,0.5555181427617478,-7.064792209712227,1.409821101539992,2
365,2024-09-18 21:32:11.341873152,TASK_BEGIN,009,-1.939694991058984,0.19301595135451682,-2.277359245978491,1.011931302710849,-2.1274851712723883,0.579840840096497,-7.2088387284665325,1.3944401194816292,2
366,2024-09-18 21:32:11.409513984,TASK_BEGIN,009,-1.9771937146728014,0.21048348752430138,-2.3945212522846155,1.0117519149490541,-2.186990936673402,0.6039100719380911,-7.337344600214579,1.378125491549983,2
367,2024-09-18 21:32:11.476982272,TASK_BEGIN,009,-2.009214933863835,0.22695047231698287,-2.534552733576206,1.0280439058652175,-2.239612068067854,0.6271775545469138,-7.446712174303241,1.3623335850827076,2
368,2024-09-18 21:32:11.545245952,TASK_BEGIN,009,-2.0346275380933663,0.24224774487105163,-2.692381269918342,1.0615505340514773,-2.283642986483662,0.6490402425452219,-7.536392878451166,1.3485858043979722,2
369,2024-09-18 21:32:11.613052928,TASK_BEGIN,009,-2.052371867803169,0.25613111379280845,-2.862134182654055,1.11152174600717,-2.3179129989527354,0.6688876823729549,-7.608184741290082,1.338280158190496,2
370,2024-09-18 21:32:11.678618880,TASK_BEGIN,009,-2.0617002564095976,0.2683303403226894,-3.0374708420192533,1.1756843693202883,-2.341907759506156,0.6861452091280581,-7.6653380583427735,1.332587645157072,2
371,2024-09-18 21:32:12.624939008,TASK_BEGIN,009,-2.062342412821727,0.27858364309769246,-3.2118682219985732,1.250401427006859,-2.3557758162758113,0.7003033937035339,-7.7116906842041,1.3324073732140027,2
372,2024-09-18 21:32:12.692872192,TASK_BEGIN,009,-2.054508750650106,0.28664198256323836,-3.3788554626870644,1.33098065599243,-2.360216204250289,0.7109365655798319,-7.750828480693534,1.3383017388646556,2
373,2024-09-18 21:32:12.760615936,TASK_BEGIN,009,-2.038765208926566,0.29225908753375784,-3.532220478054142,1.412059191655995,-2.3563186462033494,0.7177222956460046,-7.785310230568915,1.3503838248722366,2
374,2024-09-18 21:32:12.828425728,TASK_BEGIN,009,-2.015875557605254,0.29518976974037414,-3.6663114238860195,1.4880223893527722,-2.345428191700726,0.7204632178653771,-7.816132506518686,1.368201133519947,2
375,2024-09-18 21:32:12.893976064,TASK_BEGIN,009,-1.9866708905720392,0.2952006799396355,-3.7763658136576597,1.5534227235902025,-2.3290437176439993,0.7191004812572916,-7.8426258605671455,1.3906836720759275,2
376,2024-09-18 21:32:12.963450880,TASK_BEGIN,009,-1.9519578512318014,0.29208491930741576,-3.85859555374498,1.6033369699397235,-2.3087481375252605,0.7137160705693585,-7.862841259431213,1.4161960537978269,2
377,2024-09-18 21:32:13.020314880,TASK_BEGIN,009,-1.9124750653041072,0.2856781616389588,-3.9099676662796345,1.633612036967549,-2.286180779439979,0.7045307624293657,-7.874335534896105,1.4427026289631129,2
378,2024-09-18 21:32:13.949232128,TASK_BEGIN,009,-1.8689027186251639,0.27588013576011705,-3.927897129890999,1.6409985196190526,-2.263022883140587,0.691898764528985,-7.875149933683265,1.468025212471378,2
379,2024-09-18 21:32:14.017575936,TASK_BEGIN,009,-1.8219036075998276,0.2626793044450439,-3.910010272854716,1.6232051165629928,-2.2409402656805195,0.6762942049692771,-7.864648381764711,1.4901310729748305,2
380,2024-09-18 21:32:14.085341184,TASK_BEGIN,009,-1.7721707956914914,0.24617305532977835,-3.8540202215322306,1.578932779237682,-2.221468323949143,0.6582853494755064,-7.843888464848133,1.5073943280212003,2
381,2024-09-18 21:32:14.145862144,TASK_BEGIN,009,-1.7204735576019592,0.22657873328979503,-3.7578371065358405,1.5079600959573216,-2.2058645691437246,0.6384930570593746,-7.815418998905091,1.5188183310816536,2
382,2024-09-18 21:32:14.220869120,TASK_BEGIN,009,-1.6676898602186654,0.20423492555430256,-3.6201377285697625,1.4113230799446141,-2.194942299513518,0.6175335004018001,-7.782622544101049,1.5241861006251505,2
383,2024-09-18 21:32:14.288620800,TASK_BEGIN,009,-1.6147959351706676,0.17959278871054746,-3.4414856763458,1.2915598691128976,-2.1888909122080586,0.5959543122332582,-7.748870445306413,1.5240595581927256,2
384,2024-09-18 21:32:14.351396864,TASK_BEGIN,009,-1.5627952599554664,0.153197633576426,-3.2256760469218198,1.1528908079234792,-2.1871365055944887,0.5741826547637523,-7.716793033450006,1.5195987732937861,2
385,2024-09-18 21:32:15.298866944,TASK_BEGIN,009,-1.512613240950903,0.12566249381459305,-2.9806221167080262,1.001156767630217,-2.188331264730714,0.5525026579235888,-7.687770707980534,1.5122752044023964,2
386,2024-09-18 21:32:15.360523008,TASK_BEGIN,009,-1.4650013714478622,0.09763488206584073,-2.71823183999322,0.84342840235887,-2.1905018202758555,0.5310632346157385,-7.661569057896543,1.5035846007156812,2
387,2024-09-18 21:32:15.434488064,TASK_BEGIN,009,-1.4204722099577047,0.06975919860833268,-2.4532442740381515,0.6873717290076405,-2.1912989617704626,0.5099009386814928,-7.6361232498492235,1.4948094019048397,2
388,2024-09-18 21:32:15.500250880,TASK_BEGIN,009,-1.3792702515278052,0.04264239364526812,-2.201465780372698,0.5405678239024073,-2.1882564789576264,0.48896101906409895,-7.607571811529582,1.4868186834272175,2
389,2024-09-18 21:32:15.569755136,TASK_BEGIN,009,-1.3413814149727554,0.016830015862043416,-1.9780375412095224,0.40996164418698267,-2.178981850618582,0.46810729561719655,-7.570559505212229,1.4798956631464826,2
390,2024-09-18 21:32:15.629668096,TASK_BEGIN,009,-1.306582433716319,-0.007206654206097845,-1.7962485578884089,0.30150383545503007,-2.1612585018097756,0.44712382033830067,-7.518743050272443,1.4736128432511706,2
391,2024-09-18 21:32:15.705619200,TASK_BEGIN,009,-1.274527501167951,-0.02907451126598644,-1.666967697575031,0.2199383040877823,-2.1331059037407174,0.42572439423442227,-7.445440356337469,1.4667793097135713,2
392,2024-09-18 21:32:16.644921088,TASK_BEGIN,009,-1.2448468307668292,-0.04845872941391383,-1.598316312272763,0.16863282560323326,-2.0928506059143666,0.40358186141016406,-7.344352171471268,1.45749218231115,2
393,2024-09-18 21:32:16.716866048,TASK_BEGIN,009,-1.217211132203069,-0.06512855857685751,-1.59525321370309,0.1494027438170261,-2.0392217697342154,0.38037060620992613,-7.210182323515576,1.4433273011822747,2
394,2024-09-18 21:32:16.784612096,TASK_BEGIN,009,-1.1913420809030528,-0.0789499187374878,-1.6591440047621135,0.1624049579207624,-1.9714620185917309,0.35580993414430134,-7.038963218603136,1.4216546503098975,2
395,2024-09-18 21:32:16.846071040,TASK_BEGIN,009,-1.166995349845693,-0.08989038643018987,-1.7875247419920715,0.20620760394305473,-1.8894309354406147,0.3297023733400866,-6.828124690546946,1.39000635756127,2
396,2024-09-18 21:32:16.920172800,TASK_BEGIN,009,-1.143956588329673,-0.09800410099093111,-1.9741254345227752,0.27802190478041794,-1.7936573305441932,0.3019602762582936,-6.576636262606216,1.3464192584910084,2
397,2024-09-18 21:32:16.987959040,TASK_BEGIN,009,-1.1220722786422113,-0.10340285472174648,-2.2091692229502446,0.3739885448181523,-1.6853039937763916,0.27261186824156536,-6.285552550059744,1.289699851701698,2
398,2024-09-18 21:32:17.055738112,TASK_BEGIN,009,-1.101303146212078,-0.10623190992694029,-2.4800086768196334,0.48944054339573073,-1.5660462754545619,0.2417831185954258,-5.958898775562088,1.2195896710556806,2
399,2024-09-18 21:32:17.986624000,TASK_BEGIN,009,-1.081752286408607,-0.10666660183401233,-2.772080895264494,0.6191361405093795,-1.4378969502975487,0.20965916799219453,-5.60441125185688,1.1368431373607804,2
400,2024-09-18 21:32:18.064773888,TASK_BEGIN,009,-1.0636176402819957,-0.10493609769759608,-3.0700109527203883,0.757491355325705,-1.303035057148454,0.17643950672123423,-5.233666597132342,1.0432511383625764,2
401,2024-09-18 21:32:18.127259136,TASK_BEGIN,009,-1.0470642446725196,-0.10136623599244346,-3.3586606144278273,0.8988353245905926,-1.163700204454422,0.14231010090133908,-4.861482607979683,0.9416203317103602,2
402,2024-09-18 21:32:18.202400000,TASK_BEGIN,009,-1.032073211172989,-0.0964169913356867,-3.6239879727108666,1.0376701990605224,-1.022161490491205,0.10744645278282608,-4.504671889174595,0.835661490640528,2
403,2024-09-18 21:32:18.267415040,TASK_BEGIN,009,-1.0183546183258285,-0.09068598557964563,-3.8536804963161355,1.1688817580182185,-0.8807116097308821,0.0720409794837598,-4.180267040205271,0.7297206888818927,2
404,2024-09-18 21:32:18.328955904,TASK_BEGIN,009,-1.0053796449282495,-0.0848671249067376,-4.037633412136431,1.2878669571911814,-0.7416427815673731,0.03633923095477523,-3.903518027878057,0.6283484521745243,2
405,2024-09-18 21:32:18.405766144,TASK_BEGIN,009,-0.992510235982187,-0.07968047768264129,-4.168346805856327,1.3906031623801933,-0.6071964438842391,0.0006720200713622353,-3.6861516061455135,0.5357975533094628,2
406,2024-09-18 21:32:19.320345088,TASK_BEGIN,009,-0.9791543592583831,-0.07580295042497874,-4.241183831734344,1.4737204202311156,-0.4794843360206425,-0.03452620074130979,-3.5352818437354983,0.45559597215715575,2
407,2024-09-18 21:32:19.391415040,TASK_BEGIN,009,-0.964893433491933,-0.0738204440129261,-4.254362420590059,1.534613198122249,-0.36038380418508714,-0.06871622632634695,-3.453095203642739,0.39030937197345583,2
408,2024-09-18 21:32:19.458780928,TASK_BEGIN,009,-0.9495748363708878,-0.07420272240405548,-4.20865279398665,1.5715655789034104,-0.2514439360681961,-0.10126451866374307,-3.4372113958226467,0.34149426324552734,2
409,2024-09-18 21:32:19.525886976,TASK_BEGIN,009,-0.933381196997284,-0.07729129428555694,-4.106937139251803,1.5838485061162864,-0.15385448030002352,-0.13145578189258408,-3.481458431436576,0.3097506790582124,2
410,2024-09-18 21:32:19.595195136,TASK_BEGIN,009,-0.9168686187432662,-0.08329565615937898,-3.9538513479345774,1.5717926753737592,-0.06849833961021798,-0.15850432941551243,-3.5767305188088345,0.29478977320569816,2
411,2024-09-18 21:32:19.656438272,TASK_BEGIN,009,-0.9009443074919776,-0.09229869670407521,-3.755560244254653,1.5368494290070072,0.003939031943157467,-0.1815715381094823,-3.711698643928883,0.29549280078012,2
412,2024-09-18 21:32:19.718651136,TASK_BEGIN,009,-0.8867694704330594,-0.10426472950146298,-3.5195461493873843,1.4816057822217903,0.0628745541402723,-0.1998038263753268,-3.8733931034799025,0.3099941936587882,2
413,2024-09-18 21:32:20.674087168,TASK_BEGIN,009,-0.8755985365642324,-0.11904040348040604,-3.2543335078210447,1.4097014965160153,0.10783474656071092,-0.21240230899558665,-4.047883056062039,0.3358442875256392,2
414,2024-09-18 21:32:20.735080960,TASK_BEGIN,009,-0.8685648951879549,-0.13635199871451778,-2.969165150403052,1.3256181011919657,0.13859516611827538,-0.21871841053979044,-4.221251920669136,0.37027378053084214,2
415,2024-09-18 21:32:20.809705984,TASK_BEGIN,009,-0.8664364332255592,-0.15581049266027386,-2.673630518763528,1.2343376759753046,0.1553815820701177,-0.218349645533229,-4.380777376698561,0.4105100185554161,2
416,2024-09-18 21:32:20.875546880,TASK_BEGIN,009,-0.8694107207839797,-0.17692494688012694,-2.3772400235682323,1.1409168509295329,0.1590318031456063,-0.21120985442742415,-4.5158856822093165,0.4540385612244237,2
417,2024-09-18 21:32:20.936670976,TASK_BEGIN,009,-0.8770320167629789,-0.19911583639733074,-2.089033719623455,1.0500842011108569,0.15107995227026397,-0.19757173625162794,-4.618502314268464,0.49871613461187037,2
418,2024-09-18 21:32:20.998647040,TASK_BEGIN,009,-0.888246645272042,-0.22172629080137354,-1.8173769837762017,0.9659829794052721,0.13377250802743418,-0.17809594547647595,-4.682889570476185,0.5427308471717139,2
419,2024-09-18 21:32:21.076604928,TASK_BEGIN,009,-0.9015350218377465,-0.24403630346441652,-1.569942962520662,0.8920908553872995,0.10999898700658409,-0.1538514292907886,-4.7053594659470495,0.5844987863079689,2
420,2024-09-18 21:32:22.023156992,TASK_BEGIN,009,-0.9150572930938407,-0.2652823041698657,-1.353616414273374,0.8312017510426558,0.08310109567802695,-0.12631361649824907,-4.684118182353184,0.6226027426421619,2
421,2024-09-18 21:32:22.077756160,TASK_BEGIN,009,-0.9268027898141274,-0.2846801241757785,-1.1740855745776362,0.7853163107587454,0.056562505916247285,-0.0973168057933394,-4.6192949059351855,0.6558228343536275,2
422,2024-09-18 21:32:22.159217920,TASK_BEGIN,009,-0.9347551263013706,-0.3014493138282423,-1.0353150152196127,0.7554418601359616,0.033618930257100145,-0.0689381852028289,-4.513134345914651,0.6832396441545819,2
423,2024-09-18 21:32:22.227052032,TASK_BEGIN,009,-0.9370739117222932,-0.3148384069810995,-0.9394017750235851,0.7414758963259498,0.016852846426032762,-0.043314505022946995,-4.3702543842827115,0.7043542438222191,2
424,2024-09-18 21:32:22.294857984,TASK_BEGIN,009,-0.9322926805779059,-0.3241543194353882,-0.8870578761737413,0.7423159622027037,0.007883941146808899,-0.022430616981960482,-4.19781450259269,0.7191766063817339,2
425,2024-09-18 21:32:22.361864960,TASK_BEGIN,009,-0.9195189732842747,-0.3288077039447153,-0.8784087307591738,0.7561571649925822,0.007268344829815368,-0.007926533038817069,-4.005517942364375,0.7282612221065963,2
426,2024-09-18 21:32:22.418461184,TASK_BEGIN,009,-0.8985936963373881,-0.32838796420732647,-0.9135392522392028,0.7808305139808502,0.01461589782215314,-0.0009356995570404417,-3.8054204067467507,0.7326819927334256,2
427,2024-09-18 21:32:23.374332928,TASK_BEGIN,009,-0.8701804754065471,-0.3227541832663695,-0.992393373470211,0.8140649010629573,0.02883809506165913,-0.001956387907408356,-3.6114405944604577,0.7339465332070505,2
428,2024-09-18 21:32:23.442189824,TASK_BEGIN,009,-0.835779590584182,-0.31209271692299234,-1.1140786053248,0.8536408349984383,0.04844094134215514,-0.010793302306507666,-3.4384838482577647,0.7338785568757494,2
429,2024-09-18 21:32:23.509128192,TASK_BEGIN,009,-0.797627284672185,-0.29690582337640126,-1.2761182826833746,0.897483029418056,0.07180192028096954,-0.026608736233254875,-3.3012728540249405,0.7344976763120401,2
430,2024-09-18 21:32:23.577702912,TASK_BEGIN,009,-0.7584405085748813,-0.27794639265318044,-1.4742101734734148,0.943748205686928,0.09739094968314937,-0.04806624367011377,-3.2130773450017838,0.7378686555652821,2
431,2024-09-18 21:32:23.638575104,TASK_BEGIN,009,-0.7210662293233464,-0.2561336007478329,-1.7024902348323074,0.9908903545755701,0.12393886967263834,-0.0735118608053457,-3.1844489843062243,0.7458760008971399,2
432,2024-09-18 21:32:23.713298176,TASK_BEGIN,009,-0.6881535163017498,-0.232467930424133,-1.9539355357256392,1.0376473396562464,0.15056338687482346,-0.10114822641376779,-3.2220322694901102,0.7599568477590264,2
433,2024-09-18 21:32:23.781075968,TASK_BEGIN,009,-0.6619087872193093,-0.2079508847723794,-2.2207556252596974,1.0829585349918562,0.17682592540223857,-0.1291810612487061,-3.327665404773203,0.7808930626968962,2
434,2024-09-18 21:32:24.685854976,TASK_BEGIN,009,-0.6439300486945095,-0.1835138466232879,-2.4948686897361276,1.12588125788839,0.20269732710790728,-0.15593806090614906,-3.498103422016692,0.8087499554965857,2
435,2024-09-18 21:32:24.767855104,TASK_BEGIN,009,-0.6351084641141886,-0.15996488119227453,-2.7684980082095816,1.1655412336096604,0.228452427284789,-0.17996835864473004,-3.725581586936854,0.8429823014736874,2
436,2024-09-18 21:32:24.835549184,TASK_BEGIN,009,-0.63559466471479,-0.1379631603303517,-3.0348193521649343,1.2011123778478283,0.25453214042932243,-0.20012171942102855,-3.999131055264603,0.8826398707222634,2
437,2024-09-18 21:32:24.903346944,TASK_BEGIN,009,-0.6448258880918244,-0.11801972797863644,-3.288494940299287,1.231824397547405,0.28140400006930344,-0.21559788315194045,-4.3062593262484326,0.9265360813846537,2
438,2024-09-18 21:32:24.971106048,TASK_BEGIN,009,-0.6616064249355932,-0.10051241632002127,-3.525765579412677,1.2569893828762162,0.3094461148747363,-0.225961340519924,-4.634492373040031,0.9732717409282335,2
439,2024-09-18 21:32:25.038672896,TASK_BEGIN,009,-0.6842427078689596,-0.08570428740774573,-3.7439085400548726,1.2760351557071006,0.3388704719324432,-0.23112539330943177,-4.972419857209759,1.0211393879302528,2
440,2024-09-18 21:32:25.106632960,TASK_BEGIN,009,-0.7107393468022368,-0.07376018288540102,-3.940384842509515,1.2885711809630334,0.369676249661936,-0.23131064652478484,-5.310129609952933,1.0680308133311858,2
441,2024-09-18 21:32:26.048524032,TASK_BEGIN,009,-0.7390295203640042,-0.06475941746238496,-4.112234113283791,1.2945200892243272,0.40161957383981917,-0.22698549928519077,-5.639013570219134,1.1114208162747488,2
442,2024-09-18 21:32:26.110390016,TASK_BEGIN,009,-0.767174029628166,-0.05870761247315593,-4.255933025172858,1.2942639262546227,0.43422183340000503,-0.21880433830440685,-5.951054801747986,1.1484312518732318,2
443,2024-09-18 21:32:26.172476928,TASK_BEGIN,009,-0.7934806010682884,-0.055550353317745695,-4.36753870310028,1.2886703155713983,0.4668507212531523,-0.2075561581678246,-6.238058859032234,1.1760146029021987,2
444,2024-09-18 21:32:26.250097920,TASK_BEGIN,009,-0.8165558825281626,-0.05518237243833056,-4.442926227493442,1.2789202841293135,0.4988695042293909,-0.19411977016126647,-6.491410802173504,1.1912997040738278,2
445,2024-09-18 21:32:26.320668928,TASK_BEGIN,009,-0.8353360942220384,-0.05744479812172978,-4.47815909673067,1.2662332228040856,0.5298077692940218,-0.17941501373056262,-6.702531479236774,1.1920161473186632,2
446,2024-09-18 21:32:26.373288960,TASK_BEGIN,009,-0.8491124188728252,-0.06211839028872128,-4.4701214354106025,1.2516698964228752,0.5594856820891213,-0.164350226006693,-6.863772702539593,1.1768316371442464,2
447,2024-09-18 21:32:26.452503808,TASK_BEGIN,009,-0.8575264991130279,-0.06892917117707074,-4.41731747690102,1.2360738537647868,0.5880446276183654,-0.14977659653829797,-6.969380466314619,1.14551258895829,2
448,2024-09-18 21:32:27.389673728,TASK_BEGIN,009,-0.8605235427408606,-0.07756881062505329,-4.320491495379022,1.220061649038721,0.6159025605534393,-0.1364553805055544,-7.016183132703305,1.0989157776642635,2
449,2024-09-18 21:32:27.467386880,TASK_BEGIN,009,-0.8582807908220689,-0.08771910171248251,-4.182807096538093,1.2040042358236338,0.6436797819362614,-0.1250320603187565,-7.003818666108504,1.0388460656275427,2
450,2024-09-18 21:32:27.535204096,TASK_BEGIN,009,-0.8511238717605966,-0.09907452053725414,-4.009627683895298,1.1880517226949887,0.6721046735813289,-0.11601184001821158,-6.934643857821825,0.9678305111484508,2
451,2024-09-18 21:32:27.602989056,TASK_BEGIN,009,-0.8394360199108849,-0.11136191222604509,-3.808080213635061,1.1722446291921813,0.7019057188093315,-0.10974333658717228,-6.813583501289608,0.8888715019603318,2
452,2024-09-18 21:32:27.664657920,TASK_BEGIN,009,-0.8235853385180727,-0.12435220367018175,-3.586488957911307,1.1566733047790076,0.7337398690644922,-0.10642334643337312,-6.647923398208852,0.80521246978372,2
453,2024-09-18 21:32:27.738235136,TASK_BEGIN,009,-0.8038991948868071,-0.1378590291686953,-3.353705145165652,1.14161759921001,0.7681988433572162,-0.10612740969258448,-6.446844612265267,0.7200998278077461,2
454,2024-09-18 21:32:27.804367104,TASK_BEGIN,009,-0.7806815087045151,-0.151726645418678,-3.1184833549185473,1.127624058505734,0.8058577136241095,-0.10885401379791664,-6.220617325573541,0.6365254188751389,2
455,2024-09-18 21:32:28.749596160,TASK_BEGIN,009,-0.7542454431611576,-0.1658128025489533,-2.889090556756652,1.115504883986996,0.8472823302703952,-0.11455909677924712,-5.97967477080359,0.5570048691160837,2
456,2024-09-18 21:32:28.817457920,TASK_BEGIN,009,-0.7249408393876436,-0.17997084185047843,-2.6731405528164047,1.1062537731622408,0.8929504363360224,-0.1231680987639542,-5.733920006060602,0.4834746438462004,2
457,2024-09-18 21:32:28.872379904,TASK_BEGIN,009,-0.693163272153503,-0.19403777736867808,-2.477576805474917,1.1009034670998255,0.9431061005098014,-0.1345728901361893,-5.4924230736555275,0.41731602829662895,2
458,2024-09-18 21:32:28.950011904,TASK_BEGIN,009,-0.659341352279298,-0.20783680014077408,-2.308823502190994,1.1003910718576608,0.9975955737853317,-0.14862406663338773,-5.2634145602748905,0.3594583942486135,2
459,2024-09-18 21:32:29.012497152,TASK_BEGIN,009,-0.6239189145123479,-0.22119566084977912,-2.173082104204401,1.1054823208753588,1.0557355921494727,-0.16511932873529403,-5.054342831088715,0.31051660182923424,2
460,2024-09-18 21:32:29.075606272,TASK_BEGIN,009,-0.587350696401976,-0.23397287952672888,-2.076630374201443,1.116746314399201,1.1162572989015878,-0.18378587927026857,-4.871710972009206,0.2709092663677219,2
461,2024-09-18 21:32:29.153712896,TASK_BEGIN,009,-0.5501155130627559,-0.2460799663527761,-2.025922663385932,1.134549315366143,1.1773519584518,-0.20426190740355013,-4.720662188379239,0.24092307085749493,2
462,2024-09-18 21:32:30.067784960,TASK_BEGIN,009,-0.5127426186088765,-0.25749107798013093,-2.0272953201694177,1.159061804551205,1.2368251577782021,-0.2260898580634785,-4.604708911316355,0.22074758447130002,2
463,2024-09-18 21:32:30.142551040,TASK_BEGIN,009,-0.4758412265094237,-0.2682363124696418,-2.0862139690915296,1.1902773391503172,1.2923339697189982,-0.24873276700745697,-4.525912667069796,0.21049990236171723,2
464,2024-09-18 21:32:30.208068096,TASK_BEGIN,009,-0.4401270968585716,-0.27837447635226265,-2.206187950096664,1.2280063039869498,1.3416417519681132,-0.2716107679679988,-4.485244317634317,0.210180843852254,2
465,2024-09-18 21:32:30.272069888,TASK_BEGIN,009,-0.4064503062565167,-0.28794405901094644,-2.387558964436124,1.2718057693375358,1.3828148361146593,-0.29413842660915407,-4.482652749248939,0.21948080416120858,2
466,2024-09-18 21:32:30.345937920,TASK_BEGIN,009,-0.37581121582582516,-0.2969067306311392,-2.626362342058558,1.3208506286938941,1.4143177327352978,-0.31574385983234016,-4.516759243975725,0.23745954688873444,2
467,2024-09-18 21:32:30.409409024,TASK_BEGIN,009,-0.3493277715138983,-0.30510868770076993,-2.9135649061753863,1.3737906552162993,1.4350022125798834,-0.3358665625987829,-4.584489880518144,0.26228412689511627,2
468,2024-09-18 21:32:30.481283840,TASK_BEGIN,009,-0.32814027617326014,-0.3122746753692636,-3.2351379912505824,1.4286659014447272,1.4440003313656447,-0.3539409911864025,-4.6810322346935545,0.2912477341654209,2
469,2024-09-18 21:32:31.424169984,TASK_BEGIN,009,-0.31328446981048874,-0.318032813111775,-3.5731447315920906,1.4829401638157833,1.4405503631260723,-0.36937311851582316,-4.800302708149257,0.32114134719845694,2
470,2024-09-18 21:32:31.491439872,TASK_BEGIN,009,-0.30556999982599947,-0.32196263029767236,-3.9074549335352637,1.5336566897086965,1.4238296973446198,-0.38152081473235955,-4.935824172254543,0.34885898994012343,2
471,2024-09-18 21:32:31.559845888,TASK_BEGIN,009,-0.3054820531428217,-0.32365624519471026,-4.217602835569244,1.5776945489801648,1.3928975150190146,-0.3896972869880221,-5.08179062550059,0.3720432914913804,2
472,2024-09-18 21:32:31.627566080,TASK_BEGIN,009,-0.31311596794764224,-0.32277789979664634,-4.484584017508427,1.6120918922266405,1.3468117987827313,-0.3932160908214165,-5.234062108689725,0.389600813051648,2
473,2024-09-18 21:32:31.695338752,TASK_BEGIN,009,-0.3281422630480166,-0.3191110621612945,-4.692465459866315,1.6343580950164125,1.2848841475457877,-0.3914758845322725,-5.390688211041944,0.4019543691058716,2
474,2024-09-18 21:32:31.763076096,TASK_BEGIN,009,-0.34978286603910136,-0.31259314232180074,-4.829614725712837,1.6426866635300996,1.2069520633386386,-0.38405684709478044,-5.551618385392423,0.41096291039447713,2
475,2024-09-18 21:32:31.830553856,TASK_BEGIN,009,-0.37679832752243525,-0.30333797863174367,-4.889440863920399,1.6360504983685604,1.1135626555680262,-0.37079616250263003,-5.717817254846813,0.41955478929160944,2
476,2024-09-18 21:32:32.772300032,TASK_BEGIN,009,-0.407523586742337,-0.2916370174768888,-4.870733678064349,1.6142465012557343,1.0060365607653603,-0.3518274685461505,-5.890418631097752,0.43119106257599277,2
477,2024-09-18 21:32:32.840131072,TASK_BEGIN,009,-0.43999463188267074,-0.2779293300055636,-4.777698928962074,1.5779559806914774,0.8864282909843912,-0.32758245729199537,-6.070171040708504,0.449245281149132,2
478,2024-09-18 21:32:32.904350208,TASK_BEGIN,009,-0.4721764633864698,-0.2627426944124023,-4.619544537818861,1.5287821760299896,0.7574114548260026,-0.29875451355596194,-6.256875793659932,0.47637083156878773,2
479,2024-09-18 21:32:32.968500992,TASK_BEGIN,009,-0.5022515963050918,-0.2466225647020076,-4.409350037895031,1.4691512507279936,0.6221150981515086,-0.2662287089983336,-6.448629204069087,0.5139565984051608,2
480,2024-09-18 21:32:33.043602176,TASK_BEGIN,009,-0.52888838968746,-0.23006969995196996,-4.162284967744499,1.4020388272746136,0.48391942244791847,-0.2309921502377155,-6.6411434488336445,0.5617683872723693,2
481,2024-09-18 21:32:33.107533824,TASK_BEGIN,009,-0.5514209989758057,-0.213498532747542,-3.8937915204745255,1.3306206327535564,0.34621494928529356,-0.1940444360348792,-6.827592035927158,0.6178706761278376,2
482,2024-09-18 21:32:33.169560832,TASK_BEGIN,009,-0.569917400884456,-0.19721933813462653,-3.6184157151462113,1.2579756425725528,0.2121645177742245,-0.15632516903750968,-6.999233058335696,0.6789067933097908,2
483,2024-09-18 21:32:34.109339904,TASK_BEGIN,009,-0.5851351592281822,-0.18144264093714518,-3.349382021760451,1.1868926210777706,0.08453387591019174,-0.11866656523129458,-7.146683960554731,0.7406842444341937,2
484,2024-09-18 21:32:34.187025920,TASK_BEGIN,009,-0.598373212727926,-0.16629862981097518,-3.0985283605999627,1.119762797644752,-0.0343810001675283,-0.08177108697417343,-7.261422287417485,0.7988663716714965,2
485,2024-09-18 21:32:34.257970176,TASK_BEGIN,009,-0.6112506498257692,-0.15185996823177034,-2.876316304182025,1.058524199747311,-0.14276966582878964,-0.0462089129333388,-7.337109668862191,0.8495830505679635,2
486,2024-09-18 21:32:34.325842944,TASK_BEGIN,009,-0.6254611400095469,-0.13815912903913444,-2.6918460269795164,1.004632524190023,-0.23932830385010506,-0.012426244298724192,-7.37050464156017,0.8898787601405176,2
487,2024-09-18 21:32:34.388525824,TASK_BEGIN,009,-0.6425398776641151,-0.12519953830265798,-2.5528137515103033,0.9590572969340045,-0.32331046855566364,0.019243788773182467,-7.361833481468734,0.9179844129535878,2
488,2024-09-18 21:32:34.460481024,TASK_BEGIN,009,-0.6636569948407646,-0.11296714051268177,-2.465334800605111,0.9223170434548453,-0.39458163343834574,0.04856983909120365,-7.314667314022738,0.9334347508322836,2
489,2024-09-18 21:32:34.529063936,TASK_BEGIN,009,-0.689448922098996,-0.10144792936192516,-2.4336100048548484,0.8945472705691101,-0.4536386586486675,0.07540913022420125,-7.235498388018344,0.9370642659376255,2
490,2024-09-18 21:32:35.470590976,TASK_BEGIN,009,-0.7199208892176936,-0.09064450326267574,-2.459479471074082,0.8755683837770214,-0.5015763352600665,0.09969320857387606,-7.133038032091317,0.9308625388539036,2
491,2024-09-18 21:32:35.540592896,TASK_BEGIN,009,-0.754460312345808,-0.08057648832913501,-2.542013203540439,0.8649390970791574,-0.539986735541982,0.12141568533828538,-7.017125454552717,0.9176333862188036,2
492,2024-09-18 21:32:35.608345088,TASK_BEGIN,009,-0.7919561750334766,-0.07126346975274575,-2.6774164037447115,0.862025615315705,-0.5707639774031734,0.1406212257726328,-6.897428027317032,0.9004943540781823,2
493,2024-09-18 21:32:35.676142080,TASK_BEGIN,009,-0.8309650059066691,-0.06270867986922996,-2.859485047063223,0.8661080367414029,-0.5958173607359194,0.1573923840040746,-6.782364401518646,0.8823698432176937,2
494,2024-09-18 21:32:35.743928064,TASK_BEGIN,009,-0.8698596000997058,-0.054901587066680184,-3.0805399889503096,0.8764744088227014,-0.6167535241463468,0.17183488996943028,-6.67844264524107,0.8656098703172682,2
495,2024-09-18 21:32:35.811675136,TASK_BEGIN,009,-0.906930819358959,-0.04784381451984229,-3.3324364540012796,0.8924233931415596,-0.634604934898151,0.184063362382264,-6.589885692389291,0.8517772575022313,2
496,2024-09-18 21:32:35.876617984,TASK_BEGIN,009,-0.9404562227516212,-0.04158796129011811,-3.6071984470432366,0.9131713794605422,-0.6496659748574568,0.19418591755551742,-6.5184439469243785,0.8416143284441452,2
497,2024-09-18 21:32:36.799110144,TASK_BEGIN,009,-0.9687872287219795,-0.03626427855016838,-3.8971155387256817,0.9377476007401818,-0.6614835026523983,0.20228948981420372,-6.463430418961179,0.8351788298284942,2
498,2024-09-18 21:32:36.863033856,TASK_BEGIN,009,-0.9904991277280819,-0.03207095485310391,-4.19448991555651,0.9649478578258904,-0.669015865189284,0.20843422537094214,-6.422005007612613,0.8320881382568859,2
499,2024-09-18 21:32:36.924608000,TASK_BEGIN,009,-1.004582841599343,-0.029230685484029774,-4.491338602741372,0.9933493197083413,-0.670915281524548,0.21266043014440897,-6.389713548087628,0.831792338305364,2
500,2024-09-18 21:32:37.001007104,TASK_BEGIN,009,-1.0106030932246302,-0.02794121224337388,-4.779307086840367,1.0213814537660968,-0.6658524518706013,0.21500220497676995,-6.361271450679441,0.8337984583472665,2
501,2024-09-18 21:32:37.065177856,TASK_BEGIN,009,-1.008765093778319,-0.028340254894166732,-5.049937654555799,1.0474684392090026,-0.6528151895757134,0.21550331384259264,-6.331453985712059,0.8377649097153383,2
502,2024-09-18 21:32:37.137314816,TASK_BEGIN,009,-0.9998838212168575,-0.030482579481731782,-5.2951841429712045,1.070214839848562,-0.6313385014516869,0.21423512526077315,-6.2958602539036725,0.8434576298154658,2
503,2024-09-18 21:32:37.205968896,TASK_BEGIN,009,-0.985270000192542,-0.03432405044697438,-5.507869104071547,1.088560091723969,-0.6016382910567349,0.21131202263704715,-6.251395632003905,0.8506763403110165,2
504,2024-09-18 21:32:38.139367168,TASK_BEGIN,009,-0.9665445549280807,-0.03972005618424435,-5.681884516178913,1.101857417624546,-0.5646378433387085,0.20689679607943612,-6.196412156115785,0.8592416935099173,2
505,2024-09-18 21:32:38.216992000,TASK_BEGIN,009,-0.9454153651008765,-0.046444836971650055,-5.812213543634791,1.1098803446698078,-0.5218890182417117,0.20119440501180388,-6.1304799564447805,0.8690029016457773,2
506,2024-09-18 21:32:38.284837888,TASK_BEGIN,009,-0.9234732010387644,-0.05422551743039617,-5.895049065615643,1.112767111510089,-0.47539222568283873,0.19443481147538474,-6.053900907078145,0.8798047633476505,2
507,2024-09-18 21:32:38.352643072,TASK_BEGIN,009,-0.9020362957380421,-0.06278302270959238,-5.928214539243639,1.1109065730850318,-0.4273416888947942,0.18684269281080396,-5.967263886974726,0.8914546288201997,2
508,2024-09-18 21:32:38.417798144,TASK_BEGIN,009,-0.882034747988435,-0.07187836076676736,-5.911763523312321,1.104780130188159,-0.3798641488381947,0.1785988070951309,-5.8712795863109015,0.9037490655837555,2
509,2024-09-18 21:32:38.488250112,TASK_BEGIN,009,-0.8639380367984355,-0.0813580023319415,-5.848397956383324,1.0948043939345653,-0.3348185270286938,0.1698094218459447,-5.766873758369563,0.9165418449468229,2
510,2024-09-18 21:32:38.556087040,TASK_BEGIN,009,-0.8477508353699496,-0.0911827685770336,-5.743474257825948,1.0812451075799636,-0.293668986535116,0.16049510006674886,-5.655371698101117,0.9297942892831123,2
511,2024-09-18 21:32:39.491739136,TASK_BEGIN,009,-0.8330840196691022,-0.10142872458614206,-5.604668957875297,1.064253136426988,-0.2574076143704802,0.15059564349601953,-5.538627008631308,0.9435444677378252,2
512,2024-09-18 21:32:39.567080192,TASK_BEGIN,009,-0.8192788020508339,-0.11226185028046749,-5.441476245937943,1.0440020221409316,-0.22651303745383777,0.13998632316700585,-5.419055163379653,0.9577553935433138,2
513,2024-09-18 21:32:39.625548032,TASK_BEGIN,009,-0.8055514834943708,-0.12389645654492017,-5.264528026206277,1.020832914334374,-0.20094000547419405,0.12850482020581944,-5.299629704435449,0.9721019026227131,2
514,2024-09-18 21:32:39.702397952,TASK_BEGIN,009,-0.7911312649598179,-0.1365480796976584,-5.084597368221545,0.9953009845132331,-0.18014035503503006,0.11598490211671188,-5.183840801294847,0.9858292775216058,2
515,2024-09-18 21:32:39.770492928,TASK_BEGIN,009,-0.7753821968069798,-0.15038875575221589,-4.911358103005673,0.9680958581572409,-0.16313510816779178,0.10228965849513559,-5.075520093184546,0.9977459631506056,2
516,2024-09-18 21:32:39.828967936,TASK_BEGIN,009,-0.7579178327366402,-0.16550815931795698,-4.752269598761211,0.9399071840221239,-0.14865125136743662,0.08734098776351602,-4.978521669914323,1.0063016931188329,2
517,2024-09-18 21:32:39.890614016,TASK_BEGIN,009,-0.7387030177838669,-0.18188276174949733,-4.611931598673457,0.9113224059932201,-0.13529750020203543,0.07114496569266449,-4.896350201996293,1.0097058596807675,2
518,2024-09-18 21:32:40.824345088,TASK_BEGIN,009,-0.7180988096675448,-0.19935983219833894,-4.492029574313675,0.8827965505399255,-0.12173234588265844,0.05380750322334337,-4.83176769312038,1.0061187323331122,2
519,2024-09-18 21:32:40.892176128,TASK_BEGIN,009,-0.6968082507872981,-0.21766458632797425,-4.391838396774276,0.854696956079213,-0.10679108416089365,0.03553053338692903,-4.786373248618688,0.9939406308662484,2
520,2024-09-18 21:32:40.959980032,TASK_BEGIN,009,-0.6757404213550758,-0.23643000135609227,-4.309083429835011,0.827393168673409,-0.089561438729263,0.016588413394166432,-4.760211503533429,0.9721166696430024,2
521,2024-09-18 21:32:41.027848960,TASK_BEGIN,009,-0.6558431013331751,-0.2552406498449184,-4.240808983470479,0.8013356978203217,-0.06942242023231578,-0.002701628314845359,-4.751503590063465,0.9403395308954545,2
522,2024-09-18 21:32:41.094849024,TASK_BEGIN,009,-0.6379281259548126,-0.273681920801194,-4.184058569643448,0.7770946191579734,-0.04608998562269874,-0.02199810274695214,-4.756569960005576,0.8991246972114372,2
523,2024-09-18 21:32:41.162867968,TASK_BEGIN,009,-0.6225081934592839,-0.2913846755479246,-4.136452177780274,0.7553800344106946,-0.01971049922652127,-0.04093518422603471,-4.769939388221389,0.8497875414235082,2
524,2024-09-18 21:32:41.222883072,TASK_BEGIN,009,-0.6096947303278537,-0.30805200008549016,-4.096689191610948,0.7370570469604203,0.00901931748669099,-0.05911133346883457,-4.784654066352481,0.7943209284207562,2
525,2024-09-18 21:32:42.170405120,TASK_BEGIN,009,-0.5992048138774633,-0.3234607268921376,-4.064744734686308,0.7231181227027955,0.03879531796621841,-0.07608416591676853,-4.792917508131372,0.7351886796401449,2
526,2024-09-18 21:32:42.232478976,TASK_BEGIN,009,-0.5904851070037974,-0.3374431416615409,-4.041586143177585,0.7145906336333155,0.0677849019358179,-0.0913808959884559,-4.787138602861028,0.6751082483348115,2
527,2024-09-18 21:32:42.309330176,TASK_BEGIN,009,-0.5829142142270421,-0.34986259410071063,-4.028596105635714,0.7124295798142943,0.09381581326391505,-0.10451364465596821,-4.7610955737086735,0.6168730209229832,2
528,2024-09-18 21:32:42.376784128,TASK_BEGIN,009,-0.5760054068510582,-0.36059700002242057,-4.027021090766935,0.7174517595291195,0.11459586341052802,-0.11498894785594002,-4.710911325230656,0.5631980070685539,2
529,2024-09-18 21:32:42.445678080,TASK_BEGIN,009,-0.5695293700965461,-0.3695372341314478,-4.037550077769564,0.7302982869522642,0.12794367705422796,-0.12232531042221075,-4.635793732852231,0.5165674824589029,2
530,2024-09-18 21:32:42.513483776,TASK_BEGIN,009,-0.5635218574257748,-0.3765991109238986,-4.0599938651839125,0.75138001365347,0.1320467359308416,-0.1260961831155221,-4.538513507731847,0.47908456790626636,2
531,2024-09-18 21:32:42.581305856,TASK_BEGIN,009,-0.5582028199736677,-0.38174181260263285,-4.093114113888067,0.780790868680498,0.12569525755840488,-0.12598670620319607,-4.425409612930495,0.45231528420514694,2
532,2024-09-18 21:32:43.523215104,TASK_BEGIN,009,-0.5538746188235083,-0.384979640417359,-4.134692751131562,0.8182095810534805,0.10839629005654355,-0.12183876715194575,-4.305806934877728,0.43712876086383534,2
533,2024-09-18 21:32:43.591705088,TASK_BEGIN,009,-0.5508577373605923,-0.3863736760798645,-4.181875409499916,0.8628393545382547,0.08033331993805914,-0.11367559414006233,-4.191043173842678,0.43357599881487613,2
534,2024-09-18 21:32:43.652259072,TASK_BEGIN,009,-0.5494771183542233,-0.38600195514640295,-4.2316976096444305,0.9134448248476019,0.04221635133627794,-0.1017089597728698,-4.093356405761308,0.4408569697208407,2
535,2024-09-18 21:32:43.714339072,TASK_BEGIN,009,-0.5500718490492275,-0.38392243468692594,-4.281517217313437,0.9684911501301358,-0.004905921970834584,-0.08632628614626817,-4.024681297573556,0.45738605008242084,2
536,2024-09-18 21:32:43.795054080,TASK_BEGIN,009,-0.5529833987589658,-0.380148963042168,-4.329057777109147,1.0263114557301947,-0.05980586533580419,-0.0680555647676221,-3.9953833557492433,0.48093208085745337,2
537,2024-09-18 21:32:43.862829824,TASK_BEGIN,009,-0.5584947696047182,-0.3746523235278289,-4.372040138668243,1.0852180498175126,-0.12116353443397153,-0.04751952842673204,-4.013151515308385,0.5088030007680227,2
538,2024-09-18 21:32:43.930582016,TASK_BEGIN,009,-0.5667271751485474,-0.367384430641005,-4.4077006486293975,1.14352849884369,-0.1875786758709431,-0.025392182674476432,-4.082263142505957,0.5380543541294784,2
539,2024-09-18 21:32:44.861465856,TASK_BEGIN,009,-0.5775121301779415,-0.3583158219804094,-4.432559513494458,1.1995319769748722,-0.25754694170413095,-0.0023583863494695385,-4.203186919941885,0.5657193223201626,2
540,2024-09-18 21:32:44.938705152,TASK_BEGIN,009,-0.5902679434344141,-0.34747545298080795,-4.442547088361228,1.251441167027965,-0.3294440095338842,0.020922999034127664,-4.372402224478285,0.5890668513960238,2
541,2024-09-18 21:32:45.000727808,TASK_BEGIN,009,-0.6039459550688292,-0.33498066315708297,-4.433312509357902,1.2973661649842878,-0.40154542247236863,0.04384452560320947,-4.582518517989849,0.6058731067789327,2
542,2024-09-18 21:32:45.076491264,TASK_BEGIN,009,-0.6171134411535815,-0.3210456505546684,-4.400557991343694,1.3353302508225084,-0.4720980650582063,0.06586446986091107,-4.8228753381689105,0.6146529457848566,2
543,2024-09-18 21:32:45.145105920,TASK_BEGIN,009,-0.6281718621734595,-0.3059649184484465,-4.340465718868251,1.363352410937282,-0.5394362372471578,0.08651831112357992,-5.080554119133319,0.6147794690285701,2
544,2024-09-18 21:32:45.212888064,TASK_BEGIN,009,-0.6356343332098289,-0.2900791239033974,-4.250359773280861,1.3796308583145016,-0.6020925101469495,0.10542477862279273,-5.341461990445083,0.6064451479303286,2
545,2024-09-18 21:32:45.265153792,TASK_BEGIN,009,-0.6383643416494654,-0.2737362143920675,-4.129511285913886,1.3828120359299545,-0.6588379888257119,0.1222765228960521,-5.591172551531151,0.5904801275382804,2
546,2024-09-18 21:32:46.224146944,TASK_BEGIN,009,-0.6357088170026611,-0.2572612122500312,-3.979672841356217,1.372241414843642,-0.7086298250608987,0.13681707967958598,-5.815437411926557,0.5681010932887937,2
547,2024-09-18 21:32:46.292493056,TASK_BEGIN,009,-0.6275157234217609,-0.24094391131242418,-3.804988403988568,1.3480870810317092,-0.7505036237174418,0.14881826912001475,-6.000528182596198,0.540680103887511,2
548,2024-09-18 21:32:46.360228096,TASK_BEGIN,009,-0.6140685827180533,-0.2250433260320721,-3.611433370644062,1.3113363227861936,-0.7834781351389779,0.15807131672731387,-6.133741244429744,0.5095994659388935,2
549,2024-09-18 21:32:46.428018176,TASK_BEGIN,009,-0.5959803243466837,-0.20979701268608245,-3.4062095648103976,1.263740217266851,-0.8065287233379493,0.16439522734980722,-6.204308641063462,0.47620620261226554,2
550,2024-09-18 21:32:46.484340736,TASK_BEGIN,009,-0.5740887095009327,-0.19542055866869015,-3.19718947666879,1.2077161407573411,-0.8186385474209057,0.1676561465016757,-6.204532751933908,0.44181988111218096,2
551,2024-09-18 21:32:46.562921216,TASK_BEGIN,009,-0.5493825293524933,-0.18209016947942264,-2.992236557841182,1.1461430750921184,-0.8188905477090382,0.16778725518919899,-6.130640850189756,0.40773222167868534,2
552,2024-09-18 21:32:46.631292928,TASK_BEGIN,009,-0.5229523920274877,-0.16991534301446057,-2.7984341018907797,1.082035093242821,-0.8065691067221715,0.16480231552206243,-5.983001519545407,0.3751645930472664,2
553,2024-09-18 21:32:47.549730048,TASK_BEGIN,009,-0.49593987656266975,-0.15891699917039376,-2.621412898669937,1.0181680957348447,-0.7812770406158955,0.15880417558362714,-5.765664301905884,0.34517718064199016,2
554,2024-09-18 21:32:47.617558016,TASK_BEGIN,009,-0.4694659945184864,-0.1490225816995242,-2.4648263896699745,0.956752039921479,-0.7430738862135959,0.1499918292297985,-5.485418433337353,0.31855752489739547,2
555,2024-09-18 21:32:47.685352960,TASK_BEGIN,009,-0.44452152399067274,-0.14008174418828956,-2.3299901600690314,0.8992142901079857,-0.692608654637225,0.13866440058366594,-5.150780150354881,0.29574440732127916,2
556,2024-09-18 21:32:47.752993280,TASK_BEGIN,009,-0.4218070681311346,-0.13189889481212272,-2.215835220107654,0.846130186180623,-0.6312157181437068,0.1252202618504327,-4.771318753986568,0.27681597500422933,2
557,2024-09-18 21:32:47.819422976,TASK_BEGIN,009,-0.4015528909208438,-0.12427019733607168,-2.11925356849886,0.7972976305513979,-0.5609528679208657,0.11015233251707607,-4.3573430763735095,0.2615123872204945,2
558,2024-09-18 21:32:47.881367808,TASK_BEGIN,009,-0.3834048644162804,-0.11701030479892913,-2.035692904098743,0.7519120708241693,-0.4845447316763461,0.09403605013823181,-3.919629225141331,0.24925419894769313,2
559,2024-09-18 21:32:47.956297984,TASK_BEGIN,009,-0.36646469250604113,-0.10996337185834873,-1.9597860651751857,0.7087766972983193,-0.4052025108138941,0.07750352016352952,-3.4690277075836002,0.23917500711187176,2
