,time,MARKER,pid,L_O_DSI,L_D_DSI,L_O_DSphi,L_D_DSphi,R_O_DSI,R_D_DSI,R_O_DSphi,R_D_DSphi,trial_id
0,2024-09-18 21:36:09.146333952,TASK_BEGIN,009,-1.0415512998878962,0.7514424491832636,1.1521337279213966,-0.019749067642725385,-1.3313304868698985,0.21332110822418598,-4.602548471776361,1.9350808329247977,3
1,2024-09-18 21:36:09.217280000,TASK_BEGIN,009,-1.1865652226297199,0.7519629137262894,1.8904349471868966,-0.2538182575349468,-1.493142065194313,0.27218270451962884,-5.888385743094216,2.213935842863409,3
2,2024-09-18 21:36:09.270178048,TASK_BEGIN,009,-1.3329625215477854,0.7538431265360251,2.607039121083678,-0.4807284733740424,-1.652184937788149,0.33099411617893715,-7.137723065463738,2.4864141839449374,3
3,2024-09-18 21:36:09.347870976,TASK_BEGIN,009,-1.480205079969281,0.7582445171694122,3.2747326632281837,-0.6934951371359557,-1.8050372703839974,0.38946817622804547,-8.304925972707888,2.7425777352933127,3
4,2024-09-18 21:36:09.409928960,TASK_BEGIN,009,-1.627421806912859,0.7660405864785043,3.8718205482088472,-0.8865804302524917,-1.948805975283284,0.4473507178400209,-9.352177651801998,2.9742647237593394,3
5,2024-09-18 21:36:09.488094976,TASK_BEGIN,009,-1.7733462436216754,0.7777519992948739,4.383829954549189,-1.0562852344816798,-2.0813658795559253,0.5044129116639563,-10.252187592359471,3.1756547151860066,3
6,2024-09-18 21:36:09.555560960,TASK_BEGIN,009,-1.9163002754342922,0.7935313655893669,4.803990908714661,-1.200837145404476,-2.201494701625571,0.5604347084410147,-10.98942805284439,3.3434931742250447,3
7,2024-09-18 21:36:10.498727936,TASK_BEGIN,009,-2.054225063092966,0.8131844819985015,5.132635373789626,-1.3202150551389193,-2.308876224928967,0.6151859379645115,-11.560010453295073,3.4770261139838614,3
8,2024-09-18 21:36:10.567217152,TASK_BEGIN,009,-2.184748032809506,0.8362117657900591,5.375906795262438,-1.4158164716448114,-2.403982773593517,0.6684049178311802,-11.970419583588464,3.5776826405907327,3
9,2024-09-18 21:36:10.634941184,TASK_BEGIN,009,-2.30529567767941,0.8618614714859691,5.544100972401462,-1.4900642395220842,-2.4878702032041846,0.7197785721422658,-12.23550641128256,3.648585589444858,3
10,2024-09-18 21:36:10.696559872,TASK_BEGIN,009,-2.4132738180217346,0.8891973386385468,5.649788441096541,-1.5459899679590057,-2.5619192551042507,0.7689303427093576,-12.376191070883785,3.6940140765561287,3
11,2024-09-18 21:36:10.758712064,TASK_BEGIN,009,-2.5062874347921045,0.9171786376611536,5.705918765044663,-1.5868144552334202,-2.627564374314139,0.8154211308212809,-12.417198895835954,3.7189296348608702,3
12,2024-09-18 21:36:10.838386944,TASK_BEGIN,009,-2.582321358702856,0.9447394951569392,5.724266838773887,-1.6155805460180188,-2.68606356023182,0.8587695159815663,-12.384998936363669,3.728602838158818,3
13,2024-09-18 21:36:10.899337984,TASK_BEGIN,009,-2.63984572384816,0.9708589076705335,5.714537481233629,-1.6349139693810093,-2.738346921291694,0.8984911271441854,-12.305903614718412,3.7282662465512746,3
14,2024-09-18 21:36:11.844150016,TASK_BEGIN,009,-2.677891771753873,0.9946247013625429,5.684158419332031,-1.6469479576115706,-2.7849453072061334,0.9341426076601739,-12.204130585680536,3.722691571529789,3
15,2024-09-18 21:36:11.905799936,TASK_BEGIN,009,-2.6961453621511557,1.0152948897011282,5.638477246352871,-1.6533684587664546,-2.8259780870528295,0.9653509889389092,-12.099840852067523,3.7157059947019415,3
16,2024-09-18 21:36:11.984617984,TASK_BEGIN,009,-2.695043040071916,1.0323513736996364,5.580946942446742,-1.655482650919819,-2.8611764987725663,0.9918219753425487,-12.007599103439214,3.709778542005939,3
17,2024-09-18 21:36:12.052429056,TASK_BEGIN,009,-2.675812621935364,1.0455327847591718,5.513072824316755,-1.6542349961476794,-2.889926475730273,1.0133373246618675,-11.935757493779649,3.705800978703694,3
18,2024-09-18 21:36:12.108708096,TASK_BEGIN,009,-2.6404073767378766,1.0548316184848878,5.43428609435094,-1.6501791854934889,-2.911335613808849,1.029756020084998,-11.886861255579229,3.7031312806830408,3
19,2024-09-18 21:36:12.188050944,TASK_BEGIN,009,-2.5913383479115013,1.0604538092876408,5.342137799504876,-1.6434884094533646,-2.924350463296981,1.0410247904185832,-11.858847072995033,3.6999171330331406,3
20,2024-09-18 21:36:12.249888000,TASK_BEGIN,009,-2.5314703509263747,1.0627574670592903,5.233095900828883,-1.634079873808443,-2.9279300609351258,1.0471941814312584,-11.846743602158929,3.693635156758538,3
21,2024-09-18 21:36:13.174597888,TASK_BEGIN,009,-2.463844637809992,1.0621887239859733,5.103891073699164,-1.6218403441283757,-2.9212249173353255,1.0484341046943195,-11.844504996883005,3.6817023471720596,3
22,2024-09-18 21:36:13.242458880,TASK_BEGIN,009,-2.3915278228374923,1.0592182473744896,4.952976907305411,-1.6068444533715645,-2.9036890512450495,1.045040394800743,-11.846492428249913,3.6620003236343917,3
23,2024-09-18 21:36:13.306555904,TASK_BEGIN,009,-2.3174427486126272,1.0542769473579263,4.781502633706109,-1.5894467040551705,-2.875102164282102,1.037423380978028,-11.848263365273425,3.6331975211822254,3
24,2024-09-18 21:36:13.368606976,TASK_BEGIN,009,-2.2441745426243775,1.0477012369634127,4.593444204993622,-1.5702198729205046,-2.835548447156287,1.0260804161980717,-11.846720937156109,3.5948542128773218,3
25,2024-09-18 21:36:13.431381760,TASK_BEGIN,009,-2.173815362539288,1.0397061813473552,4.395053584335676,-1.5498208130624895,-2.7854051148295698,1.0115656578004664,-11.839891978499148,3.547392512485503,3
26,2024-09-18 21:36:13.510855936,TASK_BEGIN,009,-2.107900285463563,1.0303923438114295,4.1941201963680905,-1.5288795543073042,-2.7253389434265647,0.9944662150776196,-11.826536751452146,3.4920112833612866,3
27,2024-09-18 21:36:13.574861056,TASK_BEGIN,009,-2.047408986183543,1.0197734467971962,3.999397571324951,-1.5079430055850307,-2.656287946296374,0.9753818300228633,-11.805755896375741,3.4305573835167253,3
28,2024-09-18 21:36:14.523972864,TASK_BEGIN,009,-1.9927918826933801,1.0078090153081036,3.8201140571833734,-1.487458000490707,-2.5794384973493765,0.9548997344858794,-11.776746113213068,3.3653325631771485,3
29,2024-09-18 21:36:14.586216960,TASK_BEGIN,009,-1.9440306483235201,0.9944337288091416,3.665250270614011,-1.4677678115312336,-2.4962156189065468,0.9335591263011369,-11.738727314421693,3.2988403810019276,3
30,2024-09-18 21:36:14.660271104,TASK_BEGIN,009,-1.9007559195367956,0.9795786415009271,3.5425151819569223,-1.449109737999831,-2.4082737787354596,0.911809018081591,-11.690970602131648,3.2335174600908334,3
31,2024-09-18 21:36:14.727262976,TASK_BEGIN,009,-1.8624076570856267,0.9631827218977572,3.4573956200901375,-1.4316382461884305,-2.31746410906992,0.889974808088893,-11.632859316979943,3.171499026981853,3
32,2024-09-18 21:36:14.795846912,TASK_BEGIN,009,-1.8284022129458566,0.9452013382775085,3.412729340996957,-1.4154947611827857,-2.225775165119752,0.8682521601374928,-11.563942763263878,3.114442156278771,3
33,2024-09-18 21:36:14.862748928,TASK_BEGIN,009,-1.7982738891314551,0.9256188772440589,3.40885521999578,-1.4008886193387655,-2.1352749011133896,0.8467367613205826,-11.484000767064307,3.063421717352968,3
34,2024-09-18 21:36:14.927123968,TASK_BEGIN,009,-1.7717670460642154,0.9044623580669133,3.444000697385308,-1.3881387244711745,-2.0480833051431486,0.8254827213178753,-11.393183519908396,3.0189191913062583,3
35,2024-09-18 21:36:15.874742016,TASK_BEGIN,009,-1.7488775154698688,0.8818099166816014,3.5146030820947534,-1.3776754814699879,-1.966354212564175,0.8045682120763593,-11.292244704941497,2.980893958691005,3
36,2024-09-18 21:36:15.941886976,TASK_BEGIN,009,-1.7298624146516557,0.8577939036407034,3.615594452334755,-1.3700261550784127,-1.8922017115226886,0.7841415677836421,-11.182799980632286,2.9488830633896,3
37,2024-09-18 21:36:16.010259968,TASK_BEGIN,009,-1.7152181059895135,0.8325964690851017,3.7408567880373367,-1.3657759009390922,-1.8275492919634104,0.7644356110863686,-11.067540167468003,2.922092459803785,3
38,2024-09-18 21:36:16.078208000,TASK_BEGIN,009,-1.7055956486036183,0.8064313559708779,3.8838958448279315,-1.3654926320592256,-1.773957713034496,0.7457616745000764,-10.950383482834551,2.8995127340690234,3
39,2024-09-18 21:36:16.142759936,TASK_BEGIN,009,-1.7016432284578757,0.779514359571259,4.038518538909422,-1.3696388673073139,-1.732489027477102,0.7284965317510177,-10.836509250937144,2.8801043410173097,3
40,2024-09-18 21:36:16.204782080,TASK_BEGIN,009,-1.7038242388604925,0.7520366086497569,4.199239252716201,-1.3784954434228285,-1.7036027861925642,0.7130567968317437,-10.732096169495176,2.863009247914196,3
41,2024-09-18 21:36:16.272367872,TASK_BEGIN,009,-1.7122829127373957,0.7241516576152195,4.361319404543195,-1.3921013981054722,-1.687057241018664,0.6998498340087616,-10.643662756488425,2.847698911427681,3
42,2024-09-18 21:36:17.224060928,TASK_BEGIN,009,-1.7267889040503746,0.6959745921520174,4.520508960088117,-1.4102217456082067,-1.681824585130566,0.6892070896439636,-10.577197637964804,2.834041885939935,3
43,2024-09-18 21:36:17.292208128,TASK_BEGIN,009,-1.7467475635628598,0.6675881538584021,4.672613019639415,-1.4323559463671405,-1.6860693484073606,0.6813241213857456,-10.537385945744173,2.8223276145576324,3
44,2024-09-18 21:36:17.360445184,TASK_BEGIN,009,-1.7712651867593217,0.6390597013445319,4.8131228114914855,-1.4577777847460076,-1.697249028651435,0.6762341810983308,-10.527094603359588,2.813254558091475,3
45,2024-09-18 21:36:17.414644992,TASK_BEGIN,009,-1.799268283726753,0.6104745796260193,4.937266979580286,-1.4856134599601438,-1.7123667632945923,0.673825825273323,-10.547121917836224,2.807869617614569,3
46,2024-09-18 21:36:17.492802048,TASK_BEGIN,009,-1.8296498143895756,0.5819782423058915,5.040639353978997,-1.5149922153272573,-1.7283363728360925,0.6738891591074558,-10.596082378766448,2.807436334694982,3
47,2024-09-18 21:36:17.551644160,TASK_BEGIN,009,-1.8613946263245624,0.5538081092807756,5.120081828776977,-1.5452346896984592,-1.7423548101258024,0.676160851112573,-10.67027387600125,2.813209565178484,3
48,2024-09-18 21:36:17.631416064,TASK_BEGIN,009,-1.8936479623315803,0.5262977974132812,5.1742539681680055,-1.5759467487224164,-1.7521857658051305,0.6803504788891201,-10.763605944986224,2.826152580104843,3
49,2024-09-18 21:36:18.567354880,TASK_BEGIN,009,-1.9257141047064361,0.4998477689477873,5.203604783942848,-1.6069449769159663,-1.7563331507605282,0.6861570088361959,-10.867891145940414,2.8466950232400965,3
50,2024-09-18 21:36:18.630726144,TASK_BEGIN,009,-1.9570156125071871,0.4748752962002451,5.209957309160339,-1.6381020120305425,-1.754127785858123,0.6932916311812569,-10.973697931808514,2.8746197452878155,3
51,2024-09-18 21:36:18.708756224,TASK_BEGIN,009,-1.987077467422054,0.45176924205399865,5.19616816310981,-1.6692528256938817,-1.7457266199650725,0.7015060394728889,-11.071578717753718,2.90909329308971,3
52,2024-09-18 21:36:18.778372096,TASK_BEGIN,009,-2.015553232244197,0.4308641561061052,5.1661903911855,-1.7002229492497105,-1.7320060441941532,0.7106125020527039,-11.153177168867067,2.94878009569858,3
53,2024-09-18 21:36:18.845316864,TASK_BEGIN,009,-2.042235732166047,0.4124282424930327,5.125463965719674,-1.7309403864447954,-1.714360883546601,0.7204864593829163,-11.211845304112376,2.9919779959977544,3
54,2024-09-18 21:36:18.913939968,TASK_BEGIN,009,-2.0670104234134428,0.396655283697108,5.081175513274111,-1.7615314399666795,-1.694454546261402,0.7310496454275016,-11.242791320947486,3.036766358706545,3
55,2024-09-18 21:36:18.980741888,TASK_BEGIN,009,-2.0897863907057364,0.38365736016715585,5.041867074464764,-1.7923059865586173,-1.6739756512305652,0.7422369485114944,-11.242948544068922,3.081180727546942,3
56,2024-09-18 21:36:19.923791872,TASK_BEGIN,009,-2.1104645165793805,0.37346124664969144,5.016249879084567,-1.8236203276693443,-1.6544455664031923,0.7539575020707437,-11.210710293855684,3.1234159457903248,3
57,2024-09-18 21:36:19.991777792,TASK_BEGIN,009,-2.1289599399205876,0.36601467700707147,5.01167958405038,-1.8557018269475505,-1.6370974538547904,0.7660633904745517,-11.145709520040807,3.162043116174206,3
58,2024-09-18 21:36:20.050013184,TASK_BEGIN,009,-2.145254847841655,0.36120621475801823,5.033015243382421,-1.8885402504506834,-1.6228292780357902,0.7783341976979724,-11.048866390375158,3.196198362387346,3
59,2024-09-18 21:36:20.124510976,TASK_BEGIN,009,-2.159452687292209,0.3588938626054307,5.0822648468678295,-1.9218879795133756,-1.61221748661299,0.7904822947926137,-10.922787578557216,3.225704599865316,3
60,2024-09-18 21:36:20.195235072,TASK_BEGIN,009,-2.1718131466115604,0.3589304079854036,5.158946522041848,-1.9553428187965767,-1.6055509594612443,0.8021829489169187,-10.77234754998003,3.2511377026956794,3
61,2024-09-18 21:36:20.251760896,TASK_BEGIN,009,-2.182750559346381,0.36117610263339245,5.2608355991471845,-1.9884587589649225,-1.6028364728544175,0.8131234682141694,-10.605090207858677,3.27384315744638,3
62,2024-09-18 21:36:20.330889984,TASK_BEGIN,009,-2.192786762944369,0.36549972839993305,5.38475943583934,-2.0208359973405523,-1.6037645851601203,0.8230517883296898,-10.431106169331887,3.295831646566943,3
63,2024-09-18 21:36:21.241609984,TASK_BEGIN,009,-2.2024694424435074,0.3717761651623681,5.527315866228439,-2.0521814084099272,-1.6076739156509166,0.8318059533022933,-10.262294372896873,3.3194820242722844,3
64,2024-09-18 21:36:21.302074880,TASK_BEGIN,009,-2.2122882348750488,0.3798865693451373,5.685486230057491,-2.0823479825815125,-1.6135722944261048,0.8393241289959694,-10.111216291475388,3.3471046818938612,3
65,2024-09-18 21:36:21.384679936,TASK_BEGIN,009,-2.222619705238799,0.389718545193544,5.856893690003023,-2.1113184754511516,-1.6202564527513463,0.8456491922798093,-9.98987432409181,3.380514314783198,3
66,2024-09-18 21:36:21.442238976,TASK_BEGIN,009,-2.23369996559124,0.4011568404511189,6.039429380668293,-2.1390944735085506,-1.6265146659886476,0.8509344002131692,-9.908651922563212,3.4207320237313,3
67,2024-09-18 21:36:21.520227072,TASK_BEGIN,009,-2.2455937352007997,0.41406117799533015,6.230410347768835,-2.1655230994039245,-1.631336926266358,0.8554404883047237,-9.87549376087802,3.4678623681158016,3
68,2024-09-18 21:36:21.579417856,TASK_BEGIN,009,-2.258138878291679,0.4282406336925705,6.425820579914964,-2.190135182755859,-1.634057367186094,0.8595141209215467,-9.89531643346717,3.5211293805994175,3
69,2024-09-18 21:36:21.641449984,TASK_BEGIN,009,-2.270892721401278,0.44343784616422005,6.620018344037361,-2.2120526522719453,-1.6344039340029592,0.8635485603004696,-9.969604047957423,3.578989238359707,3
70,2024-09-18 21:36:22.595912960,TASK_BEGIN,009,-2.2831449745341854,0.45933173606276795,6.805860779432542,-2.2300071887035577,-1.6324784689336063,0.867934354620769,-10.096192393425563,3.639228851524132,3
71,2024-09-18 21:36:22.666764032,TASK_BEGIN,009,-2.2940390410680136,0.47556011779158364,6.975124428569156,-2.2424978376227,-1.6287066306409046,0.8730117742978132,-10.269370811220183,3.699040940814267,3
72,2024-09-18 21:36:22.734543872,TASK_BEGIN,009,-2.3027639476147357,0.49175427505280495,7.119251283112336,-2.2480569596131192,-1.62376222557298,0.8790347126321162,-10.4804012379456,3.755119398974219,3
73,2024-09-18 21:36:22.796770048,TASK_BEGIN,009,-2.308720960034239,0.5075722183189506,7.230324549618427,-2.245512030752242,-1.618429414026239,0.8861431312418311,-10.71838524153577,3.803816086049195,3
74,2024-09-18 21:36:22.870077952,TASK_BEGIN,009,-2.311598265363099,0.522721142757246,7.301995646663783,-2.234119910133771,-1.6134027822230343,0.894337066082778,-10.971324622352922,3.8414116146679333,3
75,2024-09-18 21:36:22.936448000,TASK_BEGIN,009,-2.3113682629744776,0.5369676467763747,7.330232698747458,-2.2135402205783024,-1.6090928106356663,0.9034585066800369,-11.227139967119347,3.8645154137758846,3
76,2024-09-18 21:36:22.998936064,TASK_BEGIN,009,-2.308256857813299,0.5501393094501722,7.313954176270894,-2.1837185569769835,-1.6054990716633475,0.9131938079595759,-11.474363636554084,3.8704973337187423,3
77,2024-09-18 21:36:23.917825024,TASK_BEGIN,009,-2.3026976544823694,0.5621207384885831,7.2554718445852915,-2.144783803967756,-1.6021738224874926,0.923100920297105,-11.702481171616757,3.857815316620932,3
78,2024-09-18 21:36:23.980312064,TASK_BEGIN,009,-2.295251891301145,0.5728441797900065,7.160472336426411,-2.097014391133123,-1.59828736271554,0.9326590279726897,-11.902244390966894,3.826195978779961,3
79,2024-09-18 21:36:24.058601984,TASK_BEGIN,009,-2.2864958340458843,0.5822751907521913,7.037408798445786,-2.0408453315482102,-1.5927777987359992,0.9413324112606631,-12.066231737293483,3.7767061653361487,3
80,2024-09-18 21:36:24.119542016,TASK_BEGIN,009,-2.276908877351261,0.5903988545298268,6.896492093570541,-1.9768752337111484,-1.5845170219670353,0.9486308995808272,-12.189546861854678,3.7117283941088908,3
81,2024-09-18 21:36:24.182435072,TASK_BEGIN,009,-2.266793358903077,0.5972134733846213,6.748631890730699,-1.9059052927086078,-1.572435868767446,0.9541524063895781,-12.270272303117514,3.6347950415492982,3
82,2024-09-18 21:36:24.260243968,TASK_BEGIN,009,-2.256235805819816,0.6027313873578117,6.604568241295615,-1.829052634932103,-1.5556183201860543,0.9576107281956534,-12.309365034788485,3.550252132056475,3
83,2024-09-18 21:36:24.321878016,TASK_BEGIN,009,-2.2451087456736367,0.6069801705954817,6.47416578614199,-1.747884319102106,-1.5333962561039336,0.9588583683708161,-12.31002302001559,3.462809467172152,3
84,2024-09-18 21:36:25.273070080,TASK_BEGIN,009,-2.2331113070394593,0.6100005862071463,6.3657025937523315,-1.6644601928863643,-1.5054388788112392,0.9579044216279264,-12.276915925551336,3.3770986432166645,3
85,2024-09-18 21:36:25.329874944,TASK_BEGIN,009,-2.219842781094558,0.6118425090707326,6.285109728760016,-1.5812186786153315,-1.471804997001158,0.9549209389526774,-12.215720467544282,3.297338015244929,3
86,2024-09-18 21:36:25.407540992,TASK_BEGIN,009,-2.20489742233806,0.6125589564652264,6.235361628969313,-1.5007381042862566,-1.432936865455155,0.9502310852945358,-12.133021448069186,3.2271148885432552,3
87,2024-09-18 21:36:25.476540160,TASK_BEGIN,009,-2.1879605260882165,0.61219666374647,6.2163693381661975,-1.425493898574527,-1.3895950994534672,0.9442735445725191,-12.036227891656386,3.1692296539985048,3
88,2024-09-18 21:36:25.544326144,TASK_BEGIN,009,-2.16887967046479,0.6107855217258513,6.225566848013805,-1.3577242859327203,-1.3427529846454678,0.9375461522783499,-11.933156378159744,3.125562334093684,3
89,2024-09-18 21:36:25.608008960,TASK_BEGIN,009,-2.147693829600709,0.6083350402304175,6.258917898592241,-1.299405754821931,-1.2934935983218079,0.93054564149204,-11.831249428133685,3.096972243143671,3
90,2024-09-18 21:36:25.670496768,TASK_BEGIN,009,-2.1246114256605155,0.6048430881436455,6.311803453810072,-1.2522501131800545,-1.242955413574414,0.9237220679651408,-11.736661134850799,3.0832634024550916,3
91,2024-09-18 21:36:26.623151104,TASK_BEGIN,009,-2.099929424985377,0.6003102874301812,6.379514066846784,-1.217649157912983,-1.1923180872345387,0.9174539140539041,-11.653506979853956,3.0832483157236164,3
92,2024-09-18 21:36:26.690972160,TASK_BEGIN,009,-2.073913968584145,0.5947499895847184,6.457463758825575,-1.196560148399926,-1.1427742874538298,0.9120407400148217,-11.583477343839922,3.0949236637335455,3
93,2024-09-18 21:36:26.758099200,TASK_BEGIN,009,-2.0467051675140966,0.5881949456525537,6.5413103915180155,-1.1893777982214004,-1.0954609757751461,0.9077078361122742,-11.525856890065366,3.115718208552852,3
94,2024-09-18 21:36:26.826539008,TASK_BEGIN,009,-2.0182949391777987,0.5807094310573129,6.627020166654634,-1.1958476886379765,-1.051372327616758,0.9046152080090293,-11.477855515891717,3.1427353891045042,3
95,2024-09-18 21:36:26.894342144,TASK_BEGIN,009,-1.9885650830634098,0.5724088705836095,6.710807213749061,-1.2150411564420542,-1.0112817553140396,0.9028647633621737,-11.435070088301364,3.172945558961472,3
96,2024-09-18 21:36:26.959538944,TASK_BEGIN,009,-1.957350321027343,0.5634799059730109,6.788899249814137,-1.2453802200800426,-0.9756696858388777,0.9025030725710501,-11.391912958418262,3.2033444715330623,3
97,2024-09-18 21:36:27.029915136,TASK_BEGIN,009,-1.9245192332512449,0.5541918873087321,6.85724185458963,-1.284712156645664,-0.9446353345211878,0.9035191636318616,-11.342018483224253,3.231124037883835,3
98,2024-09-18 21:36:27.973220864,TASK_BEGIN,009,-1.8900660743614077,0.54488971737382,6.911402450000115,-1.3304421255552514,-0.9178069722273746,0.9058423295405641,-11.278838233562773,3.2538855329990484,3
99,2024-09-18 21:36:28.041039104,TASK_BEGIN,009,-1.8541660233995265,0.5359571568272431,6.946822271047476,-1.3797012593821987,-0.8943206128228304,0.9093498821525423,-11.19658084418607,3.269872976427298,3
100,2024-09-18 21:36:28.098753024,TASK_BEGIN,009,-1.8171487762903349,0.5277517549672748,6.959296589461617,-1.4295173259037137,-0.8729174159818398,0.9138879293526034,-11.091348227132414,3.2781564902311273,3
101,2024-09-18 21:36:28.172244992,TASK_BEGIN,009,-1.7794151378191396,0.5205362177538929,6.945461924964382,-1.4769946944610446,-0.8521148603239411,0.9192911127948467,-10.962072635217188,3.2786968967723906,3
102,2024-09-18 21:36:28.234242048,TASK_BEGIN,009,-1.741367075975152,0.5144395004676459,6.903158004115009,-1.519521493789445,-0.8303586557501316,0.9253800796218598,-10.810890284514809,3.2722680719623827,3
103,2024-09-18 21:36:28.311874048,TASK_BEGIN,009,-1.7033799254209878,0.5094583918767528,6.831667378477886,-1.5549732366339222,-0.8061216920791688,0.9319348124333785,-10.642873394962269,3.2602706153418715,3
104,2024-09-18 21:36:28.374362112,TASK_BEGIN,009,-1.6657846127858957,0.505482616962263,6.731900112651396,-1.5818505098687372,-0.7779870255442113,0.9386662994585061,-10.465328011819519,3.244513684240832,3
105,2024-09-18 21:36:29.323613696,TASK_BEGIN,009,-1.6288362171715955,0.5023244369077413,6.606482649793561,-1.5993222214558018,-0.7447405976335473,0.9452042871386025,-10.286919398676432,3.227046208788511,3
106,2024-09-18 21:36:29.392369152,TASK_BEGIN,009,-1.5926939366327848,0.4997479047832638,6.459566147491072,-1.607197176973626,-0.705452331395232,0.9510980861339323,-10.11673884931353,3.2100504366877143,3
107,2024-09-18 21:36:29.455343104,TASK_BEGIN,009,-1.5574479619111314,0.49749841692635605,6.296218840060348,-1.6058552072705903,-0.6595324200876387,0.9558289537725956,-9.963253760750929,3.195711468699035,3
108,2024-09-18 21:36:29.527909888,TASK_BEGIN,009,-1.5231975879597375,0.4953297437704111,6.121490499183963,-1.5961463996252645,-0.6067927524657887,0.9588488271664971,-9.833116286671617,3.1859890130943467,3
109,2024-09-18 21:36:29.595662080,TASK_BEGIN,009,-1.4901597970028897,0.49302670585928954,5.939504358280506,-1.5792626080013592,-0.5475313096247919,0.9596521480625634,-9.73011195357256,3.1823475927028197,3
110,2024-09-18 21:36:29.663060736,TASK_BEGIN,009,-1.4587828241367453,0.49042741765076064,5.753054577936461,-1.5566056835926558,-0.48259829672888094,0.9578606241756525,-9.654745483775237,3.1855603052681984,3
111,2024-09-18 21:36:29.727555840,TASK_BEGIN,009,-1.4298322062321076,0.48744909590338104,5.5639732719981625,-1.5296906487057793,-0.41338759824563526,0.9532938876201441,-9.604676460769614,3.1956266521943086,3
112,2024-09-18 21:36:30.673700864,TASK_BEGIN,009,-1.404407814831946,0.48411323704179676,5.3740635078650545,-1.5001100938340273,-0.3417440144849315,0.9460151294506719,-9.575667396375641,3.211769698379628,3
113,2024-09-18 21:36:30.729106944,TASK_BEGIN,009,-1.3838710380899106,0.48055799908623464,5.1860038355325,-1.469544130691243,-0.26982668957039485,0.936352333080629,-9.562576694829207,3.232492131663959,3
114,2024-09-18 21:36:30.807186944,TASK_BEGIN,009,-1.3697043573346648,0.47702616062291064,5.003661379038512,-1.4397575955364748,-0.19997840339484635,0.9248910009923469,-9.560310034260718,3.2557292446953396,3
115,2024-09-18 21:36:30.869220096,TASK_BEGIN,009,-1.363341406411307,0.4738273388371589,4.831725301011411,-1.4125356666600493,-0.13461777885638593,0.9124276419411327,-9.564835549172733,3.27912350045183,3
116,2024-09-18 21:36:30.931715072,TASK_BEGIN,009,-1.365988207637059,0.47128645662858865,4.675015351817382,-1.3895520986755763,-0.07613239098982022,0.899883399386753,-9.574063810301054,3.3003415291826523,3
117,2024-09-18 21:36:31.013636864,TASK_BEGIN,009,-1.3784448645689715,0.4696958928789678,4.537849914270537,-1.3721815583840635,-0.02675177431847933,0.8881988473869558,-9.588151484437955,3.317309211208614,3
118,2024-09-18 21:36:31.081593088,TASK_BEGIN,009,-1.400943579387822,0.4692823405583645,4.423656560767308,-1.36128454786717,0.011585660863243492,0.8782396585122187,-9.608980790697371,3.328330382905451,3
119,2024-09-18 21:36:31.996879872,TASK_BEGIN,009,-1.4330336058477566,0.4701891367691586,4.334831809532069,-1.3570372485206248,0.03735058549366649,0.8707280465177497,-9.638928930432456,3.3321454357142275,3
120,2024-09-18 21:36:32.067532032,TASK_BEGIN,009,-1.473555637149946,0.4724687618535769,4.2727211679152095,-1.3588762065453388,0.04952988390499947,0.866195708689429,-9.67933101554823,3.327965908270022,3
121,2024-09-18 21:36:32.135265024,TASK_BEGIN,009,-1.5207329260877505,0.47607929736540716,4.237606969178991,-1.3655656350784262,0.047719083741095236,0.8649538862004993,-9.72922095102519,3.3154670428192174,3
122,2024-09-18 21:36:32.197027840,TASK_BEGIN,009,-1.5723639451364868,0.48088493878914246,4.228785871612192,-1.3753713362792368,0.03216635757871454,0.8670860952931536,-9.784873125615812,3.2947295153630303,3
123,2024-09-18 21:36:32.259748096,TASK_BEGIN,009,-1.6260653661994686,0.48666917551794037,4.244852759459189,-1.3863433288299165,0.0037574298136482482,0.8724652702372673,-9.840259920794319,3.2661561208944674,3
124,2024-09-18 21:36:32.335930112,TASK_BEGIN,009,-1.679509076381691,0.4931643784087362,4.284081863794466,-1.396680525745432,-0.03602844544999205,0.8807844997533016,-9.888100558953656,3.230397066597021,3
125,2024-09-18 21:36:32.406338816,TASK_BEGIN,009,-1.730620614280122,0.5000872365948511,4.344675956368616,-1.4050961244982547,-0.08518376187116357,0.8915900176941458,-9.921152292514439,3.188316603716929,3
126,2024-09-18 21:36:33.349165056,TASK_BEGIN,009,-1.7777260590359265,0.5071676240849665,4.4248243226284085,-1.4110997384815898,-0.14128703919422853,0.9043162502441786,-9.933570172544993,3.1410095657901547,3
127,2024-09-18 21:36:33.416960000,TASK_BEGIN,009,-1.8196309005904705,0.5141688294024902,4.522695974548806,-1.4151299049777524,-0.2016656286990184,0.9183276123503494,-9.922058783045745,3.089825908123841,3
128,2024-09-18 21:36:33.480300032,TASK_BEGIN,009,-1.8556191686649923,0.5209000827945546,4.636430233833803,-1.41847191531389,-0.2635711622851541,0.9329653887793474,-9.88641127374377,3.0363590995441077,3
129,2024-09-18 21:36:33.552529920,TASK_BEGIN,009,-1.8853940357559407,0.5272167698019237,4.7640653535407935,-1.4229506597522992,-0.32434884655090396,0.9475940660886852,-9.829300647542025,2.9824052388307227,3
130,2024-09-18 21:36:33.617038080,TASK_BEGIN,009,-1.9090077930483906,0.5330072360397793,4.903431923083016,-1.430498068832823,-0.3815967085171385,0.9616434005293228,-9.755578293246373,2.929922278966715,3
131,2024-09-18 21:36:33.679190016,TASK_BEGIN,009,-1.926807541373932,0.538176300632728,5.052122336024007,-1.4427312407029766,-0.4332856031973911,0.9746395930783888,-9.671403889541029,2.880987684992051,3
132,2024-09-18 21:36:33.740897024,TASK_BEGIN,009,-1.9393739606610658,0.5426355474073631,5.207520225715947,-1.4606091856815366,-0.4778068696573739,0.9862158183996543,-9.583366186519862,2.837717080747081,3
133,2024-09-18 21:36:34.670369024,TASK_BEGIN,009,-1.947424735671185,0.5463018615936625,5.366741232198921,-1.4841810124068486,-0.5139674890897408,0.9961030382097528,-9.497705470225343,2.8021249889051094,3
134,2024-09-18 21:36:34.741839872,TASK_BEGIN,009,-1.95170230279537,0.5491040967122814,5.52639747503968,-1.5124594855113531,-0.5409874186497746,1.0041165394493476,-9.419801727879337,2.775963592884789,3
135,2024-09-18 21:36:34.810528000,TASK_BEGIN,009,-1.9528965001808485,0.5509988307384969,5.682286531010445,-1.5434776256490368,-0.5585109367707332,1.0101496191964046,-9.35397704054901,2.7605781837204653,3
136,2024-09-18 21:36:34.878305792,TASK_BEGIN,009,-1.9516217166577168,0.5519892768844127,5.829214732022028,-1.574532039859864,-0.5665931211955967,1.014170059064219,-9.303495932913835,2.756782705330825,3
137,2024-09-18 21:36:34.945489920,TASK_BEGIN,009,-1.9484182560299121,0.5521358949307165,5.961090778555875,-1.6025399307894528,-0.5656452200290312,1.0162135435689708,-9.270674712792651,2.764767693251105,3
138,2024-09-18 21:36:35.005805824,TASK_BEGIN,009,-1.943743011421462,0.5515561537468546,6.071290129643156,-1.624428385615951,-0.5563697782024352,1.0163772374769529,-9.257020953265155,2.7840593528414974,3
139,2024-09-18 21:36:35.067804160,TASK_BEGIN,009,-1.937952194227267,0.5504220798440328,6.153186244282245,-1.6374911763447455,-0.5397074057474184,1.014813339550272,-9.263252306294456,2.813506426340032,3
140,2024-09-18 21:36:36.024871168,TASK_BEGIN,009,-1.9313053222592385,0.5489591963428521,6.200684038157639,-1.6396462689046876,-0.5167881968172595,1.011715952607462,-9.28920039869261,2.8512664930202383,3
141,2024-09-18 21:36:36.082021888,TASK_BEGIN,009,-1.9240027822415129,0.5474376339973104,6.208629002099535,-1.6295678760747372,-0.4888893218323844,1.0073045269121945,-9.33383170449134,2.8948143464188902,3
142,2024-09-18 21:36:36.159642880,TASK_BEGIN,009,-1.9162317420467847,0.5461461013068396,6.173061608281687,-1.606726301573689,-0.45739965301906393,1.0018132187571915,-9.395496017509222,2.941017618579314,3
143,2024-09-18 21:36:36.221685760,TASK_BEGIN,009,-1.9081885939115457,0.545352525887434,6.091378266808878,-1.5713602140367577,-0.42376073015356835,0.9954810593542284,-9.472223832626444,2.9863045858677446,3
144,2024-09-18 21:36:36.296127232,TASK_BEGIN,009,-1.9000786434906367,0.5452641506372151,5.962569381886948,-1.5243876337089821,-0.3893662570248869,0.9885325079762259,-9.561844590921787,3.0269263281591074,3
145,2024-09-18 21:36:36.363947008,TASK_BEGIN,009,-1.8921113333188035,0.5459960117091072,5.787667602811277,-1.4672861354475735,-0.35546094197915123,0.9811567675114699,-9.661894741870016,3.0592909935798276,3
146,2024-09-18 21:36:36.431749888,TASK_BEGIN,009,-1.8844786612968503,0.5475475231252979,5.570202102085812,-1.4019486947845223,-0.3230848117701935,0.9735032611897605,-9.76950097396727,3.080317317886885,3
147,2024-09-18 21:36:37.367179008,TASK_BEGIN,009,-1.8772795794177457,0.5497814799671942,5.316216583090613,-1.3304690547037556,-0.29305013078433373,0.965692596121196,-9.881472460703142,3.08774486393181,3
148,2024-09-18 21:36:37.429977088,TASK_BEGIN,009,-1.8703961128353626,0.5524049674475502,5.033690773819472,-1.2548627068724938,-0.2659185690197321,0.957828406948251,-9.99466269944313,3.0803634464331306,3
149,2024-09-18 21:36:37.507616000,TASK_BEGIN,009,-1.8633926522124566,0.5549665318803646,4.731661989609632,-1.1768324936170096,-0.24199026127084985,0.9500043324632721,-10.10645736616885,3.058150387642057,3
150,2024-09-18 21:36:37.577440000,TASK_BEGIN,009,-1.8555151244588652,0.5568889669360828,4.41945093907163,-1.0976846276026337,-0.22132701470403582,0.9423090326755887,-10.215207205207376,3.0222878879663564,3
151,2024-09-18 21:36:37.643838976,TASK_BEGIN,009,-1.845810135738831,0.5575369733996989,4.106194884045939,-1.0184062138615178,-0.2037922059808447,0.9348281764382405,-10.320476760257788,2.9750133898878097,3
152,2024-09-18 21:36:37.705840128,TASK_BEGIN,009,-1.8333172639919,0.5562947842423008,3.800683172613385,-0.9398508051927166,-0.1890805762807992,0.9276386273817555,-10.423023309415766,2.9193220244029874,3
153,2024-09-18 21:36:37.767370240,TASK_BEGIN,009,-1.817257825429653,0.5526313147745218,3.511413230793717,-0.8629742357740003,-0.1767424876615769,0.9207924678749079,-10.52444051180258,2.8586266536694205,3
154,2024-09-18 21:36:38.724256000,TASK_BEGIN,009,-1.7971660739994113,0.5461503651812712,3.2467673378930835,-0.7890641881172502,-0.1662260245185495,0.9142945204276506,-10.626422929054918,2.7964502419572206,3
155,2024-09-18 21:36:38.786156032,TASK_BEGIN,009,-1.7729548432697444,0.5366306072544621,3.0151387243715493,-0.7198896496047421,-0.15693526499800764,0.9080806282986172,-10.729799584865217,2.7361466578288174,3
156,2024-09-18 21:36:38.848642048,TASK_BEGIN,009,-1.7449392927403382,0.5240529687318455,2.82476263196959,-0.6576868378431244,-0.14825713078197736,0.9020000859011551,-10.83377075573557,2.6806548706146596,3
157,2024-09-18 21:36:38.925837056,TASK_BEGIN,009,-1.7138389703395132,0.5086079048218297,2.6831066080764123,-0.604938651206122,-0.13951884685927576,0.8958043965130219,-10.935769344598784,2.6323436750759757,3
158,2024-09-18 21:36:38.992790016,TASK_BEGIN,009,-1.6807510775739674,0.49067714242534416,2.5960010081199822,-0.5640125676811575,-0.12991791626775567,0.8891535163952634,-11.031992663253229,2.592998276903168,3
159,2024-09-18 21:36:39.063278848,TASK_BEGIN,009,-1.6470740951647096,0.47079285195712095,2.5669580365670868,-0.5368101714287526,-0.1185147588435628,0.8816538979560363,-11.118261163221318,2.5639341809473195,3
160,2024-09-18 21:36:39.128236032,TASK_BEGIN,009,-1.6143699993274425,0.44958519299760846,2.596971327726516,-0.5245443024091043,-0.10433123855309193,0.872926525929184,-11.190786904917694,2.546161835801142,3
161,2024-09-18 21:36:40.074151168,TASK_BEGIN,009,-1.5841710979901198,0.4277271043932085,2.684713287584831,-0.5276617179239484,-0.08651481280393622,0.8626824219268036,-11.24664945040491,2.540501926981002,3
162,2024-09-18 21:36:40.136704768,TASK_BEGIN,009,-1.5577629362750613,0.4058777535857599,2.8269113694164076,-0.5458833112973905,-0.0644920728975384,0.8507804440886495,-11.283978685440394,2.547567492287252,3
163,2024-09-18 21:36:40.199191808,TASK_BEGIN,009,-1.5359943445859658,0.3846246274992476,3.018743679934061,-0.5783231723103747,-0.03807115906306858,0.8372574598877288,-11.301937404575929,2.5676072593711714,3
164,2024-09-18 21:36:40.277298944,TASK_BEGIN,009,-1.5191593329532271,0.3644290975935757,3.2541431482790237,-0.623638505570464,-0.007497360834414459,0.8223324199907712,-11.30060886838151,2.600300807338749,3
165,2024-09-18 21:36:40.339356928,TASK_BEGIN,009,-1.506966867931303,0.34558417788576523,3.5259400969733408,-0.6801606323822983,0.0265440983804075,0.8063845788334739,-11.280769610936469,2.6446057713370505,3
166,2024-09-18 21:36:40.401366016,TASK_BEGIN,009,-1.4985858266822758,0.32819217668234113,3.825805270275941,-0.7459670344259007,0.06299505557650847,0.7899088383262164,-11.243468501219143,2.698699988982204,3
167,2024-09-18 21:36:40.481131008,TASK_BEGIN,009,-1.4927518213560103,0.31216715941925405,4.144046339960351,-0.8189060196475729,0.10053561265514235,0.7734618172305103,-11.189534594957784,2.760022399050978,3
168,2024-09-18 21:36:41.424238080,TASK_BEGIN,009,-1.4879355029927344,0.29726406065923827,4.4694876195444975,-0.8966554780280631,0.13769040736380841,0.7576115391749005,-11.119305812723995,2.825399716236005,3
169,2024-09-18 21:36:41.486092032,TASK_BEGIN,009,-1.4825512250019346,0.28312981074602417,4.789700351462528,-0.9768848299581059,0.17291271584297427,0.7428919166429715,-11.032709002631576,2.8912343988829687,3
170,2024-09-18 21:36:41.559833088,TASK_BEGIN,009,-1.475154490786467,0.2693659492604319,5.091638176844914,-1.0574851720553204,0.2046507477827783,0.7297598844536981,-10.929530434431978,2.953731305763622,3
171,2024-09-18 21:36:41.627613952,TASK_BEGIN,009,-1.464590941835164,0.2555931367542411,5.362470449399325,-1.1367484357061783,0.23140055817711355,0.7185580632202563,-10.809645243360185,3.0091575787419895,3
172,2024-09-18 21:36:41.695358976,TASK_BEGIN,009,-1.4500919126600047,0.24151023259123788,5.590297580473282,-1.2133959877269944,0.25176286979038026,0.7094877240791301,-10.673073043033236,3.054128768130289,3
173,2024-09-18 21:36:41.763165952,TASK_BEGIN,009,-1.4313142597906476,0.22693639345079933,5.764546608721429,-1.2864513125599968,0.2645292401684581,0.7025957864026718,-10.519827876242436,3.0858762076045214,3
174,2024-09-18 21:36:41.824976896,TASK_BEGIN,009,-1.4083129583335958,0.21182280932639647,5.8761419640542485,-1.355033493613463,0.26880888378939155,0.6977770665780634,-10.349745094817518,3.1024388983194493,3
175,2024-09-18 21:36:42.738665984,TASK_BEGIN,009,-1.3814551981364838,0.19623576624240213,5.917745707818194,-1.4181738751173671,0.26418017851122316,0.6947884246490752,-10.162631265550347,3.1027634874819685,3
176,2024-09-18 21:36:42.815963136,TASK_BEGIN,009,-1.3513255847969698,0.18033121050383025,5.884216532720649,-1.4747394949370911,0.25082029141615275,0.6932703586059975,-9.958821011943822,3.086718202377545,3
177,2024-09-18 21:36:42.877517824,TASK_BEGIN,009,-1.3186743756456436,0.16433551901283605,5.773196346552156,-1.523493097574908,0.2295605406721425,0.6927749354283161,-9.739823217364185,3.055007549994053,3
178,2024-09-18 21:36:42.940008960,TASK_BEGIN,009,-1.2844085198336337,0.14852910029441388,5.585691663860964,-1.5632446702266956,0.20184172862894617,0.6928000949038152,-9.50875351319074,3.008985565616309,3
179,2024-09-18 21:36:43.020610048,TASK_BEGIN,009,-1.2495798681359187,0.1332272890800232,5.3265556651855555,-1.593023053977838,0.16957188869594253,0.6928275496240635,-9.270537160330262,2.9504394948841615,3
180,2024-09-18 21:36:43.088419840,TASK_BEGIN,009,-1.2153304490267718,0.11875906683803902,5.0047769006474745,-1.6122401187772928,0.13491258851153282,0.6923592634656331,-9.031925145348971,2.8814527067561473,3
181,2024-09-18 21:36:43.142216960,TASK_BEGIN,009,-1.1828000886436338,0.10544454020818933,4.63346765951372,-1.6208353125813468,0.10004758692769739,0.6909487263914369,-8.801211631847726,2.8043676085611065,3
182,2024-09-18 21:36:44.087619072,TASK_BEGIN,009,-1.153043805304444,0.09357358670882979,4.22944609847181,-1.6193566566042665,0.06700163408112705,0.6882242586768977,-8.587516512917983,2.7217564073754326,3
183,2024-09-18 21:36:44.164820736,TASK_BEGIN,009,-1.1269865659982152,0.08338793238828149,3.812367055521082,-1.6089495173059505,0.03755520081796544,0.6839003047544693,-8.399656978299417,2.636317075184955,3
184,2024-09-18 21:36:44.234946048,TASK_BEGIN,009,-1.105376983382722,0.07506302149633201,3.4033942664494012,-1.5912656220033916,0.013243094386488517,0.6777759774438307,-8.244809966210726,2.55070685660274,3
185,2024-09-18 21:36:44.288873984,TASK_BEGIN,009,-1.08870148369772,0.06869044458270525,3.023439019895468,-1.5682958094410324,-0.004632103226254354,0.6697304768088966,-8.127225202185137,2.4673616642140326,3
186,2024-09-18 21:36:44.370516224,TASK_BEGIN,009,-1.0771082773578609,0.06427790011126416,2.691248117958618,-1.5421130563343706,-0.0150417805827787,0.6597312559405569,-8.04723774131128,2.3883192443393804,3
187,2024-09-18 21:36:44.427697920,TASK_BEGIN,009,-1.0704259546813082,0.061780966569953875,2.4218721176790776,-1.5145447668234169,-0.017334010243241424,0.6478607318572486,-8.000901195822355,2.3150689792715875,3
188,2024-09-18 21:36:44.504337920,TASK_BEGIN,009,-1.0682805400237407,0.061151769059733636,2.2258278881920526,-1.4868560577298526,-0.011340063565380082,0.6343460185450572,-7.980528972627786,2.2484855942564383,3
189,2024-09-18 21:36:45.420211968,TASK_BEGIN,009,-1.0702362692137213,0.06237164188467622,2.1088722999637137,-1.4595706502733496,0.002569982125646712,0.6195669019434485,-7.976058523318378,2.188885606366875,3
190,2024-09-18 21:36:45.482696960,TASK_BEGIN,009,-1.0758915794126325,0.0654490446145158,2.0722251807728655,-1.432522418798127,0.02349607728441834,0.6040321486124992,-7.976741875203771,2.136172250949501,3
191,2024-09-18 21:36:45.559575296,TASK_BEGIN,009,-1.0849037165405553,0.07038908731230023,2.113168801425746,-1.4051130560348684,0.050079415270448166,0.5883332469979564,-7.972595856064893,2.089977078059569,3
192,2024-09-18 21:36:45.622073856,TASK_BEGIN,009,-1.0969476923529156,0.07715494334355749,2.225886949090317,-1.3766542702781828,0.08063288361792796,0.5730875880697259,-7.955297244737673,2.0497365103276812,3
193,2024-09-18 21:36:45.683574016,TASK_BEGIN,009,-1.1116446308010461,0.08564029828396569,2.4022832925144044,-1.3466703477030093,0.11329594955174727,0.5588803783591045,-7.9185281306595074,2.01473217443217,3
194,2024-09-18 21:36:45.762774016,TASK_BEGIN,009,-1.1285099237121745,0.09566014091257817,2.632610103904321,-1.3150949371360179,0.14615469561559746,0.5462179170058719,-7.857922296298312,1.984143545519044,3
195,2024-09-18 21:36:45.823329792,TASK_BEGIN,009,-1.1469399708712715,0.10695212424183437,2.9060019733492326,-1.2823672228732592,0.177310534018954,0.5355012315007108,-7.7707685451330155,1.9571035636222132,3
196,2024-09-18 21:36:46.767239936,TASK_BEGIN,009,-1.1662111289169543,0.11917546684048201,3.211080063023923,-1.2494637569225513,0.20494412642884702,0.5270141706633393,-7.655708234612878,1.9327457636253498,3
197,2024-09-18 21:36:46.841689088,TASK_BEGIN,009,-1.1854779019928725,0.1319069534531736,3.5365810278068883,-1.2178654850053643,0.2274165815229067,0.5209140387280554,-7.512742333225682,1.9102856323944035,3
198,2024-09-18 21:36:46.910199040,TASK_BEGIN,009,-1.2037977643319273,0.1446488261171267,3.8717893180022562,-1.1894264817241968,0.2433890989912551,0.5172227345320229,-7.343680788173207,1.8891672913998268,3
199,2024-09-18 21:36:46.977989120,TASK_BEGIN,009,-1.2202059888995218,0.15686237334725,4.206592491174881,-1.166135486736729,0.2519110114941536,0.5158261113946098,-7.152787462086223,1.8692215504208327,3
200,2024-09-18 21:36:47.045806848,TASK_BEGIN,009,-1.233839469282511,0.16802728460876273,4.531212670714691,-1.149816847932484,0.2524611124260436,0.5164874520597502,-6.947113112421429,1.8507412088362594,3
201,2024-09-18 21:36:47.112986112,TASK_BEGIN,009,-1.2440911473024712,0.177710511956751,4.836006501998143,-1.1418759718808058,0.2449659405396891,0.5188719949632395,-6.736053027283146,1.8344348169207,3
202,2024-09-18 21:36:47.181512192,TASK_BEGIN,009,-1.250745926183285,0.18561808975442642,5.111795269646792,-1.14319892621679,0.229795196138936,0.5225759361504094,-6.530012661007494,1.821283819308451,3
203,2024-09-18 21:36:48.124577024,TASK_BEGIN,009,-1.2540347652107777,0.1916113137369341,5.350747985082763,-1.1542191851302768,0.20769366184960394,0.5271577610396796,-6.338578267812871,1.8123408894640993,3
204,2024-09-18 21:36:48.185523968,TASK_BEGIN,009,-1.254583931609329,0.19569022346983847,5.547381250265977,-1.175048649936772,0.17963785003644805,0.5321706955530707,-6.168926138379564,1.8085129502411312,3
205,2024-09-18 21:36:48.247950080,TASK_BEGIN,009,-1.253287922318931,0.19796063492893748,5.6992002260483785,-1.2055442508021026,0.14667323611564864,0.5371918328778129,-6.025076318780855,1.8103866507891528,3
206,2024-09-18 21:36:48.326596864,TASK_BEGIN,009,-1.251145111228161,0.19859871398194412,5.8066793921142645,-1.245250711982381,0.1097970808236644,0.5418458037907823,-5.908152869961887,1.8181413796473602,3
207,2024-09-18 21:36:48.395366912,TASK_BEGIN,009,-1.249072750008163,0.1978178533102327,5.872555085123321,-1.293267004970289,0.06990913946419075,0.5458233582109384,-5.817385118552353,1.831557782497605,3
208,2024-09-18 21:36:48.463577856,TASK_BEGIN,009,-1.2477110426816709,0.19583625362675328,5.900781941296973,-1.3481465163831738,0.027821807243054143,0.5488917685421126,-5.751313669976147,1.8500929666539194,3
209,2024-09-18 21:36:48.531377152,TASK_BEGIN,009,-1.2472704939179011,0.19284829228769665,5.895640164359931,-1.4079073787862566,-0.015701826826126593,0.5508962041864911,-5.708613154621301,1.8729647519575183,3
210,2024-09-18 21:36:49.462221056,TASK_BEGIN,009,-1.2475165854216421,0.18901217167181816,5.861243986375726,-1.4701558672845172,-0.05992620943363942,0.5517579193498848,-5.688217432701881,1.8991961283999184,3
211,2024-09-18 21:36:49.542509056,TASK_BEGIN,009,-1.2479314116029252,0.18446241769883526,5.801442748397051,-1.532292122860519,-0.1041447464073414,0.5514693597234496,-5.68892676452173,1.9276264818794957,3
212,2024-09-18 21:36:49.610326272,TASK_BEGIN,009,-1.2479830124616373,0.17933819959464176,5.719996143742308,-1.5917584856223104,-0.14767554940148447,0.5500789306598843,-5.708954153052076,1.9569180372622887,3
213,2024-09-18 21:36:49.678106880,TASK_BEGIN,009,-1.2473831293426032,0.17380732671721874,5.6208589178728925,-1.6462719586299048,-0.18985971572228397,0.5476702629115768,-5.745687720075574,1.9855483676706864,3
214,2024-09-18 21:36:49.745905920,TASK_BEGIN,009,-1.2462436128797467,0.16807268445436385,5.508387737096205,-1.6939846239697163,-0.2301068289709724,0.5443543141944814,-5.795643166874138,2.011782350090848,3
215,2024-09-18 21:36:49.813709056,TASK_BEGIN,009,-1.2451011095958648,0.16236351097692248,5.387312665723938,-1.7335533133027894,-0.26798455556160694,0.5402813172581322,-5.854544248840987,2.0336769744028014,3
216,2024-09-18 21:36:49.880402176,TASK_BEGIN,009,-1.244831526752032,0.15692227790484742,5.262493980018963,-1.7641454328231334,-0.3032912956758882,0.5356593901031976,-5.917613050987283,2.0491885583905622,3
217,2024-09-18 21:36:50.820287744,TASK_BEGIN,009,-1.2464990535466134,0.1519919722660665,5.138728218912126,-1.7854339951083769,-0.3360629740261828,0.5307636128039813,-5.980154688214097,2.0563969790507572,3
218,2024-09-18 21:36:50.882329856,TASK_BEGIN,009,-1.2511834180558934,0.1477984274874631,5.020817568702514,-1.7976085253972038,-0.3665040566640967,0.5259282066498062,-6.038305238005297,2.053791739469968,3
219,2024-09-18 21:36:50.960424704,TASK_BEGIN,009,-1.2598263590144139,0.14452413459713967,4.913746510042964,-1.8013756155919018,-0.3948636394587721,0.5215229524974841,-6.089637053581747,2.040521349782007,3
220,2024-09-18 21:36:51.028217088,TASK_BEGIN,009,-1.2731226259971877,0.14227964502158225,4.822561711944402,-1.7979109071558648,-0.42131715078297677,0.5179232451687611,-6.13336820439646,2.016517381273472,3
221,2024-09-18 21:36:51.083194112,TASK_BEGIN,009,-1.2914357218397323,0.14107938431947012,4.751720897994146,-1.7887434430854516,-0.44592770817504596,0.5154863846991229,-6.170097326011839,1.9824696634378514,3
222,2024-09-18 21:36:51.163819008,TASK_BEGIN,009,-1.3146972310495695,0.14082294429050868,4.704105838978928,-1.7755673109645527,-0.4687014170092755,0.5145386396462681,-6.201201990384661,1.9397026617039492,3
223,2024-09-18 21:36:51.222811904,TASK_BEGIN,009,-1.34229328629057,0.14128363167523614,4.680179684349915,-1.7600064519922567,-0.4896732400334017,0.515367095736671,-6.228228811744565,1.8900295791217179,3
224,2024-09-18 21:36:52.174813952,TASK_BEGIN,009,-1.3729959506159413,0.1421103871625719,4.677687797172923,-1.7434144099884157,-0.5089519289822125,0.5182091063619233,-6.252603343919981,1.8356346656046858,3
225,2024-09-18 21:36:52.236594944,TASK_BEGIN,009,-1.4050046743582323,0.14284995168807835,4.691987515438271,-1.7267919976925419,-0.5266960494770877,0.5232370237707729,-6.275835516006348,1.7790030171990163,3
226,2024-09-18 21:36:52.299116032,TASK_BEGIN,009,-1.4361316495480607,0.14299295506624288,4.7168143392203055,-1.7108078921126244,-0.5430264679699094,0.530538706658461,-6.300165953810021,1.7228903202175514,3
227,2024-09-18 21:36:52.376795136,TASK_BEGIN,009,-1.4641088004597491,0.14203861446306124,4.745222532335879,-1.6958320613625326,-0.5579118111123117,0.5400965851433492,-6.32925209893243,1.670274094499054,3
228,2024-09-18 21:36:52.438844928,TASK_BEGIN,009,-1.4869305329982407,0.13956049242715812,4.7705071283640414,-1.6819450627109531,-0.5711030053326079,0.5517731385939644,-6.368339520506982,1.6242202235235963,3
229,2024-09-18 21:36:52.500504832,TASK_BEGIN,009,-1.5031257385315742,0.13525306188687142,4.786933972842336,-1.6689691892417393,-0.5821872352375408,0.5653130263292591,-6.423695134090709,1.587683597155432,3
230,2024-09-18 21:36:52.568974080,TASK_BEGIN,009,-1.5119032250778446,0.1289533629430531,4.7901043085852395,-1.6565518263957442,-0.5907554763408929,0.5803650139583141,-6.5014715327609265,1.5633035427289115,3
231,2024-09-18 21:36:53.525067264,TASK_BEGIN,009,-1.5131834837944005,0.12064973304142446,4.77693711005135,-1.644264859718964,-0.5966016302604255,0.5965170517458357,-6.606286164835499,1.5532005729151368,3
232,2024-09-18 21:36:53.584136960,TASK_BEGIN,009,-1.5075543396121143,0.11048889697486075,4.745472927155608,-1.631681763028792,-0.5998701651641132,0.6133374884546492,-6.73995239908672,1.5587877871871965,3
233,2024-09-18 21:36:53.646625024,TASK_BEGIN,009,-1.496180751183799,0.09877787448967967,4.694707861531902,-1.618436911856032,-0.6011240735482751,0.6304203475032715,-6.900947442420215,1.5806818631135873,3
234,2024-09-18 21:36:53.723841024,TASK_BEGIN,009,-1.4806934462567216,0.08597092350541702,4.624511213171299,-1.604280271424188,-0.6013453497874341,0.6474305813113037,-7.084897963773849,1.6187758456955286,3
235,2024-09-18 21:36:53.785873152,TASK_BEGIN,009,-1.4630730386538169,0.07263959155712807,4.535628099033643,-1.5891213256683323,-0.6018755556507499,0.6641369685888434,-7.285796352017116,1.6724294088540042,3
236,2024-09-18 21:36:53.864724224,TASK_BEGIN,009,-1.4455254376722275,0.059432881135484776,4.429775737131194,-1.573035159792595,-0.6042872360265787,0.6804194269849282,-7.497353695708032,1.7406560647374711,3
237,2024-09-18 21:36:53.925385984,TASK_BEGIN,009,-1.430332743380932,0.047034995586117595,4.309783877479021,-1.556200969090794,-0.610191064995072,0.6962512754177195,-7.713976227069453,1.8221903246106008,3
238,2024-09-18 21:36:54.843821056,TASK_BEGIN,009,-1.4196842620074963,0.03612282579067513,4.179721000227097,-1.538795217032917,-0.6210109068098641,0.711669806292298,-7.931158652196953,1.9154191513718963,3
239,2024-09-18 21:36:54.904876032,TASK_BEGIN,009,-1.4155123241199743,0.027321645433830245,4.044992725941346,-1.5209236073152794,-0.6377697599933726,0.7267453416675682,-8.145391378439518,2.0182895941294157,3
240,2024-09-18 21:36:54.982983936,TASK_BEGIN,009,-1.4193386465110953,0.02115814680934433,3.9123265518208754,-1.5026525059342914,-0.6609372622231091,0.7415511569725335,-8.353830083066232,2.1283144049879135,3
241,2024-09-18 21:36:55.045622016,TASK_BEGIN,009,-1.432122282255173,0.018014399510914825,3.78945978623697,-1.4841086184839032,-0.6903804937425829,0.7561361378768537,-8.553980272350614,2.242686136923147,3
242,2024-09-18 21:36:55.107681280,TASK_BEGIN,009,-1.4541359228937119,0.01809174327741588,3.6844368114478305,-1.4655574822140591,-0.7254204106286167,0.7705041334083448,-8.743563364926725,2.358430002956979,3
243,2024-09-18 21:36:55.188184064,TASK_BEGIN,009,-1.4849255499771177,0.021394851475645557,3.604573384279686,-1.4473785427002106,-0.7649674547008167,0.7846056276811698,-8.920620636673625,2.4725552388332317,3
244,2024-09-18 21:36:55.247613952,TASK_BEGIN,009,-1.523371568261325,0.02774126180705125,3.555194619414648,-1.4299043419597002,-0.8077074841729345,0.7983499587757281,-9.08380662009099,2.5822044392428403,3
245,2024-09-18 21:36:56.172846848,TASK_BEGIN,009,-1.5678169812955713,0.036793374496285974,3.538422488276218,-1.4131961290702622,-0.8523060802209104,0.8116434739307751,-9.232706380923354,2.6847693111622335,3
246,2024-09-18 21:36:56.229549824,TASK_BEGIN,009,-1.6162263012436797,0.04810441326411592,3.5525895788369874,-1.3969307154576924,-0.8975797082147714,0.8244410841355747,-9.36793594193951,2.777935578349672,3
247,2024-09-18 21:36:56.307656960,TASK_BEGIN,009,-1.6663796537795903,0.06117133947260934,3.5927013136893877,-1.3805146013050296,-0.9425677215235877,0.8367796500225203,-9.490869745791008,2.8596935978956073,3
248,2024-09-18 21:36:56.370142208,TASK_BEGIN,009,-1.7161324788615462,0.07549181933134415,3.651692853026155,-1.3633433557252186,-0.986480274957843,0.848771407541248,-9.60308093282949,2.928380424781396,3
249,2024-09-18 21:36:56.431686912,TASK_BEGIN,009,-1.7637339605298077,0.09062236325409022,3.7218086422966943,-1.3450174678184634,-1.0285841741696167,0.8605663963344808,-9.70578658753072,2.982766565275838,3
250,2024-09-18 21:36:56.510848000,TASK_BEGIN,009,-1.8081125588588134,0.1062283214123744,3.795566700206061,-1.3253924673268942,-1.068126400442771,0.8723067203490462,-9.799545222491249,3.022166872494714,3
251,2024-09-18 21:36:56.565285888,TASK_BEGIN,009,-1.8489909685231207,0.12210742737983968,3.866117230612669,-1.3044771219793962,-1.1043427303246331,0.8840891028654152,-9.884176995917642,3.046542903104386,3
252,2024-09-18 21:36:57.519139072,TASK_BEGIN,009,-1.886754458712727,0.13817147256921655,3.9272069662167453,-1.2823051369870706,-1.136532386949951,0.8959486859107233,-9.958696244509172,3.056536656616632,3
253,2024-09-18 21:36:57.580684800,TASK_BEGIN,009,-1.9221283277543721,0.15439243019752322,3.973230441301295,-1.2589149734494642,-1.16416157094663,0.9078730761667069,-10.0211875509745,3.0533863432936172,3
254,2024-09-18 21:36:57.658422784,TASK_BEGIN,009,-1.9558088489657555,0.17073853962690203,3.9997081076600827,-1.2344777083151877,-1.1869645894705914,0.9198388363700483,-10.068781779590902,3.038747978779127,3
255,2024-09-18 21:36:57.720497920,TASK_BEGIN,009,-1.9881757502725854,0.18712222502361622,4.0041390013447264,-1.2095204275973512,-1.2050126261488248,0.9318480032277343,-10.09791314804008,3.014509819074819,3
256,2024-09-18 21:36:57.794131200,TASK_BEGIN,009,-2.019144743142848,0.20336810700588578,3.9869214250885343,-1.1851473804524237,-1.2187244156456143,0.9439448084348149,-10.10488203344648,2.982661262520468,3
257,2024-09-18 21:36:57.861931264,TASK_BEGIN,009,-2.048169335358001,0.21920467999258966,3.9520033823907594,-1.1631437512960934,-1.228810525952802,0.9562040780220336,-10.086538213703681,2.945196628153242,3
258,2024-09-18 21:36:57.929743104,TASK_BEGIN,009,-2.074370019582321,0.2342814691549355,3.906964924071302,-1.1458779181686327,-1.2361709895454465,0.9686927922935263,-10.040834298053614,2.904021955600851,3
259,2024-09-18 21:36:58.859976960,TASK_BEGIN,009,-2.0967301460754277,0.24820456159943383,3.8622914307834693,-1.135995060895214,-1.2417752845356687,0.9814138380904539,-9.967146471428455,2.8608863934722293,3
260,2024-09-18 21:36:58.938176000,TASK_BEGIN,009,-2.11428514089292,0.26057843191906954,3.829785823517486,-1.1359636539441595,-1.2465300762422629,0.9942486954726069,-9.866373142639418,2.8173490855420593,3
261,2024-09-18 21:36:59.000666880,TASK_BEGIN,009,-2.1262712163601813,0.27104879022010386,3.8204500285647334,-1.1475760733478257,-1.25112947437364,1.0069237507892959,-9.740774435202365,2.774735241396665,3
262,2024-09-18 21:36:59.062740992,TASK_BEGIN,009,-2.1322338459358083,0.2793438050854882,3.842481255114325,-1.1715231007699363,-1.2559101319463748,1.019021496472465,-9.593485492747796,2.7340535101514782,3
263,2024-09-18 21:36:59.140654080,TASK_BEGIN,009,-2.1320877468719175,0.28530511180871004,3.8999011427837558,-1.2071396000667445,-1.2607597423225838,1.0300367876427987,-9.427816132444775,2.6959148676689813,3
264,2024-09-18 21:36:59.212068096,TASK_BEGIN,009,-2.1261138801071953,0.28890219129123534,3.991918816014729,-1.2523685440620147,-1.2651214689141466,1.0394571666032484,-9.246717017980256,2.6605026289236657,3
265,2024-09-18 21:36:59.264331008,TASK_BEGIN,009,-2.114896677092779,0.2902316720071491,4.112941110580034,-1.3039598249637268,-1.2681030656296313,1.0468421513925477,-9.052735760951252,2.6276039329589254,3
266,2024-09-18 21:37:00.223096064,TASK_BEGIN,009,-2.0992230618751715,0.2895046463572412,4.25316839015917,-1.3578744174747688,-1.2686593016128096,1.0518838062015576,-8.848404230788821,2.5967032209620204,3
267,2024-09-18 21:37:00.290891776,TASK_BEGIN,009,-2.079978823073377,0.28702698240823415,4.399611265443361,-1.4097792068785304,-1.2657964518830285,1.0544381776745098,-8.636773354195158,2.567140043767056,3
268,2024-09-18 21:37:00.358028800,TASK_BEGIN,009,-2.0580790872838883,0.2831808493728589,4.537272757750525,-1.4554959748947849,-1.2587507124279804,1.0545232968599487,-8.421870970600365,2.538289044146209,3
269,2024-09-18 21:37:00.426350080,TASK_BEGIN,009,-2.034447215076868,0.2784100361375779,4.650423575825844,-1.491355621719336,-1.2471034362053373,1.0522873398002233,-8.208971472553774,2.5096850654853915,3
270,2024-09-18 21:37:00.494236160,TASK_BEGIN,009,-2.010030898903027,0.27320424514230834,4.724103520359299,-1.5144900206726002,-1.2308126866613371,1.0479567260958103,-8.004624041049228,2.4810628210255743,3
271,2024-09-18 21:37:00.562021888,TASK_BEGIN,009,-1.9858262656226238,0.26807691842509446,4.745834127289326,-1.5230829292083956,-1.2101636321407092,1.041774625717945,-7.81640454497863,2.4523543131857988,3
272,2024-09-18 21:37:00.629806848,TASK_BEGIN,009,-1.9628696013170095,0.2635294758848113,4.707160249239704,-1.5165445483242062,-1.1856675390065718,1.0339418321267881,-7.6524185307513335,2.4237056700551847,3
273,2024-09-18 21:37:01.573201920,TASK_BEGIN,009,-1.9421745508103592,0.25999619939992996,4.604514424851051,-1.4955484895832178,-1.1579638649641055,1.024577474150598,-7.520658041892289,2.395525736340656,3
274,2024-09-18 21:37:01.639549184,TASK_BEGIN,009,-1.9246372384875097,0.257781208453134,4.439174838739649,-1.4619037600674396,-1.127766672961429,1.0137125279657462,-7.428254149923091,2.368512604330731,3
275,2024-09-18 21:37:01.701115904,TASK_BEGIN,009,-1.9109482996442724,0.25701432640227956,4.2164895361567325,-1.4182953384202563,-1.0958329245983145,1.0013082709303442,-7.380587614533138,2.3435985928068033,3
276,2024-09-18 21:37:01.763602176,TASK_BEGIN,009,-1.9015201379120343,0.2576408812628262,3.9447598588934514,-1.3679541579533683,-1.0628948098371718,0.9872758969596441,-7.380346912144007,2.3218189034535563,3
277,2024-09-18 21:37:01.840992000,TASK_BEGIN,009,-1.8964190444187525,0.2594381713025287,3.6341722693477383,-1.3143095853115874,-1.029542502454096,0.9714806453215877,-7.426845084446806,2.304164829835892,3
278,2024-09-18 21:37:01.912135936,TASK_BEGIN,009,-1.8953149931393356,0.2620471158942056,3.2960451350615583,-1.2606806953840033,-0.9961004762475526,0.9537339681695894,-7.515893100313267,2.291465145648551,3
279,2024-09-18 21:37:01.979897856,TASK_BEGIN,009,-1.8974776272960765,0.2650159845084418,2.9424501983501608,-1.2100671062047852,-0.9625577451622506,0.9337918865951379,-7.640190353213726,2.284292757687001,3
280,2024-09-18 21:37:02.923243264,TASK_BEGIN,009,-1.9018301733034555,0.2678536248908816,2.5860663837446194,-1.1650693330818453,-0.9285996444596721,0.9113782924385765,-7.789922723115019,2.2829054055870475,3
281,2024-09-18 21:37:02.990411008,TASK_BEGIN,009,-1.9070495351086576,0.2700810556826612,2.240085557647667,-1.127920983832681,-0.8937436392511805,0.8862381442837596,-7.953365846429777,2.287261496757871,3
282,2024-09-18 21:37:03.058831104,TASK_BEGIN,009,-1.911687737404007,0.2712693152386695,1.9180307385954787,-1.1005808674115938,-0.8575263613508561,0.8582069462550829,-8.117513675282611,2.297107275508149,3
283,2024-09-18 21:37:03.122389248,TASK_BEGIN,009,-1.9142934332345567,0.27106308605695995,1.6333178351081596,-1.0848115563888354,-0.819666033376427,0.8272727777801792,-8.268794200548664,2.3120591796080934,3
284,2024-09-18 21:37:03.194336000,TASK_BEGIN,009,-1.9135272000604284,0.26919636375820677,1.398463199212093,-1.0821788945750634,-0.7801361059925345,0.7936091983530847,-8.393865538241075,2.3316147178467554,3
285,2024-09-18 21:37:03.261731072,TASK_BEGIN,009,-1.9082677870209748,0.2655014283874989,1.2241123315492717,-1.0939574129853906,-0.7391261563090099,0.7575702385257971,-8.480469412579554,2.3551074637325273,3
286,2024-09-18 21:37:03.329411072,TASK_BEGIN,009,-1.8976953810566282,0.2599114386479246,1.1181628096443617,-1.120963154817169,-0.696915283955416,0.7196557366796766,-8.518365667531045,2.381689084852678,3
287,2024-09-18 21:37:04.266344960,TASK_BEGIN,009,-1.8813394101593355,0.25246293167126305,1.0849988760784477,-1.1633331170682921,-0.653708998433886,0.680465030316697,-8.500317424009966,2.410400028274288,3
288,2024-09-18 21:37:04.328847872,TASK_BEGIN,009,-1.8590975741315134,0.24330061236054254,1.1247839175165326,-1.2203060850612795,-0.6095041272220243,0.6406558891807613,-8.422941355340486,2.4402935691155045,3
289,2024-09-18 21:37:04.409769984,TASK_BEGIN,009,-1.8312389308179922,0.23267387504984488,1.2330872099699095,-1.2901173120820049,-0.5640427477596837,0.6009143381537801,-8.287217942830095,2.470517815340213,3
290,2024-09-18 21:37:04.477721856,TASK_BEGIN,009,-1.7983906384468449,0.22091348074964215,1.401186475040927,-1.3700625385568275,-0.5168603180484035,0.5619252419274803,-8.09854384412586,2.500301659050226,3
291,2024-09-18 21:37:04.545552896,TASK_BEGIN,009,-1.7614971478733616,0.2083905635782571,1.6169743136073846,-1.456661305382127,-0.4673764727101938,0.5243308476375028,-7.86622755308151,2.528870346438208,3
292,2024-09-18 21:37:04.610788096,TASK_BEGIN,009,-1.7217285210576938,0.19546824838753127,1.8661402870743846,-1.5458477260683143,-0.4149945949377547,0.48868029886115,-7.6024065755451025,2.555357824054375,3
293,2024-09-18 21:37:04.668706048,TASK_BEGIN,009,-1.68031493814917,0.18245319941680718,2.133411124440225,-1.6332134065268968,-0.35921431127221204,0.45538643706980114,-7.320598377335107,2.57876967132325,3
294,2024-09-18 21:37:05.590548992,TASK_BEGIN,009,-1.6383420210544373,0.16955816491463288,2.4037783986748638,-1.7143483364555856,-0.2997405797033881,0.4247022506784801,-7.034289268715321,2.5980117323686365,3
295,2024-09-18 21:37:05.653035008,TASK_BEGIN,009,-1.596609344436833,0.15689534418229906,2.663707928242135,-1.7852594632153724,-0.23655077639971817,0.3967203512444172,-6.75584118265765,2.611960673005828,3
296,2024-09-18 21:37:05.730793984,TASK_BEGIN,009,-1.5556278313001561,0.144508993367876,2.9023138639411847,-1.842795242654504,-0.16992166739998074,0.3713964263483411,-6.4955487650831385,2.619504568990002,3
297,2024-09-18 21:37:05.793760000,TASK_BEGIN,009,-1.5157334688608188,0.1324284607681668,3.112350240611809,-1.8849834850064173,-0.10045064148257453,0.3485937854616528,-6.260503884854844,2.6194854387804347,3
298,2024-09-18 21:37:05.856247808,TASK_BEGIN,009,-1.477234355298649,0.12071212971410061,3.290741202494218,-1.9111796919432942,-0.029076792475160845,0.32813857696310206,-6.053492233116094,2.6106024210680676,3
299,2024-09-18 21:37:05.933486848,TASK_BEGIN,009,-1.4405145239013306,0.10946563004903308,3.4384575254255627,-1.9219808066881943,0.04291714305652406,0.3098738717585789,-5.872730922849111,2.591441417154295,3
300,2024-09-18 21:37:05.995044864,TASK_BEGIN,009,-1.406058309276327,0.09883625793705861,3.5598028640284167,-1.9189715270860406,0.11392981004039258,0.293702865721748,-5.712920514837904,2.5607069658510264,3
301,2024-09-18 21:37:06.911163136,TASK_BEGIN,009,-1.374407618157598,0.08899556709143946,3.661276179806238,-1.9044060114564156,0.18209113975090402,0.279611523649696,-5.567174760744656,2.5175451418291783,3
302,2024-09-18 21:37:06.992545792,TASK_BEGIN,009,-1.3460904264220626,0.0801185863017126,3.7500932851747493,-1.880878150207102,0.24532587011771453,0.26766751376547493,-5.428895325488922,2.4617871308521413,3
303,2024-09-18 21:37:07.051352064,TASK_BEGIN,009,-1.3215559418452154,0.07236229163366444,3.8325432303144913,-1.8510127193897679,0.30141517780691535,0.25800367247915884,-5.292924666089827,2.394045864904133,3
304,2024-09-18 21:37:07.113486080,TASK_BEGIN,009,-1.3011511833895992,0.06585064533531217,3.912634895694084,-1.8172252995318305,0.3480706047408535,0.250794977282315,-5.155909495287211,2.315707777644655,3
305,2024-09-18 21:37:07.191108864,TASK_BEGIN,009,-1.2851669606937235,0.06067591019240533,3.9914691254501986,-1.7815767791276003,0.38305630246274336,0.24623046769081522,-5.016198060483659,2.2288833815182234,3
306,2024-09-18 21:37:07.263777024,TASK_BEGIN,009,-1.2739367966206163,0.056913455221578216,4.067366197472443,-1.7457015941813674,0.4043646436141903,0.24448200645315413,-4.873645581825692,2.1363512204771857,3
307,2024-09-18 21:37:07.330291968,TASK_BEGIN,009,-1.267924215726614,0.05463514000531521,4.136447314224165,-1.710779090797089,0.4104193726635798,0.24567661913985533,-4.729494070715991,2.041466890235203,3
308,2024-09-18 21:37:08.265886976,TASK_BEGIN,009,-1.2677373825908869,0.05390929291781134,4.193337353618862,-1.677532992852114,0.4002903071420143,0.2498738811595144,-4.586206937100386,1.9479595297899124,3
309,2024-09-18 21:37:08.328375040,TASK_BEGIN,009,-1.2740554800356656,0.05478735501727683,4.231804544382529,-1.6462435159856452,0.3739028985098526,0.2570440361168399,-4.447131262494131,1.8596136144537132,3
310,2024-09-18 21:37:08.406493952,TASK_BEGIN,009,-1.2874940319064956,0.05728697565599178,4.245342300013338,-1.616755844818625,0.3321869366535398,0.26704982276455813,-4.316067983066051,1.7799431403824624,3
311,2024-09-18 21:37:08.476622080,TASK_BEGIN,009,-1.3084580722254444,0.06138191561016423,4.227782283990107,-1.5884939350056393,0.27709884263822937,0.2796396176929758,-4.1968218276034515,1.7119305442148194,3
312,2024-09-18 21:37:08.546108928,TASK_BEGIN,009,-1.3370362625533752,0.06700207845990001,4.173987783057996,-1.560517127334573,0.21150410883107157,0.29445417413554037,-4.092688342025788,1.6578239026208317,3
313,2024-09-18 21:37:08.602270976,TASK_BEGIN,009,-1.3729724813820712,0.07404214174825506,4.080626961147512,-1.5316512962588293,0.13894394431265805,0.3110515570356666,-4.005972294649637,1.6190039650229209,3
314,2024-09-18 21:37:08.679915008,TASK_BEGIN,009,-1.4157096418096111,0.08237727870565509,3.9469117884163905,-1.5006789540198728,0.06330007663429667,0.3289573905281327,-3.9378499614330194,1.5959647852289223,3
315,2024-09-18 21:37:09.618752000,TASK_BEGIN,009,-1.4644592591912249,0.09188091468653488,3.775045792691878,-1.4665400180229964,-0.011620371000595663,0.3477300493775315,-3.888815876215735,1.5884287751679984,3
316,2024-09-18 21:37:09.681238784,TASK_BEGIN,009,-1.5182520182678452,0.10243451431620279,3.570204366216069,-1.4285252467590133,-0.0825112090238402,0.3670109263540576,-3.8595813249482256,1.595578860895877,3
317,2024-09-18 21:37:09.760574976,TASK_BEGIN,009,-1.5759628423945091,0.11392502832299355,3.340091487087741,-1.3864617285241434,-0.1469059426547625,0.38653695688138745,-3.8519317011854137,1.6163462974779121,3
318,2024-09-18 21:37:09.820877056,TASK_BEGIN,009,-1.6363265057501142,0.12623662425640375,3.0942064717687625,-1.3408337335893934,-0.20335674987618121,0.406118259070536,-3.8689950781092795,1.6496307747050836,3
319,2024-09-18 21:37:09.896134912,TASK_BEGIN,009,-1.6979596809529904,0.13924614627132723,2.842944816968908,-1.2927494095823913,-0.2514496070264029,0.42560245213060344,-3.9146644025268165,1.694315456798593,3
320,2024-09-18 21:37:09.960592128,TASK_BEGIN,009,-1.7594107595140693,0.15282768435257843,2.5966719628118717,-1.2437380172046397,-0.29170501597006293,0.444850268085594,-3.992354569922707,1.749055545770242,3
321,2024-09-18 21:37:10.022592000,TASK_BEGIN,009,-1.819246426845038,0.1668630649002703,2.364937470721494,-1.1954752445518722,-0.32541245642990385,0.46373579980528806,-4.103622249395111,1.811993867469522,3
322,2024-09-18 21:37:10.974248704,TASK_BEGIN,009,-1.8761385108118345,0.18124484316157455,2.1559655377226132,-1.1495675696286243,-0.35442607289340866,0.4821639001925188,-4.24725520715099,1.8806140471411164,3
323,2024-09-18 21:37:11.042033920,TASK_BEGIN,009,-1.9289043361847238,0.1958638396283842,1.9764298445427133,-1.1074473644097524,-0.380953581241041,0.5000838821778908,-4.4191166860202475,1.9518250637617784,3
324,2024-09-18 21:37:11.106315008,TASK_BEGIN,009,-1.9765084862552744,0.21059369275581943,1.8313622889043342,-1.0703194170722026,-0.4073674184766283,0.5174847923061149,-4.612498576281712,2.0222093366683214,3
325,2024-09-18 21:37:11.165412096,TASK_BEGIN,009,-2.018069739480314,0.2252885228066147,1.7240117614084045,-1.0390829039149727,-0.43603433379967377,0.5343749322110133,-4.818500035160102,2.088307044022906,3
326,2024-09-18 21:37:11.244087040,TASK_BEGIN,009,-2.0528861292872507,0.2397901497365067,1.6556243821709598,-1.0142433152360895,-0.4691463106625979,0.5507603175589125,-5.026182993767534,2.146848000460798,3
327,2024-09-18 21:37:11.305346816,TASK_BEGIN,009,-2.0804521450312072,0.25393021911337843,1.6252579335936554,-0.9958839575304804,-0.508558606773427,0.5666327698638348,-5.222655983162866,2.1948832632372155,3
328,2024-09-18 21:37:11.367383040,TASK_BEGIN,009,-2.100442841582664,0.26752246690741377,1.6297101787547383,-0.9837123486086948,-0.5556467059461092,0.5819646120002342,-5.393423878162278,2.229807499532895,3
329,2024-09-18 21:37:12.324038144,TASK_BEGIN,009,-2.1126697878567917,0.28035187453428023,1.663586120104234,-0.9771326714423824,-0.611165183315954,0.5966996318403343,-5.5232465408050375,2.2493559309113547,3
330,2024-09-18 21:37:12.389915904,TASK_BEGIN,009,-2.1170470985688326,0.29216880793219135,1.7195460840231593,-0.975300982703052,-0.6750928255578464,0.6107359991470447,-5.597581149866381,2.251720788244075,3
331,2024-09-18 21:37:12.452400896,TASK_BEGIN,009,-2.1136075729854746,0.30269134241404055,1.7887733757496727,-0.9771662479839721,-0.7465065851012118,0.6239090753404708,-5.604485017248109,2.2358330289713813,3
332,2024-09-18 21:37:12.527479040,TASK_BEGIN,009,-2.1025662624607238,0.31161346518245836,1.8616938048276321,-0.981542277402427,-0.8235600096825973,0.6359869867779473,-5.5366014608108545,2.201690830508591,3
333,2024-09-18 21:37:12.583689984,TASK_BEGIN,009,-2.084389179343897,0.31861664941815176,1.9289582268469645,-0.987253841112641,-0.9036015668231354,0.6466843838576789,-5.392690548215194,2.150562508710642,3
334,2024-09-18 21:37:12.660969984,TASK_BEGIN,009,-2.0598334094632373,0.32338892104132927,1.9825657081032035,-0.9933389806676426,-0.9834101520841395,0.6556891050479453,-5.178244765417085,2.084968463162654,3
335,2024-09-18 21:37:12.722966784,TASK_BEGIN,009,-2.029950420226358,0.3256570326510759,2.0168679195798647,-0.9992267743334374,-1.0595050216525155,0.6626938381836629,-4.905106117351324,2.0084895452690277,3
336,2024-09-18 21:37:13.662308864,TASK_BEGIN,009,-1.9960455910007637,0.32522556151746257,2.0292304187555867,-1.0048133594212028,-1.1285015809027459,0.6674314161487177,-4.590435482017446,1.9255378541464427,3
337,2024-09-18 21:37:13.739100928,TASK_BEGIN,009,-1.959594286236793,0.322009102644484,2.0202960603869866,-1.0104256366768263,-1.187478981226124,0.6697141306720347,-4.255431702060468,1.841158298804934,3
338,2024-09-18 21:37:13.800656896,TASK_BEGIN,009,-1.922149748395509,0.3160532692084381,1.9939039883722267,-1.0167217130171717,-1.234286882935491,0.6694670043197019,-3.9239068196454094,1.7608111984830404,3
339,2024-09-18 21:37:13.877660928,TASK_BEGIN,009,-1.8852860664702367,0.30754900045141564,1.9566564191309783,-1.0245608137762126,-1.2677241291921912,0.6667421471572488,-3.620610067902308,1.6900652006308374,3
340,2024-09-18 21:37:13.939840000,TASK_BEGIN,009,-1.8505780370259883,0.2968392057398202,1.9170830928754177,-1.03482656206925,-1.2875831769526054,0.6617149796649776,-3.3691754772049833,1.6341679091795465,3
341,2024-09-18 21:37:14.002324224,TASK_BEGIN,009,-1.8195835756251775,0.2844080861512572,1.8844781340327588,-1.0481985199677788,-1.294577819213596,0.6546682422976338,-3.189701771636894,1.5975072753604744,3
342,2024-09-18 21:37:14.065588992,TASK_BEGIN,009,-1.7937927812109205,0.27084590234746664,1.867603278408983,-1.06491909785277,-1.2901539938550564,0.645959760684638,-3.096301868687719,1.5830587626031924,3
343,2024-09-18 21:37:15.020181760,TASK_BEGIN,009,-1.7745305489565186,0.2567962001445559,1.8734747357628254,-1.0846349372442567,-1.2762061268477516,0.6359715790823882,-3.09532896670622,1.5919897806434422,3
344,2024-09-18 21:37:15.082667008,TASK_BEGIN,009,-1.7628403148622447,0.242903009864969,1.9064357471613935,-1.1063831069788477,-1.2547774954887523,0.6250571413977294,-3.184926959386638,1.6235553064434263,3
345,2024-09-18 21:37:15.145152000,TASK_BEGIN,009,-1.7593992431891545,0.22977092019920603,1.9676254683550138,-1.1287332886996913,-1.2278356183203847,0.6135125974751082,-3.3559148586042173,1.6752717445401484,3
346,2024-09-18 21:37:15.227565056,TASK_BEGIN,009,-1.7644863736557368,0.21793972046797497,2.054844814422197,-1.150029429275047,-1.1971633167679074,0.6015843335706512,-3.593434931944219,1.7432552586637646,3
347,2024-09-18 21:37:15.285227008,TASK_BEGIN,009,-1.7779910536169028,0.20786983410317075,2.162787297711988,-1.1686545026222177,-1.1643437787595208,0.5895058636144864,-3.8788216219258755,1.8226281840712626,3
348,2024-09-18 21:37:15.362377984,TASK_BEGIN,009,-1.7994453337006118,0.19993504348563254,2.283535939041042,-1.1832473887996768,-1.1307924663704505,0.5775479291924148,-4.191434283874572,1.907937100146898,3
349,2024-09-18 21:37:15.430861056,TASK_BEGIN,009,-1.8280524271158611,0.19441854731371191,2.4071519357736437,-1.1928155641967395,-1.097802522636571,0.5660603116638864,-4.51029789934532,1.9935430466879833,3
350,2024-09-18 21:37:16.342012928,TASK_BEGIN,009,-1.8626810527218245,0.19150926780380825,2.5223137726654725,-1.1967405778187425,-1.066593796016874,0.5554861232598559,-4.815452036861671,2.0739721346788706,3
351,2024-09-18 21:37:16.416667904,TASK_BEGIN,009,-1.9018515085698646,0.19130214409824706,2.617155355194617,-1.194727760567192,-1.0383597547741765,0.5463480694740259,-5.089042051806823,2.1442379747705234,3
352,2024-09-18 21:37:16.482437888,TASK_BEGIN,009,-1.9437819984711815,0.19380943357031505,2.6803841233840044,-1.1867444573447539,-1.0142947917825262,0.5392223183225227,-5.3162881933344215,2.2001522197015104,3
353,2024-09-18 21:37:16.552407040,TASK_BEGIN,009,-1.9865162354963068,0.1989810805713716,2.702495024524807,-1.1729443240109836,-0.9955832389211586,0.5347077126098754,-5.486479705525294,2.2386363572730046,3
354,2024-09-18 21:37:16.620355072,TASK_BEGIN,009,-2.0280811411432764,0.20672095919555727,2.6767149828262777,-1.1535577629154246,-0.9833409338848796,0.5333839550097875,-5.593954807756915,2.2579957525527705,3
355,2024-09-18 21:37:16.688137984,TASK_BEGIN,009,-2.066615911019395,0.21688712179897285,2.5994766988915474,-1.128772325206375,-0.9785137847119387,0.5357589515525232,-5.638735411121129,2.258038245387318,3
356,2024-09-18 21:37:16.753718016,TASK_BEGIN,009,-2.1004625714831855,0.2292795813859454,2.4706027419288934,-1.0986795637410436,-0.9817688665187347,0.5422224840994475,-5.626461736738347,2.2399558758031133,3
357,2024-09-18 21:37:17.691257088,TASK_BEGIN,009,-2.1282461336543936,0.24363233461513228,2.293437929997731,-1.063350341406362,-0.9934336990838437,0.5530242886819464,-5.567530337761661,2.206029861656476,3
358,2024-09-18 21:37:17.753281024,TASK_BEGIN,009,-2.1489687632091754,0.25962212102592946,2.074897382298578,-1.023030332469697,-1.013502622594241,0.5682773288650237,-5.475611194056345,2.159285010347507,3
359,2024-09-18 21:37:17.830956032,TASK_BEGIN,009,-2.162120154583378,0.2768931537605581,1.8253245076538507,-0.9783862445751135,-1.0416724295446025,0.5879706899067411,-5.365896679738364,2.1031710315758745,3
360,2024-09-18 21:37:17.902875904,TASK_BEGIN,009,-2.1677731135614406,0.29508801174203253,1.558121016197262,-0.930713184272811,-1.0773611667824448,0.6119751879638332,-5.25339009689094,2.04127884763864,3
361,2024-09-18 21:37:17.970688000,TASK_BEGIN,009,-2.1666030128719878,0.31386982699059973,1.2889921297007916,-0.8820216414014753,-1.1197030651412887,0.6400348560713368,-5.151332939582607,1.9770730990981893,3
362,2024-09-18 21:37:18.038531072,TASK_BEGIN,009,-2.1597909940930458,0.3329219269937045,1.0346142765443778,-0.8349446403698155,-1.167547178488074,0.671747772015365,-5.0698880755414395,1.9136585250363187,3
363,2024-09-18 21:37:18.106315008,TASK_BEGIN,009,-2.1488255828507916,0.3519221916401297,0.8108406118923022,-0.7924647906233233,-1.219484397747698,0.7065462585927028,-5.015398459818206,1.8536320543099896,3
364,2024-09-18 21:37:19.047691264,TASK_BEGIN,009,-2.1352433598110463,0.3705047187719446,0.6308605343917453,-0.7575302877068777,-1.2739066569295496,0.7436898138301786,-4.9904296928983065,1.799031538686567,3
365,2024-09-18 21:37:19.109705728,TASK_BEGIN,009,-2.1203655168800473,0.3882309785201959,0.5037003899752394,-0.7326302618671964,-1.329093051671679,0.7822803548864626,-4.994400671541787,1.75134201646756,3
366,2024-09-18 21:37:19.171828992,TASK_BEGIN,009,-2.105113276305798,0.40458839322239953,0.4332727823027215,-0.7193818611684366,-1.3833056305378162,0.82129714993486,-5.024430501612107,1.711527893447502,3
367,2024-09-18 21:37:19.250009088,TASK_BEGIN,009,-2.0899535060816725,0.4190169495380317,0.41810648475872997,-0.7182258756332045,-1.434856529067377,0.8596392514821624,-5.076214831270188,1.6800805697902998,3
368,2024-09-18 21:37:19.320561152,TASK_BEGIN,009,-2.0749370956556628,0.430949338136488,0.4518455859732125,-0.7283430297984154,-1.4821199284620064,0.8961663023953793,-5.144940476231215,1.6570897983713582,3
369,2024-09-18 21:37:19.374593024,TASK_BEGIN,009,-2.0597651799972474,0.439851901945405,0.524431030061304,-0.7478078879063467,-1.5235089299041635,0.9297379189909405,-5.226202543838829,1.6423665770569083,3
370,2024-09-18 21:37:19.452255232,TASK_BEGIN,009,-2.043875070411051,0.4452658951989031,0.6236824097041213,-0.7738986821902636,-1.557454665363633,0.9592565192608984,-5.316674955481307,1.6356005796987343,3
371,2024-09-18 21:37:20.393378048,TASK_BEGIN,009,-2.0265690048854546,0.4468534578029485,0.7369862843609057,-0.8034819333105949,-1.582394154182777,0.9837149431827378,-5.414215827934495,1.6364547566830816,3
372,2024-09-18 21:37:20.465896960,TASK_BEGIN,009,-2.007170408032334,0.4444451112907712,0.8528954242007167,-0.833435189073559,-1.596755117236147,1.0022428207554934,-5.517422797146406,1.6445271606447702,3
373,2024-09-18 21:37:20.535090944,TASK_BEGIN,009,-1.985151590268218,0.4380747993833649,0.9624786477560988,-0.8610792887750162,-1.598959609960632,1.01414571075027,-5.6250540795143555,1.6592313407492343,3
374,2024-09-18 21:37:20.602546944,TASK_BEGIN,009,-1.9601889118884148,0.4279871055902384,1.0602720268496786,-0.8845731169446186,-1.5874999665530374,1.018939023349387,-5.735631945000686,1.6796986972573633,3
375,2024-09-18 21:37:20.655746048,TASK_BEGIN,009,-1.9321489984841096,0.4146121135593663,1.1447276533160566,-0.9032085772108213,-1.5610997941624098,1.0163777546905428,-5.847152096470208,1.7047457797640653,3
376,2024-09-18 21:37:20.738468096,TASK_BEGIN,009,-1.9010460596980645,0.39851574222803554,1.218082110615759,-0.917544737720378,-1.5189039216297042,1.00647166697009,-5.95675125072504,1.7328834608296488,3
377,2024-09-18 21:37:20.806219008,TASK_BEGIN,009,-1.8670119643973586,0.38033843246032556,1.2856005494247993,-0.9293443552163434,-1.4606411038101648,0.9894758223817417,-6.060435273328257,1.762355657852369,3
378,2024-09-18 21:37:21.724651008,TASK_BEGIN,009,-1.830296978187293,0.3607341754339224,1.3542546020926272,-0.9412939735016517,-1.3867512114889817,0.9658628978291213,-6.153117992554579,1.7912448561866317,3
379,2024-09-18 21:37:21.783386112,TASK_BEGIN,009,-1.7912995872362443,0.34031902854715074,1.4310656628559049,-0.9565109635522381,-1.2984725962128332,0.9362905848205133,-6.229075443872951,1.8176727830791446,3
380,2024-09-18 21:37:21.860312064,TASK_BEGIN,009,-1.7506238729227164,0.3196352498875219,1.521536644832799,-0.9779323165726501,-1.1978523523322246,0.9015649555842877,-6.282613412983035,1.840036545558379,3
381,2024-09-18 21:37:21.928088832,TASK_BEGIN,009,-1.709157348272563,0.29913256395315013,1.6285976403374713,-1.0077757662374474,-1.0876492953377173,0.8625943288638992,-6.308617251074721,1.8571620951099261,3
382,2024-09-18 21:37:21.984685056,TASK_BEGIN,009,-1.6681295757287389,0.2791604994446042,1.7522230857634111,-1.0472215094316404,-0.9711475444829569,0.8203385121751002,-6.302901759569783,1.8683299302229166,3
383,2024-09-18 21:37:22.063623168,TASK_BEGIN,009,-1.6290831028396,0.2599618730319523,1.8896417706363424,-1.096328791949124,-0.8519279146549417,0.7757657928812504,-6.262568223196067,1.8732461902402227,3
384,2024-09-18 21:37:22.123459072,TASK_BEGIN,009,-1.5937088135548263,0.24166456064929795,2.0360616262838134,-1.154127890087324,-0.7336329472181873,0.7298261122849631,-6.186437349188503,1.8720218359914442,3
385,2024-09-18 21:37:23.074626048,TASK_BEGIN,009,-1.5635736307450006,0.2242796035105184,2.1858356971046473,-1.2188238101162225,-0.6197331391746663,0.6834408535068607,-6.075246568055589,1.8651171652802123,3
386,2024-09-18 21:37:23.140808960,TASK_BEGIN,009,-1.539851391309438,0.20771743341036455,2.3337308935912535,-1.2880362590474803,-0.5133008486899503,0.637503797281872,-5.931315741878836,1.8532011334561826,3
387,2024-09-18 21:37:23.202865920,TASK_BEGIN,009,-1.5231729820318516,0.19182893132823395,2.4756498072351065,-1.358985342367711,-0.4168409389616637,0.5928914159925678,-5.7578439725964845,1.8369741204721022,3
388,2024-09-18 21:37:23.264465152,TASK_BEGIN,009,-1.5136196361282466,0.17646415669386675,2.6083342627402346,-1.4285714349192502,-0.33224139030158206,0.5504857672565712,-5.558262095432476,1.8170376130736698,3
389,2024-09-18 21:37:23.342116096,TASK_BEGIN,009,-1.510800240267198,0.16152568616753166,2.728256223587762,-1.4933771774263644,-0.260834222614428,0.5111992034439582,-5.335885107352013,1.793829842119038,3
390,2024-09-18 21:37:23.404316928,TASK_BEGIN,009,-1.5139534031691502,0.14699390839864404,2.8304413386156666,-1.5496719448445169,-0.20349388252426462,0.47597430447235267,-5.093878693972275,1.7676150957880414,3
391,2024-09-18 21:37:23.466345984,TASK_BEGIN,009,-1.5220401853750618,0.1329207940967374,2.9079454029434673,-1.593506006694266,-0.1607384427288955,0.4457481882866426,-4.835506344448873,1.7385533827934616,3
392,2024-09-18 21:37:24.418795264,TASK_BEGIN,009,-1.5338117364254042,0.11940615105499425,2.9523102926841434,-1.620956369546621,-0.13284430014398574,0.42139617166799576,-4.564621265133846,1.706874833644243,3
393,2024-09-18 21:37:24.491992832,TASK_BEGIN,009,-1.5478729495865162,0.10657369692613525,2.9548871112991493,-1.6285170905141026,-0.11995401136604618,0.40366870652966563,-4.286269816398447,1.6730928993835967,3
394,2024-09-18 21:37:24.558387968,TASK_BEGIN,009,-1.562776904002325,0.0945568727577845,2.9085418088199897,-1.6135398692098921,-0.122130175078345,0.3931235819417108,-4.007116346438909,1.6381204987862261,3
395,2024-09-18 21:37:24.628150016,TASK_BEGIN,009,-1.5771423950032082,0.08349285942143064,2.8091347627142382,-1.5746156505172575,-0.1393406350341407,0.3900597790598207,-3.7353736754164704,1.6032123086807772,3
396,2024-09-18 21:37:24.695656960,TASK_BEGIN,009,-1.589756798135615,0.07351638200049347,2.656403835695945,-1.5118504813847236,-0.1713912861694228,0.3944668186355099,-3.480134937014897,1.5697861673093867,3
397,2024-09-18 21:37:24.763777024,TASK_BEGIN,009,-1.5996494256031912,0.06474628937061852,2.4541628237545465,-1.4270164482033794,-0.21782386994756744,0.4059965386793167,-3.250262599061992,1.539220976721691,3
398,2024-09-18 21:37:24.831139072,TASK_BEGIN,009,-1.6061444540138516,0.05726441878678794,2.2098681863358345,-1.3235284847546447,-0.27780175603867074,0.42395706044546544,-3.0531025167462365,1.5126733472619964,3
399,2024-09-18 21:37:25.762562048,TASK_BEGIN,009,-1.6088936303504082,0.05109694139440615,1.9337941248265214,-1.2062110183324555,-0.3500171837625507,0.44733507878264905,-2.8933628499949062,1.4909307978016755,3
400,2024-09-18 21:37:25.842705152,TASK_BEGIN,009,-1.6078770731000855,0.046214829053390534,1.6381470313460322,-1.08088315381972,-0.43264076796287904,0.47485836289758293,-2.772589177141636,1.4743521864710336,3
401,2024-09-18 21:37:25.909920000,TASK_BEGIN,009,-1.6033753029464315,0.042558892879328424,1.33624337804054,-0.9538356632188802,-0.5233107213470212,0.5050988079723562,-2.6895066976857187,1.462942150197222,3
402,2024-09-18 21:37:25.964461056,TASK_BEGIN,009,-1.5959346552547942,0.04007554680057293,1.0417200891546265,-0.8312999874062712,-0.6191577291340401,0.5365953320003576,-2.6410156622727667,1.4565377347873172,3
403,2024-09-18 21:37:26.043055872,TASK_BEGIN,009,-1.5863362090862627,0.0387454061518591,0.7678020132889676,-0.7190159232356513,-0.716872848513723,0.5679654194091144,-2.623259856013884,1.4550148978197852,3
404,2024-09-18 21:37:26.113935104,TASK_BEGIN,009,-1.575556781638845,0.03859735824983023,0.5266267511293165,-0.6219473984474446,-0.8128194315651753,0.5979822318852369,-2.6323000634633558,1.4584173129203966,3
405,2024-09-18 21:37:26.180898816,TASK_BEGIN,009,-1.564712386594526,0.03970702672411938,0.32856427374659547,-0.5441163981946939,-0.9031799527045711,0.6256120077742859,-2.66432029472811,1.4669743295439017,3
406,2024-09-18 21:37:27.125045248,TASK_BEGIN,009,-1.5549830229525015,0.04217823818366529,0.18154001933038907,-0.48849933913378457,-0.9841469629013547,0.6500221900970082,-2.715567085328592,1.4810397648328315,3
407,2024-09-18 21:37:27.192749056,TASK_BEGIN,009,-1.5475128032827814,0.04610867447632332,0.09043621445456947,-0.4569544794391509,-1.052177133892695,0.670578278901751,-2.782264905613175,1.5009930177672177,3
408,2024-09-18 21:37:27.256221952,TASK_BEGIN,009,-1.5432776657249843,0.051545307354514076,0.05666512474975491,-0.45018783555284436,-1.104284941339796,0.6868430969008701,-2.8607126386527693,1.5271210543526157,3
409,2024-09-18 21:37:27.328861952,TASK_BEGIN,009,-1.5429369372622261,0.0584385000372685,0.07803379425725493,-0.4677863556756206,-1.1383141609880747,0.6985811356087009,-2.947645183887105,1.5594888613582607,3
410,2024-09-18 21:37:27.395689984,TASK_BEGIN,009,-1.5467193138651483,0.06660880574057083,0.1489777540818684,-0.5083263752483808,-1.153144314122006,0.7057647593710834,-3.040693705919222,1.5978104664399007,3
411,2024-09-18 21:37:27.464519168,TASK_BEGIN,009,-1.554394986254922,0.07574294927597168,0.2611834452417178,-0.5695338093349747,-1.148814358392576,0.7085773762106826,-3.1386492054584894,1.6413320056881444,3
412,2024-09-18 21:37:27.532304896,TASK_BEGIN,009,-1.5653461656937273,0.08542561634159353,0.4045676889830944,-0.648469299213658,-1.1265326852476114,0.7074045871367904,-3.241395454590745,1.688735549216433,3
413,2024-09-18 21:37:28.440409856,TASK_BEGIN,009,-1.5787069536850062,0.09519669960851708,0.5683903865263344,-0.7417099270522087,-1.0885458804564532,0.7028052333094422,-3.3496079053763155,1.738097482797598,3
414,2024-09-18 21:37:28.502486016,TASK_BEGIN,009,-1.593535520117772,0.1046162151369859,0.7421040934558072,-0.8454839475107109,-1.0379080460795804,0.695466278633441,-3.464428660292269,1.7869866567147787,3
415,2024-09-18 21:37:28.585571072,TASK_BEGIN,009,-1.6089993572360086,0.11332401465127791,0.9157593635902905,-0.9557478527027946,-0.9782513895990569,0.6861549909192642,-3.587340070656432,1.8327891419423559,3
416,2024-09-18 21:37:28.652845056,TASK_BEGIN,009,-1.624554715942796,0.12108505166302241,1.0802629281910259,-1.0682728080510981,-0.913609810748954,0.6756771765614419,-3.720358600178428,1.873236354588576,3
417,2024-09-18 21:37:28.721110016,TASK_BEGIN,009,-1.6400738221574958,0.1278089131130466,1.2279102523364909,-1.1788058029620627,-0.848252127807108,0.6648412419825107,-3.8664329613959163,1.9069664692054031,3
418,2024-09-18 21:37:28.787565056,TASK_BEGIN,009,-1.6558677811603544,0.13353722283190186,1.353141945921641,-1.2832762316632256,-0.7864691615064063,0.6544255951313244,-4.029694215527048,1.9339020008113934,3
419,2024-09-18 21:37:28.856754176,TASK_BEGIN,009,-1.6725957176945572,0.13840768228076952,1.452962599221523,-1.3779604460393116,-0.732307777501775,0.6451465785683306,-4.215237233320222,1.9553102566626295,3
420,2024-09-18 21:37:29.782152192,TASK_BEGIN,009,-1.6910990765820095,0.1426119784999994,1.5265111546216161,-1.459537763284422,-0.6892647859026239,0.63762274449322,-4.428448976464957,1.9735522583160892,3
421,2024-09-18 21:37:29.843806976,TASK_BEGIN,009,-1.7122139267023784,0.14635783942548614,1.5738158732897567,-1.5250372494830882,-0.6599625784228539,0.6323351765065275,-4.674153029328956,1.9916262713609492,3
422,2024-09-18 21:37:29.921915136,TASK_BEGIN,009,-1.7366025375208956,0.1498363575827463,1.594353806864943,-1.571759910514398,-0.6458611962252012,0.6295925942574178,-4.955757605603327,2.0126292682543916,3
423,2024-09-18 21:37:29.984888832,TASK_BEGIN,009,-1.7646247612963328,0.15319550064230975,1.5862669935818017,-1.5972937542383971,-0.6470855844286499,0.6295160564033978,-5.274465565859742,2.0392303072505302,3
424,2024-09-18 21:37:30.052453120,TASK_BEGIN,009,-1.7962485860748254,0.15652458049970705,1.5467063601108881,-1.5996729476492983,-0.6624365628514595,0.6320528989114175,-5.628634408911064,2.0732208409867225,3
425,2024-09-18 21:37:30.124795904,TASK_BEGIN,009,-1.830995418717132,0.1598524791486786,1.4730106996537036,-1.5776425442245705,-0.689605617235679,0.6370137184802419,-6.013312650498681,2.1151786651519453,3
426,2024-09-18 21:37:30.187858176,TASK_BEGIN,009,-1.8679300452659808,0.163154728889402,1.3640649335554798,-1.5309600364379474,-0.7255465723473475,0.6441180654638553,-6.419864919361372,2.164273339062501,3
427,2024-09-18 21:37:31.140635904,TASK_BEGIN,009,-1.9057172287183355,0.16636306142645388,1.2214506415154824,-1.4606753620363322,-0.766906452890602,0.6530402213356932,-6.835806140971036,2.2182643732192893,3
428,2024-09-18 21:37:31.216982016,TASK_BEGIN,009,-1.9427571926255225,0.16937848417672602,1.0502047261377263,-1.369323996496679,-0.8104024541879816,0.6634467829716889,-7.245232734948992,2.2737331627043944,3
429,2024-09-18 21:37:31.279514112,TASK_BEGIN,009,-1.9773694824346022,0.1720910376706127,0.8588658277861464,-1.2609418133862411,-0.8530772583912385,0.6750153603601506,-7.630037669062449,2.3265138080680883,3
430,2024-09-18 21:37:31.352494848,TASK_BEGIN,009,-2.0079544010741297,0.17440159299282398,0.6585709360983482,-1.140828080812541,-0.8924466221992349,0.6874355857386014,-7.971693141988974,2.372218295567249,3
431,2024-09-18 21:37:31.420232192,TASK_BEGIN,009,-2.0330855591311945,0.17623686636759914,0.4614675021682812,-1.0150756362334137,-0.9265822374981364,0.7004058507907135,-8.253223678246927,2.406737296549419,3
432,2024-09-18 21:37:31.480946944,TASK_BEGIN,009,-2.051554693331524,0.17755535412250276,0.2790907752074052,-0.889987971598757,-0.9541421540400629,0.7136341782900791,-8.460961697872188,2.4266259428215937,3
433,2024-09-18 21:37:31.555802880,TASK_BEGIN,009,-2.0624120671802344,0.17834869241527004,0.12122837720387047,-0.7715429942395853,-0.9743478586604086,0.7268406280482582,-8.585705863770842,2.429339144015363,3
434,2024-09-18 21:37:32.471170048,TASK_BEGIN,009,-2.065007660774667,0.17864096531679885,-0.004576668373672545,-0.6650383718863321,-0.9869288793715884,0.7397583146846772,-8.623100682989282,2.41333774008548,3
435,2024-09-18 21:37:32.540638976,TASK_BEGIN,009,-2.0590166621074713,0.17848608048203163,-0.09299445845700724,-0.5749523336660786,-0.9920581524247107,0.7521357904804739,-8.573278505310649,2.378101735367762,3
436,2024-09-18 21:37:32.608453120,TASK_BEGIN,009,-2.0444577012219782,0.17796637717251562,-0.1406204306220311,-0.5049072612378326,-0.9902715361078199,0.7637402245807624,-8.4399460609908,2.3240605461059904,3
437,2024-09-18 21:37:32.661427968,TASK_BEGIN,009,-2.0217200920257894,0.17719382355821067,-0.14576045388719064,-0.4575720300393075,-0.9823643686284415,0.7743555190052126,-8.229249082698121,2.252443068789173,3
438,2024-09-18 21:37:32.739097088,TASK_BEGIN,009,-1.991582189319148,0.17630867175319132,-0.10846379972772144,-0.4344451022272284,-0.9692988543553667,0.783778058199144,-7.948777389946949,2.1650806362389257,3
439,2024-09-18 21:37:32.801158912,TASK_BEGIN,009,-1.9551878073915137,0.17547107932780004,-0.030710027811243795,-0.4356023023721627,-0.9521597913852462,0.791821686898235,-7.606852363947765,2.0642052591607936,3
440,2024-09-18 21:37:32.879725056,TASK_BEGIN,009,-1.9139776975640745,0.1748470083952156,0.08352217986562324,-0.4595551528332882,-0.9321486031324707,0.798335925804928,-7.212059842303419,1.95226253913409,3
441,2024-09-18 21:37:33.807009024,TASK_BEGIN,009,-1.8696080742077266,0.17459443502166963,0.2285600560151091,-0.5033351067977961,-0.9105881957972105,0.8032327243005006,-6.773026971162334,1.8317529680182205,3
442,2024-09-18 21:37:33.884218880,TASK_BEGIN,009,-1.8238957453824924,0.1748576275982914,0.397782462455018,-0.5628197482795073,-0.8889301966190262,0.8065179280358217,-6.298433865818496,1.7051255358618518,3
443,2024-09-18 21:37:33.951243776,TASK_BEGIN,009,-1.7788078812648194,0.17577255733434033,0.5845865916208752,-0.6332054936919119,-0.8687423349793707,0.8083178442831745,-5.797172169737339,1.5747475684785528,3
444,2024-09-18 21:37:34.024774144,TASK_BEGIN,009,-1.7364778847942621,0.17747902584392414,0.7831052531902498,-0.7094825759957506,-0.8516318811966591,0.8088817209666395,-5.278660677589584,1.442974462443794,3
445,2024-09-18 21:37:34.087261952,TASK_BEGIN,009,-1.699193141165492,0.1801307615677727,0.9882273840679408,-0.7868015289908835,-0.8390964847998148,0.8085522580033356,-4.753408862257691,1.3123225671688996,3
446,2024-09-18 21:37:34.149412096,TASK_BEGIN,009,-1.6692892317557089,0.18389471606238142,1.1948817217272467,-0.860701077195185,-0.8323375249578416,0.8077176353135834,-4.233647532805712,1.1856744792337277,3
447,2024-09-18 21:37:34.227670016,TASK_BEGIN,009,-1.6489300246840257,0.18893702582060373,1.3970711737081924,-0.9272449048361571,-0.8320650780594395,0.8067578998909634,-3.73356293051196,1.0663903453323567,3
448,2024-09-18 21:37:35.168998912,TASK_BEGIN,009,-1.6398314475878304,0.19539980115484099,1.5873550194431978,-0.983142088622902,-0.838317241054875,0.805986740773361,-3.2688362655774843,0.9582468989660059,3
449,2024-09-18 21:37:35.240540160,TASK_BEGIN,009,-1.6430194162949934,0.203371782182499,1.7572066121461896,-1.0259037160236726,-0.8503458732513478,0.8055983219337814,-2.8555324910758637,0.8652075911702564,3
450,2024-09-18 21:37:35.308355072,TASK_BEGIN,009,-1.658677240282323,0.21285481135022297,1.898198628820634,-1.0540496224016562,-0.8666327825648154,0.8056452532026057,-2.508528456184902,0.7910533403825507,3
451,2024-09-18 21:37:35.376133120,TASK_BEGIN,009,-1.6860902271467841,0.2237339943931959,2.003606436742825,-1.0673271873085362,-0.8850550439886332,0.8060623050097813,-2.239756015461106,0.7389205061725342,3
452,2024-09-18 21:37:35.443667968,TASK_BEGIN,009,-1.7236737649350693,0.23576363888310298,2.0698744524886976,-1.0668505693492154,-0.9031566559918445,0.8067184170536579,-2.0566547573890155,0.7108370015545833,3
453,2024-09-18 21:37:35.507802112,TASK_BEGIN,009,-1.7690781827804851,0.2485784009974168,2.0975100491174934,-1.0550661101464567,-0.9184613492864574,0.807467311912372,-1.961214025024575,0.7073696031648538,3
454,2024-09-18 21:37:35.579449088,TASK_BEGIN,009,-1.8193848103461434,0.2617316133202944,2.0912412170948373,-1.03550967758225,-0.9287741990936418,0.8081839833652015,-1.949784590010837,0.7274810401299866,3
455,2024-09-18 21:37:36.518558976,TASK_BEGIN,009,-1.87140181973377,0.27475154254808754,2.059430434112417,-1.012391417744184,-0.9324394253579191,0.8087912072631384,-2.0136110583386864,0.7686574006923789,3
456,2024-09-18 21:37:36.591033856,TASK_BEGIN,009,-1.9220158377156558,0.28719833621817153,2.012832477955211,-0.9900825635090426,-0.9285463928419823,0.8092808238171111,-2.1399505220151434,0.8272888063193851,3
457,2024-09-18 21:37:36.658813952,TASK_BEGIN,009,-1.968507692039878,0.2987067928691779,1.9629877320475209,-0.9725968902818879,-0.9170907019672134,0.8097290920818558,-2.313668383961484,0.8992018607896363,3
458,2024-09-18 21:37:36.725831168,TASK_BEGIN,009,-2.0087502294622657,0.3090079294692911,1.9206762826399602,-0.9631696348795747,-0.8990636353076805,0.8103005276097209,-2.519095258635708,0.98021492662062,3
459,2024-09-18 21:37:36.793082112,TASK_BEGIN,009,-2.0412621685513126,0.3179298471766906,1.894735864765132,-0.9640056579957479,-0.8763994395830464,0.8112330047540595,-2.7417141102036204,1.0666095754876619,3
460,2024-09-18 21:37:36.861746944,TASK_BEGIN,009,-2.0651581772725915,0.3253857124901664,1.8912849428609493,-0.9761818382220967,-0.851752148761801,0.8128054278126929,-2.9693249714322048,1.1554463713288665,3
461,2024-09-18 21:37:36.916701952,TASK_BEGIN,009,-2.0800655556246506,0.3313586041809598,1.9132276309472198,-0.9996409523279458,-0.8281691584877816,0.815300862320667,-3.192706650857375,1.244687925509754,3
462,2024-09-18 21:37:37.867451904,TASK_BEGIN,009,-2.0860461069292273,0.33588594616699474,1.9599633882064245,-1.0332686653761602,-0.808746529454809,0.8189749582026636,-3.4059618151432978,1.333138946309053,3
463,2024-09-18 21:37:37.941155072,TASK_BEGIN,009,-2.0835233346804207,0.3390410588258526,2.027371408571186,-1.075092538936472,-0.7962990521314165,0.8240270185150227,-3.6065688175330455,1.4202756049252039,3
464,2024-09-18 21:37:38.008967168,TASK_BEGIN,009,-2.0732216307885087,0.3409128960610274,2.108190140634303,-1.1225844379780519,-0.793071188378804,0.8305735788794646,-3.79498602779748,1.5060479942294913,3
465,2024-09-18 21:37:38.076736000,TASK_BEGIN,009,-2.056128730505767,0.3415893579878904,2.192766424748907,-1.1729648046501184,-0.8005395908770503,0.8386369254556746,-3.9736594929490985,1.5906676475024746,3
466,2024-09-18 21:37:38.143853056,TASK_BEGIN,009,-2.0334598990754866,0.3411495158598741,2.2699275387634863,-1.2234164556607536,-0.819330746352694,0.8481560004066315,-4.145499393295504,1.6743432753936114,3
467,2024-09-18 21:37:38.212259072,TASK_BEGIN,009,-2.00658405016141,0.3396646900096117,2.3277181972223517,-1.2712028672917786,-0.8492362849533851,0.8590123463936431,-4.3122172503033855,1.7569849729321907,3
468,2024-09-18 21:37:38.273256192,TASK_BEGIN,009,-1.976905725021139,0.3372009383381576,2.3540186856676075,-1.3137503790524279,-0.8893038072598743,0.8710623732194885,-4.47307384035328,1.8379873088023266,3
469,2024-09-18 21:37:39.198612992,TASK_BEGIN,009,-1.9457461161834877,0.33381887635540686,2.3373143407766466,-1.348753549673025,-0.9379673799806418,0.8841669245117485,-4.6243925555363745,1.9161970596269189,3
470,2024-09-18 21:37:39.267443968,TASK_BEGIN,009,-1.914272891041486,0.3295785679417425,2.267788987202452,-1.3743250802751354,-0.9931638254496421,0.8982002776704079,-4.759874374310883,1.990061344580669,3
471,2024-09-18 21:37:39.319910912,TASK_BEGIN,009,-1.883487237318455,0.32455814864121474,2.1385366287340664,-1.3891571659398643,-1.0524165531874414,0.9130266412924479,-4.871620788459097,2.057860028705513,3
472,2024-09-18 21:37:39.403040768,TASK_BEGIN,009,-1.8542420025473954,0.31888206566121413,1.946449590355458,-1.3926228298267795,-1.1129192313162977,0.9284554356916949,-4.95168209793277,2.117924745390841,3
473,2024-09-18 21:37:39.465486080,TASK_BEGIN,009,-1.8272660755655283,0.31274405549057244,1.6924988470628664,-1.3847660260851085,-1.1716535541859099,0.9441988111234976,-4.9936740834197,2.168782969296203,3
474,2024-09-18 21:37:39.538600192,TASK_BEGIN,009,-1.8031857659835167,0.3064133815042654,1.381492290840939,-1.3661898908273347,-1.2255522301280224,0.9598487361693154,-4.993863342464066,2.2092048275743728,3
475,2024-09-18 21:37:39.592540160,TASK_BEGIN,009,-1.7825441146501018,0.30022621562145735,1.0216354484828862,-1.3379015930472418,-1.271696976488873,0.9748811375722016,-4.951436097411966,2.238186940871651,3
476,2024-09-18 21:37:40.549600000,TASK_BEGIN,009,-1.7658124036774518,0.2945703783769804,0.6241376491336917,-1.3011899015953134,-1.307516768308216,0.9886875006581853,-4.868146051098448,2.2549432238229117,3
477,2024-09-18 21:37:40.610897920,TASK_BEGIN,009,-1.753373381183962,0.28986369542968615,0.20284443741342897,-1.257589491208003,-1.3309441939178757,1.0006288378378587,-4.747738739073299,2.2589367999452725,3
478,2024-09-18 21:37:40.669841920,TASK_BEGIN,009,-1.7454686034658258,0.28651833171493984,-0.22626169418961362,-1.2089136615504252,-1.3405129845415018,1.0101011821431953,-4.595393745465662,2.249922436164467,3
479,2024-09-18 21:37:40.747058176,TASK_BEGIN,009,-1.7421361107779703,0.28488963726528316,-0.6458293281196609,-1.1572557816699043,-1.335409555635109,1.0165974429403217,-4.4171715074723785,2.227959046784104,3
480,2024-09-18 21:37:40.808602112,TASK_BEGIN,009,-1.743170819960114,0.28522077024540005,-1.0382794908127042,-1.1048587169740312,-1.3154996264752974,1.0197540661676365,-4.219396914212229,2.193392152155492,3
481,2024-09-18 21:37:40.888578816,TASK_BEGIN,009,-1.7481157157369727,0.28759940254050903,-1.3873092290210784,-1.053853584503516,-1.281341147562001,1.0193797387216643,-4.008043483840789,2.146828499649249,3
482,2024-09-18 21:37:40.955388928,TASK_BEGIN,009,-1.7562672782157898,0.29193722016924917,-1.6794898298473326,-1.0059782412562057,-1.234170393220193,1.0154649867063923,-3.7882741485183686,2.089121304417865,3
483,2024-09-18 21:37:41.899702016,TASK_BEGIN,009,-1.7666738402564424,0.29797082326856367,-1.9055596876906915,-0.96239769390356,-1.175826117383103,1.0081683686322827,-3.56427299462713,2.0213790781044048,3
484,2024-09-18 21:37:41.967572992,TASK_BEGIN,009,-1.7781332898639053,0.3052747540014177,-2.0611421382170496,-0.9236669766778011,-1.1085969371496058,0.9977807070496527,-3.339416124759238,1.9449895089938412,3
485,2024-09-18 21:37:42.034852096,TASK_BEGIN,009,-1.7892223013292836,0.3132832636151185,-2.146766027339789,-0.8897981519764475,-1.0350178452661547,0.9846789080396525,-3.1166968862498883,1.861623451495545,3
486,2024-09-18 21:37:42.100908032,TASK_BEGIN,009,-1.7983763744676085,0.3213267036769958,-2.1671296620151,-0.8603903581945133,-0.9576458686416011,0.96928131676778,-2.8992116821039473,1.7732067657397854,3
487,2024-09-18 21:37:42.163085824,TASK_BEGIN,009,-1.8040259795396039,0.32868614399349494,-2.129724202916895,-0.8348116723053565,-0.878842914658716,0.9520115876308498,-2.690500452519887,1.681898316085308,3
488,2024-09-18 21:37:42.238691072,TASK_BEGIN,009,-1.8047903046759566,0.3346610737633095,-2.0431877272326426,-0.8124105610949188,-0.8006166087546288,0.933277443263299,-2.4945665776871406,1.5900910963071144,3
489,2024-09-18 21:37:42.302485760,TASK_BEGIN,009,-1.7996933318122437,0.33864032230307706,-1.9158237029683534,-0.7927122348395707,-0.7245617433901098,0.9134674764378051,-2.3155276877190873,1.50038073154503,3
490,2024-09-18 21:37:43.221251840,TASK_BEGIN,009,-1.7883242165207065,0.34016296969994825,-1.7545465899525274,-0.7755627507545673,-0.6518964701651296,0.8929582631252948,-2.157134621521221,1.415459325807269,3
491,2024-09-18 21:37:43.292721920,TASK_BEGIN,009,-1.7708799459113993,0.33895236179715627,-1.5642649750616968,-0.7612018748439782,-0.5835510573265691,0.8721183833027193,-2.022480423633802,1.3379669782847718,3
492,2024-09-18 21:37:43.345915904,TASK_BEGIN,009,-1.7480925545411787,0.3349138666493278,-1.3475559426720685,-0.7502655024416331,-0.5202544126652824,0.8513021769697212,-1.9138570122034237,1.2703260895735211,3
493,2024-09-18 21:37:43.423096064,TASK_BEGIN,009,-1.7210890489834576,0.3281059418577297,-1.1045900661668666,-0.7437247124587169,-0.46257859515403515,0.8308331852584816,-1.8324037730420193,1.2145274504317747,3
494,2024-09-18 21:37:43.485934080,TASK_BEGIN,009,-1.691227609054596,0.3187028345202479,-0.8335005474065473,-0.7427560355379743,-0.4109394230606815,0.810979408068168,-1.7774265075554108,1.1718467959428147,3
495,2024-09-18 21:37:43.557694720,TASK_BEGIN,009,-1.6599309734864316,0.3069590078658271,-0.5314158119776027,-0.7485439335357054,-0.3655635894314856,0.7919261443503719,-1.7457392766428483,1.1425409459015057,3
496,2024-09-18 21:37:43.619749120,TASK_BEGIN,009,-1.6285256013139355,0.2931767544431266,-0.1961252092851567,-0.7620339707391043,-0.32642824597905806,0.773758789876374,-1.7315252685627565,1.1256420188559597,3
497,2024-09-18 21:37:44.574497024,TASK_BEGIN,009,-1.5980918239747748,0.2776769540074788,0.17198819263329754,-0.7836586803133426,-0.29320651401277054,0.7564678199768855,-1.7269749484900876,1.1189838959119636,3
498,2024-09-18 21:37:44.636194048,TASK_BEGIN,009,-1.5693420702874465,0.2607754310804858,0.5683301497860804,-0.8130878881888027,-0.2652674704205298,0.7399753688183547,-1.723596275447414,1.1195225697831246,3
499,2024-09-18 21:37:44.697820160,TASK_BEGIN,009,-1.5425650136151063,0.24277190494711434,0.9833365090500458,-0.8491056719806495,-0.24173870513518714,0.7241696415113259,-1.7137733974497595,1.1238713748921196,3
500,2024-09-18 21:37:44.775495168,TASK_BEGIN,009,-1.5176661413566392,0.22395748625833858,1.4028225848581735,-0.8896906517266933,-0.22161394627060668,0.7089360642905943,-1.692113631851774,1.128856989166795,3
501,2024-09-18 21:37:44.846189824,TASK_BEGIN,009,-1.4942817998174114,0.20463471690892357,1.8093031471191778,-0.9322685963501018,-0.2039126592524473,0.6941873826413232,-1.6564179954021867,1.1319291371490596,3
502,2024-09-18 21:37:44.914022912,TASK_BEGIN,009,-1.4718948914743504,0.18513340544583629,2.183858386653094,-0.9740270239826422,-0.187896817545987,0.6798987690807081,-1.6082814828514131,1.1313973253660892,3
503,2024-09-18 21:37:44.981833984,TASK_BEGIN,009,-1.4499081423316575,0.16581120515024983,2.50804361792674,-1.0121837254051953,-0.17329953556882252,0.6661420883904638,-1.5531498019241952,1.1265417787560683,3
504,2024-09-18 21:37:45.924435968,TASK_BEGIN,009,-1.4277039835327496,0.14704336998569567,2.7655388317702627,-1.0441670053216443,-0.1604901507368761,0.6531008924752144,-1.499564347849777,1.117604381587995,3
505,2024-09-18 21:37:45.991856128,TASK_BEGIN,009,-1.4047308986522458,0.1292118204296596,2.943578126621521,-1.0677510006006918,-0.15051597665430957,0.6410518601062865,-1.4576317955400804,1.1056430719296821,3
506,2024-09-18 21:37:46.053872128,TASK_BEGIN,009,-1.3805996736192836,0.1126963725673202,3.0342767493342557,-1.0812044367020333,-0.14499449652547458,0.6303176898128963,-1.437173641759809,1.092277390220719,3
507,2024-09-18 21:37:46.125467136,TASK_BEGIN,009,-1.3551383168466822,0.09786190792380717,3.0356728620042217,-1.0834379095488018,-0.1458706805183084,0.6212090887715997,-1.446085790829293,1.0793809557896128,3
508,2024-09-18 21:37:46.195497984,TASK_BEGIN,009,-1.3283691851708757,0.08503234736050108,2.95210104004403,-1.074095115856648,-0.15509801580597457,0.6139673338489943,-1.4891409980031642,1.0687625219890433,3
509,2024-09-18 21:37:46.255616000,TASK_BEGIN,009,-1.3004119442513167,0.0744496550245184,2.7937424639978934,-1.053588066391606,-0.17432563733476875,0.6087127381022978,-1.567233800137777,1.0618631387167767,3
510,2024-09-18 21:37:46.322320128,TASK_BEGIN,009,-1.2713640087476157,0.06622857061660968,2.575580979715353,-1.0231241721281188,-0.20465515254677705,0.6054111448964313,-1.6771035308662166,1.059496905463559,3
511,2024-09-18 21:37:47.268958976,TASK_BEGIN,009,-1.2412340368639825,0.060323714589350826,2.31617100751295,-0.984740067310103,-0.24648118635582386,0.6038683920814043,-1.811612572540355,1.0616810622731028,3
512,2024-09-18 21:37:47.332687872,TASK_BEGIN,009,-1.2099832040858938,0.05652459561672305,2.0365230540041606,-0.9413052292703264,-0.29939615473356695,0.6037426657425882,-1.9605628664225792,1.0676269627968573,3
513,2024-09-18 21:37:47.394057984,TASK_BEGIN,009,-1.1776731116952974,0.05448705693430072,1.759146216130165,-0.8964550559393851,-0.3621462519101924,0.6045571996427316,-2.111890073206188,1.075916990184065,3
514,2024-09-18 21:37:47.471237120,TASK_BEGIN,009,-1.1446470631419519,0.05379318106127848,1.507027173740909,-0.8544270766774471,-0.4326442715015076,0.6057138689956494,-2.2529672571750154,1.0847777908835956,3
515,2024-09-18 21:37:47.544593920,TASK_BEGIN,009,-1.1116336732875876,0.05401693700563993,1.3022250111209401,-0.819760192529206,-0.5080489836226749,0.6065227572673789,-2.371781851324725,1.0923439029719362,3
516,2024-09-18 21:37:47.612432896,TASK_BEGIN,009,-1.0797095946700483,0.05477619137512987,1.1638974335384062,-0.7968227853499927,-0.584913810330869,0.6062535921230213,-2.4578574139059475,1.0969081693245968,3
517,2024-09-18 21:37:47.679261952,TASK_BEGIN,009,-1.0501546548945162,0.0557678420812105,1.1059410480417122,-0.7892183499570805,-0.6594022713618652,0.6041993096470648,-2.5028881047669476,1.0971922446446343,3
518,2024-09-18 21:37:48.616939008,TASK_BEGIN,009,-1.0242828842124578,0.056792743091121534,1.134819129781825,-0.7992122502580682,-0.727573676543277,0.5997415283961607,-2.501195728633409,1.0925940169827564,3
519,2024-09-18 21:37:48.678974208,TASK_BEGIN,009,-1.0033056638526325,0.057772542043357036,1.2482597558923587,-0.8273410032819652,-0.7857419590760206,0.5924158415127249,-2.4501257925041218,1.0833002568634642,3
520,2024-09-18 21:37:48.741054976,TASK_BEGIN,009,-0.9882381458314187,0.058753464456172,1.4352743056036497,-0.8723152778982645,-0.8308677299692923,0.5819731483598937,-2.3502743362245675,1.0701810466056194,3
521,2024-09-18 21:37:48.819162112,TASK_BEGIN,009,-0.9798437938180793,0.05989445343282743,1.6775024928872533,-0.9312296256919764,-0.8608864345174002,0.5684231663557776,-2.2053755217392577,1.054500361280731,3
522,2024-09-18 21:37:48.881187072,TASK_BEGIN,009,-0.9786061140697851,0.06144066488114667,1.951457569394618,-0.9999673172874451,-0.8748873821967323,0.5520450722532309,-2.0219017191671145,1.0375801520196788,3
523,2024-09-18 21:37:48.944292864,TASK_BEGIN,009,-0.9847096813166796,0.06368029264083898,2.231115852152905,-1.0736461999488824,-0.8731416253708998,0.5333654473705095,-1.80854094950997,1.0205452693891486,3
524,2024-09-18 21:37:49.021918976,TASK_BEGIN,009,-0.998023302723167,0.06688490208522158,2.4904287598414943,-1.1470304313515058,-0.8570269735985884,0.5131191844407046,-1.5756053682705318,1.0041938768563679,3
525,2024-09-18 21:37:49.944430080,TASK_BEGIN,009,-1.018099842076067,0.07124721312894847,2.7054243857670994,-1.214900120036936,-0.8288681377056564,0.4922025836514039,-1.3343096970369308,0.9889735226812657,3
526,2024-09-18 21:37:50.006052096,TASK_BEGIN,009,-1.0442114339324686,0.07683934979164903,2.855608558236211,-1.272357887003357,-0.7916800783386411,0.4716106905067024,-1.0958697291104325,0.9750189716674277,3
527,2024-09-18 21:37:50.084176896,TASK_BEGIN,009,-1.0754187465183103,0.08360403586662805,2.924577612412636,-1.315045892004555,-0.748829458353516,0.4523554678264787,-0.8705089767954378,0.9622107116742888,3
528,2024-09-18 21:37:50.146661120,TASK_BEGIN,009,-1.1106423707052275,0.09136895615478026,2.900091475368827,-1.3392971942599274,-0.7036607052067518,0.435381162918039,-0.6665752908472958,0.9502309620302574,3
529,2024-09-18 21:37:50.220429824,TASK_BEGIN,009,-1.1486974027247585,0.09986386896178928,2.774060147249476,-1.342289916847642,-0.65913846776361,0.4214944423618739,-0.4899510264477109,0.9386219919077101,3
530,2024-09-18 21:37:50.286793984,TASK_BEGIN,009,-1.1882899771674693,0.10873204652387815,2.5427508812137742,-1.3222392280273767,-0.6175756340511879,0.41131326457501083,-0.3438611707521033,0.9268596097364351,3
531,2024-09-18 21:37:50.356050944,TASK_BEGIN,009,-1.2280141226167582,0.11754563680866793,2.2071450403760187,-1.278564077741015,-0.5805300534981084,0.40523565450435395,-0.22902821662668693,0.9144053601429515,3
532,2024-09-18 21:37:51.293394944,TASK_BEGIN,009,-1.2663893101205916,0.1258382743764978,1.7731381248782825,-1.2119162803762424,-0.5488948641853896,0.40343313205879183,-0.14397473947267658,0.9006746132147304,3
533,2024-09-18 21:37:51.355880960,TASK_BEGIN,009,-1.301955407616054,0.13315622140898356,1.2513746601456925,-1.1240384893165758,-0.5231058436659506,0.4058679092086918,-0.08538461757271716,0.8849485766383486,3
534,2024-09-18 21:37:51.433988096,TASK_BEGIN,009,-1.3334031567643752,0.13911356906212707,0.6567452859726594,-1.0175446691953198,-0.5033493535699848,0.4123233742851526,-0.04864476280246449,0.8663444259686492,3
535,2024-09-18 21:37:51.496366080,TASK_BEGIN,009,-1.359681180800992,0.14343273989087293,0.007683584399732976,-0.895746505031112,-0.48969195163369467,0.4224344064336436,-0.028629487021418754,0.8438967928212742,3
536,2024-09-18 21:37:51.566144000,TASK_BEGIN,009,-1.3800317758696863,0.14596325963385162,-0.6746573523435215,-0.7625587486610833,-0.4821125741351089,0.43570850282367324,-0.020568699689494162,0.8167089035391318,3
537,2024-09-18 21:37:51.628178944,TASK_BEGIN,009,-1.3939798793732237,0.146685352519013,-1.3673429783262148,-0.6224258952975281,-0.48047635522172094,0.45153749390302633,-0.0207866418325383,0.7841458405955096,3
538,2024-09-18 21:37:51.691010048,TASK_BEGIN,009,-1.401343755554578,0.14570402682518435,-2.0466503029723717,-0.4802112580118044,-0.4845085484185643,0.4692051848165637,-0.027166886127038145,0.7460834786004318,3
539,2024-09-18 21:37:52.648440064,TASK_BEGIN,009,-1.4022794311339235,0.14323039880058855,-2.689001526035821,-0.34103210195225964,-0.49377585602328616,0.48789382017162714,-0.039222977967330465,0.703178992579418,3
540,2024-09-18 21:37:52.706907904,TASK_BEGIN,009,-1.3973091356725624,0.1395496075789539,-3.2718267558278153,-0.210053281406675,-0.5076374064808256,0.5066932676631823,-0.057758079389237556,0.6570512393284014,3
541,2024-09-18 21:37:52.784899840,TASK_BEGIN,009,-1.3873119291917517,0.13498596904564192,-3.774403606835326,-0.09227614158364084,-0.5251664764279919,0.5246272097597542,-0.08435298246097707,0.6102651100586424,3
542,2024-09-18 21:37:52.853050112,TASK_BEGIN,009,-1.3734918238768987,0.12987651117379542,-4.178598165594218,0.00762601242603054,-0.5451013964056557,0.5407120658056345,-0.12102067697172735,0.566109694593496,3
543,2024-09-18 21:37:52.920835072,TASK_BEGIN,009,-1.3573190340241794,0.1245534367207414,-4.469396171297984,0.08540704960368743,-0.5658639276197449,0.5540445214733702,-0.17009397151626288,0.5282536864286307,3
544,2024-09-18 21:37:52.988581888,TASK_BEGIN,009,-1.3404286359529887,0.11933055575376048,-4.635321050684295,0.13733324320731422,-0.5856192744558341,0.5638919950403873,-0.2340773798169962,0.5003682644203368,3
545,2024-09-18 21:37:53.055425792,TASK_BEGIN,009,-1.3244836650996734,0.11449273413949518,-4.668951624323178,0.16033276450984735,-0.6023465360213125,0.5697617166588395,-0.31525125205204757,0.48575865438790766,3
546,2024-09-18 21:37:53.991665920,TASK_BEGIN,009,-1.3110237716396704,0.11029243070685434,-4.567540132401971,0.15223134695435162,-0.6139462405468118,0.5714409220880454,-0.41519314504285065,0.4870278602274591,3
547,2024-09-18 21:37:54.053675776,TASK_BEGIN,009,-1.3013294618551439,0.10695680155344528,-4.33354016686625,0.1120395591664311,-0.6184313137839778,0.5690091446380974,-0.5345339116349043,0.5058052072776094,3
548,2024-09-18 21:37:54.131355904,TASK_BEGIN,009,-1.2963392084519114,0.10470018695992056,-3.974902494242614,0.04024272481206027,-0.6141797326008218,0.5628214081327579,-0.6730133577887317,0.542564606163501,3
549,2024-09-18 21:37:54.193424128,TASK_BEGIN,009,-1.2966271044545779,0.10372684436772868,-3.504996561223075,-0.060987785458006954,-0.6001552901859334,0.5534619849290758,-0.8296617556824849,0.5965521724970321,3
550,2024-09-18 21:37:54.255480832,TASK_BEGIN,009,-1.3024035354892294,0.10421279115442504,-2.941959743367181,-0.18777040434017928,-0.5760244834735271,0.5416760985989812,-1.0029685779315016,0.665848671126556,3
551,2024-09-18 21:37:54.338483968,TASK_BEGIN,009,-1.313507850955732,0.10627346794938015,-2.3074921620077586,-0.3347210566116991,-0.5421735909437704,0.5282931681731212,-1.1910196006817422,0.7475706287153011,3
552,2024-09-18 21:37:54.395710976,TASK_BEGIN,009,-1.3294112479702875,0.10993553906601795,-1.6254993997079037,-0.49531746857702685,-0.49965235822562176,0.514152484210326,-1.3916573404522439,0.8381779945643224,3
553,2024-09-18 21:37:55.323412736,TASK_BEGIN,009,-1.3492610811520902,0.1151254429157789,-0.9210185301422151,-0.66230434579838,-0.4500406820091872,0.5000364101565059,-1.6027197296753946,0.9338481368851824,3
554,2024-09-18 21:37:55.385446144,TASK_BEGIN,009,-1.371961582461947,0.1216750660929476,-0.21941324778090437,-0.8281063686136367,-0.3952397280657868,0.48661802941935245,-1.8222651963440668,1.0308605859685411,3
555,2024-09-18 21:37:55.447931136,TASK_BEGIN,009,-1.3962661698786778,0.12933880531032324,0.4545244322853713,-0.9852879516731751,-0.33722926165686284,0.4744318147696008,-2.0485723828469893,1.1258944980013283,3
556,2024-09-18 21:37:55.527883008,TASK_BEGIN,009,-1.420862793858931,0.13781418723779762,1.0777511104037332,-1.12705959710749,-0.2778424136593124,0.46386714434165477,-2.279830178736607,1.2161574157840367,3
557,2024-09-18 21:37:55.595642112,TASK_BEGIN,009,-1.4444311453363838,0.14675662605688883,1.6302868987356434,-1.247770454007661,-0.21859605657475195,0.45517791902646343,-2.5136284953753765,1.2993709038961672,3
558,2024-09-18 21:37:55.656467968,TASK_BEGIN,009,-1.4656702439699278,0.15578520890066447,2.0964308741712423,-1.3433216246603656,-0.1606106061383738,0.44850305118850037,-2.7464035420188266,1.3737229254047674,3
559,2024-09-18 21:37:55.718044928,TASK_BEGIN,009,-1.4833423427071257,0.1644885036745133,2.4656364339033,-1.411444120402073,-0.10463591916367948,0.4438910258509558,-2.973017143089598,1.4378729289888394,3
560,2024-09-18 21:37:56.673794048,TASK_BEGIN,009,-1.496367448473865,0.17244090751248378,2.732887851328037,-1.451807693062127,-0.05116904859335379,0.4413223559374702,-3.186746533592028,1.4910216356721158,3
561,2024-09-18 21:37:56.735296768,TASK_BEGIN,009,-1.5039317734186084,0.17922944182546915,2.8986678030651483,-1.4659745969882012,-0.0006303038261433065,0.44073290128603043,-3.379900689734187,1.5330119222779004,3
562,2024-09-18 21:37:56.809636864,TASK_BEGIN,009,-1.505554394788151,0.18448327297565825,2.968705404580465,-1.4572255136817542,0.04644614157111166,0.44204322199458285,-3.5449558549570503,1.5644041258550716,3
563,2024-09-18 21:37:56.874126080,TASK_BEGIN,009,-1.5011059722714115,0.18789961291399856,2.9535250693903454,-1.4302598653036454,0.08925711865774119,0.4451903077495203,-3.6757751095733577,1.5864581380187535,3
564,2024-09-18 21:37:56.936266240,TASK_BEGIN,009,-1.4907963612408468,0.18926301796111125,2.8676861504922444,-1.3907720616606094,0.1266610377819179,0.4501507806692615,-3.7684303484161434,1.6009779467879457,3
565,2024-09-18 21:37:57.013103104,TASK_BEGIN,009,-1.4751172533083126,0.18845654024764671,2.7285852393997545,-1.3449249209419274,0.15723759529058204,0.4569429164415548,-3.8214234417228896,1.6100274690216168,3
566,2024-09-18 21:37:57.075540992,TASK_BEGIN,009,-1.4547265946450423,0.18546600127126953,2.5547809729416953,-1.2987721844143694,0.17948028291632553,0.4656028608103114,-3.8354946001417254,1.6155890018242722,3
567,2024-09-18 21:37:58.012141824,TASK_BEGIN,009,-1.430321691327823,0.1803805280659692,2.3641045356045516,-1.2577302504887293,0.1920529898443101,0.47614695619731306,-3.813383381058082,1.6192789390156113,3
568,2024-09-18 21:37:58.091881984,TASK_BEGIN,009,-1.4025645955607278,0.17338575660387914,2.172071923761372,-1.2261934983288767,0.19400749010000434,0.48853701325390764,-3.7597459347991498,1.6222163412501907,3
569,2024-09-18 21:37:58.152399104,TASK_BEGIN,009,-1.372063079576316,0.164739573902489,1.990998417237734,-1.2073121790708972,0.18489601978864154,0.502656115914111,-3.681168625164014,1.6250603364672838,3
570,2024-09-18 21:37:58.213342976,TASK_BEGIN,009,-1.3393821443833054,0.1547330081708894,1.8299103802178243,-1.2029138902296899,0.16478323760743593,0.5182971994370672,-3.586115433025089,1.628151532016598,3
571,2024-09-18 21:37:58.291654144,TASK_BEGIN,009,-1.3050899432661112,0.14365909104266053,1.6950751147903886,-1.213553035103787,0.13422006687733473,0.535162283158109,-3.484662154159526,1.6316709821235416,3
572,2024-09-18 21:37:58.363179008,TASK_BEGIN,009,-1.2698416767495895,0.13180928319079324,1.590736333906033,-1.2386463695068506,0.09423417078711033,0.5528634667025109,-3.3878989275350113,1.6357743187126932,3
573,2024-09-18 21:37:58.415664128,TASK_BEGIN,009,-1.2344789088731862,0.11949766688318496,1.5195848317350642,-1.27664866657746,0.046318326248356835,0.5709239067060593,-3.306962644751144,1.6406965422000068,3
574,2024-09-18 21:37:59.369120000,TASK_BEGIN,009,-1.2001229922837469,0.10710284703919973,1.4827526240259516,-1.325264606739429,-0.007635567634204474,0.5887899996928361,-3.2517967511509434,1.6468064701904341,3
575,2024-09-18 21:37:59.431169024,TASK_BEGIN,009,-1.168236053806513,0.09510863748396677,1.479530771748183,-1.3816943408358393,-0.06546234541555924,0.6058610789368784,-3.229871184655006,1.6545814819517768,3
576,2024-09-18 21:37:59.509617152,TASK_BEGIN,009,-1.1406009964316388,0.08411456287961391,1.507204003748174,-1.4428716344907826,-0.12487469076537112,0.6215301521067198,-3.2452055603979386,1.6645140337557878,3
577,2024-09-18 21:37:59.576951040,TASK_BEGIN,009,-1.119199801344574,0.07480058821797746,1.5611999471431086,-1.505644787267547,-0.1836144515763267,0.635228956815713,-3.2980393965040755,1.6769917393513394,3
578,2024-09-18 21:37:59.639041024,TASK_BEGIN,009,-1.1060301471363443,0.0678603612253993,1.6354275373817593,-1.5668739899409896,-0.2395951222414239,0.6464760271520616,-3.3852452276095417,1.6921853085878529,3
579,2024-09-18 21:37:59.700544256,TASK_BEGIN,009,-1.102912363018055,0.06392814115378632,1.7225377281896748,-1.623448021158066,-0.2910246952180329,0.6549237983795739,-3.5011919116845704,1.7099660039016813,3
580,2024-09-18 21:37:59.781542912,TASK_BEGIN,009,-1.111311700608325,0.0635129070628763,1.8139576765741845,-1.6722601505623846,-0.33650018238303586,0.660394731429869,-3.6386068321070173,1.729860944923059,3
581,2024-09-18 21:38:00.687943936,TASK_BEGIN,009,-1.1321808481750908,0.06694230866332714,1.8998387746681655,-1.7102186073405712,-0.37507093537929015,0.6628978385377078,-3.789204686640299,1.7510471662130755,3
582,2024-09-18 21:38:00.764723200,TASK_BEGIN,009,-1.1658115208125597,0.07431994852061757,1.9691917845180147,-1.7343450612563696,-0.40625125567941067,0.6626229408149089,-3.944179849155009,1.7723987573532967,3
583,2024-09-18 21:38:00.826731008,TASK_BEGIN,009,-1.2116882906685986,0.08550355595714751,2.0102926057472925,-1.741939334009937,-0.42995709654816755,0.6599140041285005,-4.0947765689608,1.7926022525524097,3
