,time,MARKER,pid,L_O_DSI,L_D_DSI,L_O_DSphi,L_D_DSphi,R_O_DSI,R_D_DSI,R_O_DSphi,R_D_DSphi,trial_id
0,2024-09-18 21:23:59.360701952,TASK_BEGIN,009,-3.6929419520237574,-0.5603638180508654,2.9036134598312446,0.1851893847926513,-1.050604916566312,1.057916468339699,2.753925932859166,-1.3897153113010958,1
1,2024-09-18 21:23:59.441308160,TASK_BEGIN,009,-3.9033610865553845,-0.49291951876725676,3.641699499350821,-0.1234452272716431,-1.3282505363441497,1.1155455497626734,0.509688535330822,-1.2947744790286968,1
2,2024-09-18 21:23:59.509103104,TASK_BEGIN,009,-4.098973917105733,-0.428108268417368,4.3456648709503565,-0.42259139390678935,-1.6034521802644621,1.1738066639648623,-1.6680596775829908,-1.201206083985679,1
3,2024-09-18 21:23:59.576919296,TASK_BEGIN,009,-4.266113312904965,-0.3676533250851121,4.9857196125056955,-0.7025764109281804,-1.8722469545419353,1.2329396379858255,-3.720179913827661,-1.1121020189449236,1
4,2024-09-18 21:23:59.641783040,TASK_BEGIN,009,-4.3939312950312885,-0.31303845813954784,5.536761137974026,-0.9550884873898542,-2.1307670565074153,1.2929660156396037,-5.597428823299815,-1.0303813299529605,1
5,2024-09-18 21:23:59.699076864,TASK_BEGIN,009,-4.475363041472042,-0.26544251951782827,5.980187157263063,-1.1737485991055494,-2.3753936907775564,1.3536404631749661,-7.263086559998445,-0.9585401842642498,1
6,2024-09-18 21:23:59.776699904,TASK_BEGIN,009,-4.507711932594867,-0.22570282538019787,6.305170786464306,-1.3544706937910709,-2.6029157350583474,1.414437579424871,-8.693804680126751,-0.8983933219061028,1
7,2024-09-18 21:24:00.723545088,TASK_BEGIN,009,-4.492814908022628,-0.19430007419705894,6.509223261977606,-1.4955350891025996,-2.8106587936959158,1.4745749419138277,-9.879070529883178,-0.8508995427022042,1
8,2024-09-18 21:24:00.791380736,TASK_BEGIN,009,-4.43678421235713,-0.17135375901171684,6.59798009119207,-1.597389759585038,-2.9965795508873203,1.5330703737909694,-10.819774859423182,-0.8161056265520197,1
9,2024-09-18 21:24:00.859138048,TASK_BEGIN,009,-4.349370736321552,-0.15662235913471703,6.584430295618027,-1.6623177122032933,-3.159346520843021,1.5888252754258487,-11.526181729424962,-0.7931973137536518,1
10,2024-09-18 21:24:00.921137920,TASK_BEGIN,009,-4.2430093845790635,-0.1495081611595883,6.487905022919865,-1.6941168344450146,-3.2984187225888486,1.6407249300221507,-12.015442747485391,-0.780665820183083,1
11,2024-09-18 21:24:00.994684160,TASK_BEGIN,009,-4.131598401554936,-0.14906519302911536,6.332840200994957,-1.6978130242572032,-3.414118919271711,1.6877517117199452,-12.308861949751718,-0.7766420771357672,1
12,2024-09-18 21:24:01.059814912,TASK_BEGIN,009,-4.029091040114916,-0.15400853247086835,6.147047229913976,-1.6793438589410807,-3.507674002545254,1.729103201412688,-12.429370347826719,-0.779404240861165,1
13,2024-09-18 21:24:01.130284288,TASK_BEGIN,009,-3.948047119106949,-0.16273288487630147,5.959350259590887,-1.6451810761325654,-3.581161091788234,1.764292736804569,-12.39983484185105,-0.787912505331359,1
14,2024-09-18 21:24:02.031870976,TASK_BEGIN,009,-3.898341465330339,-0.17336007527945071,5.796842144138556,-1.6019036978848753,-3.6373134979657165,1.7932050148134604,-12.242521173422022,-0.8021461306221773,1
15,2024-09-18 21:24:02.104358912,TASK_BEGIN,009,-3.886202976773501,-0.18383371299565923,5.682257052362529,-1.5557400932175796,-3.6792174455284408,1.8160923203710078,-11.979413662775777,-0.8231182774188436,1
16,2024-09-18 21:24:02.171545856,TASK_BEGIN,009,-3.9136807111071317,-0.19206438864738196,5.631860851473641,-1.5121049242715332,-3.7099952196552426,1.8335172498239873,-11.63276251189396,-0.8525917177517656,1
17,2024-09-18 21:24:02.239422208,TASK_BEGIN,009,-3.9785705601311507,-0.19611201728567382,5.654093425926718,-1.4751760796390716,-3.7325729977256565,1.8462634662582535,-11.225343742549045,-0.8925823414642851,1
18,2024-09-18 21:24:02.307017216,TASK_BEGIN,009,-4.074819803886513,-0.19437532365578444,5.749208218996763,-1.447585619589617,-3.749577662396526,1.8552393126816225,-10.78020305955093,-0.9447656489380355,1
19,2024-09-18 21:24:02.373161216,TASK_BEGIN,009,-4.193390598929622,-0.18574596011760341,5.910111075775555,-1.4303443804261402,-3.763326589019457,1.8613913769119945,-10.319940264240843,-1.0099502857131302,1
20,2024-09-18 21:24:02.435644928,TASK_BEGIN,009,-4.323442996733751,-0.16969471564630648,6.124239691691364,-1.42309509444822,-3.7758345112224836,1.8656347404772622,-9.865763765008621,-1.0877717588071052,1
21,2024-09-18 21:24:03.399873024,TASK_BEGIN,009,-4.453585101097937,-0.14628797434251786,6.375896916067111,-1.4246103305136184,-3.788803838031624,1.868799999974134,-9.43649526169577,-1.1766283617964735,1
22,2024-09-18 21:24:03.461422080,TASK_BEGIN,009,-4.572973459017983,-0.11615295354204226,6.648393052494462,-1.4332875072055946,-3.8036095243707093,1.8715929217557945,-9.047573355564522,-1.2737567472617513,1
23,2024-09-18 21:24:03.535511040,TASK_BEGIN,009,-4.672190256984849,-0.08040686757730955,6.925653425784012,-1.4474591052748336,-3.821272045275075,1.8745605830721894,-8.710181277963388,-1.3753604542978146,1
24,2024-09-18 21:24:03.590636032,TASK_BEGIN,009,-4.743911594167702,-0.04055738331187696,7.193286614628387,-1.4655295293813695,-3.8424101983661965,1.878065249044448,-8.430839796679019,-1.4767914615951163,1
25,2024-09-18 21:24:03.667944704,TASK_BEGIN,009,-4.78336447036857,0.0016166950788428724,7.439341875766273,-1.4860391557705863,-3.86720809482526,1.8822756502464602,-8.211727336548366,-1.5728179357858871,1
26,2024-09-18 21:24:03.730669824,TASK_BEGIN,009,-4.788543854017,0.04419265913718537,7.655009744046342,-1.507718653070402,-3.895427012107598,1.8871785221524764,-8.051607942032154,-1.6579779383813569,1
27,2024-09-18 21:24:03.793146880,TASK_BEGIN,009,-4.760188422274448,0.08522933812464877,7.835239022298136,-1.5295360008587022,-3.926439833817249,1.892602886410708,-7.9470573545501555,-1.7269695461140648,1
28,2024-09-18 21:24:04.736218880,TASK_BEGIN,009,-4.701548499253044,0.12288586416099087,7.978960071209731,-1.550697789858361,-3.9592525617215073,1.8982521754758408,-7.893745797948224,-1.775022503943468,1
29,2024-09-18 21:24:04.815516160,TASK_BEGIN,009,-4.617973402264682,0.15553684911520355,8.088700677712527,-1.5705808923032343,-3.992512855299829,1.903743989930139,-7.887538077154021,-1.798244061962677,1
30,2024-09-18 21:24:04.876000000,TASK_BEGIN,009,-4.516321373300607,0.18189152802415567,8.169669219692103,-1.5886568489121966,-4.024532348992761,1.9086520121565138,-7.925115245362367,-1.7939642182009654,1
31,2024-09-18 21:24:04.938484736,TASK_BEGIN,009,-4.404198718076092,0.20111059274744775,8.22845706674622,-1.6044930473307712,-4.053356236535742,1.912540837549897,-8.003913309955351,-1.7610795592384476,1
32,2024-09-18 21:24:05.017236992,TASK_BEGIN,009,-4.289083378326907,0.21289156652440624,8.271494198575802,-1.6177989431276547,-4.076908272944854,1.9149903478674681,-8.12144931803746,-1.7003361112688808,1
33,2024-09-18 21:24:05.079254016,TASK_BEGIN,009,-4.177468435033351,0.21749162642285616,8.303598626863215,-1.628424674158721,-4.093202004397344,1.9156098020949006,-8.27439173532771,-1.6144503226210882,1
34,2024-09-18 21:24:05.140852992,TASK_BEGIN,009,-4.074215004169477,0.21568074513868424,8.327126900119898,-1.636312238520005,-4.100562860914107,1.9140425103835839,-8.457770972839477,-1.507981679865992,1
35,2024-09-18 21:24:06.089566976,TASK_BEGIN,009,-3.982248212195833,0.20863971701838555,8.341952461019298,-1.6414651151814412,-4.0978018507242275,1.909969413113776,-8.66452781849189,-1.3869444247048441,1
36,2024-09-18 21:24:06.160630784,TASK_BEGIN,009,-3.902569953753786,0.19781696753744318,8.346080819197534,-1.6439478193394677,-4.084305259529767,1.9031222822631733,-8.885429033262358,-1.258254756969123,1
37,2024-09-18 21:24:06.222688000,TASK_BEGIN,009,-3.8344467334959424,0.1847519867057946,8.336637245735073,-1.6438819890056546,-4.060032284302133,1.8933056438520586,-9.109345914353593,-1.1291761853156514,1
38,2024-09-18 21:24:06.299916032,TASK_BEGIN,009,-3.7756663438668716,0.17088522177075222,8.311046429726307,-1.6414353113429156,-4.0254496038088865,1.8804178784063545,-9.323866798517164,-1.0068624363644456,1
39,2024-09-18 21:24:06.361415936,TASK_BEGIN,009,-3.722842616901634,0.15738900876849143,8.268133293628933,-1.6368145938835654,-3.9814413656729246,1.8644645250693053,-9.516103250197643,-0.8979706957465066,1
40,2024-09-18 21:24:06.437415936,TASK_BEGIN,009,-3.67175959694708,0.14504421888605376,8.208825471824365,-1.6302475381642898,-3.929197744094515,1.8455594320419382,-9.673493973818053,-0.8082785517777452,1
41,2024-09-18 21:24:06.500708096,TASK_BEGIN,009,-3.6177344918480014,0.13416568242466134,8.136375246780995,-1.6219452787061654,-3.870070008520729,1.8239103937607566,-9.78454539132777,-0.7422900545827283,1
42,2024-09-18 21:24:07.448569088,TASK_BEGIN,009,-3.556004671806061,0.1245744404347729,8.056294976793287,-1.612081036943915,-3.8054087288041,1.7997908866055021,-9.83956815092515,-0.7028732916320491,1
43,2024-09-18 21:24:07.506345984,TASK_BEGIN,009,-3.482156186920948,0.11562246118816631,7.976184182812153,-1.6008209517539527,-3.7364223762185853,1.7735039290432268,-9.831374917779982,-0.6910106584236531,1
44,2024-09-18 21:24:07.570564864,TASK_BEGIN,009,-3.3925856480166736,0.10627570821731211,7.905360124613929,-1.5883861154684846,-3.6640764787767006,1.7453437030523389,-9.755776019902102,-0.7057521101600477,1
45,2024-09-18 21:24:07.648250880,TASK_BEGIN,009,-3.2849649704680672,0.09525057989584053,7.854049077082522,-1.5750779803297401,-3.5890207911734895,1.7155598569780655,-9.611745716240154,-0.7444177842839068,1
46,2024-09-18 21:24:07.710284032,TASK_BEGIN,009,-3.1586619686952213,0.08118686922188309,7.832111275384767,-1.561221136052363,-3.51153516326746,1.6843323510020116,-9.40125014489114,-0.8030188802242266,1
47,2024-09-18 21:24:07.787565056,TASK_BEGIN,009,-3.015039685801379,0.06283479103156837,7.847685676284818,-1.547057384671356,-3.4315288364044707,1.6517682799309854,-9.12882179053648,-0.8767891967647571,1
48,2024-09-18 21:24:07.855340032,TASK_BEGIN,009,-2.8575378798970985,0.03923221952213304,7.90629319741808,-1.5326888837442878,-3.348636191673229,1.617928899438485,-8.80102422387727,-0.9607009592628866,1
49,2024-09-18 21:24:08.764988928,TASK_BEGIN,009,-2.6914671314990617,0.009849021223857942,8.010604105496583,-1.5181498090374435,-3.262402240669181,1.5828852028407774,-8.425960665115218,-1.0499150756676714,1
50,2024-09-18 21:24:08.827127040,TASK_BEGIN,009,-2.5235077903856773,-0.025320378585805107,8.160633735427284,-1.503611159920002,-3.1725136670160765,1.546791518418892,-8.012962114785044,-1.1401808041247576,1
51,2024-09-18 21:24:08.904685056,TASK_BEGIN,009,-2.360964343333171,-0.06573049496373079,8.354051155830732,-1.4896522903142355,-3.079019859920525,1.5099563610790254,-7.572484455885931,-1.228163362168249,1
52,2024-09-18 21:24:08.966724096,TASK_BEGIN,009,-2.2108789337552,-0.11033415592888704,8.586475408481938,-1.4774791848268347,-2.9824722203307106,1.472878475153367,-7.115973400381826,-1.3116531801787974,1
53,2024-09-18 21:24:09.028281088,TASK_BEGIN,009,-2.0791638673804913,-0.15770377041345202,8.851756592845009,-1.468963845188549,-2.8839314416268924,1.436227067265077,-6.655359022632181,-1.3896588568282087,1
54,2024-09-18 21:24:09.111563008,TASK_BEGIN,009,-1.9699230303220259,-0.20619862796432187,9.14223528854148,-1.46645589335775,-2.78487419421347,1.4007820507821962,-6.202253474356049,-1.4623797948691437,1
55,2024-09-18 21:24:09.179312896,TASK_BEGIN,009,-1.8850545687968967,-0.25414082711228964,9.448977958782251,-1.4724230262584028,-2.6870768232282156,1.3673701534203009,-5.767332543707981,-1.5309955705187055,1
56,2024-09-18 21:24:10.110562048,TASK_BEGIN,009,-1.8241305387245563,-0.29996984248451447,9.762019224283902,-1.4890361576294382,-2.5925008642875964,1.336814174404218,-5.360127394804898,-1.5972745327092097,1
57,2024-09-18 21:24:10.187809024,TASK_BEGIN,009,-1.7845272466612123,-0.3423597469975083,10.070602793627417,-1.517807392709074,-2.5031426107718944,1.3098872875342962,-4.988955678700883,-1.6631446746397773,1
58,2024-09-18 21:24:10.249376000,TASK_BEGIN,009,-1.7617989922033206,-0.3802911663593669,10.363307751770256,-1.5593271038922472,-2.4208383837092446,1.2872606857303766,-4.6607257023387785,-1.730350691700558,1
59,2024-09-18 21:24:10.325876992,TASK_BEGIN,009,-1.7502535622719178,-0.4130768448511542,10.627954570854254,-1.6130912496784002,-2.347088721767034,1.2694439856859554,-4.380693507399519,-1.8001854988180523,1
60,2024-09-18 21:24:10.388502016,TASK_BEGIN,009,-1.743623633640732,-0.4403530686409514,10.85146788416041,-1.6774340144505144,-2.282960805022094,1.256727382949173,-4.152400083841262,-1.8732454608437503,1
61,2024-09-18 21:24:10.451022080,TASK_BEGIN,009,-1.7357327540903769,-0.46205614222718633,11.020191141152216,-1.7496354201876754,-2.229057761903633,1.2491385956949903,-3.977872112553718,-1.94921793527544,1
62,2024-09-18 21:24:10.529185024,TASK_BEGIN,009,-1.7211147323270697,-0.47839193421782,11.120968629878117,-1.8262310837247182,-2.1855054547973918,1.2464247007403204,-3.8579713032536165,-2.026759086591398,1
63,2024-09-18 21:24:11.457957120,TASK_BEGIN,009,-1.6955634008209353,-0.48979490249831453,11.142755336596508,-1.903432236931208,-2.151926149004322,1.2480573494782246,-3.7927452621556004,-2.103503426334831,1
64,2024-09-18 21:24:11.540395008,TASK_BEGIN,009,-1.6565598217831432,-0.4968741097151657,11.078285081659281,-1.9775204480117137,-2.127406110481062,1.2532521121546798,-3.781718594854871,-2.176179951639959,1
65,2024-09-18 21:24:11.597004800,TASK_BEGIN,009,-1.6035176016815458,-0.5003484825659518,10.925473882601864,-2.0451406778988765,-2.1104957480293063,1.260999630454489,-3.824070533579728,-2.240794727407682,1
66,2024-09-18 21:24:11.675954176,TASK_BEGIN,009,-1.5378249669426682,-0.5009789444844943,10.688309069055792,-2.10348389536451,-2.0992816096984304,1.27011371501202,-3.918642897225262,-2.2928881755801958,1
67,2024-09-18 21:24:11.743779072,TASK_BEGIN,009,-1.4627057664114744,-0.49950789893825576,10.376951593522866,-2.150384641619186,-2.091532642961608,1.279297242525629,-4.063855197303704,-2.3278794340422135,1
68,2024-09-18 21:24:11.811589888,TASK_BEGIN,009,-1.3829273321209685,-0.4966091909036249,10.006915524817618,-2.1843682336426022,-2.0848959394479096,1.287222891029937,-4.257683440166335,-2.3414795009661824,1
69,2024-09-18 21:24:11.876517120,TASK_BEGIN,009,-1.304355465494694,-0.49284368775186904,9.597503060123891,-2.2046837251188283,-2.0771297791864987,1.292629691762153,-4.497701188110392,-2.330159021337435,1
70,2024-09-18 21:24:12.822992128,TASK_BEGIN,009,-1.2333564650380489,-0.4886173449378167,9.169869635312203,-2.2113565062184306,-2.0663649624457427,1.2944338612976256,-4.7810451800298575,-2.2916379294946347,1
71,2024-09-18 21:24:12.890843136,TASK_BEGIN,009,-1.1761023744165393,-0.4841441679273149,8.745022299682182,-2.2052624125300446,-2.051340680739101,1.2918344140225415,-5.104276707782631,-2.2252995948795267,1
72,2024-09-18 21:24:12.951111168,TASK_BEGIN,009,-1.1378926364223965,-0.47942187439832457,8.34195137163193,-2.188177112300257,-2.0315255363219196,1.2843777982813236,-5.4632042071127405,-2.1324324411286546,1
73,2024-09-18 21:24:13.026498048,TASK_BEGIN,009,-1.1226060491812275,-0.47423035489460436,7.976040723047515,-2.1627310978822427,-2.0070748968348404,1.2719578893987864,-5.852707294853326,-2.016264453765365,1
74,2024-09-18 21:24:13.089900800,TASK_BEGIN,009,-1.1323480387622793,-0.4681569585995871,7.6577867902946375,-2.132204035024938,-1.978655392060524,1.2547638506261964,-6.266639325118237,-1.8817736119850594,1
75,2024-09-18 21:24:13.152389120,TASK_BEGIN,009,-1.1672904309027143,-0.46064768611670626,7.391867282553578,-2.100146973027316,-1.9472176418428677,1.2332124527011545,-6.697833613187339,-1.735273948909086,1
76,2024-09-18 21:24:13.214456064,TASK_BEGIN,009,-1.2256550282884087,-0.45108598670434596,7.176901827740618,-2.0699411042069733,-1.9138132299169968,1.2078938815607718,-7.138097171729044,-1.5838399289402079,1
77,2024-09-18 21:24:14.133609216,TASK_BEGIN,009,-1.303810823222156,-0.4388953240881459,7.006426517198675,-2.0444673285927193,-1.8795132586367567,1.179534608869964,-7.57820135540189,-1.4346508795712039,1
78,2024-09-18 21:24:14.210808064,TASK_BEGIN,009,-1.3965127267026063,-0.4236443356968514,6.871145348299972,-2.0259706028102844,-1.8453968146175326,1.148962959256001,-8.008071957167047,-1.2943247046700663,1
79,2024-09-18 21:24:14.273293056,TASK_BEGIN,009,-1.4973270850168638,-0.40512605328527246,6.761770665763475,-2.016076221245566,-1.8125420380977437,1.117067798379998,-8.417223223758302,-1.168351661548187,1
80,2024-09-18 21:24:14.350148864,TASK_BEGIN,009,-1.599234100993587,-0.3833965525436308,6.671519217940099,-2.015887405418555,-1.7820000325760663,1.0847558156383412,-8.79522762277825,-1.0607652087555233,1
81,2024-09-18 21:24:14.419686912,TASK_BEGIN,009,-1.6953185734559728,-0.35877764919083954,6.59761287375491,-2.026106564399113,-1.7547631326918496,1.0529159204830902,-9.132040943086476,-0.9741106264793186,1
82,2024-09-18 21:24:14.474361856,TASK_BEGIN,009,-1.7794233813993143,-0.3318346512263447,6.541510101423109,-2.0471084962622617,-1.7317273451549198,1.0223904345805057,-9.418189692153126,-0.9096516142251894,1
83,2024-09-18 21:24:14.555208960,TASK_BEGIN,009,-1.846669921441645,-0.3033357854249822,6.507983660179293,-2.078915466979277,-1.7136466795838294,0.993947838591108,-9.644944216290956,-0.8676909917541737,1
84,2024-09-18 21:24:15.496645120,TASK_BEGIN,009,-1.893814571354468,-0.2741953719234561,6.503485203399434,-2.1211070482341614,-1.7010805922187162,0.968258384410035,-9.804557390165431,-0.8479140001212611,1
85,2024-09-18 21:24:15.566874112,TASK_BEGIN,009,-1.9194391337800052,-0.24540293297521176,6.534307957450148,-2.1727491011610844,-1.6943290377094635,0.9458817411682253,-9.890482935847315,-0.8497187081021707,1
86,2024-09-18 21:24:15.626552064,TASK_BEGIN,009,-1.9239521490995941,-0.21794404599503303,6.6049292966996225,-2.232391213932967,-1.6933654685592698,0.9272706902937082,-9.897470176928294,-0.8724690179023545,1
87,2024-09-18 21:24:15.702554880,TASK_BEGIN,009,-1.9093722940233393,-0.1927200621321096,6.716725039977243,-2.2981133166617176,-1.6978057743991726,0.9127812512202004,-9.821648067520812,-0.9155678927055169,1
88,2024-09-18 21:24:15.770312960,TASK_BEGIN,009,-1.878891901118921,-0.17047672886318857,6.86712537571051,-2.3675908313162735,-1.7069320853828662,0.9026741216352802,-9.6607919401421,-0.9783370770671393,1
89,2024-09-18 21:24:15.838126848,TASK_BEGIN,009,-1.8362566228212156,-0.15176307214400322,7.049308532144464,-2.4381999487243315,-1.7197436751939703,0.8970982572668896,-9.41482025058512,-1.059801688561503,1
90,2024-09-18 21:24:15.904118272,TASK_BEGIN,009,-1.7850721346760081,-0.1369395763414443,7.252475619663072,-2.5071790480982354,-1.7350060445697582,0.8960586546473113,-9.086484501876978,-1.1584705386005472,1
91,2024-09-18 21:24:16.847865856,TASK_BEGIN,009,-1.7282342611131585,-0.12622123350330855,7.462531882990069,-2.5717870594904015,-1.7513107630247273,0.8993841483525473,-8.68215336537419,-1.2721408647453167,1
92,2024-09-18 21:24:16.916961792,TASK_BEGIN,009,-1.6676642710230534,-0.11971301287151787,7.6629627357731405,-2.6294037886534274,-1.767171079117645,0.9067171171607656,-8.212419327677857,-1.3977426957521362,1
93,2024-09-18 21:24:16.984719872,TASK_BEGIN,009,-1.6043831058949936,-0.11741100784149323,7.835875417926237,-2.677593835715432,-1.7811461703747813,0.917536657250035,-7.692197909523864,-1.5312784861272548,1
94,2024-09-18 21:24:17.049616128,TASK_BEGIN,009,-1.5387901296531812,-0.11917985804380135,7.963233460582657,-2.714179767316395,-1.791969968119577,0.931211690843826,-7.14017563210119,-1.6679377856463713,1
95,2024-09-18 21:24:17.120313856,TASK_BEGIN,009,-1.4709651277273044,-0.1247333980111778,8.028213382519212,-2.7373483496555586,-1.7986655570514822,0.9470686730109124,-6.577680725937369,-1.8024005014944862,1
96,2024-09-18 21:24:17.187627264,TASK_BEGIN,009,-1.4008976690875423,-0.13363609766203124,8.016597972215383,-2.745790103760022,-1.800613182183531,0.9644472640006626,-6.027150972054835,-1.9292431781101307,1
97,2024-09-18 21:24:17.249188864,TASK_BEGIN,009,-1.3286481132671897,-0.14532885977073998,7.918224302610459,-2.7388510344931847,-1.7975411175426286,0.9827201943572011,-5.5104329505281155,-2.043351236763013,1
98,2024-09-18 21:24:18.198808832,TASK_BEGIN,009,-1.2544775396048329,-0.15917360103913392,7.728468346435813,-2.7166683573385395,-1.7894539141061356,1.0012777478268813,-5.047214061583602,-2.140280711575226,1
99,2024-09-18 21:24:18.260806144,TASK_BEGIN,009,-1.1789663454128378,-0.17450485098691398,7.449400298076822,-2.680236988674651,-1.7765429428382313,1.0194978149758294,-4.653863043744585,-2.2165039764690992,1
100,2024-09-18 21:24:18.334940928,TASK_BEGIN,009,-1.1031138071290618,-0.19067735696376925,7.090042231353344,-2.6313150552227054,-1.7591136886444498,1.0367237800283509,-4.342756556755495,-2.2694841721360794,1
101,2024-09-18 21:24:18.400955904,TASK_BEGIN,009,-1.0283951530019613,-0.20710839763843258,6.665598907867256,-2.572135328686064,-1.7375595687342567,1.0522668325301474,-4.121924045945302,-2.2976355386581875,1
102,2024-09-18 21:24:18.462580736,TASK_BEGIN,009,-0.9567527699614261,-0.2233182701339549,6.19610196579467,-2.5050354977908866,-1.7124039858844964,1.065439689207667,-3.9948271233129478,-2.3002976035362503,1
103,2024-09-18 21:24:18.538045952,TASK_BEGIN,009,-0.8905103001462511,-0.23896038012711354,5.704890834155673,-2.4321858361976436,-1.6843839678742085,1.0756128805131908,-3.9603337496396454,-2.2777622201735626,1
104,2024-09-18 21:24:18.606013952,TASK_BEGIN,009,-0.8322185995619513,-0.2538193711594142,5.216995316842782,-2.355515708300892,-1.654514743121664,1.0822821238436207,-4.0130679049724245,-2.2312956070658654,1
105,2024-09-18 21:24:19.522819072,TASK_BEGIN,009,-0.7844470082633788,-0.2677687227957416,4.757353939437368,-2.276810564310323,-1.6240984818201016,1.0851502016704597,-4.144139623103428,-2.163121317019539,1
106,2024-09-18 21:24:19.590563840,TASK_BEGIN,009,-0.7495108944467519,-0.28071176889019267,4.348962023747045,-2.197862997196888,-1.594663475854367,1.0842245377173718,-4.342111807374374,-2.076378532176524,1
107,2024-09-18 21:24:19.652087808,TASK_BEGIN,009,-0.72913641579162,-0.29254109686312163,4.011210650581286,-2.1205612075218245,-1.567811922731947,1.0799004808657606,-4.594049490032129,-1.9750634025338132,1
108,2024-09-18 21:24:19.713640960,TASK_BEGIN,009,-0.7241294437653966,-0.303126322548881,3.7586698785487234,-2.046888632229831,-1.544969379330223,1.0729817703050797,-4.886457259095422,-1.863934580812124,1
109,2024-09-18 21:24:19.791747072,TASK_BEGIN,009,-0.7341474806534555,-0.3123163212212979,3.600479317787793,-1.9789050782353226,-1.52709890701234,1.0646171412203476,-5.205931437655067,-1.748351542617034,1
110,2024-09-18 21:24:19.863217152,TASK_BEGIN,009,-0.7576354718620921,-0.3199442674101433,3.540383185654903,-1.9187545985665597,-1.5144966400397144,1.0561770597750997,-5.539498329497751,-1.6340371049803997,1
111,2024-09-18 21:24:19.930972160,TASK_BEGIN,009,-0.7919456777839952,-0.325833330272329,3.5772064071163867,-1.8686345257947492,-1.506735903589924,1.0491074690705666,-5.874774885215126,-1.5267858176685918,1
112,2024-09-18 21:24:20.866012160,TASK_BEGIN,009,-0.833625882469024,-0.32980517984626206,3.705420243951805,-1.8306444244723674,-1.5027339500708918,1.0447822613365412,-6.20025673164764,-1.4321214729697354,1
113,2024-09-18 21:24:20.928487936,TASK_BEGIN,009,-0.8788085914898762,-0.33169834889728894,3.9156074479124205,-1.8065227881950097,-1.5008963588104514,1.0443676800577173,-6.5060135858197965,-1.354893075994145,1
114,2024-09-18 21:24:21.010051072,TASK_BEGIN,009,-0.9236191144593485,-0.3313996283121953,4.194841444532722,-1.797321124287999,-1.4993238941688014,1.0487109845699085,-6.7846948813741035,-1.2988504468746718,1
115,2024-09-18 21:24:21.069542912,TASK_BEGIN,009,-0.964554281327039,-0.3288773524089788,4.5270327482223855,-1.8030651128270234,-1.4960547142167204,1.0582597672890124,-7.0324061967965825,-1.2662898916069008,1
116,2024-09-18 21:24:21.130488064,TASK_BEGIN,009,-0.9988000292465457,-0.3242033774450111,4.893381732270417,-1.8224996516276308,-1.489282358118055,1.0730135301385675,-7.249026352307421,-1.2578556051449117,1
117,2024-09-18 21:24:21.208166912,TASK_BEGIN,009,-1.0244546582066494,-0.31756276199551053,5.273210549398547,-1.8530333749981782,-1.4775176247062118,1.0925119589833552,-7.437706284482511,-1.2725455910505785,1
118,2024-09-18 21:24:21.269248000,TASK_BEGIN,009,-1.04065137783123,-0.3092548401884607,5.645332992974893,-1.8909218376889443,-1.4597192710448743,1.115863323996908,-7.603570382769075,-1.3078959823163816,1
119,2024-09-18 21:24:22.224487168,TASK_BEGIN,009,-1.0475969520423207,-0.2996851143209182,5.989811290592943,-1.931639971943379,-1.4354118051788036,1.1418020175725947,-7.752087620667358,-1.360243808071183,1
120,2024-09-18 21:24:22.292241152,TASK_BEGIN,009,-1.046524942431682,-0.2893467998204625,6.289754154475266,-1.9703458927918513,-1.4047749272120387,1.168760145692468,-7.887781688782214,-1.4249910376659778,1
121,2024-09-18 21:24:22.358541056,TASK_BEGIN,009,-1.039551773384316,-0.27879195974988946,6.5328379018250295,-2.002339681185795,-1.36869815950131,1.1949606769186574,-8.01356460839463,-1.4968853619514282,1
122,2024-09-18 21:24:22.421993984,TASK_BEGIN,009,-1.0294483140541957,-0.26859164439488803,6.712388280113337,-2.0234907850780592,-1.3287923141560634,1.2185521095528296,-8.130455171951596,-1.570387246991014,1
123,2024-09-18 21:24:22.482915072,TASK_BEGIN,009,-1.0193526209835284,-0.259288824505245,6.827929930283981,-2.030659186198828,-1.2873172078593205,1.2377857366779317,-8.237396535292756,-1.6401779289726919,1
124,2024-09-18 21:24:22.563486208,TASK_BEGIN,009,-1.0124455975236224,-0.2513535076243721,6.884992773633432,-2.0220746281842334,-1.2469902858174193,1.2512140466231718,-8.331233442848777,-1.7017865197152433,1
125,2024-09-18 21:24:22.631264000,TASK_BEGIN,009,-1.011625344251311,-0.24514452117603158,6.893928167955292,-1.9975549020328032,-1.2106784551619307,1.2578727815053896,-8.407138558271136,-1.7522034186785655,1
126,2024-09-18 21:24:23.571483904,TASK_BEGIN,009,-1.0192320490591997,-0.24087386558711157,6.867789690598908,-1.9584742189642326,-1.1810070197139941,1.2573990524816883,-8.459627408502515,-1.7902940524895419,1
127,2024-09-18 21:24:23.641361152,TASK_BEGIN,009,-1.0368639675604272,-0.23857253328212938,6.819782529189007,-1.9075052411236537,-1.159959052446778,1.2500562995200926,-8.48394084608449,-1.8168850472420464,1
128,2024-09-18 21:24:23.696710144,TASK_BEGIN,009,-1.0652967621526972,-0.23806483623334332,6.760980770830368,-1.8482348211201496,-1.1485755685254788,1.236679301834493,-8.477382556957094,-1.8345132321759474,1
129,2024-09-18 21:24:23.773447936,TASK_BEGIN,009,-1.1044813337554338,-0.2389587668397612,6.698793370643939,-1.7847530989040985,-1.1468422722210332,1.2185729832710934,-8.440254343018758,-1.8469399283853467,1
130,2024-09-18 21:24:23.840796928,TASK_BEGIN,009,-1.153567048419443,-0.2406568247829535,6.6362535478952935,-1.7212652641600132,-1.1537614991407812,1.1973837788535862,-8.376100775622149,-1.858585318884198,1
131,2024-09-18 21:24:23.898676992,TASK_BEGIN,009,-1.2109211130358,-0.24239007464763765,6.572008827420557,-1.6617302505975409,-1.167556897791279,1.1749502284485458,-8.291149389333949,-1.873985259092196,1
132,2024-09-18 21:24:23.975866880,TASK_BEGIN,009,-1.274166428327368,-0.24327803219657948,6.500937083339079,-1.609529902222929,-1.1859787752447333,1.1531465085627521,-8.193207385123198,-1.897268764389927,1
133,2024-09-18 21:24:24.883611904,TASK_BEGIN,009,-1.340276041755494,-0.24241731238176326,6.415289542100741,-1.567183990955672,-1.2066740363813822,1.1337335572657126,-8.090416514491046,-1.931639198021743,1
134,2024-09-18 21:24:24.966384640,TASK_BEGIN,009,-1.4057568458507548,-0.23899169430961198,6.306150131774985,-1.5361385110171963,-1.2275354010877664,1.1182237204567407,-7.990062599813345,-1.978928074692194,1
135,2024-09-18 21:24:25.023724032,TASK_BEGIN,009,-1.4669435326778482,-0.23237737245020956,6.1649799894609965,-1.5166787380592999,-1.2469422747974015,1.1077635071896788,-7.897557027017445,-2.039325361305071,1
136,2024-09-18 21:24:25.101395968,TASK_BEGIN,009,-1.5203678925966844,-0.22221674929024263,5.985028274993218,-1.5080037713860652,-1.2638665000125833,1.1030404676944938,-7.815829054538127,-2.1113265524163625,1
137,2024-09-18 21:24:25.163396864,TASK_BEGIN,009,-1.5631092908895499,-0.208455123597487,5.762429372027999,-1.508429622661646,-1.2778829117700763,1.1042190552168882,-7.74538287100742,-2.1918638087002704,1
138,2024-09-18 21:24:25.225884160,TASK_BEGIN,009,-1.593058499999113,-0.19134833807305354,5.496932128996706,-1.5156377225175341,-1.2891607025070158,1.110914240268673,-7.685079119417004,-2.276533538208799,1
139,2024-09-18 21:24:25.303101952,TASK_BEGIN,009,-1.6090945351487325,-0.1714480082344339,5.192305122733189,-1.5269133152167804,-1.2984886966315197,1.1222159351589764,-7.633360461430587,-2.3598118040025122,1
140,2024-09-18 21:24:26.237360896,TASK_BEGIN,009,-1.6111800779621026,-0.14956805075956872,4.856450163919058,-1.539384566462248,-1.3073073789254537,1.136769632509868,-7.589394831923011,-2.4352212292177917,1
141,2024-09-18 21:24:26.315104000,TASK_BEGIN,009,-1.6003544426229053,-0.12673361633417554,4.501188360145979,-1.550281578651988,-1.3176516603264887,1.1529024463718003,-7.553709312957314,-2.4955448995285083,1
142,2024-09-18 21:24:26.383682816,TASK_BEGIN,009,-1.5786218125182951,-0.1041075763255321,4.141668545401487,-1.557186001380794,-1.331923142175197,1.1687785151572077,-7.528239835201781,-2.5332380662543357,1
143,2024-09-18 21:24:26.438949888,TASK_BEGIN,009,-1.5487636665751432,-0.0828905123353256,3.7954271840157725,-1.5582297470062871,-1.352502116726913,1.1825803483860762,-7.516049658577934,-2.54108274320736,1
144,2024-09-18 21:24:26.519226112,TASK_BEGIN,009,-1.5140879574898023,-0.06420789019438534,3.4811532975528965,-1.5522248972624286,-1.3813004665458612,1.1927135268430293,-7.52099358777865,-2.512962941226654,1
145,2024-09-18 21:24:26.585540096,TASK_BEGIN,009,-1.4781045544695066,-0.04901450883526084,3.2171895555543193,-1.5387223328864998,-1.4193821940140674,1.198002309058035,-7.54726798941269,-2.4445946229121853,1
146,2024-09-18 21:24:26.646727936,TASK_BEGIN,009,-1.4441393113216061,-0.03803519824206544,3.0199104113526776,-1.5180247853842284,-1.466748105709471,1.1978265580931196,-7.598566717297577,-2.3341257408486866,1
147,2024-09-18 21:24:27.583544832,TASK_BEGIN,009,-1.4149434221287602,-0.03173453835888165,2.902186004115439,-1.491190818857089,-1.5223301350243699,1.1921803897733396,-7.67690685969995,-2.182566279321598,1
148,2024-09-18 21:24:27.661224192,TASK_BEGIN,009,-1.392381150340429,-0.030299686639598845,2.8720777765878838,-1.460026693051656,-1.5841615107448623,1.1816695562033748,-7.781733418800093,-1.9939730808716838,1
149,2024-09-18 21:24:27.733820928,TASK_BEGIN,009,-1.3772582611687942,-0.03363305879055191,2.931973651770191,-1.4270451704048042,-1.6496099063069123,1.1674691874798855,-7.909933050133369,-1.7753085480488628,1
150,2024-09-18 21:24:27.800570112,TASK_BEGIN,009,-1.3692884409262853,-0.041363006316992496,3.078368391227141,-1.395385680211171,-1.7155746544480208,1.1512501698970274,-8.05678834777498,-1.5359740906847872,1
151,2024-09-18 21:24:27.869478912,TASK_BEGIN,009,-1.3671565532260987,-0.05287830783133657,3.3022003302539114,-1.3686680431127969,-1.7786456088946527,1.135066610187568,-8.217296665715134,-1.2871147326564407,1
152,2024-09-18 21:24:27.935187968,TASK_BEGIN,009,-1.3686584160755746,-0.06738650841652977,3.5894834108449483,-1.3507193051852777,-1.835275202323162,1.12118594346016,-8.387184345549073,-1.0407983914954861,1
153,2024-09-18 21:24:28.005019136,TASK_BEGIN,009,-1.3709161290718803,-0.08399248497489105,3.9221145782090208,-1.3451439558472351,-1.8819968098292705,1.1118563276330757,-8.563290750565578,-0.8091070521961387,1
154,2024-09-18 21:24:28.948766208,TASK_BEGIN,009,-1.3706565927020296,-0.10178313422918121,4.278866848751405,-1.3547882142459697,-1.9156977472040604,1.1090417264874788,-8.743371101958965,-0.603163034169231,1
155,2024-09-18 21:24:29.005681152,TASK_BEGIN,009,-1.3645329546308742,-0.11989426630246221,4.636645838552116,-1.381227490887964,-1.9339233078821965,1.1141768179664688,-8.92553223335181,-0.43219125492905175,1
156,2024-09-18 21:24:29.082477056,TASK_BEGIN,009,-1.3494720394157997,-0.1375447668876889,4.97215697887954,-1.4244371659570694,-1.9351398673208655,1.1279785051063218,-9.107526128287997,-0.3027811922328775,1
157,2024-09-18 21:24:29.144540928,TASK_BEGIN,009,-1.3230288917122568,-0.15404377481393006,5.263945010870598,-1.4827469290694084,-1.9188846911899378,1.1503236372732573,-9.286148401718252,-0.2184765743508159,1
158,2024-09-18 21:24:29.206577152,TASK_BEGIN,009,-1.2837264407447522,-0.16878969393788654,5.494385030089859,-1.5530680447520042,-1.8857887632256536,1.1801966167350972,-9.456993573042988,-0.17971925241260148,1
159,2024-09-18 21:24:29.287699968,TASK_BEGIN,009,-1.231352663040698,-0.18127654563362555,5.6511707980156975,-1.6313136531565824,-1.8375092458985813,1.215718893232987,-9.614586041032286,-0.18408633240047678,1
160,2024-09-18 21:24:29.346277120,TASK_BEGIN,009,-1.1671545690496903,-0.1911080160917188,5.7281943765516425,-1.7129073711035978,-1.7766213632597692,1.254271007814434,-9.7526128632218,-0.22672576108906972,1
161,2024-09-18 21:24:30.284724736,TASK_BEGIN,009,-1.0938225091601168,-0.19801110979961928,5.725866283373929,-1.7932780636298575,-1.7065070340807327,1.2927080727482156,-9.86408958386866,-0.30091251720025586,1
162,2024-09-18 21:24:30.367354112,TASK_BEGIN,009,-1.015183996023529,-0.20184465766231577,5.6508113976716094,-1.8683066392439927,-1.6312353959302393,1.3276611318723268,-9.941590449399452,-0.39869095603064764,1
163,2024-09-18 21:24:30.424005120,TASK_BEGIN,009,-0.9356538477092081,-0.20260084908644316,5.5149670757923825,-1.9347556720350023,-1.5553644002078326,1.355893530412254,-9.977653628306012,-0.511586844373395,1
164,2024-09-18 21:24:30.502892032,TASK_BEGIN,009,-0.8596117460658002,-0.2004020135646247,5.334363751375321,-1.9906476264338937,-1.4835848845200024,1.3746425467637482,-9.965275705545887,-0.6313515638801572,1
165,2024-09-18 21:24:30.570657024,TASK_BEGIN,009,-0.7908867166918215,-0.19549909535755267,5.127824105392817,-2.035449147568934,-1.4202442875152985,1.3818747948446979,-9.898412676822195,-0.7506768627743461,1
166,2024-09-18 21:24:30.638474752,TASK_BEGIN,009,-0.7324283096448333,-0.18827247150028964,4.915532536822803,-2.0699480716041063,-1.3688959856717648,1.3764341211629914,-9.772480225100582,-0.8638014113723632,1
167,2024-09-18 21:24:30.690714112,TASK_BEGIN,009,-0.6861349595410694,-0.17922923180493522,4.717348625928737,-2.095862258801076,-1.33197098496067,1.358098931341056,-9.584783416822088,-0.966921592568694,1
168,2024-09-18 21:24:31.624038144,TASK_BEGIN,009,-0.6527726500746825,-0.16899445942449035,4.550975701578831,-2.115344449769896,-1.3105729026466129,1.3275642391573648,-9.334831967070535,-1.058333333398131,1
169,2024-09-18 21:24:31.689955072,TASK_BEGIN,009,-0.6319546605773595,-0.1582993518103984,4.4303212482480765,-2.13053475759089,-1.304407119873536,1.2863554909109858,-9.024648146418354,-1.1382840327364916,1
170,2024-09-18 21:24:31.752097024,TASK_BEGIN,009,-0.6222130616437418,-0.1479689103330989,4.364378439148112,-2.1432156090743693,-1.3118814672095362,1.2366788427971065,-8.659039330364983,-1.2085974969046422,1
171,2024-09-18 21:24:31.814126080,TASK_BEGIN,009,-0.6212046868663839,-0.1389088118702119,4.35682164185791,-2.154588982426559,-1.3303553060828543,1.1812110797353264,-8.245581541988106,-1.2721770481594499,1
172,2024-09-18 21:24:31.891275776,TASK_BEGIN,009,-0.6260381257948222,-0.13209025904469404,4.40633613709046,-2.165208323060449,-1.3564598921631008,1.1228417414649445,-7.794272307190556,-1.3324519689690175,1
173,2024-09-18 21:24:31.952814336,TASK_BEGIN,009,-0.6336529075648357,-0.1285337111660767,4.507551891545176,-2.1750647595029626,-1.3864399145898259,1.0644023833100316,-7.317102006373164,-1.392789210245636,1
174,2024-09-18 21:24:32.030764288,TASK_BEGIN,009,-0.641186739830633,-0.12929198378325193,4.652352025343312,-2.1837762641168714,-1.4164923175884832,1.0084309441043091,-6.82765812189393,-1.4559090154310776,1
175,2024-09-18 21:24:32.959968000,TASK_BEGIN,009,-0.6463075917733693,-0.13542925931496097,4.83121395064927,-2.1908002357050282,-1.4430614655390293,0.957003337004574,-6.3405506977286406,-1.5234044847311317,1
176,2024-09-18 21:24:33.038074880,TASK_BEGIN,009,-0.6475213114795355,-0.14798988457800644,5.034242540339217,-2.195593906167318,-1.4630520762895207,0.9116335217356418,-5.870380268030961,-1.5954950637727034,1
177,2024-09-18 21:24:33.109691904,TASK_BEGIN,009,-0.6444737195850793,-0.16794951163695238,5.251772865223128,-2.197692282756304,-1.4739580007385553,0.8732285143088749,-5.43041818187313,-1.6710322440880694,1
178,2024-09-18 21:24:33.162936064,TASK_BEGIN,009,-0.6382398222314007,-0.19614136496854356,5.474644684381268,-2.196721655872948,-1.4739407645982068,0.8420937954407292,-5.031740423390332,-1.747598970226088,1
179,2024-09-18 21:24:33.240633088,TASK_BEGIN,009,-0.6315402824454492,-0.23316014186507217,5.6943813822971965,-2.192396193101912,-1.4619125673086688,0.8179942155714983,-4.683341750945855,-1.8215590936841308,1
180,2024-09-18 21:24:33.302716160,TASK_BEGIN,009,-0.6287884915242561,-0.2792628919331153,5.903541918649226,-2.1845618115145937,-1.43765694974903,0.8002649645921176,-4.39284986337768,-1.8881246624219856,1
181,2024-09-18 21:24:33.380813056,TASK_BEGIN,009,-0.6358981600020384,-0.33428859162520713,6.096346631737339,-2.173315210251047,-1.4019520592536006,0.7879515159197908,-4.16707088121998,-1.9416171715655348,1
182,2024-09-18 21:24:34.317388800,TASK_BEGIN,009,-0.6598555068961154,-0.39759996794610675,6.269409801575796,-2.159152056835637,-1.3566131854240557,0.7799612143946708,-4.012077125776671,-1.9759842897905078,1
183,2024-09-18 21:24:34.379874048,TASK_BEGIN,009,-0.7081024638250668,-0.4680419122652039,6.422251887485039,-2.1430736994785247,-1.3043844800077147,0.7752166230054177,-3.9329475846478523,-1.9854953020473223,1
184,2024-09-18 21:24:34.457536768,TASK_BEGIN,009,-0.7877702638059829,-0.5439251710013403,6.5572593967916655,-2.1266074487090845,-1.2486634996686716,0.77278820379848,-3.933209756859296,-1.9654977745106947,1
185,2024-09-18 21:24:34.524570112,TASK_BEGIN,009,-0.9048191259246213,-0.6230491496592698,6.678982892156234,-2.111718196122668,-1.1931162955245522,0.7719731749769816,-4.01408638200346,-1.9130955529244822,1
186,2024-09-18 21:24:34.593928960,TASK_BEGIN,009,-1.0631893806779287,-0.7027571465468218,6.793009033000685,-2.1006014397460726,-1.1412911999763418,0.7723054829427705,-4.173844961234571,-1.8276074026891092,1
187,2024-09-18 21:24:34.657933056,TASK_BEGIN,009,-1.2640854523717455,-0.7800070335438424,6.904752221293813,-2.095370541833355,-1.0963138519074347,0.7735125507290153,-4.40744813785616,-1.7107432961939621,1
188,2024-09-18 21:24:34.717894912,TASK_BEGIN,009,-1.5054939907553693,-0.8514608579915813,7.018416288167254,-2.0976999752503263,-1.0606825846281078,0.7754493840715776,-4.706466773710873,-1.5665123940472934,1
189,2024-09-18 21:24:35.641275904,TASK_BEGIN,009,-1.782019141666271,-0.9136148224446917,7.136341552704092,-2.1085168032675523,-1.036152188662269,0.7780365807119386,-5.059189150564125,-1.4008853101430825,1
190,2024-09-18 21:24:35.703350016,TASK_BEGIN,009,-2.0850871586807624,-0.9629787860802204,7.258843507658015,-2.127789972922975,-1.0236952650897138,0.7812193511843137,-5.450992808569152,-1.2212314846010117,1
191,2024-09-18 21:24:35.781024000,TASK_BEGIN,009,-2.403507647176161,-0.9962963033503069,7.384387373667428,-2.1544040876008728,-1.023547701028136,0.7849580652912379,-5.86511895995228,-1.0356011278264599,1
192,2024-09-18 21:24:35.843054080,TASK_BEGIN,009,-2.724314568056381,-1.0107959291793385,7.509843299345077,-2.186105389236922,-1.0353674327801272,0.7892513223470117,-6.283897475811499,-0.8519833532013076,1
193,2024-09-18 21:24:35.920635136,TASK_BEGIN,009,-3.033797267584674,-1.0044560600911576,7.63076967178463,-2.2195745432444602,-1.0585173088623607,0.7941729377762935,-6.6902367417446404,-0.6776694424722319,1
194,2024-09-18 21:24:35.982806784,TASK_BEGIN,009,-3.318641858420862,-0.9762379361058542,7.741890389292312,-2.250725073309145,-1.0924086557751187,0.7998878362402876,-7.068896997252135,-0.5188077330486985,1
195,2024-09-18 21:24:36.056246016,TASK_BEGIN,009,-3.5670653047936076,-0.9262357906900746,7.837839663947402,-2.2752404716042274,-1.1367845083703647,0.806622650000251,-7.407034364825671,-0.38021137492803575,1
196,2024-09-18 21:24:36.993815040,TASK_BEGIN,009,-3.7697728975684215,-0.8557240743955719,7.913955518561582,-2.289195861031108,-1.191847881201611,0.8146020899405854,-7.6940225537096385,-0.26540960237764816,1
197,2024-09-18 21:24:37.055842048,TASK_BEGIN,009,-3.9205950076534606,-0.7671111573743187,7.966847871666117,-2.289549321515436,-1.2582142638575275,0.8239869566878548,-7.921143609593665,-0.17680749764767517,1
198,2024-09-18 21:24:37.133848832,TASK_BEGIN,009,-4.016742231740541,-0.6638135198798475,7.994720371534634,-2.274392468720393,-1.336712887131114,0.8348403128385141,-8.08167304873622,-0.11578359645557103,1
199,2024-09-18 21:24:37.196333056,TASK_BEGIN,009,-4.058694951460129,-0.5500566666578813,7.997618120881648,-2.2430008759631272,-1.4280859199893525,0.8471236061146641,-8.171306363359806,-0.08266897359623614,1
200,2024-09-18 21:24:37.269840128,TASK_BEGIN,009,-4.049811811058822,-0.4306077173479281,7.977686487486062,-2.1958039905379767,-1.5326720132394502,0.8607130961801357,-8.188408319794316,-0.07670491609847109,1
201,2024-09-18 21:24:37.334552064,TASK_BEGIN,009,-3.995772650763041,-0.3104608833609069,7.939273300686167,-2.134356462417907,-1.6501692553165666,0.8754276795095799,-8.133628910342678,-0.09612972341127678,1
202,2024-09-18 21:24:37.396621824,TASK_BEGIN,009,-3.9039322400404335,-0.19451908350471697,7.888581028018245,-2.0612880101276203,-1.779521643911823,0.8910582018535744,-8.009062458003838,-0.13845091128869752,1
203,2024-09-18 21:24:38.348773888,TASK_BEGIN,009,-3.782631859664319,-0.08731299190318155,7.832796406585072,-1.9801638514657844,-1.9189108597525006,0.9073852485851952,-7.817653862526549,-0.20082033534890015,1
204,2024-09-18 21:24:38.414759936,TASK_BEGIN,009,-3.6405353356572774,0.007222474196679454,7.778940190032979,-1.8952353753268292,-2.0658046919309223,0.924175055589404,-7.563276306696467,-0.28036917038678344,1
205,2024-09-18 21:24:38.484366848,TASK_BEGIN,009,-3.4860501844664338,0.08590431046388473,7.732671290190705,-1.8110974077171034,-2.2170208773187015,0.9411549192739035,-7.251244203366418,-0.37438353936623636,1
206,2024-09-18 21:24:38.552144896,TASK_BEGIN,009,-3.32687354512386,0.14638891483945016,7.697162618949855,-1.7322701179095576,-2.36881783977768,0.9579848413408087,-6.888759655091453,-0.48028147497245977,1
207,2024-09-18 21:24:38.605994752,TASK_BEGIN,009,-3.169708460201726,0.18721057184097306,7.672343550123656,-1.662768189767054,-2.5170781154788417,0.9742491266063977,-6.485034591415643,-0.5954476156517295,1
208,2024-09-18 21:24:38.683625984,TASK_BEGIN,009,-3.0201681338147957,0.20779358518311503,7.654935866772167,-1.6057673219184405,-2.6576136092278855,0.9894802901887597,-6.051220720599958,-0.7170250804331331,1
209,2024-09-18 21:24:38.746114048,TASK_BEGIN,009,-2.882815722617994,0.20843814772975647,7.639376865548688,-1.5634241723720146,-2.786518877581401,1.0032049793553008,-5.60030222640665,-0.8417565324427952,1
210,2024-09-18 21:24:39.687428864,TASK_BEGIN,009,-2.761251750614749,0.19026741626981702,7.619268033689964,-1.5368065897085976,-2.900464384366876,1.0149893413905415,-5.14676209855877,-0.9659675818062382,1
211,2024-09-18 21:24:39.767503872,TASK_BEGIN,009,-2.658178266094994,0.15513243005704871,7.58880853389656,-1.525866003076329,-2.9968765526112744,1.0244683321172683,-4.70576902112167,-1.0857783396437264,1
212,2024-09-18 21:24:39.824986880,TASK_BEGIN,009,-2.575414781448631,0.10548424793952159,7.54375897329268,-1.5294354722898853,-3.074002647338459,1.0313605394324692,-4.292088315116784,-1.1975184911541314,1
213,2024-09-18 21:24:39.903085824,TASK_BEGIN,009,-2.5138920994591403,0.04422588145696628,7.481793380690216,-1.5452970484699127,-3.1308862034095437,1.0354841115850686,-3.919299505222136,-1.298137934864816,1
214,2024-09-18 21:24:39.970839040,TASK_BEGIN,009,-2.4736693171662414,-0.02544958405816721,7.402401116839341,-1.5703473307290718,-3.1673052312614884,1.036787563205132,-3.5996041716220697,-1.3853764323793225,1
215,2024-09-18 21:24:40.038659072,TASK_BEGIN,009,-2.453998522658941,-0.10023506323953167,7.306505280641724,-1.6008001574979613,-3.1837206477797504,1.0353922594087177,-3.343875803461527,-1.457665180537869,1
216,2024-09-18 21:24:40.105649920,TASK_BEGIN,009,-2.453429714862621,-0.17689844702359162,7.195902231625868,-1.6323531637273943,-3.181242276166842,1.0316288480858788,-3.161523480736654,-1.5139313632108633,1
217,2024-09-18 21:24:41.044545024,TASK_BEGIN,009,-2.4699371911243237,-0.25247020524646197,7.072712446017008,-1.6603568866743164,-3.1615956200357487,1.0260477768989447,-3.06017057069666,-1.5534511707546523,1
218,2024-09-18 21:24:41.106583040,TASK_BEGIN,009,-2.501067891352817,-0.3244002515489549,6.939035086833281,-1.68008202575947,-3.1270764300716865,1.0193904656312567,-3.045282718981347,-1.5757548477775438,1
219,2024-09-18 21:24:41.169067008,TASK_BEGIN,009,-2.5441208382274416,-0.3906578365952541,6.796884087333933,-1.6870998406134916,-3.0804744890913645,1.0125178131534784,-3.1197007855102696,-1.580533104724734,1
220,2024-09-18 21:24:41.246705152,TASK_BEGIN,009,-2.596332323474176,-0.44977306213908314,6.64839222820104,-1.6777054806574008,-3.0249321039723363,1.0063032996759438,-3.2830780411790115,-1.5675356389415775,1
221,2024-09-18 21:24:41.308737024,TASK_BEGIN,009,-2.6550194451002485,-0.5008363246354655,6.496136210284153,-1.6493145784983942,-2.9637231369611126,1.001510219450401,-3.5313852201360296,-1.5364843293445414,1
222,2024-09-18 21:24:41.386795776,TASK_BEGIN,009,-2.7176675897554214,-0.5434637403615813,6.343359526027445,-1.6007894111928949,-2.899995615734668,0.9986851125642492,-3.8566236210761113,-1.4870425067957593,1
223,2024-09-18 21:24:41.449361152,TASK_BEGIN,009,-2.7819828078720663,-0.5777251595269709,6.1939847329808915,-1.5326369655925824,-2.8365438294454557,0.9980959178415566,-4.246785912666522,-1.418917710647508,1
224,2024-09-18 21:24:42.360662016,TASK_BEGIN,009,-2.8459377497900653,-0.6040391670446688,6.052382152385053,-1.447001711988831,-2.775635706996071,0.9997192501626655,-4.6860354363833014,-1.3321749976842576,1
225,2024-09-18 21:24:42.439268096,TASK_BEGIN,009,-2.9078343329680902,-0.6230557675087672,5.922848409921357,-1.3474216952910227,-2.718882323533354,1.0032622653357586,-5.155054551600314,-1.2277479983553663,1
226,2024-09-18 21:24:42.507922176,TASK_BEGIN,009,-2.9663668021300746,-0.6355552162776332,5.808890108138212,-1.23841664220613,-2.667147833389548,1.008204815959728,-5.631641905285723,-1.107984444750424,1
227,2024-09-18 21:24:42.571849216,TASK_BEGIN,009,-3.020615604917886,-0.642384453466049,5.712616359028924,-1.1250375142337288,-2.6205309544348636,1.013854108256215,-6.091781037035012,-0.9769549223476073,1
228,2024-09-18 21:24:42.633720064,TASK_BEGIN,009,-3.0699189322016323,-0.6444325149581653,5.634545879572152,-1.0124708726915679,-2.578454018806513,1.0194105073920021,-6.51122595676502,-0.8403151871673717,1
229,2024-09-18 21:24:42.710959104,TASK_BEGIN,009,-3.1136485765641124,-0.6426274663220178,5.573875902142803,-0.905716052678248,-2.53985853059253,1.0240492414509244,-6.867266963445445,-0.7047546957846818,1
230,2024-09-18 21:24:42.772980992,TASK_BEGIN,009,-3.1509658294327525,-0.6379338012824346,5.528895353355172,-0.8093264213032072,-2.50345326264624,1.027018101305393,-7.140302301657832,-0.5772729814710439,1
231,2024-09-18 21:24:43.714813952,TASK_BEGIN,009,-3.1806334672164756,-0.631336277938355,5.4971372636651425,-0.7272265244723901,-2.467940532578611,1.0277353747941318,-7.315247420409673,-0.46449959035245053,1
232,2024-09-18 21:24:43.777588992,TASK_BEGIN,009,-3.2009502120798254,-0.6238053820873349,5.475252623652059,-0.6626295524947308,-2.432188009788944,1.0258678801009278,-7.383031694698719,-0.3721335128877315,1
233,2024-09-18 21:24:43.855696128,TASK_BEGIN,009,-3.209834123773604,-0.6162528863317401,5.458975605029313,-0.6180593241807542,-2.395372305049529,1.021384402829939,-7.3420383907544355,-0.30453901229951613,1
234,2024-09-18 21:24:43.917745152,TASK_BEGIN,009,-3.2050057692787397,-0.6094995188507182,5.443464587458391,-0.5954474971882352,-2.3571159547316123,1.0145882047116177,-7.198820976797349,-0.2645626325531954,1
235,2024-09-18 21:24:43.993701888,TASK_BEGIN,009,-3.1841865567957557,-0.6042753839763197,5.423955075589909,-0.5962549385382839,-2.3175805498297595,1.006119927210809,-6.967491557988765,-0.25361084504620657,1
236,2024-09-18 21:24:44.056524800,TASK_BEGIN,009,-3.1452672801812915,-0.6012532142453164,5.396432085389915,-0.6215467777568975,-2.2774617246688083,0.9969154134964343,-6.667804136893212,-0.2719509387982641,1
237,2024-09-18 21:24:44.119013120,TASK_BEGIN,009,-3.0864541789307043,-0.6010934075968185,5.358044382579115,-0.6719529267516965,-2.2378923748686175,0.9881189089424846,-6.322533235236618,-0.3191185695218272,1
238,2024-09-18 21:24:45.068162816,TASK_BEGIN,009,-3.006414099586033,-0.6044772118457201,5.30716477716565,-0.7475172189978045,-2.200314221034392,0.9809691621914733,-5.954819128690792,-0.39428709506422227,1
239,2024-09-18 21:24:45.140323072,TASK_BEGIN,009,-2.9044393430398614,-0.6121133239276665,5.243144067879268,-0.8475192612887279,-2.1663482855468765,0.976676207181637,-5.585827332682995,-0.49650539618386985,1
240,2024-09-18 21:24:45.207456000,TASK_BEGIN,009,-2.780653078193686,-0.6247074579671938,5.165888189058578,-0.9703457150109608,-2.1376390344183287,0.9763021366432254,-5.232877096461409,-0.6247697703545281,1
241,2024-09-18 21:24:45.275872000,TASK_BEGIN,009,-2.636241268221653,-0.6428910623385168,5.075463781650101,-1.1134249971665968,-2.1156572829732165,0.980657355392463,-4.908303030271441,-0.7779083940815967,1
242,2024-09-18 21:24:45.342955008,TASK_BEGIN,009,-2.4736502697772966,-0.6671222096385194,4.97188072202392,-1.2732108914084643,-2.1014993353679396,0.9902185257654309,-4.6192578674295115,-0.9542928849580331,1
243,2024-09-18 21:24:45.411522048,TASK_BEGIN,009,-2.296711682157008,-0.6975805556207612,4.8550810820465395,-1.4452166406752243,-2.0957364766198125,1.0050722349893308,-4.368276081325219,-1.1514738834810216,1
244,2024-09-18 21:24:45.479270144,TASK_BEGIN,009,-2.110688427447547,-0.7340724236979869,4.725124804887757,-1.6241138562068778,-2.098348139223698,1.0248935587491383,-4.154213645842447,-1.365878537951166,1
245,2024-09-18 21:24:46.397164032,TASK_BEGIN,009,-1.9221794765023787,-0.7759607990639978,4.582528534334501,-1.8039092461657662,-2.108750901752843,1.048965493960441,-3.973355306387315,-1.5926534967650274,1
246,2024-09-18 21:24:46.466638080,TASK_BEGIN,009,-1.7387822475340124,-0.8221385771483191,4.428734419728648,-1.9782263344260635,-2.1259130060032363,1.0762301134059422,-3.8206159008715668,-1.8256511570736875,1
247,2024-09-18 21:24:46.532771072,TASK_BEGIN,009,-1.5685006414725107,-0.8710530441315009,4.266671640730944,-2.140709016200986,-2.1485187715355414,1.1053553860277523,-3.690678639420836,-2.0575454260879127,1
248,2024-09-18 21:24:46.600551936,TASK_BEGIN,009,-1.4189953783783709,-0.9207695299170828,4.10108521149131,-2.2854693039042244,-2.1751426251435353,1.1348082862696875,-3.57884325613615,-2.280107844615369,1
249,2024-09-18 21:24:46.662125056,TASK_BEGIN,009,-1.296804271775324,-0.9690582826869454,3.9382020103309334,-2.407431095894632,-2.2044108497457455,1.1629319910803042,-3.4814489272333375,-2.4846626751719514,1
250,2024-09-18 21:24:46.723431936,TASK_BEGIN,009,-1.2066663138094087,-1.0135085643993804,3.7848185934677723,-2.5025041912783625,-2.235149601001176,1.1880339377598836,-3.395971624591063,-2.662663673735841,1
251,2024-09-18 21:24:46.800184064,TASK_BEGIN,009,-1.1510889709388397,-1.0516932205364242,3.6473204729039246,-2.5676431999263984,-2.266516626091855,1.2085003659921991,-3.321099294354395,-2.8062829312428272,1
252,2024-09-18 21:24:47.748832000,TASK_BEGIN,009,-1.1302517908442709,-1.0813980638941247,3.5309087232734933,-2.600844520947449,-2.298074445928819,1.2229354342254388,-3.2569942165790287,-2.908918894780799,1
253,2024-09-18 21:24:47.806736128,TASK_BEGIN,009,-1.1422530090731733,-1.1008892483068324,3.438999190030436,-2.601075370039827,-2.3297281954694924,1.2302846800862344,-3.2055646198752585,-2.965603200973911,1
254,2024-09-18 21:24:47.883946752,TASK_BEGIN,009,-1.1836335452011018,-1.1091452869687115,3.3728590658644664,-2.5681508484499638,-2.3615026068345006,1.229899044639917,-3.17026871734844,-2.973351178665924,1
255,2024-09-18 21:24:47.951773952,TASK_BEGIN,009,-1.2500533131018874,-1.105974656061705,3.3317247485013173,-2.502655241658741,-2.3932476734790114,1.2215392323437417,-3.1551961152951695,-2.931471053617353,1
256,2024-09-18 21:24:48.010822144,TASK_BEGIN,009,-1.3369516508727737,-1.0919885826031057,3.3135113459048964,-2.4060012868451026,-2.424416190179173,1.2053528258243609,-3.163818093513047,-2.8417448115372577,1
257,2024-09-18 21:24:48.087764992,TASK_BEGIN,009,-1.4400514858988107,-1.0684576790176097,3.3158856017624676,-2.2806041206605827,-2.4539942437591837,1.1818467329120186,-3.198077526476699,-2.7083771703798964,1
258,2024-09-18 21:24:48.151271936,TASK_BEGIN,009,-1.5556617839656508,-1.037109231549008,3.3372814984671058,-2.1300384796879417,-2.4805750372413202,1.1518543417944844,-3.2580431190441086,-2.5377210400135986,1
259,2024-09-18 21:24:49.084229120,TASK_BEGIN,009,-1.6808021403089408,-0.999920424592086,3.377454244531861,-1.959038480873972,-2.502531034554623,1.1164879308359588,-3.341910699006347,-2.3378638997674717,1
260,2024-09-18 21:24:49.162806272,TASK_BEGIN,009,-1.813171813595718,-0.9589419812607733,3.437316849700272,-1.773278181432777,-2.5182320344749827,1.0770703362368153,-3.446202874837586,-2.11810973731431,1
261,2024-09-18 21:24:49.224914944,TASK_BEGIN,009,-1.9509678607953862,-0.9161606969201387,3.518169861336707,-1.5789947303933476,-2.5262493975648614,1.0350484602655299,-3.566179684593359,-1.8883323099373013,1
262,2024-09-18 21:24:49.301733888,TASK_BEGIN,009,-2.0925856508970018,-0.8734039581156937,3.620751183183926,-1.3825938813156327,-2.525513096660692,0.991904674874975,-3.696365775765636,-1.6582248078130921,1
263,2024-09-18 21:24:49.369510912,TASK_BEGIN,009,-2.236306314642822,-0.8322982968662542,3.7444243427208956,-1.190344960027213,-2.515440358537714,0.9490905154266187,-3.8309103364366943,-1.4365897292458703,1
264,2024-09-18 21:24:49.426316800,TASK_BEGIN,009,-2.3801164423398498,-0.7942828158799446,3.8866349191756013,-1.008186078219194,-2.4960678140126737,0.9079935614930565,-3.963577917769884,-1.2308409337167914,1
265,2024-09-18 21:24:49.503947008,TASK_BEGIN,009,-2.5217434997035886,-0.760648234316122,4.042774779960308,-0.8415822217154802,-2.468173925091926,0.8699220190754274,-4.087595723054283,-1.0467564568895096,1
266,2024-09-18 21:24:50.448449024,TASK_BEGIN,009,-2.6588527254542687,-0.7325582260902079,4.206500280696963,-0.6953482476025651,-2.4333308277534806,0.8360814188348421,-4.195891454478666,-0.8884018108391432,1
267,2024-09-18 21:24:50.504857856,TASK_BEGIN,009,-2.7892616415460334,-0.7110273869803101,4.370384556034219,-0.5734165863112033,-2.3938323707401947,0.8075317746269698,-4.281975796323375,-0.7581722965798251,1
268,2024-09-18 21:24:50.580952832,TASK_BEGIN,009,-2.911074937084012,-0.6968594768691696,4.526776696516105,-0.4786227852126752,-2.352500875867667,0.7851316102882455,-4.341132128306979,-0.6569364019837118,1
269,2024-09-18 21:24:50.651879168,TASK_BEGIN,009,-3.022747295941192,-0.6905657507754396,4.668725002723328,-0.4125789615183996,-2.3124188817292417,0.7694789274347434,-4.371309422423984,-0.5842154511499893,1
270,2024-09-18 21:24:50.719675904,TASK_BEGIN,009,-3.123102374146497,-0.6922897153909655,4.7907152947551905,-0.37563876613872005,-2.2766335161565694,0.7608543507944555,-4.373347617551191,-0.5383278165768602,1
271,2024-09-18 21:24:50.786644992,TASK_BEGIN,009,-3.2113000418822955,-0.7017683560189415,4.889004342500404,-0.366926003587288,-2.2478784769980185,0.7591773192927493,-4.350587857351034,-0.5164976554875036,1
272,2024-09-18 21:24:50.847783936,TASK_BEGIN,009,-3.286768513445489,-0.7183452372813707,4.961570060997053,-0.3844215248398509,-2.2283612198083187,0.7639974539550919,-4.308144953294864,-0.5150051432448635,1
273,2024-09-18 21:24:51.799216128,TASK_BEGIN,009,-3.3491632093159223,-0.7410227120412242,5.007924439430268,-0.42513716854420613,-2.219629708064848,0.774537098904515,-4.252016394673595,-0.5294797668899323,1
274,2024-09-18 21:24:51.867058176,TASK_BEGIN,009,-3.398394441850872,-0.7685305375709255,5.0290235967734604,-0.4853956764605186,-2.2224959584569723,0.7897784131865712,-4.1880013624098416,-0.5553630363912041,1
275,2024-09-18 21:24:51.934856960,TASK_BEGIN,009,-3.434720372080736,-0.7994003376259177,5.0273318533688505,-0.5611776127446622,-2.237005390118545,0.808570155234363,-4.120421470139068,-0.5884399435252506,1
276,2024-09-18 21:24:52.002663936,TASK_BEGIN,009,-3.458869081904874,-0.8320484505705362,5.006936599504866,-0.6484654913575749,-2.2624532007035167,0.8297242404639502,-4.050913508644973,-0.6252817193584086,1
277,2024-09-18 21:24:52.070514944,TASK_BEGIN,009,-3.4721378041345154,-0.8648711430178638,4.9735552849202485,-0.7435485661403388,-2.297431512110098,0.8520780905228098,-3.977763327067101,-0.6634750942425764,1
278,2024-09-18 21:24:52.138300160,TASK_BEGIN,009,-3.476436968763758,-0.8963460417082307,4.934315995481154,-0.8432784278979926,-2.3399046721202716,0.8745178014842404,-3.8960570792801956,-0.7015936616115139,1
279,2024-09-18 21:24:52.203216128,TASK_BEGIN,009,-3.4742691724590866,-0.925124650253549,4.897241870805715,-0.9452388699892481,-2.3873579708786865,0.8959869741017771,-3.7985541445132402,-0.7389742944891813,1
280,2024-09-18 21:24:53.123766784,TASK_BEGIN,009,-3.4686367041867308,-0.9500997204159344,4.870453876879027,-1.0477789071345296,-2.437060562247717,0.9155194167825461,-3.6769998396723467,-0.7754350815684459,1
281,2024-09-18 21:24:53.192033024,TASK_BEGIN,009,-3.4628929550394303,-0.9704320149399684,4.861274203918085,-1.1499020425178996,-2.486405815896131,0.9323062064048289,-3.5235420856658606,-0.8110517388986125,1
282,2024-09-18 21:24:53.259807232,TASK_BEGIN,009,-3.4605657716530667,-0.9855318819626037,4.87544420788131,-1.2510448917055033,-2.5332352947841907,0.9457699483384824,-3.331915344906901,-0.8460235997881347,1
283,2024-09-18 21:24:53.317341952,TASK_BEGIN,009,-3.4651424082890196,-0.9950183498572018,4.916535645359063,-1.3507895649593522,-2.576069688421577,0.955619500628841,-3.098277337705254,-0.8805772311435169,1
284,2024-09-18 21:24:53.395359232,TASK_BEGIN,009,-3.479790631199469,-0.9986910205914205,4.985681911192552,-1.4485995506863472,-2.614206331046183,0.961884186983726,-2.8218436563903637,-0.9148350760731271,1
285,2024-09-18 21:24:53.462572032,TASK_BEGIN,009,-3.507057023435236,-0.9965253832175368,5.081875719360355,-1.5437002420356023,-2.64767677068366,0.9649355984052187,-2.5053528788473285,-0.9486481406102214,1
286,2024-09-18 21:24:53.530906880,TASK_BEGIN,009,-3.5486372226352096,-0.9886756552356508,5.202771561194103,-1.635128132349222,-2.677108937457699,0.9654939194957372,-2.1551627779444624,-0.9814858899695963,1
287,2024-09-18 21:24:54.468844032,TASK_BEGIN,009,-3.6052691581790084,-0.9754738395273137,5.345485195767914,-1.7218406888314655,-2.7035505686126733,0.9646052325046627,-1.7809248633923227,-1.0124655600259471,1
288,2024-09-18 21:24:54.542169088,TASK_BEGIN,009,-3.6767293211838568,-0.9574281998610976,5.507026013529884,-1.8027822992376845,-2.728263353757746,0.9635765580043707,-1.3950602932387126,-1.0404972459976576,1
289,2024-09-18 21:24:54.608221952,TASK_BEGIN,009,-3.7619017286107437,-0.9352217849815767,5.684470570889026,-1.8768763642693913,-2.7524805680421784,0.9638661973876503,-1.0121949040725615,-1.064449230380651,1
290,2024-09-18 21:24:54.671896064,TASK_BEGIN,009,-3.8589138244595356,-0.9096974258690307,5.875044159743397,-1.9429441949423483,-2.7771553305274144,0.9669423669705896,-0.6484717155678184,-1.0832588015654614,1
291,2024-09-18 21:24:54.732292096,TASK_BEGIN,009,-3.9653291053996544,-0.8818124709507621,6.076065784667052,-1.9995942670562934,-2.8027425110787805,0.9741307265206742,-0.3205791866086595,-1.0959969387042405,1
292,2024-09-18 21:24:54.812050176,TASK_BEGIN,009,-4.078356889583657,-0.8525648422131538,6.2847516422087795,-2.045184541449294,-2.8290445944297478,0.9864642615292043,-0.04438828981981614,-1.1019509220881274,1
293,2024-09-18 21:24:54.873415936,TASK_BEGIN,009,-4.195037536110496,-0.8229102603643453,6.498059856538804,-2.0779174329931416,-2.8551495949370542,1.0045422463748075,0.16674880094126987,-1.1007394586490837,1
294,2024-09-18 21:24:55.824345088,TASK_BEGIN,009,-4.312388709374444,-0.7936873479649013,6.71270516629439,-2.0960045040578095,-2.879486531662673,1.0284141654342622,0.30370266181807504,-1.0924020621322559,1
295,2024-09-18 21:24:55.892219904,TASK_BEGIN,009,-4.427506022373418,-0.7655594922888362,6.925204457730456,-2.097807363330442,-2.8999829297742172,1.0575115761596536,0.3627740141569289,-1.0774262088391748,1
296,2024-09-18 21:24:55.952187136,TASK_BEGIN,009,-4.5376088994356305,-0.7389860632824328,7.1317607896409365,-2.0819528936766076,-2.914275474398227,1.0906407364422221,0.3460135666979286,-1.0567276276968514,1
297,2024-09-18 21:24:56.024782080,TASK_BEGIN,009,-4.6400568544847784,-0.7142298229806913,7.3280929067910225,-2.0474814448457463,-2.9199650353114612,1.1260440882940908,0.26052595270183876,-1.0316033012512391,1
298,2024-09-18 21:24:56.095639040,TASK_BEGIN,009,-4.732387777503961,-0.6913845615857024,7.509541302989676,-1.9940542680581432,-2.914934465434353,1.1615423333798967,0.11703143758993081,-1.003697238707366,1
299,2024-09-18 21:24:56.148814080,TASK_BEGIN,009,-4.812382896855136,-0.6704024023071046,7.6715996733484735,-1.9221989621332782,-2.897674866217207,1.1947500585494044,-0.07170531200450414,-0.9750262464602782,1
300,2024-09-18 21:24:56.226532096,TASK_BEGIN,009,-4.878109850695491,-0.6511249422680445,7.810622651918591,-1.8335278728961695,-2.8675127087702568,1.2233290517721431,-0.2921125063565615,-0.9480068294170683,1
301,2024-09-18 21:24:57.169957120,TASK_BEGIN,009,-4.927923344448424,-0.6333364779021632,7.9242749596806785,-1.7308192105008802,-2.82469424973308,1.245239557807762,-0.5306915449595898,-0.9253415236559819,1
302,2024-09-18 21:24:57.231816960,TASK_BEGIN,009,-4.9604571878849475,-0.616839581212022,8.011504336017504,-1.617877180737581,-2.7703636091192205,1.258957152695468,-0.774779711017095,-0.9097178654991773,1
303,2024-09-18 21:24:57.310846208,TASK_BEGIN,009,-4.974634405782729,-0.6015318136872747,8.072159466999231,-1.4992040333945191,-2.70647992160718,1.2636259665600689,-1.0134259632554758,-0.9034059206160918,1
304,2024-09-18 21:24:57.377864960,TASK_BEGIN,009,-4.9696841584438385,-0.5874626063837912,8.106505766512624,-1.3796204818051108,-2.635684843490225,1.259131028529252,-1.2383658603722285,-0.9078724220041992,1
305,2024-09-18 21:24:57.445061888,TASK_BEGIN,009,-4.945153274293444,-0.5748586217896151,8.114832744049645,-1.263969310138602,-2.561100143456029,1.2460883494129256,-1.4447659289057175,-0.9235209067884993,1
306,2024-09-18 21:24:57.513091072,TASK_BEGIN,009,-4.9009123365816105,-0.5641110202656465,8.097186733299996,-1.1569405754804467,-2.486046207305422,1.2257589796258104,-1.6313948595934877,-0.9496382509204842,1
307,2024-09-18 21:24:57.581065984,TASK_BEGIN,009,-4.837137148313113,-0.5557271884911347,8.053101975320535,-1.0629615069709144,-2.4137197753167112,1.1999013353491481,-1.800134098314422,-0.9845527976506446,1
308,2024-09-18 21:24:58.497561088,TASK_BEGIN,009,-4.754241968730709,-0.5502589345167911,7.981280433342789,-0.9860775613083202,-2.34689226861079,1.1705864742960386,-1.9549842589925597,-1.0259483294517033,1
309,2024-09-18 21:24:58.565822976,TASK_BEGIN,009,-4.652784984088242,-0.5482175236290308,7.879435588416088,-0.9297939349755103,-2.287667204988004,1.1400013321710236,-2.1009430265026054,-1.071257233386354,1
310,2024-09-18 21:24:58.634211072,TASK_BEGIN,009,-4.533387466671506,-0.549984587004555,7.744553836885404,-0.8969073484559177,-2.2372991068037207,1.110254477243654,-2.2431827142774132,-1.1180317991100828,1
311,2024-09-18 21:24:58.702000896,TASK_BEGIN,009,-4.396675500815447,-0.5557347904314345,7.573570477382358,-0.8893991841843086,-2.196067483528171,1.0831939629558363,-2.3866870836739085,-1.1641801463103096,1
312,2024-09-18 21:24:58.769810944,TASK_BEGIN,009,-4.243246345071555,-0.5653861377319265,7.364246695028671,-0.9084177476312826,-2.163229890636007,1.060255082126445,-2.536216595514079,-1.2080080707037752,1
313,2024-09-18 21:24:58.837621760,TASK_BEGIN,009,-4.073691179763804,-0.5785851097732435,7.116038597583782,-0.9542855308185684,-2.137089107961383,1.0423580317486796,-2.696405822041879,-1.2481207793211884,1
314,2024-09-18 21:24:58.900346880,TASK_BEGIN,009,-3.888683606447999,-0.5947317650880946,6.830864787792079,-1.0264636370480027,-2.1151546290794325,1.0298563142967412,-2.87182468878221,-1.283316599235561,1
315,2024-09-18 21:24:59.847505152,TASK_BEGIN,009,-3.689091919543515,-0.6130475435042884,6.513689672902235,-1.1234796763305828,-2.094344044082727,1.022523639292541,-3.066819422529024,-1.3125758988679892,1
316,2024-09-18 21:24:59.915839744,TASK_BEGIN,009,-3.476102982508991,-0.6326717830505068,6.172708818314345,-1.2428615931070341,-2.0712284930774336,1.0195851421199247,-3.284983929164211,-1.3351500666224392,1
317,2024-09-18 21:24:59.971101184,TASK_BEGIN,009,-3.2514057472084543,-0.652759980569653,5.818954850581836,-1.381114918527563,-2.0423625120115356,1.0198106770906505,-3.5283680585514205,-1.3506729282897127,1
318,2024-09-18 21:25:00.050138880,TASK_BEGIN,009,-3.0174390448375368,-0.6725658704242168,5.465422967833381,-1.5337679127777248,-2.004658032163973,1.0216613203196474,-3.79681826801829,-1.3592098317963306,1
319,2024-09-18 21:25:00.112625920,TASK_BEGIN,009,-2.777596560115775,-0.6915034837533841,5.126014365871217,-1.6954958932607371,-1.9556918380446426,1.0234556003188011,-4.087757735330911,-1.3612291749419039,1
320,2024-09-18 21:25:00.178249984,TASK_BEGIN,009,-2.536234258591522,-0.7091886175635929,4.814535438236984,-1.860354414465602,-1.8938883306491976,1.0235331536612744,-4.396307761183345,-1.357550492068202,1
321,2024-09-18 21:25:00.254632192,TASK_BEGIN,009,-2.2983953460869193,-0.7254608370576693,4.5437676974317,-2.022152462554932,-1.818604727869739,1.0204077134480762,-4.7154269860228055,-1.3493160630536463,1
322,2024-09-18 21:25:01.198128896,TASK_BEGIN,009,-2.069320066655679,-0.740388685117274,4.324467699050988,-2.174918684754064,-1.730161570376234,1.012895213117128,-5.035957346564993,-1.3379656869117142,1
323,2024-09-18 21:25:01.261059072,TASK_BEGIN,009,-1.8539284846690873,-0.7542516492180448,4.1642904004198815,-2.3133574770067766,-1.6298373785436437,1.0002043444270015,-5.346815417940816,-1.3251505547242473,1
324,2024-09-18 21:25:01.333722112,TASK_BEGIN,009,-1.6564389394558212,-0.7674867776445833,4.066899650782724,-2.4332247455189453,-1.519830219451939,0.9819952874171304,-5.635566940748912,-1.3125644044245373,1
325,2024-09-18 21:25:01.400625920,TASK_BEGIN,009,-1.4801543412336842,-0.7806040815852886,4.031578149451354,-2.5315762387766285,-1.4031724101193168,0.9584130887582928,-5.8892578982455435,-1.3017626697024824,1
326,2024-09-18 21:25:01.462774016,TASK_BEGIN,009,-1.327360848367732,-0.7940922734826819,4.053453274761883,-2.6068425796762593,-1.2835665077255523,0.9300807228951862,-6.095182258584365,-1.2940618357890648,1
327,2024-09-18 21:25:01.537022208,TASK_BEGIN,009,-1.1992925598886208,-0.8083358744914523,4.124250927093143,-2.6587418627653,-1.1651194943331882,0.898034442255618,-6.241545720624237,-1.2905246954427092,1
328,2024-09-18 21:25:01.602452992,TASK_BEGIN,009,-1.0961553934920534,-0.8235630467665933,4.233415613470469,-2.6881014720910996,-1.0519993298297992,0.8636123295096199,-6.3182874398474285,-1.2919753158962295,1
329,2024-09-18 21:25:02.548773888,TASK_BEGIN,009,-1.0172107773658792,-0.8398434636886453,4.369401414691201,-2.6966490588326564,-0.9480857140814992,0.8283279777177548,-6.318188589194791,-1.2990234412861066,1
330,2024-09-18 21:25:02.601716992,TASK_BEGIN,009,-0.9609017053203135,-0.8571354202817616,4.520860995854001,-2.686799098339749,-0.8566848930008587,0.7937514597077494,-6.238058685266904,-1.3121067481633035,1
331,2024-09-18 21:25:02.684433152,TASK_BEGIN,009,-0.9249979660411213,-0.8753496122196182,4.677533071118152,-2.661463359689935,-0.780338547253348,0.761400764527309,-6.079638916626449,-1.3315345563171093,1
332,2024-09-18 21:25:02.752149248,TASK_BEGIN,009,-0.906748110521524,-0.894393292662783,4.830878286296049,-2.623910259587984,-0.7207277062173455,0.7326426907355525,-5.849942899856917,-1.3575229770200472,1
333,2024-09-18 21:25:02.819923968,TASK_BEGIN,009,-0.9030284193940259,-0.9141888240849739,4.974556558940457,-2.5776512183735036,-0.6786618812744907,0.7086074002607241,-5.560926100352071,-1.3902475282495974,1
334,2024-09-18 21:25:02.880335872,TASK_BEGIN,009,-0.9104758324752675,-0.9346812195427001,5.104621433320835,-2.526293583258098,-0.6541245940889763,0.6901219273027387,-5.228519732414037,-1.4299061171592593,1
335,2024-09-18 21:25:02.942300160,TASK_BEGIN,009,-0.9256047320186843,-0.955839929350867,5.219226090363224,-2.4733179140956487,-0.6463240267414823,0.6776653246822193,-4.8712040498043825,-1.4767035292784358,1
336,2024-09-18 21:25:03.873681920,TASK_BEGIN,009,-0.9449304021430277,-0.9776500199873835,5.317840060619814,-2.4217860148869432,-0.6537208693280241,0.671347497348755,-4.508429736550944,-1.5306878821876069,1
337,2024-09-18 21:25:03.942183168,TASK_BEGIN,009,-0.9651247660020443,-1.0000920088513365,5.400265910593054,-2.3740402694506235,-0.674071296881233,0.6709158421819491,-4.159167320370347,-1.5915199327998961,1
338,2024-09-18 21:25:04.009964032,TASK_BEGIN,009,-0.9831993751852164,-1.0231154693874367,5.465868790349459,-2.331504859709815,-0.7045361111698938,0.675792482815741,-3.8406593100207456,-1.658343583827425,1
339,2024-09-18 21:25:04.062493952,TASK_BEGIN,009,-0.9966757367609491,-1.046611948833495,5.5132475331438515,-2.294689830276155,-0.7418304392280001,0.685131675820258,-3.5673914639753512,-1.7298084046921103,1
340,2024-09-18 21:25:04.139968000,TASK_BEGIN,009,-1.0037096380551431,-1.070387661672026,5.5402753197271535,-2.2633887328707796,-0.7823430403645967,0.6978768944499834,-3.3505113695928923,-1.8041214761660207,1
341,2024-09-18 21:25:04.202681088,TASK_BEGIN,009,-1.0031701508005193,-1.0941370305332085,5.54439182798265,-2.236941630453727,-0.822234817262049,0.7128159561853227,-3.197908937264459,-1.8790035304737054,1
342,2024-09-18 21:25:04.280297216,TASK_BEGIN,009,-0.9946793030536373,-1.1174331149395025,5.523172197757098,-2.214449872096606,-0.8576163785342973,0.7286577410153463,-3.1146904290024287,-1.9515897807277267,1
343,2024-09-18 21:25:05.219752960,TASK_BEGIN,009,-0.9785994503077019,-1.1397556230362151,5.475114867862423,-2.1949373238053744,-0.8848597997962766,0.7441439857220595,-3.103502883258375,-2.0184339307867263,1
344,2024-09-18 21:25:05.291718144,TASK_BEGIN,009,-0.955952832449253,-1.1605522080514123,5.4003260366794645,-2.177481991762929,-0.900974421042493,0.7581768664723281,-3.164510601076122,-2.0757064261483156,1
345,2024-09-18 21:25:05.359054080,TASK_BEGIN,009,-0.9282749813741592,-1.1793038080781566,5.300754428917191,-2.1612832968439553,-0.9039089323601508,0.7699244728646945,-3.295149482554366,-2.119548401620606,1
346,2024-09-18 21:25:05.426930944,TASK_BEGIN,009,-0.8974320139081237,-1.1955690678517181,5.179900963169013,-2.1456419120184327,-0.8926814785499089,0.77887380973719,-3.4897235121252246,-2.146499423179962,1
347,2024-09-18 21:25:05.494055936,TASK_BEGIN,009,-0.8654584335891792,-1.2090017810574138,5.042252491596931,-2.1299395646889465,-0.8673421589078234,0.7848278754198459,-3.738925760166278,-2.15391874341715,1
348,2024-09-18 21:25:05.562827264,TASK_BEGIN,009,-0.8344559606339096,-1.219349462648499,4.892856887385898,-2.113744520139203,-0.8288439931826834,0.7878681373923262,-4.029542076146125,-2.140325831170965,1
349,2024-09-18 21:25:05.630563840,TASK_BEGIN,009,-0.8065270710540542,-1.2264508728677985,4.7373237693918995,-2.0970464604015695,-0.7788968303641368,0.7883074595843896,-4.344643547594604,-2.105620238649438,1
350,2024-09-18 21:25:06.573957120,TASK_BEGIN,009,-0.7836737566721053,-1.2302501901796676,4.5821803805941625,-2.080481961087235,-0.7198585686066012,0.7866481626464722,-4.6645432126957616,-2.051162917237,1
351,2024-09-18 21:25:06.630642944,TASK_BEGIN,009,-0.7676332638414183,-1.2308289623782134,4.435181911698473,-2.0653973022462613,-0.6546832766992849,0.7835468829879491,-4.968591564595204,-1.9796939200848558,1
352,2024-09-18 21:25:06.709284864,TASK_BEGIN,009,-0.7597015915412231,-1.2284392378356235,4.305079963965066,-2.053680136058401,-0.5868604853314456,0.7797775017083466,-5.2374393445847165,-1.8950844481412965,1
353,2024-09-18 21:25:06.770905088,TASK_BEGIN,009,-0.760624409497206,-1.2235192067619873,4.200644470754931,-2.047380037277188,-0.5202416435701385,0.776183768718947,-5.455142404641978,-1.8019768778292948,1
354,2024-09-18 21:25:06.831960064,TASK_BEGIN,009,-0.7705902273056954,-1.2166810513425557,4.129270048501778,-2.0482137227344466,-0.4587310896524193,0.7736193962245799,-5.610624582340232,-1.7053803727275425,1
355,2024-09-18 21:25:06.910415872,TASK_BEGIN,009,-0.7892928814303147,-1.2086713580376418,4.095786467066911,-2.0571048596714423,-0.4059001711820807,0.7728763121258131,-5.6982449348886055,-1.6102575385197955,1
356,2024-09-18 21:25:06.972902144,TASK_BEGIN,009,-0.8160048777180086,-1.2003154463147678,4.101890528332381,-2.0738850262846458,-0.36459704982399027,0.7746098701650392,-5.717504648867875,-1.5211357459594577,1
357,2024-09-18 21:25:07.924007936,TASK_BEGIN,009,-0.8496411027898186,-1.1924578358926825,4.146190232892756,-2.0971930078063057,-0.3366359873673275,0.7792813578631557,-5.672363771309357,-1.4417883752179579,1
358,2024-09-18 21:25:07.985704192,TASK_BEGIN,009,-0.8888460435556369,-1.1859010698372525,4.224594437371904,-2.124544680467054,-0.32263787671506133,0.7871321022368482,-5.57071606017399,-1.3750050597560524,1
359,2024-09-18 21:25:08.059649792,TASK_BEGIN,009,-0.9321245402556688,-1.1813454754889874,4.3308714552228595,-2.152555220471027,-0.32201970040259315,0.798181676961759,-5.424022106099148,-1.3224670579189564,1
360,2024-09-18 21:25:08.125448960,TASK_BEGIN,009,-0.9779623336516396,-1.179346673846083,4.45740793222971,-2.1773267692127476,-0.33308530116752383,0.8122329719194011,-5.246620113911976,-1.284776398355657,1
361,2024-09-18 21:25:08.187478016,TASK_BEGIN,009,-1.0248728903256283,-1.180309187206008,4.596164518323136,-2.1949754447854093,-0.3531978052807451,0.8288779357798852,-5.054367368295476,-1.2616539788279941,1
362,2024-09-18 21:25:08.248619264,TASK_BEGIN,009,-1.0713926564529543,-1.1845140216777625,4.739664702019477,-2.202189078987694,-0.3790256673601446,0.8475081772250591,-4.862797278670985,-1.2522210355295247,1
363,2024-09-18 21:25:08.326781952,TASK_BEGIN,009,-1.1160914653046508,-1.1921623088321043,4.881871940105307,-2.1967058732603597,-0.4068265497742424,0.8673327024758808,-4.685407176552306,-1.2552343517743112,1
364,2024-09-18 21:25:09.249103104,TASK_BEGIN,009,-1.157617586353271,-1.203420200832513,5.018877974025931,-2.177659777396646,-0.4327424221223884,0.8874090698231712,-4.532616626878382,-1.2692058535703834,1
365,2024-09-18 21:25:09.316742912,TASK_BEGIN,009,-1.1947580296684368,-1.2184533580303851,5.149300731554236,-2.145733866228195,-0.4531109493111793,0.9067057369839713,-4.411514765318305,-1.2924239143492051,1
366,2024-09-18 21:25:09.384766976,TASK_BEGIN,009,-1.2264957063461204,-1.237436184843521,5.274362753926785,-2.1030629116673936,-0.4647714086843637,0.9242013018794443,-4.3262192361983445,-1.3229377708416346,1
367,2024-09-18 21:25:09.451528960,TASK_BEGIN,009,-1.2520408120566033,-1.2605259695740147,5.397712666066662,-2.052915665103914,-0.4653036866424324,0.9389950939120565,-4.278495745826184,-1.3585794779796831,1
368,2024-09-18 21:25:09.505288960,TASK_BEGIN,009,-1.2708236220945037,-1.287805876245942,5.52491002051087,-1.9992565812723881,-0.4531743646857093,0.9503966633214728,-4.268127452469803,-1.397094617821965,1
369,2024-09-18 21:25:09.580424192,TASK_BEGIN,009,-1.2824804093232574,-1.319211466637546,5.662421085767815,-1.9462783446527854,-0.4278125738906277,0.9579828711376487,-4.292713808930373,-1.4363885311364388,1
370,2024-09-18 21:25:09.642043136,TASK_BEGIN,009,-1.2868786777068928,-1.3544595374128174,5.816344987411372,-1.8979965656924678,-0.3896237259380382,0.9616264032493033,-4.347167464542846,-1.474786424594477,1
371,2024-09-18 21:25:10.597949952,TASK_BEGIN,009,-1.2841773432463413,-1.3930001741734876,5.991461308432179,-1.8579950508533942,-0.33992783363626056,0.9614972518719105,-4.42349140288864,-1.5111807942065272,1
372,2024-09-18 21:25:10.657419008,TASK_BEGIN,009,-1.2748764523404956,-1.434010435967077,6.1909100798259615,-1.8293171204733463,-0.2808248084718565,0.9580340590351353,-4.511130560072842,-1.5450237232507624,1
373,2024-09-18 21:25:10.719449856,TASK_BEGIN,009,-1.259831991966055,-1.4764336460627556,6.416207411050083,-1.8143768343578832,-0.21500248946915862,0.9518848775690469,-4.597794807581535,-1.5761992250076462,1
374,2024-09-18 21:25:10.796285952,TASK_BEGIN,009,-1.2402444811297206,-1.5190508715372726,6.667174429285577,-1.814779383774284,-0.14550403676780121,0.9438226886445729,-4.670484186288731,-1.6048316470939594,1
375,2024-09-18 21:25:10.870013952,TASK_BEGIN,009,-1.2176283594039088,-1.5605660731606188,6.941684827214887,-1.831086760511464,-0.07548972499492992,0.9346487740822621,-4.716470402637341,-1.631081279922803,1
376,2024-09-18 21:25:10.934422016,TASK_BEGIN,009,-1.1937446773842277,-1.5996915367341167,7.235408720272435,-1.862649928213166,-0.008051682620759688,0.9251072604809156,-4.724198898921074,-1.6549602193911754,1
377,2024-09-18 21:25:11.002198016,TASK_BEGIN,009,-1.1704606950964822,-1.6352268277501134,7.541832398195778,-1.907576013084446,0.053876944048697056,0.9158326839885201,-4.684255751067846,-1.676185125915542,1
378,2024-09-18 21:25:11.938695168,TASK_BEGIN,009,-1.149521216063448,-1.66612741916508,7.852669706139028,-1.9628133806727517,0.10753889601553353,0.9073311786903767,-4.590426260778958,-1.694082481510797,1
379,2024-09-18 21:25:12.015791872,TASK_BEGIN,009,-1.1322881393575706,-1.6915521142773084,8.158382693911024,-2.024308857016855,0.15037288471305477,0.899974425323196,-4.4406383889676215,-1.7075681593414014,1
380,2024-09-18 21:25:12.084266752,TASK_BEGIN,009,-1.1195565725076857,-1.710871081982819,8.448498909188968,-2.08723621382032,0.18010808650073215,0.8939870106369374,-4.237483240197595,-1.7152386937727557,1
381,2024-09-18 21:25:12.152060928,TASK_BEGIN,009,-1.111518621266166,-1.7236308830612757,8.711916978397085,-2.1463566611694054,0.1949320833835641,0.8894299883071435,-3.9881086905376524,-1.7156073267294587,1
382,2024-09-18 21:25:12.219867904,TASK_BEGIN,009,-1.107865952293892,-1.7294996605213422,8.937646543372432,-2.196544646271123,0.19365742842487735,0.8862015991077067,-3.703570954617089,-1.7074507252843814,1
383,2024-09-18 21:25:12.287672064,TASK_BEGIN,009,-1.1079707893264636,-1.728222950843369,9.115993986969153,-2.2333830115627955,0.17580517092148187,0.8840731519534716,-3.3979056862473516,-1.6901555191807138,1
384,2024-09-18 21:25:12.341486080,TASK_BEGIN,009,-1.1110674702905132,-1.7196063820527823,9.239667162730932,-2.253635684795186,0.1415980701719739,0.8827572565234381,-3.087009429173338,-1.6639480546861218,1
385,2024-09-18 21:25:13.298435072,TASK_BEGIN,009,-1.1163786816270023,-1.703525157038332,9.30427726179225,-2.2554606084683813,0.09193668699371724,0.8819818092877685,-2.787169635884041,-1.629950206053197,1
386,2024-09-18 21:25:13.367147008,TASK_BEGIN,009,-1.123190355582771,-1.6799501304849889,9.308158807805658,-2.238369545534927,0.02839574873230306,0.8815416255357277,-2.513199096166898,-1.5900736293499842,1
387,2024-09-18 21:25:13.434947072,TASK_BEGIN,009,-1.1309132698187894,-1.6489790746557291,9.251817110311714,-2.2030347920064455,-0.04683411307505181,0.8813244398253309,-2.2766358360710615,-1.5467955855818842,1
388,2024-09-18 21:25:13.495479040,TASK_BEGIN,009,-1.1391319097781187,-1.6108715735881582,9.13737490974834,-2.151042913985252,-0.1311262262413734,0.8813216122673528,-2.0847011834985016,-1.5028673335600908,1
389,2024-09-18 21:25:13.570552064,TASK_BEGIN,009,-1.1475999961988854,-1.5660940849174152,8.96817411177983,-2.084634262393497,-0.22165086851787022,0.8816227567040679,-1.9402240706041807,-1.461043125479518,1
390,2024-09-18 21:25:13.638418944,TASK_BEGIN,009,-1.1561843551656252,-1.5153709205214791,8.74847425111167,-2.0064055761838326,-0.31553400873461007,0.8823919161848741,-1.8421722180782643,-1.4239187728331935,1
391,2024-09-18 21:25:13.702131968,TASK_BEGIN,009,-1.1648226007341125,-1.4597215653115523,8.483238093114647,-1.9189834008202629,-0.4098962528082507,0.8838378870774302,-1.786452121751857,-1.3938491956097043,1
392,2024-09-18 21:25:14.638246144,TASK_BEGIN,009,-1.1735396055854217,-1.4004664755852536,8.178145746713549,-1.8247691145379121,-0.5018257209473871,0.8861927073742445,-1.7669425803728265,-1.3728083392026653,1
393,2024-09-18 21:25:14.716243968,TASK_BEGIN,009,-1.1825082361742114,-1.3391876240179128,7.839845557631496,-1.7258387264381574,-0.5883728587893406,0.8896998420503739,-1.7768001967766252,-1.3621283021542687,1
394,2024-09-18 21:25:14.785416960,TASK_BEGIN,009,-1.192114019224713,-1.277630728534358,7.476101832647161,-1.6239393351288722,-0.6666207562093137,0.8946074447314092,-1.8098751182717925,-1.3622124785617193,1
395,2024-09-18 21:25:14.853158912,TASK_BEGIN,009,-1.2029719548707376,-1.217559278471507,7.095428073498643,-1.5204687350108035,-0.7338057515401071,0.9011572821902394,-1.861788561575631,-1.3723729059342022,1
396,2024-09-18 21:25:14.920944896,TASK_BEGIN,009,-1.2158487174469212,-1.1606058752362733,6.706194580141473,-1.4164435607828016,-0.7874344115884337,0.9095584697734174,-1.9301926384801595,-1.3908709093191158,1
397,2024-09-18 21:25:14.979070720,TASK_BEGIN,009,-1.2314871853767233,-1.1081693130325203,6.315707138126488,-1.3125745918763179,-0.8254100903046974,0.919952085066603,-2.0141630021906667,-1.415143762834843,1
398,2024-09-18 21:25:15.056256000,TASK_BEGIN,009,-1.2503831527062976,-1.0613734467849858,5.929870971520031,-1.2094948942767152,-0.8462081964314294,0.9323849968081159,-2.113149505426442,-1.442164478355085,1
399,2024-09-18 21:25:15.968761088,TASK_BEGIN,009,-1.2725980300940363,-1.0210706547944417,5.553646886331523,-1.1080216799897142,-0.8490474216515504,0.9467960284506953,-2.2259844795803856,-1.4688784963422559,1
400,2024-09-18 21:25:16.039561984,TASK_BEGIN,009,-1.297696110893104,-0.9878549729770202,5.191914645837554,-1.0093010486413756,-0.8339466308132663,0.9630034106749019,-2.350286496611605,-1.4926270046645675,1
401,2024-09-18 21:25:16.094537216,TASK_BEGIN,009,-1.3248448594540336,-0.9620494508709383,4.850101780571635,-0.9148053923445306,-0.8016361689331949,0.980691908700489,-2.4824030399572443,-1.5114532410608819,1
402,2024-09-18 21:25:16.172034048,TASK_BEGIN,009,-1.3530201863448152,-0.9436560373486106,4.534259964446527,-0.8262671589575021,-0.7533948346544339,0.9994101591601987,-2.6178137631917195,-1.5242425192313414,1
403,2024-09-18 21:25:16.234532352,TASK_BEGIN,009,-1.3811977996113005,-0.9322945285797454,4.25082382368703,-0.7456442131361228,-0.6908836583346842,1.0185828626119469,-2.7518045467684193,-1.530703298565,1
404,2024-09-18 21:25:16.311258112,TASK_BEGIN,009,-1.4084462247090501,-0.9271771873135608,4.006412833307512,-0.675135929109112,-0.6159820865120312,1.037529308219517,-2.880254931243248,-1.5312205143293731,1
405,2024-09-18 21:25:16.378135040,TASK_BEGIN,009,-1.4339200139602755,-0.9271519059028853,3.8076393124547496,-0.6171800427061525,-0.5306248476455228,1.0554824542761378,-3.000334199675839,-1.5266424112155728,1
406,2024-09-18 21:25:17.321629184,TASK_BEGIN,009,-1.456802336904903,-0.9308162712151301,3.6606354075581784,-0.5743504151116274,-0.4366964689785856,1.0716182606256148,-3.110770995329227,-1.5180876283258373,1
407,2024-09-18 21:25:17.390231040,TASK_BEGIN,009,-1.47625067844566,-0.9366781959046486,3.5703120833874644,-0.5491552428837169,-0.33604814532030264,1.0851077667381832,-3.2115343629118085,-1.5068150438670123,1
408,2024-09-18 21:25:17.457646080,TASK_BEGIN,009,-1.491388924156759,-0.9433234593284604,3.5397217320892347,-0.5438112726782053,-0.23061908543427756,1.0951895613199851,-3.303250412612576,-1.4941126671871912,1
409,2024-09-18 21:25:17.525272064,TASK_BEGIN,009,-1.5013573138982916,-0.9495532990844823,3.5698185276283634,-0.5600693029991026,-0.1225588861686617,1.1012447407148258,-3.386852470321823,-1.4811477074452064,1
410,2024-09-18 21:25:17.589036800,TASK_BEGIN,009,-1.5053708288507939,-0.95447753860459,3.6596090595247794,-0.5991054968207431,-0.014237121794827012,1.1028501867695242,-3.4635920895546586,-1.468791553055445,1
411,2024-09-18 21:25:17.651036928,TASK_BEGIN,009,-1.5027223485620242,-0.9575690477025233,3.8065106465898935,-0.6614352011265019,0.0919052403595686,1.0997921631830183,-3.53513415796939,-1.4574951053922218,1
412,2024-09-18 21:25:17.729204736,TASK_BEGIN,009,-1.4927449880737191,-0.9586848366005636,4.006658751706693,-0.7468042884181186,0.19360464020747495,1.092041812956711,-3.6034450454962497,-1.4472732899952214,1
413,2024-09-18 21:25:18.672480256,TASK_BEGIN,009,-1.4748128499418318,-0.9580525001867097,4.254868068256631,-0.8540626433745468,0.28900227082290425,1.079712335899003,-3.6704299991969074,-1.4377916629155578,1
414,2024-09-18 21:25:18.730294016,TASK_BEGIN,009,-1.4484158372927347,-0.956223656023074,4.5441283757636,-0.981063409298131,0.3767713340727422,1.0630159889024036,-3.737477451242243,-1.4285161520225023,1
415,2024-09-18 21:25:18.808081920,TASK_BEGIN,009,-1.413262875038623,-0.953999140916754,4.864915359276382,-1.1246280111064184,0.45615998820739095,1.0422278927098663,-3.805141072942623,-1.4188982969700434,1
416,2024-09-18 21:25:18.875871744,TASK_BEGIN,009,-1.3693567385633565,-0.9523299639477242,5.204841940600797,-1.2806046647137226,0.5269717416822864,1.0176635208043956,-3.8731099307158936,-1.4085655496550595,1
417,2024-09-18 21:25:18.943702784,TASK_BEGIN,009,-1.3170344499053395,-0.9522019282285241,5.548957805252819,-1.4440299517406954,0.5894439797232883,0.989677987759737,-3.9404381754274165,-1.3974630612465913,1
418,2024-09-18 21:25:18.996840192,TASK_BEGIN,009,-1.2570084579935668,-0.9545164044376319,5.880524853754046,-1.609354460035925,0.6440065858946923,0.9586842291558827,-4.005920875288744,-1.3858888750230052,1
419,2024-09-18 21:25:19.074480896,TASK_BEGIN,009,-1.190440660968812,-0.9599770428934429,6.18188967450968,-1.770674710779161,0.6909986546804384,0.9251778476503563,-4.068460037698025,-1.374393206406819,1
420,2024-09-18 21:25:19.992719104,TASK_BEGIN,009,-1.1190370290236464,-0.9689918195544449,6.435345220357203,-1.921972496453549,0.7304632184054423,0.8897567886438505,-4.127227231107066,-1.36356309501434,1
421,2024-09-18 21:25:20.052093952,TASK_BEGIN,009,-1.045098981768016,-0.9816081894538821,6.62419211987367,-2.057409782776927,0.7620902074335755,0.8531273531072758,-4.181567653211768,-1.3537765930987937,1
422,2024-09-18 21:25:20.130096896,TASK_BEGIN,009,-0.9714624518312981,-0.9975016334580473,6.7341164729873375,-2.1716936650171097,0.785288268987405,0.8160949627414664,-4.230775098670847,-1.3450432745012681,1
423,2024-09-18 21:25:20.193295872,TASK_BEGIN,009,-0.9013018988140024,-1.016025381352713,6.754636553816822,-2.2604624478509585,0.7993051978841793,0.7795433140114587,-4.273862762010003,-1.3369954279284155,1
424,2024-09-18 21:25:20.254816768,TASK_BEGIN,009,-0.8378313613093973,-1.0363090347097277,6.680206359563963,-2.320608279220053,0.8033248718137896,0.7444060367763697,-4.309381199341876,-1.3290059245397825,1
425,2024-09-18 21:25:20.337325312,TASK_BEGIN,009,-0.7839680978769507,-1.05737633437644,6.510774658632687,-2.3504735540448753,0.7965239198211028,0.7116392662602214,-4.335389738341292,-1.3203742457264853,1
426,2024-09-18 21:25:20.405104128,TASK_BEGIN,009,-0.7420159509821305,-1.078253363314555,6.251913138066701,-2.3499242226293546,0.7781336147175056,0.6821996226642152,-4.3497573440127,-1.3105225104498344,1
427,2024-09-18 21:25:21.345641984,TASK_BEGIN,009,-0.71338936096192,-1.0980610031153222,5.914692109288466,-2.3203325862149256,0.7475766607963034,0.6570117625786414,-4.35078340700187,-1.2991321516164869,1
428,2024-09-18 21:25:21.408528128,TASK_BEGIN,009,-0.6984027362424452,-1.11609645699221,5.515299002423588,-2.2644711436209994,0.704683419944465,0.6369055901475974,-4.337817160508939,-1.2861740970693147,1
429,2024-09-18 21:25:21.471013888,TASK_BEGIN,009,-0.6961925594094303,-1.1318934939648526,5.074317309958284,-2.1863157900118444,0.6498918870367046,0.6225311272374433,-4.311574110700971,-1.2718687990269537,1
430,2024-09-18 21:25:21.551408896,TASK_BEGIN,009,-0.7048269057717217,-1.1452467709814933,4.615760687485742,-2.090804487979592,0.5843345781456684,0.6142821348662815,-4.274179890672435,-1.2566596164160921,1
431,2024-09-18 21:25:21.619966976,TASK_BEGIN,009,-0.7215784486143458,-1.1562037127614309,4.166026028695769,-1.9835902743155018,0.5098089595062928,0.6122509199889485,-4.229132888525983,-1.241218642191314,1
432,2024-09-18 21:25:21.687779072,TASK_BEGIN,009,-0.7432883456387711,-1.165032107007428,3.7526453873417287,-1.8707554361248082,0.428685992521261,0.616216358987913,-4.18121192122427,-1.2264314800259275,1
433,2024-09-18 21:25:21.755407872,TASK_BEGIN,009,-0.766766252240476,-1.1721591316487334,3.402525289170109,-1.7584482558206032,0.343790538643311,0.6256603978839586,-4.136131068869512,-1.2133459224460512,1
434,2024-09-18 21:25:22.683590912,TASK_BEGIN,009,-0.7892004326988373,-1.1780785559564808,3.1397232471028294,-1.652475907546049,0.2582504119616684,0.6398113113251072,-4.099759604966689,-1.2031369247875412,1
435,2024-09-18 21:25:22.766738688,TASK_BEGIN,009,-0.8085447548359127,-1.183239778229305,2.983282064842093,-1.55791988313773,0.1753056504553586,0.6577090845703942,-4.077029381550931,-1.197102071136376,1
436,2024-09-18 21:25:22.834544896,TASK_BEGIN,009,-0.8238245208407461,-1.1879455530952094,2.945518078657742,-1.4788108124711208,0.09809405633307083,0.6782780144824246,-4.070896633170581,-1.1966181939261822,1
437,2024-09-18 21:25:22.902318848,TASK_BEGIN,009,-0.8353039265032838,-1.1922857845570605,3.030733180958001,-1.4178743634131126,0.02945577675110869,0.7003878739504789,-4.081648954989188,-1.202996185108574,1
438,2024-09-18 21:25:22.970094848,TASK_BEGIN,009,-0.8444842212843355,-1.1961220627808329,3.2343340452099474,-1.3763645196295373,-0.028207570374779493,0.7228987936196554,-4.106671668660057,-1.2172529316511067,1
439,2024-09-18 21:25:23.037915136,TASK_BEGIN,009,-0.8539225201035885,-1.1991190650062042,3.5426767652376405,-1.3540089679019593,-0.07302657538539598,0.7447042473333074,-4.140670678625301,-1.2398885636086756,1
440,2024-09-18 21:25:23.105725952,TASK_BEGIN,009,-0.866873357156944,-1.2008093270836908,3.9340118366746926,-1.3490928660018677,-0.10374449456098897,0.7647864621620051,-4.176247278471441,-1.2707685034956568,1
441,2024-09-18 21:25:24.038347008,TASK_BEGIN,009,-0.8867913331026406,-1.2006771157291596,4.380573598997787,-1.358705585398754,-0.11980472166999727,0.782280785971346,-4.204713029680605,-1.309151511507335,1
442,2024-09-18 21:25:24.116208896,TASK_BEGIN,009,-0.9167950260290281,-1.1982431582517716,4.85142812143138,-1.3791380950614642,-0.1214385282283736,0.7965327078951898,-4.217020397626107,-1.3538332099313801,1
443,2024-09-18 21:25:24.183971840,TASK_BEGIN,009,-0.9592028242930536,-1.193131147327138,5.315471687655361,-1.406351752533609,-0.1097113739435829,0.8071272702557688,-4.204575769448853,-1.403345426690053,1
444,2024-09-18 21:25:24.251785216,TASK_BEGIN,009,-1.015187320752595,-1.1851101352309674,5.744124279371382,-1.436427726575703,-0.08646620747633989,0.8138751292715696,-4.159814681873306,-1.4561414522424772,1
445,2024-09-18 21:25:24.319049984,TASK_BEGIN,009,-1.0845606208340055,-1.1741184438460588,6.1135669813509,-1.4659491447166033,-0.054158564966179074,0.8167639093121242,-4.076729087533921,-1.5107076941756703,1
446,2024-09-18 21:25:24.387042048,TASK_BEGIN,009,-1.1657318875039784,-1.1602681483083628,6.406452188271995,-1.492275984146847,-0.015659827247264526,0.8159086083246693,-3.9515341289939907,-1.565590284963455,1
447,2024-09-18 21:25:24.440819200,TASK_BEGIN,009,-1.255869282293583,-1.1438211297259293,6.612937057288432,-1.5136727625690458,0.02591867676509697,0.8115251730446119,-3.783368010909213,-1.6193689263794055,1
448,2024-09-18 21:25:25.393774848,TASK_BEGIN,009,-1.3512291863816837,-1.1251371103160714,6.730916989053764,-1.5292938134933873,0.06742588171085268,0.8039213246539547,-3.5748207465605044,-1.6706183021177354,1
449,2024-09-18 21:25:25.465974016,TASK_BEGIN,009,-1.4475791568039937,-1.104607679135026,6.7653991847737185,-1.5390455089410924,0.10595784476098595,0.7934874071698126,-3.332228756015355,-1.7178846551674576,1
450,2024-09-18 21:25:25.534660096,TASK_BEGIN,009,-1.5406497973710431,-1.0825922587942702,6.7270145319126184,-1.5433237884747528,0.13920503139406637,0.7806796469347369,-3.0656941959866564,-1.7597024550645655,1
451,2024-09-18 21:25:25.599456000,TASK_BEGIN,009,-1.626547471952954,-1.0593675585084572,6.6298992202090785,-1.5426721597163182,0.16575788312090733,0.7659974507458392,-2.788671428319578,-1.7946676061194218,1
452,2024-09-18 21:25:25.662464000,TASK_BEGIN,009,-1.7020718138255724,-1.0350953466628112,6.489469133453157,-1.5374866022714049,0.1852749469692071,0.7499564537351135,-2.5170514155881194,-1.8215245411724355,1
453,2024-09-18 21:25:25.724993792,TASK_BEGIN,009,-1.7649327156337404,-1.0098065873974662,6.320595967889082,-1.5278766699508484,0.19846152421783048,0.7330564753010675,-2.267924627869028,-1.8391869511412133,1
454,2024-09-18 21:25:25.803026944,TASK_BEGIN,009,-1.8138795651559434,-0.9834031553542221,6.1363861079511155,-1.5136750146832503,0.2068513668244548,0.7157466634161459,-2.058222264157716,-1.846685981198322,1
455,2024-09-18 21:25:26.708848896,TASK_BEGIN,009,-1.8487330971058167,-0.9556875801965982,5.9475398063268035,-1.494509060860842,0.21245097361891016,0.6983966437189293,-1.9033156370459103,-1.843127249149026,1
456,2024-09-18 21:25:26.791959040,TASK_BEGIN,009,-1.8703295319724695,-0.9264260711601466,5.762247725135711,-1.4698844018398631,0.21735746187662608,0.6812849100610255,-1.8157319997079338,-1.8277137152510312,1
457,2024-09-18 21:25:26.858760960,TASK_BEGIN,009,-1.880425569991497,-0.895430679777933,5.586528561969094,-1.4392909249613004,0.2234302317667302,0.6646108255130916,-1.8042529987136662,-1.7998104314836443,1
458,2024-09-18 21:25:26.927533056,TASK_BEGIN,009,-1.8815745104597927,-0.8626390588348183,5.424778085535277,-1.4023522576543006,0.2320394675061577,0.6485225956876002,-1.8734991010542603,-1.759024857593162,1
459,2024-09-18 21:25:26.987806208,TASK_BEGIN,009,-1.876923330613834,-0.8281786794804165,5.280257336183063,-1.3590217239228295,0.24390212298639236,0.6331429262787969,-2.0238187824572345,-1.705348324370705,1
460,2024-09-18 21:25:27.062722048,TASK_BEGIN,009,-1.869920476884658,-0.7924046709831526,5.15530041513788,-1.309786159998787,0.2590074263862855,0.6185853104011351,-2.251229818783714,-1.6393855655795149,1
461,2024-09-18 21:25:27.128418048,TASK_BEGIN,009,-1.8639952291371116,-0.7559002224334918,5.051155928827514,-1.2557849441296485,0.27661852554393157,0.6049678960312854,-2.5473647862906765,-1.5625672151878394,1
462,2024-09-18 21:25:28.059097856,TASK_BEGIN,009,-1.8622527360569823,-0.7194393784801434,4.967654977817828,-1.1987727179017178,0.29535780235228815,0.5924225815587728,-2.8996228761172413,-1.4772081589275459,1
463,2024-09-18 21:25:28.142107904,TASK_BEGIN,009,-1.8671982514218863,-0.6839153401085933,4.903082959806742,-1.1409525156470215,0.31340097335154327,0.5810861661757378,-3.2917594473622884,-1.386411459464753,1
464,2024-09-18 21:25:28.209927936,TASK_BEGIN,009,-1.8805293323828582,-0.650228218622436,4.854431180956611,-1.0847532305662464,0.3287671162750006,0.5710723601693497,-3.704936402890247,-1.2939188095967022,1
465,2024-09-18 21:25:28.277254144,TASK_BEGIN,009,-1.9030195261090377,-0.6191402159591292,4.817900815842021,-1.0325960142856256,0.3396352914570623,0.5624411970227268,-4.119061827206576,-1.2039534190526795,1
466,2024-09-18 21:25:28.336034816,TASK_BEGIN,009,-1.9344457671738104,-0.5911436679870482,4.789518794445819,-0.9866968603291383,0.3446042038078747,0.5551811659658032,-4.514187868177167,-1.1210176502459037,1
467,2024-09-18 21:25:28.413241088,TASK_BEGIN,009,-1.9735199044950555,-0.566395855608551,4.7658027586592695,-0.9489700263045698,0.34285311784136374,0.5492007980922093,-4.871731621663011,-1.0496119952567802,1
468,2024-09-18 21:25:28.480988928,TASK_BEGIN,009,-2.01788104112574,-0.5447389888608342,4.744320519869433,-0.9210262129661213,0.33420879377181556,0.5443171514831489,-5.175428659869975,-0.9938717242471514,1
469,2024-09-18 21:25:29.413212160,TASK_BEGIN,009,-2.0642346118236423,-0.5257874420596821,4.7239380962023425,-0.9041656841086757,0.31911986933445996,0.5402455852922351,-5.412233815110771,-0.9571242181875129,1
470,2024-09-18 21:25:29.492080896,TASK_BEGIN,009,-2.1086392354776122,-0.5090500197011407,4.70468222639863,-0.8992803070554344,0.29853028066076376,0.5366140851930883,-5.573382076787878,-0.9414128360437427,1
471,2024-09-18 21:25:29.559865088,TASK_BEGIN,009,-2.146862401815402,-0.4940487967120286,4.687290030139105,-0.9066839396035811,0.2736922418419484,0.5330128655915796,-5.655308369244669,-0.9471017916982943,1
472,2024-09-18 21:25:29.626077952,TASK_BEGIN,009,-2.174729742505908,-0.48039864498951046,4.67259135835575,-0.9259653039507932,0.24600514883839644,0.5290578480198538,-5.659780720125237,-0.972697951079672,1
473,2024-09-18 21:25:29.695398144,TASK_BEGIN,009,-2.1884451266981046,-0.46783196549399064,4.660900048401559,-0.9559205729860601,0.216924294763117,0.5244374687085912,-5.593000373902472,-1.0149843017491158,1
474,2024-09-18 21:25:29.763122944,TASK_BEGIN,009,-2.1849023342916825,-0.45617718387001194,4.651609444712159,-0.9945476230403424,0.18790239640840864,0.5189360622224802,-5.4640805612942716,-1.0694544426497297,1
475,2024-09-18 21:25:29.827800064,TASK_BEGIN,009,-2.162001329610185,-0.4453127433387801,4.643193947046546,-1.039103488764457,0.16030086483933711,0.5124498575545136,-5.283521433715349,-1.130904511600431,1
476,2024-09-18 21:25:30.774988032,TASK_BEGIN,009,-2.118919567567802,-0.43512191317449,4.633691092532962,-1.08629883670855,0.13525492415945586,0.5050083776120587,-5.062102749324732,-1.1939906259680755,1
477,2024-09-18 21:25:30.831022848,TASK_BEGIN,009,-2.0562449081835448,-0.42546445462630655,4.621417148255918,-1.1326717609453063,0.11354170884927192,0.4967974589148837,-4.810390674961808,-1.2536415771199605,1
478,2024-09-18 21:25:30.910525184,TASK_BEGIN,009,-1.9759234222267994,-0.4161591030429574,4.605445105719506,-1.1750547481298503,0.09550795260022417,0.4881720551220885,-4.5388615173934275,-1.3053403704543043,1
479,2024-09-18 21:25:30.978306048,TASK_BEGIN,009,-1.8810570151995145,-0.4069619735627283,4.5855774634959205,-1.2109733679948012,0.08107197845356065,0.4796489697069026,-4.258388568659606,-1.3453446236251874,1
480,2024-09-18 21:25:31.045780992,TASK_BEGIN,009,-1.775596747181992,-0.3975477491072095,4.561974968057614,-1.2388474828547444,0.06978239332601027,0.47187526145866254,-3.9806311246838604,-1.3708719879161813,1
481,2024-09-18 21:25:31.113889792,TASK_BEGIN,009,-1.6639426721197095,-0.38752036288324543,4.53482018098131,-1.2579620899856694,0.06089373492440637,0.4655785654280161,-3.7180052360126674,-1.380208376592339,1
482,2024-09-18 21:25:31.173615872,TASK_BEGIN,009,-1.5504679462761926,-0.37646453858513945,4.504317312459357,-1.2683098052649135,0.05342125726608119,0.46151257949616165,-3.483299638102474,-1.372712132106819,1
483,2024-09-18 21:25:32.099550976,TASK_BEGIN,009,-1.439019538647961,-0.36402046174898484,4.471050830257363,-1.2704762869474149,0.046195315181174666,0.4604002133745659,-3.2890986484506826,-1.3487582118463781,1
484,2024-09-18 21:25:32.167180288,TASK_BEGIN,009,-1.3324643506372091,-0.3499546802782757,4.436418698528145,-1.2656198804437162,0.03797734436363698,0.4628640297696016,-3.1469982944882986,-1.309668112373365,1
485,2024-09-18 21:25:32.235143680,TASK_BEGIN,009,-1.2323588430806922,-0.33420901180998086,4.402785279308276,-1.255429965809366,0.027656836715966134,0.4693449230935565,-3.0666377882200866,-1.2576084203083366,1
486,2024-09-18 21:25:32.302886912,TASK_BEGIN,009,-1.13881676897725,-0.3169197841985325,4.37319658036545,-1.2419703270100015,0.014493238441392895,0.48003178617331,-3.054772706451648,-1.1954344976332967,1
487,2024-09-18 21:25:32.370614016,TASK_BEGIN,009,-1.0506055271060586,-0.2984067279967179,4.35082505913749,-1.2274522039054252,-0.0016486933529594773,0.4948266247393333,-3.114586944347176,-1.1265225121987401,1
488,2024-09-18 21:25:32.438394112,TASK_BEGIN,009,-0.9654322141263966,-0.27913637361825705,4.338480092773721,-1.2140042917711626,-0.020136924919388382,0.5133517106561121,-3.2451852084203106,-1.0546531309518576,1
489,2024-09-18 21:25:32.506164992,TASK_BEGIN,009,-0.8803259848199264,-0.2596716535641501,4.338333784047212,-1.2034341483901576,-0.039560819946862294,0.5349875352952257,-3.441115032972667,-0.9839331346703201,1
490,2024-09-18 21:25:33.448229888,TASK_BEGIN,009,-0.7920122180878388,-0.240623216408584,4.351819845900045,-1.1969954517038481,-0.05791102930026098,0.5589250016402003,-3.6920495025242945,-0.9186682925679124,1
491,2024-09-18 21:25:33.514575872,TASK_BEGIN,009,-0.6972151019729691,-0.22261093016306838,4.379666013987379,-1.1952427018014704,-0.07292337996620338,0.5842215754388731,-3.9831089714179315,-0.8631064223910657,1
492,2024-09-18 21:25:33.576134912,TASK_BEGIN,009,-0.592896571150883,-0.20623078051476032,4.421964388817412,-1.1980104380921366,-0.08250222691642395,0.6098562641790624,-4.29623445139969,-0.8210257661113182,1
493,2024-09-18 21:25:33.651899136,TASK_BEGIN,009,-0.4764924710996986,-0.19201879862070945,4.478185056617201,-1.2044792271115239,-0.08511737306764791,0.634777010822322,-4.61249436766998,-0.7952356354695158,1
494,2024-09-18 21:25:33.714946048,TASK_BEGIN,009,-0.34619296276195693,-0.18041535285545335,4.547227021367842,-1.2133078498836163,-0.08009281164392783,0.6579367394835741,-4.914575648290028,-0.7871564081868737,1
495,2024-09-18 21:25:33.776978944,TASK_BEGIN,009,-0.2012326501031631,-0.17174571402054706,4.6276407921611336,-1.2228354774607482,-0.06775213935746453,0.678321504976226,-5.188452114477696,-0.7966490927966949,1
496,2024-09-18 21:25:33.855288064,TASK_BEGIN,009,-0.04208266896412488,-0.16623195965467358,4.717953052472821,-1.2313025764232879,-0.04941793838306483,0.6949745500164223,-5.4236500478859835,-0.8221372779933263,1
497,2024-09-18 21:25:34.785697024,TASK_BEGIN,009,0.12954076448256271,-0.16403812094624956,4.816866366042493,-1.2369850742259925,-0.02728473573472862,0.707017423462373,-5.6124417775499005,-0.8609180681541682,1
498,2024-09-18 21:25:34.864547072,TASK_BEGIN,009,0.31082550273875603,-0.1653339471171724,4.923165961344136,-1.238192288316742,-0.004213891468847724,0.7136728151353936,-5.748937115050275,-0.9095033594365387,1
499,2024-09-18 21:25:34.925970944,TASK_BEGIN,009,0.49805717002348027,-0.17035367441064728,5.035355141250073,-1.2332128127517037,0.016496178800712673,0.7142953838976621,-5.828804053793629,-0.9638981294223887,1
500,2024-09-18 21:25:35.002039040,TASK_BEGIN,009,0.6867755247636362,-0.17943009890432202,5.151159279505002,-1.220358712227909,0.03134966471166851,0.7084111092042701,-5.849593224304007,-1.0198420947056122,1
501,2024-09-18 21:25:35.064688896,TASK_BEGIN,009,0.8719072157717743,-0.19299495654191381,5.2670464629278415,-1.1981748366074265,0.03692531826888283,0.6957618449302676,-5.811207927528438,-1.0730853681070873,1
502,2024-09-18 21:25:35.135467008,TASK_BEGIN,009,1.0479310025736102,-0.2115467412308137,5.377912837969697,-1.1657295198768887,0.03019671347128535,0.6763554907770502,-5.71613168123378,-1.119714341999286,1
503,2024-09-18 21:25:35.205293824,TASK_BEGIN,009,1.2091149384105528,-0.23559233043803318,5.477049784545822,-1.1228451601003082,0.008881203083803014,0.6505278598968395,-5.569246942409566,-1.1564891813499385,1
504,2024-09-18 21:25:36.143001856,TASK_BEGIN,009,1.349851960233784,-0.26557066290850645,5.556461025797016,-1.070213275200332,-0.02823949603354579,0.6190160910083174,-5.377263446102518,-1.181136055029463,1
505,2024-09-18 21:25:36.205012992,TASK_BEGIN,009,1.465101601822864,-0.30177434666474645,5.60760808332881,-1.0094482646433556,-0.08110986824452071,0.5830207521786321,-5.147919562097979,-1.1925186091813365,1
506,2024-09-18 21:25:36.284002816,TASK_BEGIN,009,1.5508855176559726,-0.34429214954907444,5.62259208925984,-0.9431291745396712,-0.1483648437579784,0.5442183329167167,-4.889244200991262,-1.1906075366551827,1
507,2024-09-18 21:25:36.351773952,TASK_BEGIN,009,1.604729566723155,-0.3929851445638723,5.595548218800915,-0.8747819253619231,-0.22745423947263324,0.5047010828803209,-4.6091872178551405,-1.1762298449635107,1
508,2024-09-18 21:25:36.419955968,TASK_BEGIN,009,1.6259588226987027,-0.44749133004040265,5.523864730811875,-0.8087092920631034,-0.31486026999547234,0.46685422946191857,-4.315739055558479,-1.1507005523604215,1
509,2024-09-18 21:25:36.486162176,TASK_BEGIN,009,1.6158048607705304,-0.5072450557925108,5.408893992722277,-0.7496406101011638,-0.40636423063104055,0.4332022974951115,-4.017363207318788,-1.1155176486327365,1
510,2024-09-18 21:25:36.555516160,TASK_BEGIN,009,1.5773223778406187,-0.571494877707303,5.2560291501275085,-0.7022689299251685,-0.4973578790177425,0.40625579814343254,-3.723374010527501,-1.0722541705426851,1
511,2024-09-18 21:25:37.497036800,TASK_BEGIN,009,1.5151394595729883,-0.6393060733927515,5.074248797216889,-0.6707931586627003,-0.5831818217324442,0.38837223240762203,-3.4439334557055528,-1.0226519078570129,1
512,2024-09-18 21:25:37.566633984,TASK_BEGIN,009,1.4350889074639006,-0.7095503946924225,4.8753132016912275,-0.6585731691169519,-0.6594355203009208,0.3816233359142332,-3.1895458420222234,-0.968815914013684,1
513,2024-09-18 21:25:37.634214144,TASK_BEGIN,009,1.3437703955584808,-0.7809034616829486,4.67267857206231,-0.6679512742051082,-0.7222170039023974,0.3876570975655099,-2.9701407339098975,-0.9133803669165274,1
514,2024-09-18 21:25:37.696734976,TASK_BEGIN,009,1.2480753031146776,-0.8518642673666807,4.480091461637835,-0.7002250248715216,-0.7683025802605544,0.40756253382209556,-2.793972803387544,-0.8595588066155878,1
515,2024-09-18 21:25:37.759195136,TASK_BEGIN,009,1.154682715699277,-0.9207893044216184,4.309955809320012,-0.7557075764807923,-0.7952839000263788,0.44175468280343083,-2.6666129110420345,-0.8110649656663383,1
516,2024-09-18 21:25:37.836194048,TASK_BEGIN,009,1.0695357726994172,-0.9859311334712156,4.1718252769190975,-0.8337889486676174,-0.8016548478313966,0.48988772053646473,-2.5903201911185265,-0.7719284674408013,1
517,2024-09-18 21:25:37.899156992,TASK_BEGIN,009,0.9973400099179581,-1.045486231234694,4.071452211658463,-0.9329246452307698,-0.7868606322504601,0.5508048998516581,-2.5640691751202205,-0.7462191005567774,1
518,2024-09-18 21:25:38.814476032,TASK_BEGIN,009,0.9411525233261742,-1.0976580987428155,4.010613057197058,-1.0505443581032283,-0.7513557402167365,0.6225427842622141,-2.5842515161317183,-0.7376935995346279,1
519,2024-09-18 21:25:38.890849024,TASK_BEGIN,009,0.9021395124883993,-1.140732410954869,3.987583723229254,-1.182941204041909,-0.6966846662559064,0.7023947027561729,-2.6456376959170322,-0.7494065904175695,1
520,2024-09-18 21:25:38.954543104,TASK_BEGIN,009,0.8795559643904465,-1.1731601396592424,3.9979135279819134,-1.3252100628811976,-0.6255312228379534,0.7870167788703647,-2.7420569166571283,-0.7833349199744571,1
521,2024-09-18 21:25:39.016565248,TASK_BEGIN,009,0.8709215398567899,-1.193645989126478,4.035188264971377,-1.4712811337306018,-0.5416732433668482,0.8725651295475224,-2.8665839022410746,-0.8400579710731283,1
522,2024-09-18 21:25:39.079482112,TASK_BEGIN,009,0.8723012336732439,-1.2012394929797021,4.091672492851364,-1.6140881559301126,-0.4498302235804321,0.9548802201244063,-3.0113787054773162,-0.9185615712372598,1
523,2024-09-18 21:25:39.159968000,TASK_BEGIN,009,0.8786268719212457,-1.1954287338049583,4.15891253601427,-1.7459095279162975,-0.3554266221707995,1.029744623276996,-3.16747387002123,-1.0162361730940563,1
524,2024-09-18 21:25:39.230516736,TASK_BEGIN,009,0.8840706256509129,-1.176236617058687,4.228445037129268,-1.858887458442137,-0.26427708280052453,1.0932094559243573,-3.324885866289617,-1.129052977267655,1
525,2024-09-18 21:25:40.173035776,TASK_BEGIN,009,0.8825039669527649,-1.144312614501068,4.2926275464086885,-1.945667283407,-0.18217807271525002,1.141933766412396,-3.4733475219293455,-1.2518290320352616,1
526,2024-09-18 21:25:40.236608000,TASK_BEGIN,009,0.8680071041245656,-1.1009981404304978,4.345424937001897,-2.0000600253101886,-0.11442799861380867,1.173458677834876,-3.6035788211383744,-1.378544285607043,1
527,2024-09-18 21:25:40.309544960,TASK_BEGIN,009,0.8353139812794204,-1.0483276042357308,4.382944722468448,-2.017637392818137,-0.06535955051363151,1.1863651763053495,-3.7086507801662862,-1.5027488449356026,1
528,2024-09-18 21:25:40.376384000,TASK_BEGIN,009,0.7801044638157327,-0.9889311001004165,4.403603912463143,-1.9961831942151969,-0.03797340811765522,1.1803149702338296,-3.78493075358741,-1.6180755986482254,1
529,2024-09-18 21:25:40.438075904,TASK_BEGIN,009,0.6991806424323483,-0.9258358837939427,4.407859835916197,-1.935928972639199,-0.03372733184522313,1.156007784168026,-3.8322554260430106,-1.7188017204388064,1
530,2024-09-18 21:25:40.500226048,TASK_BEGIN,009,0.5906477891187629,-0.8621963627958344,4.397482428758813,-1.8395249867111523,-0.052500256017363786,1.1150852632560546,-3.8533044794708387,-1.8003585090282712,1
531,2024-09-18 21:25:40.580582912,TASK_BEGIN,009,0.45417826426878954,-0.8009989205190458,4.374605198170838,-1.7117583813917292,-0.09271236542256515,1.0599863607018676,-3.8525379794584858,-1.8596772689580114,1
532,2024-09-18 21:25:41.524025856,TASK_BEGIN,009,0.29133394057857365,-0.7447950654806127,4.341002762373561,-1.559073210621408,-0.15155977424601266,0.9937488733977419,-3.8351710311673393,-1.8953057926574133,1
533,2024-09-18 21:25:41.591855872,TASK_BEGIN,009,0.10584951367063755,-0.6955098213296546,4.297744858724752,-1.3889416909812764,-0.22532746766708395,0.9197685827415945,-3.8063934327040614,-1.907326337767352,1
534,2024-09-18 21:25:41.646967040,TASK_BEGIN,009,-0.09624265508722411,-0.6543474747127721,4.244981807860137,-1.2091525614115841,-0.30974430407467785,0.8415441421081176,-3.770779494361756,-1.8971464284870636,1
535,2024-09-18 21:25:41.727382784,TASK_BEGIN,009,-0.3067523202468644,-0.6217928435483754,4.181760973084976,-1.027135739415432,-0.40034629747314915,0.7624348172229647,-3.7318481439460682,-1.867202036677263,1
536,2024-09-18 21:25:41.785243904,TASK_BEGIN,009,-0.515810717612846,-0.5976913488660135,4.106106485755135,-0.8494493404832228,-0.4928230864511026,0.6854507414021298,-3.6918750330887233,-1.8206004558837658,1
537,2024-09-18 21:25:41.848087040,TASK_BEGIN,009,-0.712687815718016,-0.5813760022036354,4.015533750772974,-0.6815014032899301,-0.583303813526116,0.6130906011242332,-3.6520924450961214,-1.7607404865518543,1
538,2024-09-18 21:25:41.928561920,TASK_BEGIN,009,-0.8868010979844244,-0.5718068096672934,3.9078869150834032,-0.5275173851673164,-0.6685315155961615,0.5472383403763728,-3.613248342061014,-1.690952598995861,1
539,2024-09-18 21:25:42.840271104,TASK_BEGIN,009,-1.0286766277604371,-0.5677073097843921,3.782265011496429,-0.39070288486196497,-0.7459315291911596,0.48912573541592813,-3.5762001122352007,-1.6142448072123763,1
540,2024-09-18 21:25:42.916876032,TASK_BEGIN,009,-1.1307076983270443,-0.5676976693913681,3.639835524693161,-0.2734918783917109,-0.8136350404853621,0.4393563169160797,-3.542148927972654,-1.5332524989900462,1
541,2024-09-18 21:25:42.984486144,TASK_BEGIN,009,-1.187701922990949,-0.5704199716879138,3.4843749111216242,-0.1777615098940537,-0.8704995085194166,0.39797174870686713,-3.512512848380142,-1.4503540838478932,1
542,2024-09-18 21:25:43.052470016,TASK_BEGIN,009,-1.197244604911274,-0.5746412474970929,3.3223827414376705,-0.10495094826159795,-0.916117397046778,0.364541327457474,-3.4887866406743884,-1.367781995799171,1
543,2024-09-18 21:25:43.120313088,TASK_BEGIN,009,-1.159871503937116,-0.5793125945706569,3.162606961034462,-0.05608956489500518,-0.9507979130383003,0.33826917544183227,-3.4725617631749746,-1.2876189210584654,1
544,2024-09-18 21:25:43.180012032,TASK_BEGIN,009,-1.0790246178117426,-0.5835705816592833,3.014939220035193,-0.03177040250548582,-0.975523023448219,0.318119755705105,-3.4655723772100395,-1.2116987660644272,1
545,2024-09-18 21:25:43.255846912,TASK_BEGIN,009,-0.9607523236061256,-0.586692286787885,2.8889461980847058,-0.03210266945197466,-0.9918709266065227,0.30295939519626525,-3.4696287778697745,-1.141485869167742,1
546,2024-09-18 21:25:44.194135040,TASK_BEGIN,009,-0.8131065087513132,-0.5880331781009904,2.79244682119184,-0.05665299278331377,-1.0018855739278538,0.29171500125267324,-3.486445485389223,-1.078008814773056,1
547,2024-09-18 21:25:44.266972160,TASK_BEGIN,009,-0.6452269039537506,-0.5869765221880399,2.7303940974389365,-0.1043618655394276,-1.0078762281422917,0.28354483183236256,-3.5174772192019996,-1.0218783736515946,1
548,2024-09-18 21:25:44.333899776,TASK_BEGIN,009,-0.46621066024292296,-0.5829198846675477,2.7042660926300757,-0.17345415764335953,-1.0121568543831962,0.2779860015856666,-3.5638866142942383,-0.973345656337505,1
549,2024-09-18 21:25:44.396002048,TASK_BEGIN,009,-0.28400187324056864,-0.5753138912472064,2.712220068198169,-0.2614213904417366,-1.0167757291293882,0.2750287720618913,-3.626625898099195,-0.9323614398559636,1
550,2024-09-18 21:25:44.470379264,TASK_BEGIN,009,-0.10459509883174546,-0.5637361508203844,2.749983634151162,-0.36512319268826277,-1.0233042217705954,0.2751001967968662,-3.706517208275131,-0.8986516057819832,1
551,2024-09-18 21:25:44.538166016,TASK_BEGIN,009,0.0682673002122753,-0.5479590550068251,2.8119786389476116,-0.4809541014656066,-1.0327195808359027,0.27898197274818154,-3.804326808234552,-0.8718060613317709,1
552,2024-09-18 21:25:44.605947904,TASK_BEGIN,009,0.2329577741364085,-0.5279866334724976,2.8921009127698207,-0.6049940844121054,-1.0453700572226632,0.2876930979671446,-3.9208527649931155,-0.851346401705212,1
553,2024-09-18 21:25:45.549206016,TASK_BEGIN,009,0.38958885296498497,-0.5040649657797418,2.9840127788366764,-0.733137722725653,-1.061000413587243,0.30235019054425555,-4.056900025637846,-0.836784216317935,1
554,2024-09-18 21:25:45.609256192,TASK_BEGIN,009,0.539570943872142,-0.47667761300534295,3.081219220951018,-0.8612625913794248,-1.078822636514734,0.32401171888463076,-4.21305866948334,-0.8277128860137608,1
555,2024-09-18 21:25:45.684845056,TASK_BEGIN,009,0.6851778932859796,-0.44653250715011467,3.177202982252243,-0.9854635792055901,-1.0976122814746312,0.35351851673772877,-4.389390806472348,-0.8239169931342264,1
556,2024-09-18 21:25:45.752610048,TASK_BEGIN,009,0.8291347201489896,-0.4145421085736915,3.265682710899944,-1.1023000685569626,-1.1158174509637213,0.3913498715909491,-4.585155773674269,-0.8254240116860568,1
557,2024-09-18 21:25:45.820436992,TASK_BEGIN,009,0.974205567084125,-0.3817890636407559,3.3409917855925078,-1.2089893185351301,-1.131687788616402,0.43751629476731646,-4.798633841825631,-0.832441885504635,1
558,2024-09-18 21:25:45.872818944,TASK_BEGIN,009,1.1227808984851495,-0.34946830126565986,3.3986287552660097,-1.3035331208942256,-1.1434200502642229,0.4914978136816002,-5.027059600176288,-0.8452035041208434,1
559,2024-09-18 21:25:45.950925056,TASK_BEGIN,009,1.276534997699886,-0.3188146995354859,3.4359235934379044,-1.3847941910279686,-1.1492819514565042,0.5522176975082791,-5.266565676840612,-0.8637949335627968,1
560,2024-09-18 21:25:46.890446080,TASK_BEGIN,009,1.436220773268472,-0.2910347418202462,3.452499424354437,-1.4525092005506222,-1.1476825119305427,0.6180405303822742,-5.511965006367563,-0.8880241049273884,1
561,2024-09-18 21:25:46.952492800,TASK_BEGIN,009,1.6015764468572415,-0.2672438662946526,3.4501754453164626,-1.5071903524670234,-1.1372078714890115,0.6868007191545965,-5.756292876251794,-0.9173436333776888,1
562,2024-09-18 21:25:47.029709056,TASK_BEGIN,009,1.7712911309686448,-0.24839815121187017,3.432315133774928,-1.5498902338528675,-1.1166643145782482,0.7558772346213877,-5.990244844284825,-0.9508273606511464,1
563,2024-09-18 21:25:47.103223040,TASK_BEGIN,009,1.943041316490509,-0.23521911709163318,3.402929192413107,-1.581878256496633,-1.085140274653918,0.8223237238983061,-6.201927609962075,-0.9871902944518317,1
564,2024-09-18 21:25:47.171054080,TASK_BEGIN,009,2.1136512977330235,-0.22812927465286745,3.3657738465227593,-1.6043286530147294,-1.0420705752554698,0.8830543999315238,-6.377412397646543,-1.024850026120844,1
565,2024-09-18 21:25:47.230756096,TASK_BEGIN,009,2.2794036593282794,-0.22722500325399134,3.323583454141512,-1.6181093238742539,-0.9872851190698215,0.9350742005944904,-6.50219359549986,-1.0620548206847544,1
566,2024-09-18 21:25:47.292750080,TASK_BEGIN,009,2.4364538930099315,-0.23229948791366223,3.277682310940701,-1.6237157882087294,-0.9210344324669072,0.9757191904708247,-6.563106598214162,-1.0970716817576716,1
567,2024-09-18 21:25:48.249373952,TASK_BEGIN,009,2.5812312228066294,-0.2428991350437832,3.228206815398935,-1.6213435985017135,-0.8440059627067135,1.0028640033960001,-6.549998323272577,-1.1283658064085482,1
568,2024-09-18 21:25:48.317157888,TASK_BEGIN,009,2.7107127332861594,-0.25838327499563346,3.1748101437438643,-1.6110417027804749,-0.7573534486203244,1.0150705703822467,-6.456699388236153,-1.1547095478972962,1
569,2024-09-18 21:25:48.384941056,TASK_BEGIN,009,2.822538922259901,-0.27797190467040367,3.117363863085997,-1.5928653039225726,-0.6627304475816493,1.0116702667196822,-6.281441585196602,-1.1752075973058294,1
570,2024-09-18 21:25:48.444123904,TASK_BEGIN,009,2.9150123843290863,-0.30078852532243466,3.056266406936471,-1.566977182874576,-0.5622938016769876,0.9927785631707271,-6.0270916991126775,-1.189271919214489,1
571,2024-09-18 21:25:48.520529152,TASK_BEGIN,009,2.987056507372213,-0.3259143414503721,2.992345076449555,-1.5336887184935288,-0.45865616169230394,0.9592479098506181,-5.701171233952458,-1.196616862388648,1
572,2024-09-18 21:25:48.578113024,TASK_BEGIN,009,3.0382033682559597,-0.35246086969339363,2.9265187709623612,-1.49343465429216,-0.3547797068314233,0.9125683726564303,-5.315333696854674,-1.1973161369349983,1
573,2024-09-18 21:25:48.640600064,TASK_BEGIN,009,3.0686058964164897,-0.3796450392815835,2.859407088190666,-1.4466853018855597,-0.25379968790109775,0.8547250184422425,-4.884266615732914,-1.1918779164906113,1
574,2024-09-18 21:25:49.574436096,TASK_BEGIN,009,3.0789969508586323,-0.4068369631475427,2.7911269246534434,-1.393862293718703,-0.15877330305061466,0.7880274190090193,-4.424397462583145,-1.181238988494807,1
575,2024-09-18 21:25:49.642263808,TASK_BEGIN,009,3.0705592287263626,-0.4335656374526123,2.7214942536202757,-1.335365236943312,-0.07236776434506059,0.7149355217284539,-3.952772720613008,-1.16660198256705,1
576,2024-09-18 21:25:49.701873920,TASK_BEGIN,009,3.04477204123899,-0.4594956963794469,2.650602758701231,-1.271739570189229,0.0034768643003852974,0.6379003282996057,-3.4861807368950712,-1.1491462827225654,1
577,2024-09-18 21:25:49.777778944,TASK_BEGIN,009,3.003321023866128,-0.484400300981287,2.5793691381036914,-1.2038688551876429,0.0678406608463049,0.5592254724231209,-3.040418972744267,-1.1297451576865802,1
578,2024-09-18 21:25:49.841862144,TASK_BEGIN,009,2.9480987031957158,-0.5081480141351528,2.50956721085405,-1.1330379101516288,0.12097872033447205,0.4809566247054432,-2.6296468751829827,-1.1088037518177025,1
579,2024-09-18 21:25:49.904089856,TASK_BEGIN,009,2.881270649299721,-0.5307062145646364,2.4433657205705295,-1.0608355409410095,0.16426405789457452,0.4048113291826559,-2.265835269725778,-1.086250458328366,1
580,2024-09-18 21:25:49.981053184,TASK_BEGIN,009,2.805345488338864,-0.5521472930172562,2.382842562800209,-0.9889820553414509,0.19991058081156746,0.33215614222383305,-1.9583692986599828,-1.0616679166299743,1
