,time,MARKER,pid,L_O_DSI,L_D_DSI,L_O_DSphi,L_D_DSphi,R_O_DSI,R_D_DSI,R_O_DSphi,R_D_DSphi,trial_id
0,2024-09-18 21:18:35.539999023,TASK_BEGIN,009,-0.06815414451179819,1.0493084985827263,6.5436742730428215,-2.1159710954825153,-0.7584582601948129,-0.3955661399816091,2.6072538451675245,0.4585143569947558,0
1,2024-09-18 21:18:35.599844971,0,009,-0.03778417417172912,1.0056523031902835,6.310035833821569,-2.0848191000052716,-0.7172862258716813,-0.38688851557063275,2.3781475799862988,0.4841740487751877,0
2,2024-09-18 21:18:35.664114990,0,009,-0.008651285948037777,0.9459613289750058,6.124135250106621,-2.043266401297223,-0.6738241821085733,-0.36875288996095196,2.1328459313887085,0.497582411898487,0
3,2024-09-18 21:18:35.743298096,0,009,0.016397259416516586,0.8693407084246678,5.995551257723395,-1.991303572989254,-0.6287080390298857,-0.3404539905616301,1.8712260370621536,0.49994241691360625,0
4,2024-09-18 21:18:35.810795898,0,009,0.03443907787711442,0.7756005316955781,5.9319520342250485,-1.9298949749942729,-0.582570705875419,-0.30163669911364815,1.5961965695554772,0.4926553817137665,0
5,2024-09-18 21:18:35.878494873,0,009,0.04275758966252239,0.665410280951549,5.938944040640989,-1.8609596722215558,-0.53600450763703,-0.2524056580709421,1.3137144446453528,0.47724854774090225,0
6,2024-09-18 21:18:36.823308838,0,009,0.03905219268320748,0.5404310452978888,6.01996349550394,-1.787259396830473,-0.489518005149237,-0.1934123662121824,1.0322219151692826,0.4553271771164424,0
7,2024-09-18 21:18:36.891072998,0,009,0.021590462959629735,0.403391582356535,6.176108126912131,-1.712203630779087,-0.4435173186482793,-0.12590469421934183,0.7615578140350032,0.4285481156909803,0
8,2024-09-18 21:18:36.958937988,0,009,-0.010671923001009808,0.258081098954391,6.4058615797835285,-1.6395773242768343,-0.39834294927003533,-0.05172407060958129,0.5116812612273453,0.3986027346158968,0
9,2024-09-18 21:18:37.026648926,0,009,-0.057994111330719564,0.10924226061248678,6.704783407912375,-1.5732249922053896,-0.35435509678457483,0.026753103781952496,0.29159266744737666,0.3671932747586652,0
10,2024-09-18 21:18:37.094141846,0,009,-0.11977566717633002,-0.037650314392664676,7.065316114528052,-1.516745543458946,-0.31203913727490906,0.10672598476443669,0.10872788451957831,0.33599245120300975,0
11,2024-09-18 21:18:37.162219971,0,009,-0.19450999673520017,-0.1767325325747262,7.4768396974729905,-1.4732189271830702,-0.27210579202202206,0.18512466420959964,-0.031077880971878545,0.3065822949323235,0
12,2024-09-18 21:18:37.229996826,0,009,-0.279792051534331,-0.30218391440028075,7.926018830583286,-1.4449582764637798,-0.23555507196410647,0.2587932029721207,-0.12324890823015498,0.28038534153228195,0
13,2024-09-18 21:18:38.172390869,0,009,-0.3724106310505916,-0.4086824132106279,8.397362211516729,-1.4332911206164607,-0.20366810155702753,0.3246799862860151,-0.16417349655488334,0.2586094450475112,0
14,2024-09-18 21:18:38.240255127,0,009,-0.46851261086083373,-0.4918303588736218,8.873819475148588,-1.4383785865027308,-0.1779124688120221,0.38003463805821786,-0.1512725279990097,0.24220019545413063,0
15,2024-09-18 21:18:38.308048096,0,009,-0.5638031276362009,-0.5485580728653274,9.337317546231091,-1.4590931130964875,-0.15977434774912078,0.42262875588525717,-0.08337849315509308,0.23177159590106924,0
16,2024-09-18 21:18:38.362215088,0,009,-0.6537976137018753,-0.5775113470375934,9.769344842441305,-1.4930082806286766,-0.15052979066448346,0.4509962038108889,0.03890397024511697,0.22749831353338795,0
17,2024-09-18 21:18:38.439865234,0,009,-0.7341843436376062,-0.5793503197836485,10.151767142535302,-1.5365479003960916,-0.15096455616316834,0.4646348110313923,0.21311380246193873,0.2289867030715982,0
18,2024-09-18 21:18:38.502350098,0,009,-0.80128875770991,-0.5568344202873191,10.467895032715187,-1.5852721040006954,-0.16109647037084737,0.4640847525582942,0.43507609197268154,0.2351788635446259,0
19,2024-09-18 21:18:38.579333008,0,009,-0.852517298062946,-0.5146203435536072,10.703633759988607,-1.6342304977425421,-0.1800056170273045,0.45084328824335484,0.6990174786316963,0.2443507360455823,0
20,2024-09-18 21:18:39.498106934,0,009,-0.8866374733259332,-0.45881079542880904,10.848515311509788,-1.6783411391916052,-0.2058453412520621,0.4271529908441818,0.997488332342846,0.2542191782579581,0
21,2024-09-18 21:18:39.565951172,0,009,-0.9038300775245979,-0.39636796193714785,10.896447454786005,-1.712796502019444,-0.2360138433661506,0.3957388240362376,1.3211894635499317,0.2621266069247012,0
22,2024-09-18 21:18:39.633739014,0,009,-0.9055385339789948,-0.33450835242317967,10.84602469367826,-1.7334894130589713,-0.267414466790967,0.35955448741311785,1.658957509084792,0.2652863918270835,0
23,2024-09-18 21:18:39.701552002,0,009,-0.8941845821401988,-0.28015185510450774,10.700305597555417,-1.7374021705755653,-0.29674408683543035,0.3215673176300597,1.9980687485726838,0.2610966947000684,0
24,2024-09-18 21:18:39.769391113,0,009,-0.8728183173671787,-0.23945785858515722,10.466083116360682,-1.722861166091938,-0.3207772263321298,0.2845896631770439,2.324844073543345,0.2474883287076037,0
25,2024-09-18 21:18:39.837212158,0,009,-0.8447554215136598,-0.21746388796332697,10.15279457051058,-1.6895875048706288,-0.33663109710576855,0.2511546698263113,2.6254564427449583,0.2232161122398321,0
26,2024-09-18 21:18:39.905028076,0,009,-0.813244103512064,-0.21783231923372012,9.771336074287067,-1.6385633454730586,-0.3419951070253878,0.2234310724602826,2.886831878487978,0.18801046850252678,0
27,2024-09-18 21:18:40.834692871,0,009,-0.781187183883858,-0.24270081581278763,9.333120392521442,-1.5717953289643247,-0.335299042365473,0.20317055621248745,3.097545594951215,0.142557069085284,0
28,2024-09-18 21:18:40.915947998,0,009,-0.7509334912343716,-0.29262302177689453,8.849618695863603,-1.4920482725550333,-0.31579620918170387,0.19167559574152299,3.2486145616357245,0.0883397931348218,0
29,2024-09-18 21:18:40.974066895,0,009,-0.7241624794686627,-0.36657656171764613,8.332340280216528,-1.4025827961377306,-0.28355196098246227,0.18976638913564015,3.3340934092655976,0.02744182188348429,0
30,2024-09-18 21:18:41.051632812,0,009,-0.7018741398363766,-0.4620195705431794,7.792909440255464,-1.3068885859622625,-0.2393615747813784,0.19773175330985426,3.351464353476928,-0.037618553835375754,0
31,2024-09-18 21:18:41.119430176,0,009,-0.6844455669220672,-0.5750029694701164,7.2428798040472,-1.2083852562307005,-0.18465735430627653,0.21527659626628554,3.3018946915797,-0.1040314183852203,0
32,2024-09-18 21:18:41.186635986,0,009,-0.6716988002191085,-0.7003631307018613,6.693299330382981,-1.1101163127340286,-0.12144483088323316,0.24149821823962286,3.1904053011131235,-0.16887858376349935,0
33,2024-09-18 21:18:41.254991943,0,009,-0.6629709150855219,-0.832007247300132,6.154417480695617,-1.0145477866181587,-0.05224735750913247,0.274915178421142,3.0258952536543555,-0.22937127434130355,0
34,2024-09-18 21:18:42.198628906,0,009,-0.6572067720969024,-0.9632892940441017,5.63583374652657,-0.9235639709393515,0.01998302120024067,0.31355532535014397,2.8208747622934114,-0.2830952233162706,0
35,2024-09-18 21:18:42.266664062,0,009,-0.6530711024460562,-1.0874741938629036,5.146962341685108,-0.8386171716098567,0.09200787154262624,0.3551036712641172,2.5907832817387617,-0.3282080557068738,0
36,2024-09-18 21:18:42.334424072,0,009,-0.6490621684795256,-1.198274477705002,4.697404216176089,-0.7608880540167234,0.16049912124671767,0.39710777552964327,2.352964976606149,-0.36356902790227785,0
37,2024-09-18 21:18:42.402098877,0,009,-0.6436302609235032,-1.2904066713206301,4.296889959690861,-0.6913458098739289,0.2222854757799636,0.43722459301808514,2.1255161497728134,-0.3888159811027784,0
38,2024-09-18 21:18:42.470128174,0,009,-0.6353137717148177,-1.360082149987724,3.9547943051774546,-0.6307061366518962,0.2746242305553744,0.4734730172802265,1.9261019091724643,-0.40439948314557767,0
39,2024-09-18 21:18:42.537989990,0,009,-0.6228858767034147,-1.4053414464426102,3.679498539532047,-0.5793577475138602,0.31544389878650486,0.5044424966416508,1.7706478309862745,-0.4115466887450053,0
40,2024-09-18 21:18:42.605768066,0,009,-0.6054904888568701,-1.4261641573409063,3.477810526427226,-0.5373200678427889,0.3434989200399598,0.5294082295616858,1.6718985446187222,-0.4121168955740032,0
41,2024-09-18 21:18:43.524522949,0,009,-0.5827504986594763,-1.424335755282503,3.354409026582474,-0.5042424036452484,0.3584031301252505,0.5483289020438619,1.6381488777637312,-0.40834546864053245,0
42,2024-09-18 21:18:43.592371094,0,009,-0.5548369145187689,-1.403109972883649,3.3112168785373477,-0.4794144686568516,0.3605426575266118,0.5617454774383317,1.6725406638146534,-0.40251373139366253,0
43,2024-09-18 21:18:43.660145996,0,009,-0.5224836440992969,-1.3667472243215912,3.346753773341931,-0.46176223583472437,0.35091211687675194,0.570623224873895,1.7730584098173114,-0.39661510205567585,0
44,2024-09-18 21:18:43.713224854,0,009,-0.48691792653005844,-1.320033616710666,3.4556362014979896,-0.44983333557050054,0.33094268681228484,0.5761784757404746,1.9330742204066642,-0.39209794006047344,0
45,2024-09-18 21:18:43.795708008,0,009,-0.44967892619271044,-1.2678852813419368,3.6283618071702213,-0.44179021640567545,0.30236992422875203,0.5797311956682835,2.1421732935577995,-0.3897241373501766,0
46,2024-09-18 21:18:43.863472900,0,009,-0.4123507690358589,-1.2150933011400082,3.8514655511140745,-0.43543463296813506,0.2671656886084976,0.5826125810905476,2.3870640416453677,-0.38952909525185897,0
47,2024-09-18 21:18:43.930998047,0,009,-0.37629727837437943,-1.166177020045916,4.108184919910473,-0.42830972492645364,0.2275478920996893,0.5861146783519902,2.652559505084647,-0.3908566385922763,0
48,2024-09-18 21:18:44.869708984,0,009,-0.3424819019065534,-1.1252563959100967,4.37976075867677,-0.41792267915621995,0.18603915616493927,0.5914340697596644,2.9226310065118355,-0.392440864968798,0
49,2024-09-18 21:18:44.932339844,0,009,-0.31139652016019886,-1.0958794802155445,4.647217258124091,-0.4020576301475651,0.14549275828381514,0.5995766517000072,3.181401976238264,-0.39250624941027423,0
50,2024-09-18 21:18:45.009464111,0,009,-0.28306632842347723,-1.080820314299189,4.893144808876739,-0.37907203530988093,0.10901127426107342,0.6112374596628187,3.4139936116787464,-0.3888970252792596,0
51,2024-09-18 21:18:45.077444092,0,009,-0.2570863768572465,-1.0819149453326307,5.103099468894307,-0.34808123144368025,0.07974436987846104,0.62670037822621,3.607259581647315,-0.37927134003467855,0
52,2024-09-18 21:18:45.145268066,0,009,-0.23267904050873028,-1.0999832253707786,5.266570979233156,-0.3090116596593486,0.06061368943276174,0.6457922139979444,3.7503921840955927,-0.361344504414279,0
53,2024-09-18 21:18:45.212545898,0,009,-0.2087905080917684,-1.134828529637103,5.37753048326892,-0.2625503559369162,0.05403849833225171,0.6678894078745236,3.8353259822115624,-0.3331265139031558,0
54,2024-09-18 21:18:45.280843994,0,009,-0.18422412771889277,-1.1852887480064684,5.434431925137854,-0.21001021609591042,0.06171515983797229,0.6919557728182781,3.8569380549263688,-0.2931319127710076,0
55,2024-09-18 21:18:46.223718018,0,009,-0.15777674186810925,-1.2493415602630265,5.439679274503176,-0.15313393240693143,0.0844687768898538,0.7166081494112272,3.8130820754731376,-0.24056776541289918,0
56,2024-09-18 21:18:46.291836914,0,009,-0.12836161882999766,-1.3242867263311127,5.398916538367916,-0.09389778581993316,0.12218115557490994,0.7402334986196343,3.704519595309907,-0.17548528745580608,0
57,2024-09-18 21:18:46.354445068,0,009,-0.09514539089239595,-1.406998710653441,5.320522353222271,-0.03436923401659277,0.1738000755774104,0.7611692171576345,3.5348306629067525,-0.09885013537264419,0
58,2024-09-18 21:18:46.426629883,0,009,-0.057726614648607275,-1.4941935615958062,5.215305319406839,0.023392736495189064,0.2374399151207808,0.7779126778583106,3.3102212534055995,-0.01248163961724976,0
59,2024-09-18 21:18:46.494679932,0,009,-0.01632298371401584,-1.5826450909636005,5.096090947942391,0.07743390232091703,0.31058261882997684,0.7892999281875909,3.039002768634848,0.08113923412865673,0
60,2024-09-18 21:18:46.562939941,0,009,0.028125485643836594,-1.669332642029647,4.97695003945187,0.126010987566837,0.39035545078500056,0.7946141602408094,2.7307484056875255,0.17911597024537834,0
61,2024-09-18 21:18:46.630677002,0,009,0.07401067279065122,-1.7515474666763782,4.872056721780681,0.16769554973091785,0.4738077429409743,0.793620652694293,2.3954875720826716,0.2783482208479218,0
62,2024-09-18 21:18:47.573239014,0,009,0.11925759370960771,-1.8269796321984135,4.794363751178602,0.20145250975310508,0.5580979274214964,0.7865415364780731,2.0433059210716698,0.3756947477151448,0
63,2024-09-18 21:18:47.641833984,0,009,0.16160252623804644,-1.8937841158396573,4.754350245355329,0.22667533283522157,0.6405583615347835,0.7739874141276951,1.6844056465699377,0.46812775453484295,0
64,2024-09-18 21:18:47.709736084,0,009,0.19887013044412732,-1.9506259195169375,4.75904598014495,0.24318183559453047,0.7186714808941437,0.7568723264733415,1.3294000465290678,0.5528896346319196,0
65,2024-09-18 21:18:47.776592041,0,009,0.22919228271932776,-1.9967172272194542,4.8114757421106145,0.25118475576955623,0.7900245581753714,0.7363422591659429,0.9894890683905893,0.627627339181727,0
66,2024-09-18 21:18:47.845268066,0,009,0.2511512617931684,-2.0318526880611567,4.910601607246724,0.2512422276749185,0.8523129808145522,0.7137268780093483,0.6761583717807231,0.6905076172624228,0
67,2024-09-18 21:18:47.913057129,0,009,0.2638565936791806,-2.056421330307405,5.051687531181408,0.24419146005574813,0.903428837770794,0.6904950940289198,0.4002519505365367,0.7403382636894216,0
68,2024-09-18 21:18:47.980827881,0,009,0.2669557349409207,-2.0713597504748744,5.226861650377063,0.23107889614331928,0.9416090274001264,0.6681879050548011,0.17064931213240572,0.77667298476147,0
69,2024-09-18 21:18:48.923194824,0,009,0.26057580875934067,-2.078035196300096,5.425695394526318,0.21310886720099045,0.9655719065257585,0.6483232227179709,-0.006946643950305947,0.7998267843568858,0
70,2024-09-18 21:18:48.978311035,0,009,0.24521551612633694,-2.078081642760437,5.635827766395295,0.19163121161472935,0.9745905312149373,0.6322925821251262,-0.13060557324514707,0.8107361008774265,0
71,2024-09-18 21:18:49.059922119,0,009,0.22161849913920792,-2.0732170074317318,5.843803392064387,0.16815984283803123,0.9685113041400508,0.6212693201915781,-0.20191644400097264,0.8106516675915035,0
72,2024-09-18 21:18:49.127652832,0,009,0.19065296583613722,-2.0650532112797904,6.036230391761209,0.14435905315218853,0.947760014040344,0.6161247573666568,-0.2250721368838035,0.8007374255359432,0
73,2024-09-18 21:18:49.195451904,0,009,0.15321676005311766,-2.0549048646169257,6.201149088485801,0.12191386682914823,0.9133585599975297,0.6173352597579109,-0.2057221048578865,0.7817257836193199,0
74,2024-09-18 21:18:49.263240967,0,009,0.11018414965907726,-2.043612260425332,6.329245226992163,0.10228148700498106,0.866929741344571,0.6248794543637002,-0.1499558186356346,0.7537725492046865,0
75,2024-09-18 21:18:49.331048096,0,009,0.06240163555246395,-2.03140851636796,6.414456802484705,0.0864420565916853,0.8106339053002775,0.6381583571346711,-0.06366546778176027,0.7165524370520338,0
76,2024-09-18 21:18:50.245595947,0,009,0.010728208930567064,-2.0178719537000873,6.453783176815991,0.07478629775925315,0.7470009946090086,0.6559883373680726,0.04757508535893856,0.6695201496130705,0
77,2024-09-18 21:18:50.315807129,0,009,-0.043900514455347414,-2.001995786724878,6.446524041360276,0.06717799441247113,0.678680735828778,0.6766946268326429,0.17828639683470918,0.6122124024773093,0
78,2024-09-18 21:18:50.384341064,0,009,-0.10042847927433157,-1.9823591326378474,6.3934071676896185,0.06312276134588578,0.6081720304701423,0.6982816528349307,0.3229111021537263,0.5444933815882266,0
79,2024-09-18 21:18:50.451687988,0,009,-0.15769844084767987,-1.9573289318703013,6.2959597127163125,0.061943861973171435,0.5375864450488262,0.7186200343046526,0.47586782550337825,0.4667142278403107,0
80,2024-09-18 21:18:50.519483887,0,009,-0.2145250278147323,-1.92523042284424,6.156161966105219,0.06291159714018416,0.4684723839341779,0.7356086878236938,0.6317348083151078,0.3798093214498027,0
81,2024-09-18 21:18:50.586493896,0,009,-0.2697670267109742,-1.8844887220647597,5.976221882187499,0.06533414039627133,0.4017122358132765,0.7473188044527144,0.7855036771699501,0.2853462628154844,0
82,2024-09-18 21:18:50.648364990,0,009,-0.32236380537622006,-1.8337774816046022,5.758409259333344,0.06863174060759719,0.33751968538505495,0.7521381724990052,0.9328644880608019,0.18551298009580272,0
83,2024-09-18 21:18:51.596838867,0,009,-0.37133892869664464,-1.772181272955712,5.505068412294403,0.0723876905989409,0.2755688067664244,0.7489036071036091,1.070405322496429,0.08302302478346205,0
84,2024-09-18 21:18:51.664908936,0,009,-0.4157749605446767,-1.6993503533914436,5.218903138481443,0.07634974623892071,0.215234942018837,0.7369954485502798,1.1956691668832446,-0.019052330268779238,0
85,2024-09-18 21:18:51.733371094,0,009,-0.4547601911104618,-1.6156373550220122,4.903436332972782,0.08037426477997264,0.15586321524450103,0.7163924582932835,1.3070991452659853,-0.11749620048327106,0
86,2024-09-18 21:18:51.801177002,0,009,-0.48733761242351253,-1.5222113814730482,4.563438851718961,0.08433827132086963,0.09698928292240103,0.6876994156658454,1.4039080283024394,-0.20917120483566246,0
87,2024-09-18 21:18:51.866868896,0,009,-0.5125118142205212,-1.4211156228241917,4.205207413805299,0.08805267776090758,0.038492592103883734,0.6521374196199644,1.4859139313862595,-0.2912242165963424,0
88,2024-09-18 21:18:51.935147949,0,009,-0.5293413154333677,-1.3152178483191839,3.8366540713795954,0.09120956992048206,-0.01931955038674501,0.6114704503507885,1.5533398965022809,-0.36122528858255476,0
89,2024-09-18 21:18:51.991950928,0,009,-0.5370869300526131,-1.2080408696291902,3.4670848304319253,0.09341746904441776,-0.07570463733712635,0.5678628547440547,1.606509401646246,-0.41721298892460373,0
90,2024-09-18 21:18:52.947916992,0,009,-0.5353638187640004,-1.103514016576069,3.106528851074073,0.09436435392376613,-0.12954889136824105,0.523697878248136,1.6454912110621362,-0.45768842960228767,0
91,2024-09-18 21:18:53.009692871,0,009,-0.5242587175638381,-1.005704975234201,2.764751486302011,0.09405418669838946,-0.17947969351223933,0.4814021476752981,1.6699478090285138,-0.4816444755552439,0
92,2024-09-18 21:18:53.072385986,0,009,-0.5043920031426689,-0.9185740086144124,2.4503229958935155,0.09299071805655622,-0.22399522494106228,0.443303612081111,1.6794276198811118,-0.4886794109702986,0
93,2024-09-18 21:18:53.151313965,0,009,-0.47692505327897317,-0.8457655868889249,2.1699650052920436,0.0922347172001946,-0.26158391315071633,0.4115222873910825,1.6740993498081134,-0.47916983769079635,0
94,2024-09-18 21:18:53.218195068,0,009,-0.44352979570079265,-0.7904373487826859,1.9281027996067994,0.09335978941975466,-0.29082307434303317,0.3878855372910096,1.6555661997119755,-0.4544065730828974,0
95,2024-09-18 21:18:53.286916016,0,009,-0.4063310364618268,-0.7551287303862437,1.7265288318896597,0.09834920335390306,-0.31045350897387186,0.37387030401975113,1.6272071206682894,-0.4165805305529226,0
96,2024-09-18 21:18:53.354768066,0,009,-0.3678206937409654,-0.7416755137575647,1.5642528013101737,0.10944074098477524,-0.31942399768433494,0.370577194528007,1.5938195053908655,-0.36859371209295927,0
97,2024-09-18 21:18:54.298506104,0,009,-0.3307433829086389,-0.7511695434450857,1.4376395642128499,0.12893882873232304,-0.3169099188516217,0.37872737813926227,1.5608265142534443,-0.3137790180142456,0
98,2024-09-18 21:18:54.366208984,0,009,-0.2979526954884369,-0.7839547160599425,1.3408124481156565,0.1590433605462224,-0.3023220298783834,0.3986610405211704,1.5334006552410464,-0.2556260156812175,0
99,2024-09-18 21:18:54.433262207,0,009,-0.27224048734823175,-0.8396494788321403,1.266276812428352,0.20171140833862838,-0.275315328370805,0.4303239437325173,1.5157382993509108,-0.19755559521887292,0
100,2024-09-18 21:18:54.501712158,0,009,-0.256148127417932,-0.917187764833056,1.2058279643429721,0.2585069065621246,-0.23580341280969733,0.4732479357223227,1.5106582651713698,-0.14272850388549096,0
101,2024-09-18 21:18:54.569677002,0,009,-0.2517604954541325,-1.01487272080105,1.151784437856294,0.3303886015041348,-0.18399276319972785,0.526539701710793,1.5195341374103686,-0.09384247507772987,0
102,2024-09-18 21:18:54.637471924,0,009,-0.26048427282994613,-1.1304399379214078,1.0983285548780861,0.4174400691512058,-0.12044421749654949,0.5888865808324665,1.5423966167301033,-0.05291513454437515,0
103,2024-09-18 21:18:54.704621094,0,009,-0.2828472315360147,-1.2611266351873252,1.0425447431846753,0.5185999836602895,-0.04613474307166239,0.6585817662097094,1.5780559223165853,-0.021123950544512694,0
104,2024-09-18 21:18:55.622847900,0,009,-0.31838111987457,-1.4037459533652934,0.9848915187097184,0.6314760782697112,0.0375235525519005,0.7335709616517474,1.624164818975047,0.001221225249286386,0
105,2024-09-18 21:18:55.691530029,0,009,-0.3656339387421953,-1.554768949425297,0.9291659085113309,0.7523209332638213,0.128715491022944,0.811524172404539,1.6772270254005077,0.014550509934521927,0
106,2024-09-18 21:18:55.758486084,0,009,-0.4223217523535779,-1.7104064678247801,0.8821482254089015,0.8762086685940265,0.22527478934202663,0.889927705883963,1.7326723428722701,0.01979136345597679,0
107,2024-09-18 21:18:55.827106934,0,009,-0.4855903820595409,-1.8666679449661778,0.8529497261467487,0.997392307392941,0.32473881925794584,0.9661733518279667,1.7850571992956648,0.018120058994434408,0
108,2024-09-18 21:18:55.891738770,0,009,-0.5523180684142945,-2.019381198970688,0.8519254248058031,1.109773839304882,0.4244209005365014,1.0376184828023964,1.8282513032900956,0.010826832622748115,0
109,2024-09-18 21:18:55.962716064,0,009,-0.6193793464278159,-2.1641832648200667,0.8891123580437733,1.2074060398240118,0.5215024692047863,1.1016143033070742,1.855478116681889,-0.0006751832684834918,0
110,2024-09-18 21:18:56.030436035,0,009,-0.6838147816345623,-2.2965126395939164,0.9723640553675146,1.2849635948760374,0.6131210306277538,1.1555251154080708,1.8592920244202142,-0.014764485484740183,0
111,2024-09-18 21:18:56.973689941,0,009,-0.7428866321375992,-2.411639089155811,1.105465769463472,1.3381447376780427,0.696437899862964,1.1967656956078274,1.8317204751441976,-0.02954589787446133,0
112,2024-09-18 21:18:57.041591797,0,009,-0.7940423796268834,-2.5047614184489113,1.2866285011626015,1.3639702404902119,0.76869533444291,1.2228735505865476,1.7647509244953847,-0.04288797812765726,0
113,2024-09-18 21:18:57.109384033,0,009,-0.8348448077947124,-2.5711902981062043,1.5078768483683045,1.3609414591229514,0.8272925121449225,1.231622343938184,1.6511941758588922,-0.05261372955274882,0
114,2024-09-18 21:18:57.176142090,0,009,-0.8629256799604347,-2.606616872110643,1.7556298175445542,1.3290394433670172,0.8699136697216091,1.2211720648241555,1.4858127698744084,-0.05683374044041242,0
115,2024-09-18 21:18:57.244910889,0,009,-0.8759943286281482,-2.6074455010910085,2.0122275024948872,1.2696020100436192,0.8947133208992568,1.1902379962040839,1.2664488574257555,-0.05433405857176045,0
116,2024-09-18 21:18:57.312684082,0,009,-0.8719154331568192,-2.571141410034714,2.2577977708587333,1.1851572863657682,0.9005224184421472,1.1382502012259363,0.9948194154832002,-0.04489398619513401,0
117,2024-09-18 21:18:57.380489990,0,009,-0.8488469266820168,-2.496531047001912,2.4719414067010703,1.079278211804593,0.8870258119386726,1.0654733288616751,0.6767940225946113,-0.029424101938870205,0
118,2024-09-18 21:18:58.312697021,0,009,-0.8053980429148667,-2.384010211260407,2.6350450662707936,0.9564607815780767,0.8548675131977522,0.9730637377806506,0.3221337646335318,-0.009861915701980665,0
119,2024-09-18 21:18:58.391526855,0,009,-0.7407638387845792,-2.2356486780839835,2.7293726695725575,0.8219656246257755,0.805645264888553,0.8630583435802796,-0.056245373256251584,0.011144536519091256,0
120,2024-09-18 21:18:58.457676025,0,009,-0.654816044613662,-2.0552006993950336,2.740222412084184,0.6815583073844338,0.7417834677859363,0.7383100002318829,-0.44325574287128433,0.03063228698631943,0
121,2024-09-18 21:18:58.517878174,0,009,-0.5481624799938348,-1.8480210469833787,2.6572814551480706,0.5411451056563759,0.6663258313023811,0.6023870521098936,-0.8225728228065997,0.045654386669182624,0
122,2024-09-18 21:18:58.594355957,0,009,-0.42221514356671574,-1.620861678732348,2.476057285975558,0.40635834515112507,0.5827085432788618,0.45943545353136006,-1.1774669657539771,0.05348672459970639,0
123,2024-09-18 21:18:58.662592773,0,009,-0.27928827224166136,-1.381522692839503,2.1990475682840684,0.2821581195689292,0.49454748277387856,0.31398852208354167,-1.491690034565634,0.051740069452748276,0
124,2024-09-18 21:18:58.729793945,0,009,-0.12268163045161636,-1.1383623523823216,1.836168078392497,0.17250057511654354,0.40545156697379614,0.17072103790726958,-1.7504638539182584,0.03845409828844882,0
125,2024-09-18 21:18:59.673554932,0,009,0.043333970741267894,-0.8997102148614845,1.4041244672376711,0.0800838075517547,0.3188652143297674,0.03416725579476748,-1.9414405519305313,0.012241731057957719,0
126,2024-09-18 21:18:59.741971924,0,009,0.21369194646502607,-0.6732688544064604,0.9248714113405229,0.006168478587502964,0.2379175248000988,-0.09155722071126432,-2.055551963807702,-0.027508398692522106,0
127,2024-09-18 21:18:59.809760010,0,009,0.382869648748764,-0.4656236135009959,0.4235733272674534,-0.04946605462574662,0.16525124423709558,-0.20297847478121203,-2.0877311747610006,-0.08041554692870259,0
128,2024-09-18 21:18:59.877579834,0,009,0.545294458835431,-0.2819532081175302,-0.07358764120269412,-0.0883325577733378,0.10285894540886915,-0.2973956319990148,-2.037322633048084,-0.1449436334671308,0
129,2024-09-18 21:18:59.945341064,0,009,0.6956384887464233,-0.12594064784285422,-0.5415018126087439,-0.11282097334064045,0.05199489190508439,-0.3729208883973607,-1.9078935907582761,-0.21837931039589276,0
130,2024-09-18 21:19:00.012461914,0,009,0.8288865643506287,0.0001875112872092126,-0.9578869337656631,-0.12569893426536233,0.013187250055476525,-0.42845298225843526,-1.7064499769648989,-0.29701151190306513,0
131,2024-09-18 21:19:00.080034912,0,009,0.9402283074593571,0.09555874478493609,-1.3045245607511393,-0.1296756303351035,-0.013686780561426581,-0.46360875375083904,-1.4424655105667479,-0.3764607167271704,0
132,2024-09-18 21:19:00.998316895,0,009,1.0249309479903588,0.16051186664956385,-1.5678382552906343,-0.12709593302624586,-0.02929983014629654,-0.4786310279733035,-1.1271620588963505,-0.4520327880535663,0
133,2024-09-18 21:19:01.065811035,0,009,1.0783413841018703,0.19641848534321246,-1.7387682554159034,-0.11978167717337847,-0.034748984205121666,-0.4742885755081936,-0.7730890503428868,-0.51905749277598,0
134,2024-09-18 21:19:01.133906006,0,009,1.0961006183090753,0.20549137667775694,-1.8121715865713368,-0.10902348890808063,-0.031389735744157155,-0.45178810431650895,-0.39372718363056525,-0.5732851809389075,0
135,2024-09-18 21:19:01.195551025,0,009,1.0745800145022046,0.19062158010899907,-1.7862509963211974,-0.09568761119213515,-0.020632631520083898,-0.4127224015424519,-0.002946266131602621,-0.6113598762055098,0
136,2024-09-18 21:19:01.269073975,0,009,1.0114820344326672,0.15526284506151436,-1.6624395606968896,-0.08036015236913106,-0.003752228032892106,-0.35906278306066824,0.38560742238118206,-0.6312542354383109,0
137,2024-09-18 21:19:01.337225830,0,009,0.9064862527099028,0.10333456598773579,-1.4457377803872473,-0.06347774292844137,0.018231648948284936,-0.29317297306082324,0.7590783438931583,-0.63254218227496,0
138,2024-09-18 21:19:01.397822021,0,009,0.7617892541905738,0.0390958288535989,-1.145094366571548,-0.045464668569089525,0.044587973166295015,-0.2178058961966746,1.1058883336337157,-0.6164733666296305,0
139,2024-09-18 21:19:02.348396973,0,009,0.5824056819944619,-0.03303681643629376,-0.7733931325824759,-0.026902669820749958,0.07485360537393494,-0.13605147107602172,1.4161663712436265,-0.5858737891723768,0
140,2024-09-18 21:19:02.402278809,0,009,0.37613082183539215,-0.10872035138691304,-0.34693901212925143,-0.008676025748203605,0.10878796756067573,-0.05122063683425716,1.6821209393974466,-0.5449002001735856,0
141,2024-09-18 21:19:02.478805908,0,009,0.15310510628732701,-0.18392444681163278,0.1154021518258265,0.007998329482493873,0.1463202058213388,0.03332064473884989,1.898245667198345,-0.4986625187490545,0
142,2024-09-18 21:19:02.551785889,0,009,-0.07498437297254429,-0.25512254038234966,0.5933269152010279,0.02164499555409905,0.18749891448952466,0.11432259656634709,2.0612364426732745,-0.4527424236534613,0
143,2024-09-18 21:19:02.606841064,0,009,-0.29590002952217936,-0.3193948664619271,1.0665102862467482,0.03060812238450184,0.23245030874759526,0.18878190872324432,2.1696709342327236,-0.4126733242698632,0
144,2024-09-18 21:19:02.687043945,0,009,-0.49781260426041535,-0.3744449579976784,1.5162093976888311,0.03308219737970721,0.28134097503589145,0.25401923268786436,2.223672796982586,-0.3834577927231428,0
145,2024-09-18 21:19:02.748522949,0,009,-0.6700346870336441,-0.4185681730638177,1.9267048473469304,0.027145139916581715,0.33433404516887516,0.3077238890415846,2.2247530353476246,-0.3691681357315903,0
146,2024-09-18 21:19:03.698521973,0,009,-0.8034663077874481,-0.45061782100605224,2.2861717787731637,0.010864140239297321,0.3915361822381795,0.34799159524111695,2.1758009648208296,-0.37264541865931,0
147,2024-09-18 21:19:03.763459961,0,009,-0.8907994515459823,-0.469994340915824,2.5867883135966516,-0.01750725054134949,0.4529493667403114,0.373372934836284,2.081045345919281,-0.3953074782321838,0
148,2024-09-18 21:19:03.825527832,0,009,-0.9265680986389054,-0.47665871488903927,2.824179370412566,-0.05926364581140313,0.5184441078995655,0.3829387983344094,1.9459241943962011,-0.4370766729151613,0
149,2024-09-18 21:19:03.888562988,0,009,-0.9071435069824474,-0.4711534786930096,2.996472292336119,-0.11495515434884138,0.5877559136083258,0.37635150193529565,1.7769973538105535,-0.4964295049105735,0
150,2024-09-18 21:19:03.969902100,0,009,-0.8307913494618054,-0.4545982652030916,3.103311709126156,-0.18414724807272845,0.6604920316841975,0.3539138823891215,1.5819767811624934,-0.5705549558405553,0
151,2024-09-18 21:19:04.028280029,0,009,-0.697858076694883,-0.4286268175913896,3.1451727122288924,-0.26533492119092167,0.7361281557926942,0.3165729133870917,1.3696738650233922,-0.655581942690714,0
152,2024-09-18 21:19:04.105005127,0,009,-0.5110290274870601,-0.39526378060514555,3.1231691627429767,-0.3560408384050179,0.8139748480026517,0.26587756919512534,1.149594212874125,-0.7468235813151212,0
153,2024-09-18 21:19:05.049251952,0,009,-0.2755276236488515,-0.35677077773455484,3.0392941203431465,-0.45301736234490003,0.8931084175756322,0.2039056455968675,0.9312401804068131,-0.8390272042807945,0
154,2024-09-18 21:19:05.117080811,0,009,0.000840036430686218,-0.31549073604403466,2.896857543440206,-0.5524621720794741,0.9722915121524583,0.1331701772293769,0.7235057703519088,-0.9266803639945013,0
155,2024-09-18 21:19:05.173649902,0,009,0.3078257411007904,-0.27369917810297045,2.7009187687255967,-0.6502320590485671,1.0499382111409543,0.05650487842406,0.5344467078513876,-1.004421641053172,0
156,2024-09-18 21:19:05.252552979,0,009,0.6330669708551168,-0.2334532268318608,2.458576711320611,-0.7420681294359215,1.1241771904200708,-0.023078559275742712,0.3713396016400726,-1.067533433261585,0
157,2024-09-18 21:19:05.311427979,0,009,0.9626262314012496,-0.19643534541853117,2.1789678047660845,-0.8238213546372745,1.1930165969744682,-0.10256233551382246,0.2407107522095656,-1.112417134531623,0
158,2024-09-18 21:19:05.373916016,0,009,1.2817848880294758,-0.1638232860872592,1.8728806560172795,-0.8916767152105086,1.2545528456513486,-0.17910847198103114,0.14805392881074234,-1.136923954513727,0
159,2024-09-18 21:19:05.456033936,0,009,1.576057126632245,-0.13622850267598535,1.5521176316372733,-0.942403755138234,1.3071562405259598,-0.2502339929551431,0.09720563311309102,-1.140466296916242,0
160,2024-09-18 21:19:06.370681152,0,009,1.832271902935414,-0.11370550942564248,1.2288931271336563,-0.9736429157082287,1.349602599203839,-0.3139537963374777,0.08962490998930198,-1.1239293668056327,0
161,2024-09-18 21:19:06.435358154,0,009,2.0395599072961987,-0.09580643741366204,0.9154183373938111,-0.984188980074533,1.3811402707914593,-0.3688758234921511,0.12388921403017505,-1.0894490070795988,0
162,2024-09-18 21:19:06.511093994,0,009,2.1901477260927993,-0.0816718747278567,0.623564369194712,-0.974211699133084,1.4014834867319332,-0.4142371804956573,0.19558134796589519,-1.0401134263439826,0
163,2024-09-18 21:19:06.571466064,0,009,2.279895077623084,-0.07016276476118158,0.3644479904404531,-0.9453523531842063,1.410746201407748,-0.44987647361569766,0.2975889258469728,-0.9796433343541052,0
164,2024-09-18 21:19:06.633884033,0,009,2.3085354351635554,-0.06002432865755497,0.14792205167944275,-0.9006440841670125,1.4093568473861307,-0.47614831396055185,0.42073300511513173,-0.9120939093413983,0
165,2024-09-18 21:19:06.712402100,0,009,2.2796066724523416,-0.05005616166209615,-0.01791920587357346,-0.8442583286316611,1.3979763651297628,-0.49379585188907216,0.5546268095778463,-0.8415849273643486,0
166,2024-09-18 21:19:06.774796875,0,009,2.2000416168566512,-0.03925867457589222,-0.12707078287242904,-0.781140760551256,1.3774017096225224,-0.5037993809066978,0.6887138843622314,-0.7720550048518887,0
167,2024-09-18 21:19:07.713027832,0,009,2.079388885033847,-0.026936296714663525,-0.17573882031003565,-0.7165727875965585,1.3484446993796246,-0.507215164041207,0.8133748291219021,-0.7070504283613527,0
168,2024-09-18 21:19:07.790700928,0,009,1.9287202361757019,-0.012753146147692957,-0.1623701027711981,-0.6556439765572317,1.311830209084121,-0.5050231654622326,0.9208342779718106,-0.6495356545347625,0
169,2024-09-18 21:19:07.859224121,0,009,1.7593855964254024,0.0032608595590046243,-0.08765947566853798,-0.602684854765069,1.2681688957887758,-0.4980156423021316,1.005605403060959,-0.6016860831896328,0
170,2024-09-18 21:19:07.914459961,0,009,1.581832332761943,0.020760134667452586,0.045564485327765296,-0.5608040860224499,1.2179950640877164,-0.4867532410066156,1.0644184373212326,-0.5646684486063994,0
171,2024-09-18 21:19:07.995455078,0,009,1.4046998016490821,0.039185528329068534,0.23259564756317555,-0.5316385848089943,1.161808143569768,-0.4715834260063948,1.0957758441796257,-0.538480760196705,0
172,2024-09-18 21:19:08.054222168,0,009,1.2343166889155246,0.05789624508238273,0.4670512975628606,-0.5153115472034034,1.1000801636977278,-0.4526931370628652,1.0993579631410746,-0.5219273905398386,0
173,2024-09-18 21:19:08.131022949,0,009,1.0746106836400195,0.0763075012611465,0.7408534834746662,-0.5105350064961283,1.0332438572324505,-0.4301750018442085,1.0754844593185569,-0.5127722596966874,0
174,2024-09-18 21:19:09.072173096,0,009,0.927383450129751,0.09401376558924404,1.0440070480783037,-0.5148117606064024,0.9617030585824241,-0.40410240065592296,1.0247433141138598,-0.5080933335726794,0
175,2024-09-18 21:19:09.140021973,0,009,0.7928939221908272,0.11086941154567984,1.364251459444186,-0.5247253409940588,0.885899100659801,-0.37461066164892476,0.947752538858181,-0.5047959997048815,0
176,2024-09-18 21:19:09.203187988,0,009,0.670624734663377,0.12699833856115525,1.6867359265702888,-0.5363052237258826,0.8064244370682888,-0.3419714260864752,0.8449096259483204,-0.5001141507021303,0
177,2024-09-18 21:19:09.264012207,0,009,0.5599981145649033,0.1427359192795033,1.9940727874621493,-0.5454338433094374,0.7241368592318835,-0.3066412483421241,0.7161137292100072,-0.49190891558890654,0
178,2024-09-18 21:19:09.343489990,0,009,0.46081631983837523,0.15854543380860814,2.2671390280113943,-0.5482585032385277,0.6402347222211061,-0.2692758218010812,0.5606922823393483,-0.4787360164907442,0
179,2024-09-18 21:19:09.411302002,0,009,0.37338092298953296,0.17495333003542007,2.4866167948333118,-0.5415858280565266,0.5562738504672247,-0.2307173525795294,0.37770457919754546,-0.45978676044762273,0
180,2024-09-18 21:19:09.478035889,0,009,0.29842761755847164,0.19251685652111453,2.6348683824189356,-0.5232464924733305,0.47411022430694216,-0.1919668804198078,0.16650344185535995,-0.43479594252485987,0
181,2024-09-18 21:19:10.407208008,0,009,0.23703279684567735,0.21181019674927423,2.6976635958379105,-0.49239094298023106,0.39576439124976825,-0.15414487947085917,-0.07272536357311567,-0.40394740555514286,0
182,2024-09-18 21:19:10.490375000,0,009,0.19054609821820656,0.2334052083204198,2.6654191039136417,-0.4496340996956856,0.3232353201042144,-0.11843362441816652,-0.33868850025369984,-0.36776897414983084,0
183,2024-09-18 21:19:10.557597900,0,009,0.16050647370456608,0.25782743857060053,2.5338340430608706,-0.3969899085502389,0.2583141035898941,-0.08599497297122861,-0.628968607544813,-0.32701469801473726,0
184,2024-09-18 21:19:10.613573975,0,009,0.1484711782383793,0.2854873312662668,2.3040261724843263,-0.3376212944599355,0.20243303057732445,-0.05786715097576394,-0.9399927851480641,-0.2825642057822705,0
185,2024-09-18 21:19:10.691770020,0,009,0.15573818404163314,0.31660715355463726,1.9823347109692582,-0.2754794796507856,0.15654842600780802,-0.03485481812258299,-1.2668142237665607,-0.23536997169927099,0
186,2024-09-18 21:19:10.754255127,0,009,0.18301995487437112,0.35116756510816444,1.5798442251108482,-0.2148890936212517,0.1210444039112886,-0.017436494196903733,-1.6028546185598702,-0.18644817244132536,0
187,2024-09-18 21:19:10.816319092,0,009,0.23014818698775796,0.3888868303242437,1.1115971691941022,-0.1601094580179633,0.09566648648257857,-0.005717058024964416,-1.9398702061456705,-0.13687104087662183,0
188,2024-09-18 21:19:11.747111084,0,009,0.2958552011882767,0.42923553114332164,0.5955222924884993,-0.11490072325088478,0.07951349697913049,0.0005611107210265494,-2.268302488013107,-0.08771441541797884,0
189,2024-09-18 21:19:11.815892090,0,009,0.3776498907608984,0.47148406334848064,0.05120384101928986,-0.08213480247206259,0.07111289391230785,0.0019576980266300826,-2.5780214170014752,-0.039948007179451885,0
190,2024-09-18 21:19:11.882172119,0,009,0.4718022520564327,0.5147723028080676,-0.5013614296622446,-0.06349835631306738,0.0685701669962882,-0.000751778338102224,-2.859331236041223,0.005717341048507166,0
191,2024-09-18 21:19:11.951469971,0,009,0.5734445503625077,0.5581818368988906,-1.042888706145578,-0.059332999112394064,0.06974231545223764,-0.006662616519890236,-3.103983664976941,0.04898894317414793,0
192,2024-09-18 21:19:12.005883057,0,009,0.6767843489080252,0.6007938203781037,-1.5556735342830186,-0.06865848277629674,0.07240019622976515,-0.014814397904635151,-3.3058265992381535,0.09007214295657398,0
193,2024-09-18 21:19:12.083142090,0,009,0.7754112775413664,0.6417331881572345,-2.024101555266884,-0.0894153707645137,0.07439365204348646,-0.02425490380039855,-3.4607510614609898,0.12956936923291373,0
194,2024-09-18 21:19:12.154957031,0,009,0.8626727922037953,0.6802132210869065,-2.4348614781757205,-0.1189019862784069,0.07383256240815653,-0.03410085967379157,-3.565923425201216,0.16818757359916434,0
195,2024-09-18 21:19:13.098020996,0,009,0.9321191869893183,0.7155841939168408,-2.777128381403328,-0.15428258313442075,0.06925782966907681,-0.04359205690355703,-3.6187412395150904,0.2063750395917514,0
196,2024-09-18 21:19:13.155427002,0,009,0.9780340789819666,0.7473704017519411,-3.043015946588999,-0.19299937584518187,0.05976124853809531,-0.05213177769062441,-3.61614709593939,0.24405231877609374,0
197,2024-09-18 21:19:13.233534180,0,009,0.9959913964897937,0.7752795862200187,-3.228322367395675,-0.23298380564896742,0.045020033476706564,-0.059310603837995204,-3.5547010108649175,0.28053941043954417,0
198,2024-09-18 21:19:13.301507080,0,009,0.9832840541191545,0.7991849818495469,-3.3331797910353345,-0.2726836566034749,0.025230459783067986,-0.06491126637304472,-3.431402749541024,0.3146949322402543,0
199,2024-09-18 21:19:13.361479004,0,009,0.9391039526210762,0.8190891234374166,-3.362092233565104,-0.31100776338337766,0.0009625071420535714,-0.06889018068194161,-3.2449521149811025,0.34520511952873223,0
200,2024-09-18 21:19:13.434290771,0,009,0.86448536242343,0.8350761047106733,-3.323199512088244,-0.3472790019386289,-0.02701976064008536,-0.07133656593245118,-2.996966664787828,0.37089545740611796,0
201,2024-09-18 21:19:13.495889893,0,009,0.7620985010325889,0.8472609839412314,-3.22707510973605,-0.38119824195324586,-0.057939418657571386,-0.0724185127492361,-2.6926801658628907,0.39094482677663306,0
202,2024-09-18 21:19:14.448043213,0,009,0.6359658386598145,0.8557523538053461,-3.085511686786377,-0.4127520013214598,-0.09116854664981423,-0.07232662989980694,-2.3408586209413156,0.404957646900256,0
203,2024-09-18 21:19:14.504112061,0,009,0.4911450729688606,0.8606396175732142,-2.9105543612589537,-0.4420214229904323,-0.12634851962653845,-0.0712227425114064,-1.9529911264341213,0.41291369301679726,0
204,2024-09-18 21:19:14.582040039,0,009,0.3334046450664002,0.8620013639978481,-2.7138082810229047,-0.4689363232074648,-0.1634499964838592,-0.06919876765697981,-1.5421125468965509,0.415061131893616,0
205,2024-09-18 21:19:14.644076172,0,009,0.16890441486570135,0.8599247835477052,-2.5059826547775192,-0.49306554348802867,-0.20275680087686837,-0.06624815770324469,-1.1217194025995034,0.41184437827165976,0
206,2024-09-18 21:19:14.719166016,0,009,0.0039037162410817156,0.854529433589152,-2.2966727872634745,-0.5135064900095991,-0.2447613886466771,-0.062250490518110116,-0.7050306888951811,0.4039003450400371,0
207,2024-09-18 21:19:14.784729004,0,009,-0.15546552270384978,0.8459853946271958,-2.094389897142528,-0.528882621160049,-0.2899885368653446,-0.05697142812762386,-0.3045439911229343,0.39205848840244656,0
208,2024-09-18 21:19:14.854726074,0,009,-0.30336123266575893,0.8345101664957666,-1.9068245286459526,-0.5374204337491113,-0.338805787940717,-0.0500830017837217,0.06824848563216974,0.37727930570283374,0
209,2024-09-18 21:19:15.789356934,0,009,-0.43441336730488933,0.8203456943754495,-1.7412380885110008,-0.53707725260627,-0.39127711233804185,-0.0412089202985149,0.40300580343038883,0.36056396920518985,0
210,2024-09-18 21:19:15.866297119,0,009,-0.5440122018341572,0.8037433427988693,-1.604707065332679,-0.5257343614723278,-0.44706941403661005,-0.02999362685443945,0.6904861708250791,0.34293311721629505,0
211,2024-09-18 21:19:15.928523926,0,009,-0.62865702518841,0.7849744251092016,-1.5039510475521536,-0.5014936203216968,-0.5054025817208058,-0.01618246954772443,0.9223444985482812,0.3255185314692378,0
212,2024-09-18 21:19:15.991466064,0,009,-0.6862230097423291,0.7643509915096939,-1.444784313818253,-0.4630518282085777,-0.5650553095684987,0.0003083238707403022,1.0910000587251345,0.3096850417342074,0
213,2024-09-18 21:19:16.069574951,0,009,-0.7160702316541553,0.7422395192044938,-1.4315130198507673,-0.41002853824929086,-0.6244391684944957,0.019349948345304846,1.1898017846489821,0.2970407782875845,0
214,2024-09-18 21:19:16.137687012,0,009,-0.7190256816756981,0.7190728002206405,-1.466564932413172,-0.3431106742240906,-0.6817235264541337,0.040594599574634856,1.2135823152357628,0.2892595162353531,0
215,2024-09-18 21:19:16.205516113,0,009,-0.6972896861286494,0.6953732995348828,-1.5503914345751109,-0.26398417168973975,-0.7349736851745705,0.06350245861146725,1.15952147072179,0.2877442252986892,0
216,2024-09-18 21:19:17.124479980,0,009,-0.6542730908415723,0.6717873574441035,-1.6815039268078862,-0.17514506282127423,-0.7822628974710258,0.0873943515752872,1.0280695331275178,0.29324023038852365,0
217,2024-09-18 21:19:17.177002930,0,009,-0.5943219882076198,0.6491116187105179,-1.8565766430355832,-0.07969873135000624,-0.8217317954636406,0.11151680789495937,0.8235854845327585,0.3055498654029557,0
218,2024-09-18 21:19:17.260059082,0,009,-0.5222826226212909,0.6282924226615205,-2.0707311038757226,0.018812222447932236,-0.8516020038851546,0.13510444065541077,0.554387989683339,0.3234595373228666,0
219,2024-09-18 21:19:17.316629883,0,009,-0.44290712039553526,0.6103938000984538,-2.3181296734550085,0.11655338042035862,-0.8701812906403934,0.15742988626041682,0.2321224061471122,0.34486624133610655,0
220,2024-09-18 21:19:17.394739014,0,009,-0.3601653114500988,0.596534972775331,-2.5928513018801325,0.20953036971374214,-0.8758947708903823,0.177838512431049,-0.12937628441547908,0.3670081946134116,0
221,2024-09-18 21:19:17.457631104,0,009,-0.276594603478336,0.587794942140016,-2.8898629442313,0.29375244127947786,-0.8673633584200543,0.19576761687289426,-0.5154157811537909,0.3867264640135997,0
222,2024-09-18 21:19:17.531171143,0,009,-0.1928611840906572,0.5850929926046026,-3.2057724764131312,0.3654774886816128,-0.8435453971483078,0.21075193549546048,-0.9117045617511459,0.40073239729041743,0
223,2024-09-18 21:19:18.473874023,0,009,-0.10766336926805439,0.5890725927260791,-3.539046182208548,0.42151939485878037,-0.8039290751838888,0.2224218089640142,-1.3053302550191532,0.40587778587584994,0
224,2024-09-18 21:19:18.541726074,0,009,-0.01799767770324561,0.6000186817426901,-3.889592186145999,0.4595363629459549,-0.7487271013712178,0.23050130632204452,-1.6853312619662892,0.39942918666274335,0
225,2024-09-18 21:19:18.608881836,0,009,0.0802804334885348,0.6178245518221649,-4.25788195060742,0.47823327826606005,-0.6790363151832046,0.2348089100011656,-2.04285326976925,0.3793233169202263,0
226,2024-09-18 21:19:18.677250000,0,009,0.19171087871377013,0.6420060966935648,-4.6438444422433,0.4774471074776271,-0.5969585171832928,0.23525666150704527,-2.371032349238418,0.34436459371810174,0
227,2024-09-18 21:19:18.733408936,0,009,0.3204366310200045,0.6717453516610588,-5.045651516011732,0.4580981302315788,-0.5056726853355501,0.2318384512350073,-2.6648728342555494,0.29437051653623947,0
228,2024-09-18 21:19:18.811089111,0,009,0.46950174302011927,0.7059420303909144,-5.458513318694498,0.42202033658111865,-0.40941473277013596,0.2246002160236034,-2.921292317493301,0.23030197740782793,0
229,2024-09-18 21:19:18.873884033,0,009,0.640330375126305,0.7432645677619899,-5.873795440339436,0.37172452706395176,-0.3133124053055797,0.21359734416500922,-3.1391923513919404,0.15436780578460146,0
230,2024-09-18 21:19:19.817649902,0,009,0.8324264534899996,0.7822071800118261,-6.278842270610934,0.3101483798928317,-0.2230595052361685,0.19885972575705385,-3.3192580820024897,0.07003588994258297,0
231,2024-09-18 21:19:19.891789062,0,009,1.0432841278359979,0.8211642720987637,-6.6576493158412084,0.2404177306867268,-0.14446946306498618,0.18038756368648173,-3.463395754635133,-0.018122502476942727,0
232,2024-09-18 21:19:19.959590820,0,009,1.2684587810996755,0.8585255533173267,-6.9922098208399515,0.1656260391639368,-0.0829826169858103,0.15818497163532155,-3.5740332472076246,-0.10478771940783906,0
233,2024-09-18 21:19:20.027386963,0,009,1.5017675903211365,0.8927767947828319,-7.264252681686471,0.08865841205691338,-0.04319845500378756,0.13231626861203166,-3.6536015121724925,-0.18439856462694362,0
234,2024-09-18 21:19:20.095154053,0,009,1.735630825275026,0.9225804846662321,-7.457138577580786,0.012111878089121599,-0.028479309309069348,0.10295956975915035,-3.704374026030955,-0.25168726355084853,0
235,2024-09-18 21:19:20.162466064,0,009,1.9615390569737177,0.9468247023990047,-7.557680414904495,-0.06166523180014322,-0.0406564239396574,0.07043899512733735,-3.7286623551789004,-0.30211500400460434,0
236,2024-09-18 21:19:20.223016112,0,009,2.17056475046786,0.9646525477627207,-7.557592283332837,-0.13046015313808312,-0.07987396827289435,0.035232571348349194,-3.7292013045301897,-0.3321514626032633,0
237,2024-09-18 21:19:21.167414062,0,009,2.3538305403786532,0.9754932961760064,-7.454304282589482,-0.1920841465519932,-0.14460407583673357,-0.002036594875866099,-3.7094173591535533,-0.33942354156452964,0
238,2024-09-18 21:19:21.240894043,0,009,2.5029136539310994,0.9791064236237147,-7.251047830041548,-0.24431145051371633,-0.23183852829533097,-0.040620264820131535,-3.673265953622854,-0.32279783051924565,0
239,2024-09-18 21:19:21.309670898,0,009,2.6102214883443766,0.9756329697456885,-6.956286510999872,-0.2848814271431772,-0.337425903704703,-0.07967711243109729,-3.6245012729737964,-0.28244036129580696,0
240,2024-09-18 21:19:21.368884033,0,009,2.6693659404531394,0.965634925431149,-6.582636510310859,-0.31156260243265815,-0.45649074617649427,-0.11831961516663403,-3.565590617370719,-0.2198255874203552,0
241,2024-09-18 21:19:21.431844971,0,009,2.6755247103370023,0.950097935667783,-6.145465202639231,-0.3222727855008972,-0.5838523206765255,-0.15567386287506182,-3.4968162858491776,-0.1376086257687905,0
242,2024-09-18 21:19:21.512851074,0,009,2.62574545448474,0.9303826919096408,-5.661459469410237,-0.3152263402719759,-0.7143725192339524,-0.1909414516611354,-3.4160375841016926,-0.03932071260065528,0
243,2024-09-18 21:19:21.575254883,0,009,2.519148604138594,0.9081309909668522,-5.147476207456732,-0.28906398162651237,-0.84320523742457,-0.22344765928207025,-3.31912851766056,0.0710358450641575,0
244,2024-09-18 21:19:22.487153076,0,009,2.357025035477853,0.8851439273381001,-4.619814596410749,-0.24296201211041665,-0.9659601959036866,-0.2526667682434399,-3.200857661740023,0.18938295405303412,0
245,2024-09-18 21:19:22.566945068,0,009,2.142859733796686,0.8632450830926619,-4.093852664969593,-0.17675881164726426,-1.0788133689941155,-0.2782267738618763,-3.056134691777397,0.3119157580083738,0
246,2024-09-18 21:19:22.634728027,0,009,1.8822913625806057,0.8441351416310118,-3.583949588199612,-0.09109155355511071,-1.1786043632620382,-0.29989929812460886,-2.8815303338122185,0.4354031330182906,0
247,2024-09-18 21:19:22.698251952,0,009,1.5829663134130503,0.8292475505564706,-3.1035397911599034,0.012518886101563756,-1.2629500894060592,-0.3175785692794814,-2.676618573130458,0.5573815776459285,0
248,2024-09-18 21:19:22.770312012,0,009,1.2542377195639736,0.8196223785471611,-2.6653015557886244,0.13167090183265784,-1.3303635989353209,-0.3312553828027548,-2.444629171465862,0.6761576012024545,0
249,2024-09-18 21:19:22.838149902,0,009,0.90671092477468,0.8158178705711798,-2.2812534031451306,0.26317324735384173,-1.3803317886920345,-0.3409943784097084,-2.1922844170082727,0.790603070364422,0
250,2024-09-18 21:19:22.897128174,0,009,0.5516807758156254,0.8178745164937721,-1.9626386985266895,0.40322668600257094,-1.4132994489995814,-0.34691901105041995,-1.9290133824100273,0.8998289969184387,0
251,2024-09-18 21:19:23.843447021,0,009,0.20050438676328342,0.8253381774785769,-1.71943309807265,0.5476773746323189,-1.4305233962676898,-0.34920510274948197,-1.665770273749342,1.0028595703506098,0
252,2024-09-18 21:19:23.905935059,0,009,-0.1360504267125334,0.8373401761662442,-1.5594195674869207,0.6922766356618735,-1.4338141691848423,-0.3480846721785947,-1.4136077942176706,1.0983855164186465,0
253,2024-09-18 21:19:23.984255127,0,009,-0.44841724854172066,0.8527212775522804,-1.4870750035382911,0.8328783757031083,-1.4252472625070038,-0.3438593592951384,-1.182228137091761,1.1846473090604746,0
254,2024-09-18 21:19:24.052069824,0,009,-0.7287203396681152,0.8701722082599298,-1.502684750616175,0.9655681637453629,-1.406918518158626,-0.3369203152119603,-0.9789287379674875,1.259510470321384,0
255,2024-09-18 21:19:24.107180176,0,009,-0.9710752115911964,0.8883578863169486,-1.6020010158104963,1.0867804952787221,-1.3807549509083408,-0.32777492270518194,-0.8082992546031886,1.3207539436258695,0
256,2024-09-18 21:19:24.187683105,0,009,-1.171694323231896,0.9060075896965789,-1.776520016835425,1.1934394443093062,-1.3483753598516568,-0.31707558093096117,-0.6726043247328072,1.366480166136896,0
257,2024-09-18 21:19:24.255008057,0,009,-1.3288521121081704,0.9219762346886362,-2.014187853572388,1.2830896828705525,-1.3110215389564912,-0.3056301048346709,-0.5723870423969583,1.3954752932346712,0
258,2024-09-18 21:19:25.192875000,0,009,-1.4427636865513633,0.9352903534845977,-2.300224802479122,1.3539757089946791,-1.2695687854362334,-0.2943759681814104,-0.5068273303118768,1.4073852131324294,0
259,2024-09-18 21:19:25.262896973,0,009,-1.5153904978611177,0.9451858951023769,-2.61790757685418,1.4050746069375768,-1.2245880987079363,-0.28432353332078675,-0.47371869940094147,1.4026871874290587,0
260,2024-09-18 21:19:25.333890869,0,009,-1.5501729094080146,0.9511365383536384,-2.949394435138062,1.4361144203953433,-1.1764350311017981,-0.2764836744294123,-0.4692457360866966,1.3825271223616489,0
261,2024-09-18 21:19:25.402075928,0,009,-1.55170418802743,0.9528665745849462,-3.2767099973789504,1.4475838214936902,-1.1253601358292875,-0.27178834814952174,-0.4879609640508128,1.3485360638290993,0
262,2024-09-18 21:19:25.469874023,0,009,-1.5253729229060602,0.9503461142124265,-3.5828017703288264,1.440682677640949,-1.0716295216037854,-0.27101164933127386,-0.5233924463802812,1.3027359573347876,0
263,2024-09-18 21:19:25.537584961,0,009,-1.4770115939283852,0.9437761637639575,-3.8524806552666773,1.4171548815441186,-1.0156273168894685,-0.27470593184471154,-0.5692607515441435,1.2475565859798476,0
264,2024-09-18 21:19:25.602816162,0,009,-1.412581276115974,0.9335705819596538,-4.073209772806256,1.379023584823403,-0.9579107479358219,-0.28316665391858864,-0.6206200196351797,1.1858630158373364,0
265,2024-09-18 21:19:26.548350098,0,009,-1.337886772555958,0.9203272393603534,-4.2357609732735835,1.3283198502118738,-0.8992006178982308,-0.2964278654898994,-0.6742045753566213,1.1208642673270213,0
266,2024-09-18 21:19:26.616180908,0,009,-1.2583121512044457,0.9047741393651606,-4.3345710670179205,1.2668821355855275,-0.8403088001875496,-0.31428086204058936,-0.727947510213836,1.05586779784369,0
267,2024-09-18 21:19:26.682579102,0,009,-1.1786091888226693,0.8876907575434644,-4.367579205620897,1.1962575876489367,-0.7820285562903364,-0.33630869467329555,-0.7801795720476747,0.993950647600491,0
268,2024-09-18 21:19:26.751763184,0,009,-1.1027648889523058,0.8698205907561009,-4.335585976511301,1.117706319059877,-0.7250307884940457,-0.36193280833151614,-0.8289400500190117,0.9376427756388517,0
269,2024-09-18 21:19:26.819580078,0,009,-1.0339130219319992,0.8517912791042416,-4.2414220102998,1.0322838079691767,-0.6698041121566818,-0.3904687044216886,-0.8715576768573262,0.8886877768511556,0
270,2024-09-18 21:19:26.887401123,0,009,-0.9742565919862979,0.8340552037467329,-4.089185756506547,0.9409524367308837,-0.6166539374083099,-0.42118374388531915,-0.904580276495289,0.8479160068163637,0
271,2024-09-18 21:19:26.942714111,0,009,-0.9250321039531142,0.8168638177157592,-3.8836519828303446,0.844680960336187,-0.565749317340717,-0.4533446670062049,-0.924118217604775,0.8152360721162185,0
272,2024-09-18 21:19:27.895025879,0,009,-0.8865630393394294,0.8002835456065996,-3.629923525282245,0.7445303635646084,-0.5171838515303304,-0.48624359374657744,-0.9265121565890728,0.7897116443550011,0
273,2024-09-18 21:19:27.966346924,0,009,-0.8584025607755812,0.7842465552257357,-3.333441032452646,0.6417447665961826,-0.47100915582277947,-0.5192026864866476,-0.9090067011819347,0.7696653379420836,0
274,2024-09-18 21:19:28.034123779,0,009,-0.8395198183551531,0.7686145500392865,-3.0003655994110687,0.5378430428248636,-0.42721715595145243,-0.5515668029423791,-0.8701068450379376,0.7527892792838413,0
275,2024-09-18 21:19:28.091083984,0,009,-0.8284748144187106,0.7532277130843323,-2.63812499283148,0.434675092695923,-0.38568747876202103,-0.5826896510937807,-0.8095581567305479,0.7363150887852894,0
276,2024-09-18 21:19:28.156135986,0,009,-0.8235468686500469,0.7379199114746979,-2.2557586380694663,0.3344040283869127,-0.3461475972263188,-0.6119130548231614,-0.7280693112514314,0.717286486603947,0
277,2024-09-18 21:19:28.231674072,0,009,-0.8228187407353612,0.7225022835687642,-1.863760593850372,0.2394053470241937,-0.3081844331036613,-0.638544371517506,-0.6269037197547339,0.6928856933555557,0
278,2024-09-18 21:19:28.294572021,0,009,-0.8242453315570294,0.7067352374876248,-1.4733622142159108,0.1520983549726046,-0.271311287807891,-0.661847154287309,-0.5075098079914537,0.66072285019344,0
279,2024-09-18 21:19:29.223454834,0,009,-0.8257264018696191,0.6903096654204361,-1.0954411116034903,0.07472616129401617,-0.23506514547384924,-0.6810603500663982,-0.37138079523903966,0.6190356100477264,0
280,2024-09-18 21:19:29.285446045,0,009,-0.8251776856413854,0.6728457082913836,-0.7393951717534356,0.009112957757741923,-0.19909609740157563,-0.6954482307111886,-0.22019324828726294,0.5667955027680772,0
281,2024-09-18 21:19:29.359115967,0,009,-0.8205883290856217,0.6539073519335118,-0.4123176881394996,-0.04355261235037889,-0.16322323975810565,-0.7043669869622728,-0.05606671624009538,0.5037563104320399,0
282,2024-09-18 21:19:29.426933105,0,009,-0.8100644570991232,0.6330316393275742,-0.11866185163283724,-0.08285758564539847,-0.12747073780785595,-0.7073292828354415,0.11824586504404828,0.4304939561736085,0
283,2024-09-18 21:19:29.485129149,0,009,-0.7918762232548808,0.6097750686402569,0.13955888791410134,-0.10918359216714663,-0.09211495048369668,-0.7040576282020707,0.2992561028409095,0.3484558905104786,0
284,2024-09-18 21:19:29.562525879,0,009,-0.7645374861109332,0.5837757140986981,0.3621653700064321,-0.12360174693635939,-0.057726418838295095,-0.6945279318699213,0.48267649058865847,0.2599850486891289,0
285,2024-09-18 21:19:29.616191895,0,009,-0.7269337380017389,0.5548185061364487,0.5501624560888744,-0.1277180453710373,-0.025140274175682698,-0.6790061552926967,0.6635103894895686,0.16824066250439815,0
286,2024-09-18 21:19:30.569159912,0,009,-0.6784729887592436,0.5228854392751149,0.7053203140058357,-0.12353476057798733,0.004673506391010484,-0.6580758544737874,0.8364812375391655,0.07694163258461459,0
287,2024-09-18 21:19:30.631495117,0,009,-0.6192061954737579,0.4881809451212175,0.8299071250185929,-0.11329938929333382,0.030782635499159567,-0.632647572494385,0.9967250423442957,-0.010054147290089284,0
288,2024-09-18 21:19:30.708736816,0,009,-0.549884096495869,0.4511364720160336,0.9264424591732316,-0.09930706150946138,0.05242786845023649,-0.6039377505384003,1.1403876193461548,-0.08921764223128159,0
289,2024-09-18 21:19:30.776994873,0,009,-0.47195729739725206,0.4124016351674004,0.9975531578794582,-0.08370365021292016,0.06908681842666756,-0.5734089955528526,1.2648643681805023,-0.1577401099551485,0
290,2024-09-18 21:19:30.844772217,0,009,-0.3875333823255622,0.3728215577902528,1.045978569913877,-0.06834775594762113,0.08046767414185049,-0.5426699823039752,1.3687343165354104,-0.2137888478378059,0
291,2024-09-18 21:19:30.912480957,0,009,-0.29927898509688466,0.3333925231629968,1.0745878867911243,-0.05474054036812014,0.08644662596437022,-0.5133379692538721,1.4515342157261815,-0.25660269059142493,0
292,2024-09-18 21:19:30.980395020,0,009,-0.21024153448051994,0.2951878608451348,1.0862983712847192,-0.04402383084238978,0.08699861064930076,-0.4868803650354891,1.513401249242535,-0.28640627259846513,0
293,2024-09-18 21:19:31.923612061,0,009,-0.12358642179095614,0.25925451732736116,1.0839003581044568,-0.03704160204051955,0.08219515287288333,-0.464473466493789,1.554588685951561,-0.3041645687637948,0
294,2024-09-18 21:19:31.991464111,0,009,-0.042282559932596095,0.2264945530890783,1.069812489931421,-0.03440688693324947,0.07227793815712842,-0.44691856117529294,1.5749252972987877,-0.31126265459734587,0
295,2024-09-18 21:19:32.058777100,0,009,0.031188021875061984,0.19755813823318688,1.0458442319999202,-0.036500114703016694,0.057729346076262705,-0.43462750139185746,1.5732944822365302,-0.30918826073469113,0
296,2024-09-18 21:19:32.127070068,0,009,0.09499406125057298,0.17277977601610034,1.01315418874684,-0.04339914831235178,0.039270434505104895,-0.42766192491527183,1.5472403675347182,-0.2992416195004515,0
297,2024-09-18 21:19:32.194931885,0,009,0.14793450711306044,0.15217879620400318,0.9724883295965954,-0.0548064372218759,0.017784933572347294,-0.4258037386497489,1.4929358308942458,-0.28230525542668733,0
298,2024-09-18 21:19:32.253510009,0,009,0.18927568045890586,0.1355176321306758,0.9244786070126394,-0.07001664317481993,-0.0057956816615253575,-0.4286360828345825,1.4057407979609788,-0.258741937533972,0
299,2024-09-18 21:19:32.330991943,0,009,0.21854024966507585,0.12238934327850327,0.8697268144862457,-0.08792253099053471,-0.030607357331970318,-0.4356146768778048,1.2812887879803454,-0.22845302105856477,0
300,2024-09-18 21:19:33.239734863,0,009,0.23532153967015199,0.11230665876388911,0.8087165352842629,-0.10706434909157528,-0.05594429589327909,-0.4461157628820274,1.1167540687848876,-0.19106669161551354,0
301,2024-09-18 21:19:33.316615967,0,009,0.2391732608897953,0.10477667071393361,0.7418430577502924,-0.1257559478065029,-0.0813239081412079,-0.45945798709443153,0.9119190734489578,-0.14620566996413834,0
302,2024-09-18 21:19:33.379801025,0,009,0.2296152109593342,0.09935425705349107,0.6697295865604548,-0.14230011914472593,-0.10652711554022944,-0.4749057074023492,0.6697385778401929,-0.0937626199769413,0
303,2024-09-18 21:19:33.451302002,0,009,0.2062662454413392,0.09567105176306073,0.5937157068849332,-0.15524352199973357,-0.1316084492955631,-0.4916660799249251,0.39620445204794386,-0.03407635212319466,0
304,2024-09-18 21:19:33.519803955,0,009,0.16906556617713486,0.0934377806608193,0.5162356511654882,-0.16358362266804705,-0.15688404297500286,-0.5088889098879007,0.09952547910967133,0.032083179645981875,0
305,2024-09-18 21:19:33.580993896,0,009,0.11850033842077475,0.09242478046641334,0.4408395124604381,-0.16686949201015142,-0.18291518398900627,-0.5256742382140138,-0.2111197953549102,0.10372844026185689,0
306,2024-09-18 21:19:33.655675049,0,009,0.055756925988460014,0.09243465248428903,0.3718043240874847,-0.16520172110905956,-0.21048829931220192,-0.5410942346510773,-0.5268288919334981,0.17995449342326678,0
307,2024-09-18 21:19:34.594427979,0,009,-0.017239310606117907,0.09327820543012363,0.31342525517389586,-0.1591632290128366,-0.24057541345607492,-0.5542347728696315,-0.8397658368447716,0.2601360806527213,0
308,2024-09-18 21:19:34.665639893,0,009,-0.09787677600036102,0.0947576112847891,0.26905891990336434,-0.14969325648625345,-0.2742554733261175,-0.5642546460527339,-1.1432540416899595,0.3438831044719098,0
309,2024-09-18 21:19:34.733728027,0,009,-0.18296257129469934,0.09665929871936864,0.24000723474044347,-0.13789229507920864,-0.3125804971763367,-0.5704537380587515,-1.4313480618296246,0.43077897862926395,0
310,2024-09-18 21:19:34.798145996,0,009,-0.26885558220186345,0.09875541877703799,0.22451897310677205,-0.12475861611854037,-0.3563895106951581,-0.5723379885750828,-1.698372841568435,0.5200617804217059,0
311,2024-09-18 21:19:34.858434814,0,009,-0.35163142700526495,0.1008063857011106,0.2173263541623844,-0.11092219429312121,-0.4060997056133069,-0.5696695133437283,-1.938803675050309,0.6104039201637795,0
312,2024-09-18 21:19:34.937264893,0,009,-0.4272801648310699,0.10255804133182991,0.20996711914715424,-0.09648729649140696,-0.4615180606565802,-0.5624944297096766,-2.1475036027813807,0.6998475336115763,0
313,2024-09-18 21:19:34.999924805,0,009,-0.4919142061273202,0.10373546734344219,0.19180549397444685,-0.08104389505781597,-0.5217243126421987,-0.5511432134921486,-2.320139495991866,0.7858726199759888,0
314,2024-09-18 21:19:35.946649902,0,009,-0.5419662881151693,0.10404216614866021,0.15146369326695264,-0.06381208558500812,-0.5850713630011648,-0.5362010368737539,-2.45356730658805,0.8655360417543648,0
315,2024-09-18 21:19:36.015281006,0,009,-0.5743784063878833,0.10317189088608728,0.07836598054952018,-0.043846881495774113,-0.6493046722329502,-0.5184546445416351,-2.5460121562748075,0.935620701383116,0
316,2024-09-18 21:19:36.083919922,0,009,-0.5867924609709817,0.10083456235096017,-0.03579885061739792,-0.02026255573445424,-0.7117504117421837,-0.4988290513726651,-2.5970329795849008,0.9927928090594403,0
317,2024-09-18 21:19:36.150538818,0,009,-0.5777505713647141,0.09679244273041866,-0.1957896646215508,0.0075398926440416935,-0.7695261881899786,-0.4783229601324109,-2.607435583182537,1.033812122290429,0
318,2024-09-18 21:19:36.218449219,0,009,-0.546888542818897,0.09089788512849178,-0.40183601042024714,0.03968159852661507,-0.8197686213491572,-0.45794493608963305,-2.579277350208877,1.055812063019195,0
319,2024-09-18 21:19:36.287187012,0,009,-0.4950692547888946,0.08312259439918392,-0.6492209525073472,0.0757151806680524,-0.8598801519505581,-0.4386512763037461,-2.5159210666376337,1.056616941243834,0
320,2024-09-18 21:19:36.354991943,0,009,-0.4244076257173655,0.07357356809753475,-0.9286364301740049,0.11466832443775993,-0.8877690896750003,-0.4212881653814543,-2.42193607906939,1.0350328952288537,0
321,2024-09-18 21:19:37.292139160,0,009,-0.33819237275064545,0.0624983202654406,-1.2272798218151872,0.1551843361009641,-0.9020448705608057,-0.40654103302990646,-2.302691966545613,0.9910307205020015,0
322,2024-09-18 21:19:37.354599121,0,009,-0.2407397811927754,0.05028329588223813,-1.5303816995026054,0.1956928824659014,-0.9021457495160441,-0.3948947564625597,-2.1637076909411292,0.9257607794555427,0
323,2024-09-18 21:19:37.432693115,0,009,-0.13718850605676797,0.03744319010457392,-1.8227882777224056,0.234581482819405,-0.8883802390466408,-0.38661305502143856,-2.0099630191233775,0.8414086368673889,0
324,2024-09-18 21:19:37.495292969,0,009,-0.033220137207038536,0.024596307568945094,-2.0903842080764616,0.27036120628777266,-0.8618609451453063,-0.38174778263686077,-1.8453355357080647,0.7409538127927965,0
325,2024-09-18 21:19:37.569554932,0,009,0.06529380103592698,0.012426918121206996,-2.321333127558038,0.30180878810372275,-0.8243397989351435,-0.3801778671327543,-1.6722444651135002,0.6278937178201393,0
326,2024-09-18 21:19:37.623917969,0,009,0.15268750944195122,0.0016414482765877878,-2.507167513961312,0.3280791625056436,-0.777994270223587,-0.38166122818149606,-1.491566775385119,0.5059578574683081,0
327,2024-09-18 21:19:37.701858154,0,009,0.22389561433717933,-0.007071815940965056,-2.643613934738428,0.34878507129375264,-0.7252147526008628,-0.38588070503815397,-1.3028045745377208,0.3788000915203458,0
328,2024-09-18 21:19:38.639605957,0,009,0.2748334057463405,-0.01307412013516904,-2.730891057030037,0.3639984883638701,-0.6684215743228769,-0.3924762560510289,-1.1043325095089744,0.24966810993671895,0
329,2024-09-18 21:19:38.716919922,0,009,0.30279650364247546,-0.015809164497717184,-2.7733530165422526,0.3741236242025493,-0.6099260603053118,-0.4010650474445763,-0.8936161419323515,0.12111519892489148,0
330,2024-09-18 21:19:38.784739990,0,009,0.3068823588232267,-0.014855369861040316,-2.7786474869388567,0.3796675642890453,-0.5518285566676924,-0.41125466067633354,-0.6675177343303786,-0.00514450649491207,0
331,2024-09-18 21:19:38.852523926,0,009,0.28832392487665376,-0.009994090676307231,-2.7566818052483737,0.38100402035705927,-0.4959276347902872,-0.4226545022833864,-0.42279927755830293,-0.12820103337258787,0
332,2024-09-18 21:19:38.920123047,0,009,0.2505864548833293,-0.001266069095527085,-2.7186034743230416,0.3782113676447216,-0.4436287774001345,-0.43488489716063167,-0.15668606502468072,-0.24780812471565733,0
333,2024-09-18 21:19:38.981918945,0,009,0.19918045438569523,0.011000919736689195,-2.675865188200991,0.3710099617593804,-0.39586224282765176,-0.447577940406587,0.1327231172350481,-0.3642359428438255,0
334,2024-09-18 21:19:39.043909912,0,009,0.14124632327515685,0.026183892646605804,-2.639370535846829,0.35879717926296817,-0.35302292084554887,-0.46036618804821267,0.4462437812767605,-0.4781316315877814,0
335,2024-09-18 21:19:39.969985107,0,009,0.08496062471434004,0.04337073016698362,-2.618718515848131,0.34077225392517174,-0.31495368011144914,-0.47285881779853167,0.7835069275616767,-0.5903330293231265,0
336,2024-09-18 21:19:40.041965088,0,009,0.038800493369999044,0.06139647892961377,-2.6215764654098206,0.31611194798579745,-0.28099937116444973,-0.48460641551466666,1.1428267566647665,-0.701595223802732,0
337,2024-09-18 21:19:40.108281982,0,009,0.010762294399544268,0.0789207273479996,-2.653106252980999,0.2841181317540635,-0.2501263529505818,-0.4950621010515013,1.5208398936338883,-0.8122571602787882,0
338,2024-09-18 21:19:40.171178955,0,009,0.007654182362071653,0.09453347627203765,-2.7153511000801203,0.24427327577304458,-0.2210696915190268,-0.5035539752357715,1.9119065181737027,-0.921954703238306,0
339,2024-09-18 21:19:40.233166992,0,009,0.03450733240242651,0.10686855173240363,-2.8067166774530143,0.19622409707603872,-0.19248436926103293,-0.5092807777813135,2.3076191268052533,-1.0295027716977545,0
340,2024-09-18 21:19:40.312294922,0,009,0.09408997860899468,0.11471087047567723,-2.9218403436412452,0.1397784690016934,-0.1630999025379109,-0.511332850149585,2.69683584154879,-1.1329821929105872,0
341,2024-09-18 21:19:40.381103027,0,009,0.18653403921841827,0.11708888485015444,-3.051997694783918,0.07496464688961907,-0.1318729176914723,-0.5087336536396263,3.066360176399733,-1.229964862555001,0
342,2024-09-18 21:19:41.324193115,0,009,0.3091394314080472,0.11334319202391535,-3.185953416220646,0.0021286905232897257,-0.09811996692852305,-0.5004993321290714,3.40207301148424,-1.3177818541703699,0
343,2024-09-18 21:19:41.392043945,0,009,0.4564414040222829,0.10316285747475923,-3.311068148203894,-0.07795434230382656,-0.061601357727522635,-0.485722442499554,3.6902045274773476,-1.3937625564888756,0
344,2024-09-18 21:19:41.452818115,0,009,0.6205811608316871,0.0865846095048103,-3.414494222209622,-0.16394403737845234,-0.022525518024993887,-0.46368258857179484,3.9184974092876654,-1.455400236459781,0
345,2024-09-18 21:19:41.527631104,0,009,0.7919199365114356,0.06396021419357022,-3.48426292795929,-0.2537939204341969,0.018512274400029432,-0.4339655407384138,4.077134482741557,-1.5004317724919216,0
346,2024-09-18 21:19:41.595411133,0,009,0.9597652954683209,0.03591030174523798,-3.5100356637935395,-0.34468644094019163,0.06059456120289107,-0.3965611397678598,4.159406236136656,-1.5268627491128899,0
347,2024-09-18 21:19:41.651562988,0,009,1.1131064624520859,0.0032829781230557585,-3.483434393156564,-0.43310782360265876,0.10251928962627413,-0.3519244807452637,4.1622003794247835,-1.5329922954976283,0
348,2024-09-18 21:19:41.730562012,0,009,1.2413339550462774,-0.032877557036254085,-3.398067028914468,-0.515068259496544,0.14284537200256456,-0.30099929261549374,4.086416143922119,-1.5174833797152465,0
349,2024-09-18 21:19:42.667589844,0,009,1.3349661991223571,-0.07135872070992098,-3.2494292410560734,-0.586450986395541,0.179989218125779,-0.24520103982433725,3.9372581424587954,-1.4795175798953863,0
350,2024-09-18 21:19:42.742378906,0,009,1.3864060043565867,-0.11081383307441578,-3.0348573665941987,-0.6434804951109582,0.2123915690454252,-0.18635815237842496,3.7242365916384474,-1.4190668097774015,0
351,2024-09-18 21:19:42.806610107,0,009,1.3907049310565767,-0.1498080896262744,-2.7536920548189463,-0.6832800263683374,0.23875097044349577,-0.12662069799740752,3.460700821699873,-1.3372464453194095,0
352,2024-09-18 21:19:42.878001953,0,009,1.3462414928457054,-0.18687055965352073,-2.4077350241621636,-0.7044154927050795,0.25827214314459235,-0.06835323756608551,3.162805918282682,-1.2366047839930079,0
353,2024-09-18 21:19:42.945852051,0,009,1.2551806657711106,-0.22054302734718434,-2.0019681876161686,-0.7072600969566925,0.27084084370941897,-0.014028240169226547,2.848012120401284,-1.1211895712581565,0
354,2024-09-18 21:19:43.006740967,0,009,1.1236058415314265,-0.24942465547273945,-1.5453771275083847,-0.6940595203119143,0.2770696314762501,0.033868230997770886,2.53342588314845,-0.9963392962130059,0
355,2024-09-18 21:19:43.074094971,0,009,0.9612624648119087,-0.27222153668132776,-1.0515209057043677,-0.6686998454536928,0.2782120585616037,0.0729198384373079,2.2343248162066365,-0.8682522618780207,0
356,2024-09-18 21:19:44.022532959,0,009,0.780893751192608,-0.2878146189439982,-0.5383629038211446,-0.6362559432964993,0.2759574747013884,0.10087427320771515,1.9631981657200812,-0.7434437159518923,0
357,2024-09-18 21:19:44.090385010,0,009,0.5971912005986335,-0.29535476324780546,-0.0271271049126149,-0.6024051493587536,0.2721398643125023,0.11577891691918585,1.7295087215973857,-0.6282163291639382,0
358,2024-09-18 21:19:44.156800049,0,009,0.4254410743220286,-0.2943725383727696,0.4595215851770603,-0.5727941383428882,0.268443725399418,0.11616560415507092,1.5399042292214167,-0.5282038464894387,0
359,2024-09-18 21:19:44.225976074,0,009,0.2800247998326806,-0.28485982290042283,0.8993876038800729,-0.5524538481441427,0.26619841346835293,0.10125087283020681,1.3982275528558559,-0.4479648819701568,0
360,2024-09-18 21:19:44.293081055,0,009,0.1730086801302174,-0.26727316437771265,1.2723549843368616,-0.5453308205132796,0.2662947467854865,0.07108966508874978,1.3049720443211574,-0.3906245030431369,0
361,2024-09-18 21:19:44.361468994,0,009,0.11309429332669649,-0.2424428674331496,1.5616227332091113,-0.5539561900882134,0.26919283408938993,0.02662697005499838,1.256488528433402,-0.3576482008868574,0
362,2024-09-18 21:19:44.429256104,0,009,0.10514967667123332,-0.2114210828969988,1.7545870504345495,-0.5792585091740019,0.27496629200559985,-0.03036562056387385,1.2446027290573516,-0.3488538808756358,0
363,2024-09-18 21:19:45.346360840,0,009,0.15037906050233263,-0.17533045925496796,1.8433633266280172,-0.6205476933277622,0.28334772254003265,-0.09743367414006789,1.2571214970136206,-0.3626770077484783,0
364,2024-09-18 21:19:45.415583984,0,009,0.24695938365415235,-0.1352673899009684,1.8249643967655524,-0.6756891778830889,0.2937728719952809,-0.17161836236539738,1.2792093252805965,-0.3965827452328875,0
365,2024-09-18 21:19:45.470291992,0,009,0.3908091982815758,-0.09227693418649693,1.7012331694649037,-0.7414271943158363,0.3054308427153555,-0.24964733726702257,1.295208040352604,-0.44747198171940405,0
366,2024-09-18 21:19:45.551847900,0,009,0.5761787154181516,-0.04737502690300426,1.4787237313093902,-0.8137845580199393,0.31731922009213687,-0.32813163378203763,1.290401723772501,-0.5119640072109342,0
367,2024-09-18 21:19:45.617497070,0,009,0.795944995252266,-0.0015803696772323714,1.1686810561279153,-0.888498991067645,0.3283040713753519,-0.4037556331551626,1.2524102364100425,-0.586510969180317,0
368,2024-09-18 21:19:45.687418945,0,009,1.0417246710150376,0.04405958899510111,0.7869619069731248,-0.9614651059930437,0.33719874716260173,-0.4734411541642183,1.1721150909916547,-0.6673775107157962,0
369,2024-09-18 21:19:45.755238037,0,009,1.3040005046268701,0.08844175275234142,0.3534679371259972,-1.0290978570258495,0.3428773003684507,-0.5344742450844465,1.0441819047041092,-0.7505676794276481,0
370,2024-09-18 21:19:46.698303955,0,009,1.5723469965372252,0.1303799417617754,-0.10916494402487854,-1.0885110935142628,0.3444124292538056,-0.5845911326286631,0.8673283009421136,-0.8317783190171123,0
371,2024-09-18 21:19:46.766313965,0,009,1.8357031424607293,0.1685945057059884,-0.5773635456574342,-1.1374748024055152,0.3412006444752039,-0.6220199421285331,0.6443877541232788,-0.9064179806144461,0
372,2024-09-18 21:19:46.822845947,0,009,2.082645454233791,0.20173366146851815,-1.0283149748081828,-1.1742103336104663,0.33304460878346126,-0.645474593915092,0.38197327897873923,-0.9696905563450658,0
373,2024-09-18 21:19:46.901906006,0,009,2.3016955197587756,0.2284239545175675,-1.4411581876752018,-1.197125136596234,0.32020298153139665,-0.6541043004895962,0.08954705220068193,-1.016742844246639,0
374,2024-09-18 21:19:46.969634033,0,009,2.4817061453461946,0.24733487897900003,-1.7976842636589994,-1.2045799573582252,0.30345291752908277,-0.6474175473285217,-0.22193451764564368,-1.042894923281687,0
375,2024-09-18 21:19:47.024503905,0,009,2.6123141606852163,0.2572432086943438,-2.0827648376987296,-1.194761864560729,0.2841834011255039,-0.625207885734571,-0.541392307182123,-1.0439523361367506,0
376,2024-09-18 21:19:47.102616943,0,009,2.6844181257495086,0.2570924547175744,-2.2846620475026014,-1.165708650005204,0.26445721454958787,-0.58749346023028,-0.8587215164867269,-1.0165589416805532,0
377,2024-09-18 21:19:48.043489990,0,009,2.690648743739673,0.2460493326934217,-2.3952592844218836,-1.1154839223645137,0.24695360217995377,-0.5344661996484161,-1.1654747506177703,-0.9585495958298408,0
378,2024-09-18 21:19:48.101943848,0,009,2.625796761817996,0.22355925806749,-2.410192731090398,-1.0424624588631641,0.23477668112421976,-0.46645943856537236,-1.4550459266887146,-0.8692768867545141,0
379,2024-09-18 21:19:48.181019043,0,009,2.487144127965179,0.18940717954782202,-2.3288446127028313,-0.9456666231056241,0.23118453478608555,-0.3839561955674044,-1.7223851538569566,-0.7498741766104969,0
380,2024-09-18 21:19:48.244196045,0,009,2.274662104341394,0.14379318443664305,-2.1541938527909896,-0.8250859543518726,0.23929465898094934,-0.2876410460647611,-1.9634167244913818,-0.6034109746119513,0
381,2024-09-18 21:19:48.306683105,0,009,1.9911016755642728,0.08741926219483995,-1.8926253407707467,-0.6819091538998355,0.2618053172390794,-0.1784786289397855,-2.174399797954757,-0.4349046012190104,0
382,2024-09-18 21:19:48.387578857,0,009,1.6420339806999287,0.02156581724973562,-1.5538518648072062,-0.5186031829088933,0.3007737105286528,-0.0578152970174143,-2.351475942619998,-0.25115052605622423,0
383,2024-09-18 21:19:48.447895996,0,009,1.2358498222505958,-0.051864334158119564,-1.1509353645446143,-0.3388171849479091,0.35747897861636063,0.07248236782269019,-2.490544895597649,-0.060350043621909405,0
384,2024-09-18 21:19:49.384207031,0,009,0.7836550797340621,-0.13034905587300197,-0.7001404663611176,-0.14716781030946996,0.43234933171179174,0.20985370448216592,-2.5874558518164266,0.12845806268326948,0
385,2024-09-18 21:19:49.462557129,0,009,0.2989814257549555,-0.21081131657175387,-0.2203729571423065,0.05101538112843891,0.524879268105699,0.35087715300169026,-2.6384370917184863,0.30614548301972244,0
386,2024-09-18 21:19:49.534318848,0,009,-0.2027420938078163,-0.2897532138247424,0.26773252113157237,0.2499692799702954,0.6334741490374384,0.4911862944166555,-2.6406180893062565,0.4643524064358282,0
387,2024-09-18 21:19:49.597091797,0,009,-0.7049643763995168,-0.36344506489054773,0.7428213573394489,0.44382533498946347,0.7552543821329677,0.6255343120603355,-2.592412102742666,0.5962813809940107,0
388,2024-09-18 21:19:49.669915039,0,009,-1.190956300121737,-0.4281378895935767,1.1838006268878103,0.6269676020886172,0.8859371621987114,0.7480223732071927,-2.4936328779200054,0.6972247506940387,0
389,2024-09-18 21:19:49.737700928,0,009,-1.6447584915818556,-0.4802804856552923,1.5708489710642348,0.7943536710238381,1.0199035690206335,0.8524706440646123,-2.345424019579792,0.764730900745836,0
390,2024-09-18 21:19:49.797470947,0,009,-2.0519850849438503,-0.5167487144448938,1.886503786034331,0.9417502175505177,1.150490717517914,0.9329097839041003,-2.1501442784739373,0.7984679427875057,0
391,2024-09-18 21:19:50.737016112,0,009,-2.400470553185816,-0.5350913841829269,2.11674944392112,1.0658882475698626,1.2705009891274055,0.9841606389102017,-1.911322330964655,0.7999190493457129,0
392,2024-09-18 21:19:50.814784912,0,009,-2.6808414297511454,-0.5337608454089392,2.251954286125187,1.1645482525927149,1.3728934195589844,1.0024170978797138,-1.6337326232876932,0.7720104196666819,0
393,2024-09-18 21:19:50.877841064,0,009,-2.8870225925101005,-0.5122760809738106,2.2875659034612963,1.2365461058543643,1.4515632506919494,0.9857033400707031,-1.3235266754467598,0.7187234673319697,0
394,2024-09-18 21:19:50.950139893,0,009,-3.0165642260354457,-0.47128343651370497,2.2245801399183214,1.2815900043256763,1.5020378309061184,0.9341080128254191,-0.9882847883083566,0.6447402033104405,0
395,2024-09-18 21:19:51.019267090,0,009,-3.0706756172784266,-0.4125043190949049,2.0697687881371905,1.3000336190581858,1.5219187379434598,0.8497714954597018,-0.6368952495107534,0.5551566922077948,0
396,2024-09-18 21:19:51.082510986,0,009,-3.05394350052621,-0.33857456544705333,1.8354924762220552,1.2926058575154789,1.5109973626262525,0.7366461031804895,-0.27920886960517405,0.45524121338559603,0
397,2024-09-18 21:19:51.144040039,0,009,-2.973778254412787,-0.25280085846322287,1.5388906122751245,1.2602141588683182,1.4710569076369042,0.600070512961666,0.07458019986654241,0.3501837635630439,0
398,2024-09-18 21:19:52.098839111,0,009,-2.839661662954949,-0.15887901973926477,1.2004423556643853,1.2038865094709628,1.4054190455875921,0.44623526971783256,0.4147792145368968,0.24482850773583953,0
399,2024-09-18 21:19:52.157104004,0,009,-2.6622914046057793,-0.06061411663389163,0.842089253017427,1.1248644682292206,1.3183565214992168,0.2816397148150956,0.733049007783388,0.14343651995104542,0
400,2024-09-18 21:19:52.233517822,0,009,-2.452720569578316,0.0383370460433419,0.485165850591774,1.024815804643366,1.214528509516045,0.11261941661530331,1.0230208109570813,0.0495163184517008,0
401,2024-09-18 21:19:52.302215088,0,009,-2.2215844890863576,0.13468634275218463,0.14842583212030325,0.9060926640607951,1.0985314135195756,-0.05501601534466594,1.2805926245732993,-0.03429187113921255,0
402,2024-09-18 21:19:52.369966064,0,009,-1.9785028436951972,0.22568103353523852,-0.1535260159428956,0.7719318292370411,0.9745668649497132,-0.21622090386524886,1.5039839455882094,-0.10630727909378232,0
403,2024-09-18 21:19:52.437746094,0,009,-1.7317137903108673,0.3092071355824259,-0.4111259205842075,0.6265083374672273,0.8462062778223809,-0.366832653003509,1.693658143201017,-0.1658563945573873,0
404,2024-09-18 21:19:52.504853027,0,009,-1.4879368145320149,0.3838275448144357,-0.619881589859021,0.47479222919620045,0.7162529592928814,-0.503593785840634,1.8521032140528473,-0.21321612886510574,0
405,2024-09-18 21:19:53.418096924,0,009,-1.252416483676855,0.44875597328338845,-0.7795786328729981,0.3222061801641318,0.5867138407640449,-0.6241036807255359,1.9833335477349496,-0.24943371191445265,0
406,2024-09-18 21:19:53.491718994,0,009,-1.0290826396745534,0.5037734437366402,-0.8930132969404414,0.1741594960164888,0.4588871909282636,-0.7267246370203174,2.0920199041975307,-0.2760710149461445,0
407,2024-09-18 21:19:53.559498047,0,009,-0.820762484153092,0.5491017313727599,-0.9647324478671857,0.03559517947277051,0.33355272708955686,-0.8104622021495924,2.1823813560963004,-0.2949193185353061,0
408,2024-09-18 21:19:53.627281982,0,009,-0.6294030158643958,0.5852527692503752,-1.000098623646232,-0.08935911497742327,0.2112225784307165,-0.874830399802168,2.2571958449184186,-0.307723693323433,0
409,2024-09-18 21:19:53.689816895,0,009,-0.45629640373061636,0.6128741377759048,-1.0046978778125164,-0.19766196802665711,0.09240482143596504,-0.919707201259148,2.317275541625645,-0.31598464165724666,0
410,2024-09-18 21:19:53.762669922,0,009,-0.3023113524202621,0.632609103326791,-0.9839740061924883,-0.2875912905214427,-0.022152226507634237,-0.9451904432892474,2.361486478030606,-0.3208845985589733,0
411,2024-09-18 21:19:53.830593994,0,009,-0.16811217427250993,0.6449845266719872,-0.943105693407707,-0.3588481203741264,-0.13126508798274394,-0.9514680767971614,2.387159774384883,-0.3233190506645644,0
412,2024-09-18 21:19:54.768722900,0,009,-0.054332969026036945,0.650332361000864,-0.8871691184921917,-0.41237792139616664,-0.23320259034803972,-0.9387150351747696,2.39074628903062,-0.3239821126591199,0
413,2024-09-18 21:19:54.841835938,0,009,0.038297815085527556,0.6487466110444791,-0.8213298761095961,-0.449914862949264,-0.32565441287830327,-0.9070290768328642,2.368614309257412,-0.3234621895734979,0
414,2024-09-18 21:19:54.909614014,0,009,0.10885483976850249,0.6400797978527487,-0.7506608081732176,-0.4734433488676448,-0.40575013092672574,-0.8564146613744567,2.317833776531083,-0.3223070697221565,0
415,2024-09-18 21:19:54.976948975,0,009,0.15612089622350536,0.6239848548970987,-0.6795417348454273,-0.48476623872888686,-0.4701258373648837,-0.7868131078084389,2.2367739759200616,-0.3210376955004272,0
416,2024-09-18 21:19:55.045206055,0,009,0.17851376160779242,0.6000043689865446,-0.6109983245397188,-0.4852449501850926,-0.5150569021745292,-0.6981722019800899,2.125393372071967,-0.3201173484100295,0
417,2024-09-18 21:19:55.113055908,0,009,0.1740512235128056,0.5677000025279569,-0.5462920351650588,-0.47570395276221367,-0.5366441218653569,-0.5905542192181454,1.985118349472822,-0.3198783586685204,0
418,2024-09-18 21:19:55.179909912,0,009,0.1403668303374562,0.5268055038624391,-0.48481909437637033,-0.45647894983962994,-0.531030669411432,-0.4642807859768731,1.8182755108013293,-0.32040383063892297,0
419,2024-09-18 21:19:56.096882080,0,009,0.07480494766961734,0.4773802127104534,-0.424254268880037,-0.42757579894559494,-0.4946711764857875,-0.32009794182455525,1.6272428044888925,-0.3213926012543334,0
420,2024-09-18 21:19:56.159611084,0,009,-0.025361388105524924,0.41993881791497345,-0.3608230978835415,-0.3888951810704218,-0.4246910584354947,-0.15933446045325672,1.413647040646846,-0.32205576598686725,0
421,2024-09-18 21:19:56.234833984,0,009,-0.16255980778952947,0.35553949633219445,-0.2896126823739879,-0.3404646754126496,-0.3193225151409896,0.015965336559029875,1.1779163382920483,-0.32108705105836605,0
422,2024-09-18 21:19:56.300516113,0,009,-0.33840671732041266,0.285825602491416,-0.20501475356048374,-0.2826071227526549,-0.1783379791042701,0.20294356991302812,0.9193759596405434,-0.3167567756428863,0
423,2024-09-18 21:19:56.369716797,0,009,-0.5531102309796533,0.213028972477696,-0.10150528562892641,-0.21601535706065592,-0.003378741292868519,0.3978809007746772,0.636904513026217,-0.30718458577187663,0
424,2024-09-18 21:19:56.424491943,0,009,-0.804867841119629,0.13994205983031568,0.025183192817471105,-0.141786752400386,0.2018954410502554,0.596221294965785,0.3299619202411139,-0.2907980162590974,0
425,2024-09-18 21:19:56.505146973,0,009,-1.0893563268483553,0.06985004979400611,0.17670299215688362,-0.06148585266025525,0.4318617972344508,0.7926794310463272,-0.00031087340718174907,-0.2668764713880395,0
426,2024-09-18 21:19:57.443535889,0,009,-1.3994297526784454,0.006401443679229368,0.35094607999453786,0.022780170658891624,0.6791884747015643,0.9814186787237448,-0.3502079450469287,-0.23598095891794416,0
427,2024-09-18 21:19:57.502993164,0,009,-1.7251285389999855,-0.04660186461365989,0.5415675205972929,0.10836135825837254,0.9352538572355112,1.156292780492732,-0.713025142050214,-0.20008810841953642,0
428,2024-09-18 21:19:57.576610107,0,009,-2.0540613891640374,-0.08549472301169511,0.7384862221921923,0.1921912158088453,1.190665746614755,1.3111796813162533,-1.0791987001653978,-0.1623973432372605,0
429,2024-09-18 21:19:57.652643799,0,009,-2.3721727000164723,-0.10708061574104687,0.9292682381934328,0.2709917244735739,1.4358172745231204,1.4404376789052378,-1.4369532704115833,-0.12692350053721602,0
430,2024-09-18 21:19:57.715801025,0,009,-2.6648149351098294,-0.10893278357808764,1.1008551761545897,0.3414833591002523,1.6614586956440254,1.5394422893905104,-1.7732887064002436,-0.09801489146681518,0
431,2024-09-18 21:19:57.778285889,0,009,-2.917919095696597,-0.08959948048461487,1.2410266768709293,0.40059113130532714,1.859283936633112,1.6050811857229133,-2.0751625131837246,-0.07989830281540265,0
432,2024-09-18 21:19:57.856104004,0,009,-3.1190240043425153,-0.048688696352946634,1.3393016679355159,0.4456788301919425,2.0225101655182396,1.6360729930844815,-2.330734067901541,-0.07630741948245945,0
433,2024-09-18 21:19:58.787112061,0,009,-3.2580376950712204,0.013157922597744733,1.3873429629125744,0.4747966272101973,2.1463892650808236,1.6330327196404717,-2.5304700405974017,-0.0901949747524829,0
434,2024-09-18 21:19:58.867045898,0,009,-3.327730251764148,0.09437109654802223,1.3791072118747942,0.48686354517334274,2.2285396466169445,1.598291301946756,-2.6679099438120857,-0.12350184418921346,0
435,2024-09-18 21:19:58.934178223,0,009,-3.323994069918124,0.19259480660222525,1.3109254877446055,0.4817346810714327,2.268984742100596,1.5355460457921033,-2.7400010406529702,-0.17698619630395315,0
436,2024-09-18 21:19:59.002698975,0,009,-3.245918727508387,0.30482304361552803,1.1815475294535707,0.46020030826252656,2.26987934603981,1.4494387128852049,-2.7470235199407766,-0.2501328173672992,0
437,2024-09-18 21:19:59.070518066,0,009,-3.095766395481522,0.4275200505139683,0.9921729261541414,0.4239876382644277,2.235007660372344,1.3451378091163968,-2.6921624678756144,-0.34113958974491987,0
438,2024-09-18 21:19:59.137384033,0,009,-2.878928871969582,0.5567325729072269,0.7465599097192214,0.37575136150665034,2.169157791266924,1.2279728447414646,-2.5807754684318103,-0.44698143402493595,0
439,2024-09-18 21:19:59.204521973,0,009,-2.603864457836696,0.6882050875182147,0.4512125075438281,0.3189710914663249,2.0774640204251207,1.103143124578961,-2.419464906111854,-0.5635820636225387,0
440,2024-09-18 21:20:00.144045898,0,009,-2.2819378016437506,0.8175046069360954,0.11550971254694996,0.257701350888166,1.9648189646750431,0.9755050713355748,-2.215218161298511,-0.6860956613069391,0
441,2024-09-18 21:20:00.216418945,0,009,-1.927091197268501,0.9401587695635291,-0.2483372893118892,0.19619982191062518,1.8354539439050375,0.8494318977725015,-1.9749305714917826,-0.8092193343141361,0
442,2024-09-18 21:20:00.284955078,0,009,-1.5553290528352275,1.0518128014771446,-0.6255956267923287,0.13853192969024578,1.6927277904274474,0.7287351341481331,-1.705410599662936,-0.9274469542252382,0
443,2024-09-18 21:20:00.352827881,0,009,-1.1840202855691848,1.1484206180686158,-0.9997446718454481,0.08826534831788732,1.5391110289061118,0.6166401558905279,-1.4136692747983666,-1.0352875807531599,0
444,2024-09-18 21:20:00.419970947,0,009,-0.830998241119253,1.2264843827695122,-1.3536589760221318,0.04830424684269077,1.3763565409760925,0.515811278592571,-1.1071906400648255,-1.127574085020774,0
445,2024-09-18 21:20:00.487593018,0,009,-0.5134385822274734,1.2833212334366473,-1.6710023089539212,0.020830209376887492,1.2058483129122495,0.42840870957190585,-0.7939622682115396,-1.199926281685948,0
446,2024-09-18 21:20:00.556231934,0,009,-0.2465926969820687,1.3172904940835162,-1.9375347975629276,0.007296004059419945,1.02906456366109,0.35613193935527027,-0.4821829743150134,-1.2492701264660593,0
447,2024-09-18 21:20:01.498042969,0,009,-0.04258801608163939,1.3279117480581104,-2.142146371260931,0.008455282741994584,0.8480282401984289,0.30019564426028483,-0.17968700413230537,-1.2742397155584566,0
448,2024-09-18 21:20:01.566172119,0,009,0.09045456279360649,1.3158470192994531,-2.2775086889416514,0.024427595156417133,0.6656017567706247,0.26122185074248994,0.1067735567580167,-1.2753308786465585,0
449,2024-09-18 21:20:01.633959961,0,009,0.1488189657164695,1.282771652836766,-2.3402782977271537,0.054761319082908946,0.4855313472856854,0.2390950137769564,0.37213841739456294,-1.2547361175335934,0
450,2024-09-18 21:20:01.701827148,0,009,0.13308838924456465,1.2311915242393645,-2.3308371129911807,0.09843892679911756,0.31224439261247033,0.232857735119573,0.6133080761966266,-1.2158711321104965,0
451,2024-09-18 21:20:01.769534180,0,009,0.04768128682326262,1.1642630432871712,-2.2526444133835737,0.15381916853087302,0.15048539817593012,0.2406986293290028,0.8290968127780788,-1.1627380391870723,0
452,2024-09-18 21:20:01.837298096,0,009,-0.09974328818019151,1.0856405848546737,-2.1113655729126557,0.2185702004950233,0.004894396079571165,0.26003700808372937,1.0201090885976294,-1.0993541552374368,0
453,2024-09-18 21:20:01.904108887,0,009,-0.2988652101075547,0.9993444297353883,-1.9139786875495808,0.28966380299429645,-0.1203976070892947,0.2876855024941166,1.188663199103528,-1.0293896391237602,0
454,2024-09-18 21:20:02.848472168,0,009,-0.5372660609107092,0.9096255003861727,-1.6680641758777233,0.36348999474509025,-0.2221310355627372,0.3200749367056683,1.3386460076640927,-0.9559917737490796,0
455,2024-09-18 21:20:02.916354004,0,009,-0.8010274317718302,0.8207909908238559,-1.3814359086159869,0.436116610863514,-0.2982398177229447,0.3535314388721859,1.4751207708487635,-0.8817035575465333,0
456,2024-09-18 21:20:02.982958008,0,009,-1.0753968988402234,0.7369565392512009,-1.0621061291674128,0.5036548563659012,-0.3480970524523238,0.38458665811808646,1.6036172117573115,-0.8084159365822136,0
457,2024-09-18 21:20:03.051549805,0,009,-1.3455586504520307,0.6617297175486974,-0.7183927746627694,0.5626528401780128,-0.3726012665482034,0.41028592350528015,1.7291919218323542,-0.7373274742958058,0
458,2024-09-18 21:20:03.119888916,0,009,-1.5975417419020979,0.5978893959100468,-0.35897742220597295,0.6104668834212125,-0.3740442603021279,0.4284523388573366,1.8554931666489676,-0.6689109936529959,0
459,2024-09-18 21:20:03.185218018,0,009,-1.8191932334448686,0.5471470141892585,0.007121251373239206,0.6455919850623959,-0.3557745528991513,0.4378705407114591,1.984118439015519,-0.6029285176224874,0
460,2024-09-18 21:20:03.247674072,0,009,-2.001024107855963,0.5100394889539094,0.3706400790398178,0.6678966211175388,-0.32173220284118836,0.43836700010898805,2.114430781341557,-0.538535269021061,0
461,2024-09-18 21:20:04.198481201,0,009,-2.1367566887328637,0.4859558342487313,0.7222923780954142,0.678673723121839,-0.27595851407969096,0.43077811619815304,2.2437242630524263,-0.4744371133105077,0
462,2024-09-18 21:20:04.266347900,0,009,-2.2235234196144495,0.4732792851262069,1.0531569487887502,0.6804759962823268,-0.22217737094519688,0.41680667523219433,2.367456550443099,-0.4090232080727001,0
463,2024-09-18 21:20:04.333560059,0,009,-2.261748824079179,0.4696265101277638,1.3551720065625366,0.676770571218359,-0.16351169074436586,0.39877116281026276,2.47943182984203,-0.3404609499633704,0
464,2024-09-18 21:20:04.401958008,0,009,-2.254750201857591,0.47216212543612124,1.6216373898852765,0.6714558074878657,-0.10234892971625924,0.379263420042507,2.5720660575243293,-0.26680415209667124,0
465,2024-09-18 21:20:04.469014893,0,009,-2.208079870012566,0.47795412048976094,1.8475775586815837,0.6683016341778993,-0.04032374243777292,0.36075884631492233,2.6368321665667764,-0.1861372557757456,0
466,2024-09-18 21:20:04.537523926,0,009,-2.1286519096656678,0.4843256031907816,2.0297642288083413,0.670417914543537,0.02162951215745537,0.3452484147865781,2.6648477123954324,-0.09673771874613829,0
467,2024-09-18 21:20:04.604897949,0,009,-2.023732183392276,0.48915217626098567,2.1663026794231666,0.6798545509355065,0.08319025760095158,0.33395006958810075,2.6476485998294836,0.002723509181341726,0
468,2024-09-18 21:20:05.523631104,0,009,-1.8999152741992995,0.4910525860551019,2.255904319386519,0.6973913754895444,0.14454125012238014,0.3271244071259088,2.5783198871877975,0.11287189776071732,0
469,2024-09-18 21:20:05.591474121,0,009,-1.7622735748792995,0.4894436387306185,2.297150491392076,0.7225195007477977,0.20620435332031326,0.3240093666651989,2.4529774071017205,0.23320800393390892,0
470,2024-09-18 21:20:05.655653076,0,009,-1.6138642665457734,0.48447611276474273,2.2881180819052602,0.7535590244482488,0.2687845641378429,0.3228918115550679,2.2722161497723663,0.36172067123755547,0
471,2024-09-18 21:20:05.726514159,0,009,-1.45565892153098,0.4768959422493231,2.2266233658569514,0.7878266750904293,0.3326482128564738,0.3213124483094071,2.0420446773058742,0.494709830115127,0
472,2024-09-18 21:20:05.794016112,0,009,-1.2868191092598538,0.4678672676742824,2.1110420283726787,0.8217985179301738,0.39762764717720384,0.3163705880922745,1.7741148741779613,0.6268709423333148,0
473,2024-09-18 21:20:05.862840820,0,009,-1.1051976763811873,0.45877206367396056,1.941340423132678,0.851293084364765,0.4628389489931778,0.30509447073686335,1.4852954730675276,0.7515789577447481,0
474,2024-09-18 21:20:05.930598877,0,009,-0.9079873854740407,0.4509931784903643,1.7198694237934264,0.8717471941911547,0.5266558279416663,0.2848507317011806,1.1965721300568035,0.8613163227206793,0
475,2024-09-18 21:20:06.846887207,0,009,-0.6924706823145284,0.44570493586571425,1.4517041016036558,0.8786103036307902,0.5868497604350009,0.2537437135542586,0.9311678803840038,0.9482596218175702,0
476,2024-09-18 21:20:06.916503905,0,009,-0.45676951298261703,0.44371349855303677,1.1446209116352266,0.8677871734199185,0.6408691492590513,0.21092186216727427,0.7119761013390209,1.0050417739498902,0
477,2024-09-18 21:20:06.974879883,0,009,-0.20041787595532207,0.4453792684508526,0.8088853329822305,0.8360179708208749,0.6861841467590457,0.15671279398719912,0.5587514577382026,1.0256115397292949,0
478,2024-09-18 21:20:07.049977051,0,009,0.07538013945732874,0.45061854015921093,0.4568261821679353,0.7811586134002599,0.7206024236098094,0.09255998317265023,0.4856599203274777,1.006022360557994,0
479,2024-09-18 21:20:07.113594971,0,009,0.3677876594252904,0.45894783755312996,0.10202754773985566,0.7024297045540004,0.74247531676959,0.020801688049114322,0.4996497545651563,0.944991917283258,0
480,2024-09-18 21:20:07.187820068,0,009,0.6725017680798812,0.46953676083298396,-0.24178898008227634,0.6006774482568155,0.7507593851765789,-0.0556278019276305,0.5998346671060206,0.844152361998409,0
481,2024-09-18 21:20:07.255574951,0,009,0.9838808296344694,0.4812706411641399,-0.5617594800445903,0.4785495741545693,0.7449776283499586,-0.1335064795403135,0.777795777648797,0.7079764519923298,0
482,2024-09-18 21:20:08.198255127,0,009,1.2950240046574977,0.49283987407167584,-0.8464117530742885,0.3404460790521351,0.725180245680254,-0.20960971164619668,1.0185121416808558,0.5434099629537672,0
483,2024-09-18 21:20:08.266568115,0,009,1.5979448585841034,0.5028517888409387,-1.0858611878293851,0.1922199526853765,0.69195971524284,-0.2809570450773116,1.3016828289880475,0.3592823742314425,0
484,2024-09-18 21:20:08.327428223,0,009,1.8839637200960493,0.5099449719495183,-1.271984139651381,0.04069773840149049,0.6464837474508338,-0.34500571187005397,1.603397237728343,0.16558380162571232,0
485,2024-09-18 21:20:08.402175049,0,009,2.1443211968809726,0.5128933846234026,-1.3986506367543268,-0.10693058956514824,0.5904982827962116,-0.39978023556269543,1.8981326100200477,-0.02731383640389454,0
486,2024-09-18 21:20:08.469996094,0,009,2.370914098465869,0.5106964945634269,-1.461879393440136,-0.24382242212503558,0.5263059713173261,-0.4439401446069479,2.1609378608732306,-0.20943071809890762,0
487,2024-09-18 21:20:08.537818115,0,009,2.556997706167216,0.502652825215362,-1.4598063642071086,-0.36420124369679585,0.4567296070594452,-0.476799423625712,2.3696085915195337,-0.3718902537197892,0
488,2024-09-18 21:20:08.605647949,0,009,2.6976935067687062,0.4884119683274787,-1.3924866178448514,-0.4639227515445419,0.385025057768544,-0.4983172415552296,2.506605698489063,-0.5074828856619574,0
489,2024-09-18 21:20:09.549125977,0,009,2.790215396064714,0.4679927901330534,-1.2616736833171414,-0.540735055129762,0.314695617565195,-0.509071498717116,2.5603597128834363,-0.6109896111128286,0
490,2024-09-18 21:20:09.616488037,0,009,2.833817993088078,0.4417578899144198,-1.0707410762815976,-0.5941713346257422,0.24919027925125953,-0.5102020887443603,2.525670404865998,-0.6792325866754418,0
491,2024-09-18 21:20:09.684550049,0,009,2.829518579188361,0.4103596982611225,-0.8247054912301313,-0.6251640029966193,0.19152683697686215,-0.5032996877443279,2.4032762214654224,-0.7109135226346034,0
492,2024-09-18 21:20:09.752548096,0,009,2.7796945892946945,0.3746960116474095,-0.5301008094560218,-0.6355846563327747,0.1439485879453126,-0.4902413486284796,2.1990107222497377,-0.7063630439985248,0
493,2024-09-18 21:20:09.816894043,0,009,2.6877189451878634,0.33590177355520656,-0.19459716374199698,-0.6278894722307792,0.107718355316544,-0.47300057165955073,1.9229137727109338,-0.6673173390707001,0
494,2024-09-18 21:20:09.876128906,0,009,2.5577915336560153,0.2953664370525957,0.17338325112988517,-0.6049162719229962,0.08305875446372983,-0.4534549279982419,1.5883216733157715,-0.5967600220940462,0
495,2024-09-18 21:20:09.954238037,0,009,2.3950146052589742,0.2547345401593912,0.5647080549430925,-0.5697716594184524,0.06918095895648611,-0.4332075198371119,1.2107807665596066,-0.49878120012679866,0
496,2024-09-18 21:20:10.897525879,0,009,2.205591006734348,0.21584819521644055,0.969160096823284,-0.5257335160754685,0.06436150927605543,-0.4134509556834233,0.8067604574188315,-0.37838660334572766,0
497,2024-09-18 21:20:10.967531982,0,009,1.9969323996873665,0.18061856617941865,1.37491285620761,-0.4761292275068227,0.06607053168554046,-0.39490497969440547,0.3922479232187585,-0.2412205271362009,0
498,2024-09-18 21:20:11.023402100,0,009,1.777525727096898,0.1508406310390968,1.7683098327496511,-0.42418140894053813,0.07118231591583767,-0.377834898475964,-0.018733824983658318,-0.09318183270385687,0
499,2024-09-18 21:20:11.100966064,0,009,1.5565230857399284,0.1279817479589416,2.134380566960374,-0.3728402905794563,0.07628157654589059,-0.3621296511441796,-0.4155118163410882,0.06006260896976571,0
500,2024-09-18 21:20:11.171106934,0,009,1.343102785700638,0.11298771434702946,2.4582469016171147,-0.3246421055649057,0.0780103595654848,-0.3474046927124272,-0.7915530626060115,0.21355913542555047,0
501,2024-09-18 21:20:11.225680176,0,009,1.1457252146057004,0.10615223307744005,2.7270970054284955,-0.28162962733658314,0.07336052207485332,-0.3331005490739995,-1.1441810779909232,0.363354878763972,0
502,2024-09-18 21:20:11.304836914,0,009,0.9714582401937404,0.10707371931321899,2.9320496704607617,-0.24534460810056336,0.05985530993232937,-0.3185650615609327,-1.4733670194550648,0.5065220079718419,0
503,2024-09-18 21:20:12.248550049,0,009,0.8255029693447364,0.1146910629472259,3.0693136465195527,-0.21687606237879226,0.03561955331435351,-0.3031150150637369,-1.7803621487997223,0.6410595699708412,0
504,2024-09-18 21:20:12.316044189,0,009,0.7109598098201005,0.1273766550453301,3.14046050211582,-0.19694851144183848,-0.0006332604648560162,-0.2860709162487821,-2.0668707529854173,0.765824455294448,0
505,2024-09-18 21:20:12.384490967,0,009,0.6288356131935369,0.14307435100483804,3.151943811109745,-0.1860374038790094,-0.04964635909152402,-0.26676867971184975,-2.334878028077099,0.880462744559564,0
506,2024-09-18 21:20:12.440566162,0,009,0.5782876545159111,0.15946936372375234,3.114013320362286,-0.1844663957016111,-0.1116319290809512,-0.2445711551359719,-2.5868027341844697,0.9852429274526884,0
507,2024-09-18 21:20:12.519316895,0,009,0.5570537211493459,0.17415113833463225,3.039143817780906,-0.19240869074597036,-0.18621769697427581,-0.21890326335415172,-2.825618156830149,1.0808204976696545,0
508,2024-09-18 21:20:12.579864990,0,009,0.5619248759727347,0.18472364310519537,2.9402792537557376,-0.20975600349746887,-0.27238323645446827,-0.18930755389004827,-3.054802857757726,1.1680625525494845,0
509,2024-09-18 21:20:12.655966064,0,009,0.5890777991270082,0.18886202461428142,2.8293405461005547,-0.23591162164393925,-0.3684973176541997,-0.1554889472991143,-3.2781943169543233,1.2479894609880413,0
510,2024-09-18 21:20:13.599069092,0,009,0.6341872042394988,0.18436269557647567,2.716227958908377,-0.2696077144401274,-0.47250062475050075,-0.1173201764202589,-3.4998414936388142,1.321760305919453,0
511,2024-09-18 21:20:13.666945068,0,009,0.6924052903972283,0.1692306148777615,2.6082106892206913,-0.3088204380768406,-0.5821537306727154,-0.07481049454916157,-3.723778176080947,1.3905902364878464,0
512,2024-09-18 21:20:13.731179932,0,009,0.7583742735573995,0.14179883540281324,2.509485547833939,-0.3507989291975477,-0.6952353806019423,-0.028069875556368532,-3.9535240517310823,1.4555663645175199,0
513,2024-09-18 21:20:13.794300049,0,009,0.8263917302942776,0.10083011854211646,2.4207922412664526,-0.39216332238839446,-0.8096451336226308,0.02269776918303829,-4.191282962145311,1.5174367092946848,0
514,2024-09-18 21:20:13.869381836,0,009,0.8907220115570715,0.045561285253061065,2.3392927294916652,-0.42903552862519206,-0.9234348084386714,0.07716966087575307,-4.437061772516382,1.5764625151614116,0
515,2024-09-18 21:20:13.938100098,0,009,0.94595215012055,-0.02429215944513845,2.259194133396224,-0.4572486985602921,-1.0348153218446574,0.1348772531129326,-4.687977024701496,1.632342589322233,0
516,2024-09-18 21:20:14.005909912,0,009,0.9873263870767133,-0.10853169211256244,2.173252816502058,-0.4726891311704923,-1.1421811161552633,0.19520706760218692,-4.937895607722374,1.6841652313349809,0
517,2024-09-18 21:20:14.939204102,0,009,1.0110550040879154,-0.2064742171601723,2.0745804767938485,-0.4717188102566276,-1.2441703224891802,0.2574313822077526,-5.177501223495491,1.730380121429943,0
518,2024-09-18 21:20:15.016989014,0,009,1.014547765796983,-0.31699693668922285,1.9579744423652312,-0.45154875483617435,-1.3397402197615218,0.32074900525996414,-5.394910241525102,1.7688461284354111,0
519,2024-09-18 21:20:15.084809082,0,009,0.9964825135513626,-0.4386663789568682,1.8204688300846084,-0.4104624373530067,-1.4282209742641343,0.3843229795130935,-5.576869325073331,1.797025501671185,0
520,2024-09-18 21:20:15.140358887,0,009,0.9567063932358686,-0.569949106543968,1.6613308286769468,-0.3478836356928,-1.509319252920341,0.44732399825402497,-5.710296274974976,1.8123345322359041,0
521,2024-09-18 21:20:15.218465088,0,009,0.896058321849426,-0.7094386719715875,1.4818686354566066,-0.26435929184692913,-1.583044719585004,0.5089869893107635,-5.783757294724455,1.8125631928246735,0
522,2024-09-18 21:20:15.285301025,0,009,0.816175213435281,-0.8559646732298469,1.2852269009292205,-0.16151973114484203,-1.649545080827386,0.5686556145814939,-5.788581995288299,1.796214141108626,0
523,2024-09-18 21:20:15.342822998,0,009,0.7193018307930211,-1.00845508381798,1.0760806679879527,-0.042019201321489535,-1.708895539676143,0.6257758451779096,-5.71949924999987,1.7626376458883042,0
524,2024-09-18 21:20:16.269645020,0,009,0.6081571157776241,-1.1655595159388359,0.8600533559103405,0.09057489178591809,-1.760947044863849,0.679838281271325,-5.5747806368381685,1.7119476070112134,0
525,2024-09-18 21:20:16.327972900,0,009,0.48591012693204705,-1.3251953841198203,0.642893216195782,0.23196337712561965,-1.805313792265179,0.7303100582797666,-5.355986579601567,1.6448154607623668,0
526,2024-09-18 21:20:16.404511962,0,009,0.35622619777827524,-1.4841962696443716,0.42971963292487164,0.3773422806279422,-1.841491751221055,0.7765904825802471,-5.067530305421233,1.5622695534768558,0
527,2024-09-18 21:20:16.477652100,0,009,0.22329034264474887,-1.6381615543851777,0.22465737892629425,0.5216218772048664,-1.8690303350546653,0.8179945055742468,-4.716282429638027,1.465577290746621,0
528,2024-09-18 21:20:16.545430908,0,009,0.09176107030613576,-1.7815610596115146,0.030933365010146704,0.6596152252749662,-1.8876741673328412,0.8537580638754385,-4.311271135608447,1.3562149896882343,0
529,2024-09-18 21:20:16.613205811,0,009,-0.03335078708489621,-1.9081314710320112,-0.14873226676052853,0.7862225824632975,-1.8974381293723313,0.88307337573582,-3.8633272588547656,1.235889046790746,0
530,2024-09-18 21:20:16.681034180,0,009,-0.14689958894913566,-2.0115187317960372,-0.3117009400371051,0.8966412133811729,-1.8986185101062634,0.9051691328101802,-3.38453416102919,1.1065771117333474,0
531,2024-09-18 21:20:17.599867188,0,009,-0.24393757534804206,-2.0859936061050757,-0.45514308725626423,0.9865865549237823,-1.8917459572511508,0.9194236648181255,-2.8875441471932097,0.9705756052601986,0
532,2024-09-18 21:20:17.667666992,0,009,-0.3201107152693356,-2.12703350300963,-0.5759858213192188,1.0524721569332036,-1.8774996516147837,0.9254657417522932,-2.3849580165060305,0.8305379201985826,0
533,2024-09-18 21:20:17.735035889,0,009,-0.3720061004157991,-2.1316750171432237,-0.6710947417063884,1.0915206009530305,-1.856636908040028,0.9232239535950988,-1.8889564025658714,0.689477639700305,0
534,2024-09-18 21:20:17.802352051,0,009,-0.39738051260163426,-2.0986809607148955,-0.7376453187624161,1.1018374333302574,-1.8299777776375936,0.9129238340914889,-1.411231403971572,0.5507072213334806,0
535,2024-09-18 21:20:17.871025146,0,009,-0.39529018867584453,-2.0285973196052813,-0.773545589021778,1.0824803242188135,-1.7984159061794949,0.8950564345124219,-0.9630369632834245,0.4176872366575118,0
536,2024-09-18 21:20:17.931543213,0,009,-0.3661659893107995,-1.9237076002796716,-0.7778039704165783,1.0335139505749769,-1.762894985771973,0.8703344551128263,-0.5550475044263519,0.293775860590438,0
537,2024-09-18 21:20:18.006560059,0,009,-0.31182230342349293,-1.7878425239248308,-0.7509115704956327,0.956044986520946,-1.7243316342758963,0.8396368127501512,-0.19679414422447436,0.18189107050476633,0
538,2024-09-18 21:20:18.938333984,0,009,-0.23533687885257135,-1.626046440464277,-0.6953533165655105,0.8522489070570335,-1.6835232904205788,0.8039432466107644,0.1042848068250561,0.08414764545303152,0
539,2024-09-18 21:20:19.016305908,0,009,-0.14077102238471825,-1.4441884655647979,-0.6161552229145761,0.7253760634783271,-1.6411003669585904,0.7642685233814228,0.34379188385541265,0.0015984697863757793,0
540,2024-09-18 21:20:19.084112793,0,009,-0.03280310169714982,-1.2486222607207214,-0.521161647315561,0.5797013131287768,-1.5975608638026335,0.7216068950299107,0.5208006335762259,-0.0657902945128469,0
541,2024-09-18 21:20:19.151895020,0,009,0.08359669523701531,-1.045911605891169,-0.4207482795812053,0.4203891065897736,-1.5533797555362496,0.6768936544485621,0.637584847587033,-0.11891883427620839,0
542,2024-09-18 21:20:19.214728027,0,009,0.20339768952276616,-0.8425589092450708,-0.32690733663711774,0.2532695559232205,-1.5091451476522126,0.6309873674455031,0.6990072995829156,-0.15922324755657422,0
543,2024-09-18 21:20:19.287494873,0,009,0.32170020822683865,-0.6446960262261221,-0.25192108273292374,0.08454602746466501,-1.4656726645225637,0.5846763299123212,0.7120553656667292,-0.1883910019077283,0
544,2024-09-18 21:20:19.355341797,0,009,0.4339429721571213,-0.45776417743936954,-0.20695379498653083,-0.07954087253754268,-1.4240771184000467,0.5387110619640545,0.6855236299521479,-0.20816653008431238,0
545,2024-09-18 21:20:20.298463135,0,009,0.5361142747430968,-0.2862287512580281,-0.2008031533956888,-0.23308207582645174,-1.385786730113576,0.4938527558607122,0.6294014181121844,-0.22021055651465388,0
546,2024-09-18 21:20:20.361152832,0,009,0.6249327964516523,-0.13336029531942745,-0.23892161313190796,-0.37089141228691375,-1.3524705671643023,0.4509139550717879,0.5537626907284829,-0.22599951751392547,0
547,2024-09-18 21:20:20.422854004,0,009,0.6979836475069733,-0.0011138729983520997,-0.3227602906982393,-0.4888784113567658,-1.325861431915606,0.4107663273536339,0.4675675596226101,-0.22679402994566272,0
548,2024-09-18 21:20:20.501802002,0,009,0.7537878105679465,0.1098617690098903,-0.4494996139432851,-0.5843155137738795,-1.3075016576228582,0.3743010493045458,0.3779720823965922,-0.22369715480397356,0
549,2024-09-18 21:20:20.569802002,0,009,0.7917638014903938,0.20008063289605157,-0.6122967706832813,-0.6559059001627023,-1.2984839385424287,0.34235008855321514,0.290306881333952,-0.2177520020735903,0
550,2024-09-18 21:20:20.637553955,0,009,0.8120665185820294,0.27097444292154493,-0.8012139483742244,-0.703621601201211,-1.2992640593939435,0.3156034065257621,0.20837456555498726,-0.20996655531077255,0
551,2024-09-18 21:20:20.705106934,0,009,0.8153537216943548,0.3246048988932538,-1.0048035386759155,-0.7283734363663913,-1.309567848603294,0.2945553563462112,0.1345866920848918,-0.20119898360900512,0
552,2024-09-18 21:20:21.648628906,0,009,0.8025780427316936,0.3633832749223367,-1.2119510059481269,-0.7316305364823171,-1.3283523970064823,0.2794758955726205,0.06971668392326455,-0.19194007208380132,0
553,2024-09-18 21:20:21.716507812,0,009,0.7748834042553707,0.3898029528659905,-1.4133825425537654,-0.7150946139811185,-1.3537943770112955,0.2703771893394752,0.012503104793575557,-0.18208715500356673,0
554,2024-09-18 21:20:21.776318115,0,009,0.7335983989793514,0.40616839113592856,-1.602422340304087,-0.6804769814086207,-1.3833436932670684,0.26696958475452215,-0.04039016560378382,-0.17081196851614797,0
555,2024-09-18 21:20:21.838095947,0,009,0.6802387555973362,0.41434584414733167,-1.7749439074423181,-0.6293902424704483,-1.4138873127235405,0.2686379098285722,-0.09376990332006743,-0.1565999210278744,0
556,2024-09-18 21:20:21.915239014,0,009,0.616448103696853,0.41560429560892875,-1.928781959646565,-0.5633610757581297,-1.4419986237887277,0.27446583562611043,-0.15282701272794824,-0.1374701384916509,0
557,2024-09-18 21:20:21.977536865,0,009,0.5439024123693563,0.4105825019921802,-2.0629814951654604,-0.48394027858103544,-1.464207314877678,0.2832985128927315,-0.22200268387294597,-0.11128605104652775,0
558,2024-09-18 21:20:22.055205078,0,009,0.4642506075510416,0.39934385439443065,-2.1770734311291426,-0.3928377861031633,-1.4772658148940263,0.2938147054180059,-0.30425201702222165,-0.07600209368164723,0
559,2024-09-18 21:20:22.998645020,0,009,0.37910153641988403,0.3814609743452346,-2.2703477457122583,-0.29201606918954565,-1.4784340180731534,0.30460021263370046,-0.40087547787102507,-0.02975681981606712,0
560,2024-09-18 21:20:23.059660889,0,009,0.28999930806686525,0.35611944715287597,-2.3411792719538034,-0.1837295457452678,-1.465771836221438,0.3142360629285822,-0.5116385989609007,0.0291119839619885,0
561,2024-09-18 21:20:23.133272949,0,009,0.1983626199999862,0.3222635166069543,-2.3866879199467266,-0.07052026826442019,-1.4383623759952044,0.3214047864608801,-0.63470653266309,0.1019714769086274,0
562,2024-09-18 21:20:23.200293945,0,009,0.10544148840765646,0.27878453983413914,-2.402956177789554,0.04482887655339615,-1.396397025633365,0.3249964770885363,-0.7662520877101742,0.18965106670708212,0
563,2024-09-18 21:20:23.269799072,0,009,0.01234846235052279,0.22471964592954302,-2.385655449637872,0.15936309054306738,-1.341132478194321,0.3241936363285166,-0.9000972272749609,0.29212481234074394,0
564,2024-09-18 21:20:23.324766113,0,009,-0.07984716696634678,0.15942753887653494,-2.3306889434900047,0.27000509209422313,-1.2747665502257117,0.3185297690797383,-1.027841756234611,0.40821984561929553,0
565,2024-09-18 21:20:23.403625000,0,009,-0.1700174957295091,0.08273126703283366,-2.2346547840283333,0.373580291395583,-1.2002487891994198,0.307932125950571,-1.139573750218159,0.535401727358594,0
566,2024-09-18 21:20:24.340321045,0,009,-0.25690340446735516,-0.004976011959864353,-2.095279834003835,0.4668751203659841,-1.1210260392267009,0.29275270402490955,-1.224937132633226,0.6696844174633018,0
567,2024-09-18 21:20:24.416511962,0,009,-0.3390845329532776,-0.10268952951302421,-1.9119721557405673,0.5468017422488036,-1.040750246373491,0.2737680714984358,-1.2743171130577322,0.8057410409075437,0
568,2024-09-18 21:20:24.484278809,0,009,-0.4150100623508782,-0.2088609164308868,-1.6863492434718472,0.610695622708398,-0.9630011525517784,0.2521269833199949,-1.2799725760571008,0.9372490674112206,0
569,2024-09-18 21:20:24.552021973,0,009,-0.4831166560245098,-0.3215943005751501,-1.4224659572861744,0.6566817699826792,-0.8910698128587177,0.22925849462371198,-1.236974822151282,1.0574182397641425,0
570,2024-09-18 21:20:24.615571045,0,009,-0.5420464095092339,-0.4389123535607093,-1.1265866079138291,0.6839549383108148,-0.8277944798549965,0.20677348472854531,-1.1438724348614078,1.1595976922672477,0
571,2024-09-18 21:20:24.681197021,0,009,-0.5909225475826918,-0.558963070371155,-0.8065492516016836,0.6928242144387978,-0.7753823074082454,0.18636509963276698,-1.0029749989878756,1.2378458651825441,0
572,2024-09-18 21:20:24.752129883,0,009,-0.6295643772295958,-0.6800686622035707,-0.4709975956705928,0.6845208086379755,-0.7351840558235837,0.1696811769959686,-0.820072578816606,1.2873978355029645,0
573,2024-09-18 21:20:25.696288086,0,009,-0.6585210478104645,-0.8006479368971664,-0.12886581004547332,0.6609340439136115,-0.7074913640217407,0.15815643175285368,-0.6036014229914828,1.3050533386758612,0
574,2024-09-18 21:20:25.766677979,0,009,-0.6789203879821353,-0.919122561169437,0.21072771092064585,0.6244448709909443,-0.6914671509973458,0.15283691275479275,-0.3635662245032443,1.289499355315914,0
575,2024-09-18 21:20:25.834479004,0,009,-0.6922488985374438,-1.0338612001893273,0.5384237857823696,0.5778745118525753,-0.6852537397255152,0.15424630786601942,-0.11044891602030704,1.2414744798711719,0
576,2024-09-18 21:20:25.902229004,0,009,-0.7001685733852698,-1.14313020213795,0.8447678351870824,0.5244331858694878,-0.6862096275532694,0.1623161664385688,0.14591759666228973,1.1636594714217057,0
577,2024-09-18 21:20:25.970029053,0,009,-0.7043747907048549,-1.2450141778300816,1.120650002111174,0.46756450079948303,-0.6911975104802355,0.1763699941872341,0.3974309515009428,1.060298273927699,0
578,2024-09-18 21:20:26.037854980,0,009,-0.7064415724189494,-1.3373309130895024,1.3578374798681943,0.4106931165460007,-0.6968812355396777,0.19514644586780272,0.6384156297277814,0.9366870344393291,0
579,2024-09-18 21:20:26.100209961,0,009,-0.7076329971450238,-1.4176272885516394,1.5494151561181733,0.3569581592753829,-0.7000223275667434,0.21685987088637362,0.8656501078591061,0.7987000290651407,0
580,2024-09-18 21:20:27.023180908,0,009,-0.7087268450997698,-1.4833380054426926,1.6901640248395677,0.30900089423158544,-0.6977688315798959,0.23930984820139492,1.0777976634105844,0.6524395322785447,0
581,2024-09-18 21:20:27.091784912,0,009,-0.7099145081528663,-1.5321050255704105,1.776968434154631,0.2688470376046441,-0.6878964915004618,0.26005151195651466,1.2746261565469927,0.5039911698247168,0
582,2024-09-18 21:20:27.146428955,0,009,-0.7107872151166822,-1.5621685912754917,1.8092510866569407,0.23790030310083263,-0.6689206828593526,0.276613662375289,1.4563623902016984,0.3592364755444537,0
583,2024-09-18 21:20:27.223138184,0,009,-0.710372062394677,-1.5727146179482825,1.7894239192745884,0.21699647850943593,-0.6400304614391426,0.2867221043485411,1.6232152678728786,0.22368153364592627,0
584,2024-09-18 21:20:27.285615967,0,009,-0.7071997794284902,-1.564094975895098,1.7233277188663119,0.20641659937761864,-0.6009113162627114,0.2884899099812121,1.7749725995842929,0.10223597114840659,0
585,2024-09-18 21:20:27.362857178,0,009,-0.6994183882437296,-1.5378868028476336,1.6204312213371375,0.20582332682615329,-0.5515872491958718,0.2805652101404963,1.9107562221815302,-0.0011204616400472352,0
586,2024-09-18 21:20:27.430645996,0,009,-0.6849514450222168,-1.4967865744410467,1.493420160690953,0.21419678922696883,-0.4923476158605929,0.262232958670095,2.029134536518567,-0.08376036465525245,0
587,2024-09-18 21:20:28.360547119,0,009,-0.6616560657731485,-1.4443650340432568,1.357033062388773,0.22985364374479655,-0.4237302887183441,0.2334485871462338,2.12856816636583,-0.14477751844401301,0
588,2024-09-18 21:20:28.439332031,0,009,-0.6274420428094845,-1.384761344067331,1.2264288859828294,0.25054805084468595,-0.3465209464489705,0.19478713303436335,2.207808787873562,-0.1851011934193944,0
589,2024-09-18 21:20:28.501795166,0,009,-0.580387003839217,-1.3223956198081013,1.1155922311940798,0.2736048538334797,-0.26176771880786603,0.14732918595716585,2.2658811438910345,-0.20724205843854346,0
590,2024-09-18 21:20:28.566194092,0,009,-0.5189152000815951,-1.261697691426574,1.0360977612046098,0.2960615091003889,-0.17082061034227483,0.09252708298222202,2.3017990938831123,-0.21476228224479565,0
591,2024-09-18 21:20:28.644125977,0,009,-0.4420323914726623,-1.2067973177408096,0.9962383055938379,0.3148343279657191,-0.07537720266528873,0.03208177346176812,2.314607327316219,-0.2117090349405758,0
592,2024-09-18 21:20:28.707089844,0,009,-0.3495256867424883,-1.161170075875182,1.000482728591919,0.3269230728916782,0.02250774688089052,-0.032159858727807335,2.3040848184856486,-0.2021841597011754,0
593,2024-09-18 21:20:28.780086914,0,009,-0.2420480344868429,-1.127314374199741,1.0493505621582202,0.3296300343354204,0.12047905578977093,-0.09829020225672165,2.2717951686880027,-0.1900449355866076,0
594,2024-09-18 21:20:29.692331055,0,009,-0.12108862705261164,-1.1065510134115877,1.139720784948094,0.3207414460732396,0.21599451715199577,-0.16441804833202406,2.221869810583102,-0.17866980882274783,0
595,2024-09-18 21:20:29.766922852,0,009,0.011111720529927847,-1.0989776540092422,1.2654361501061113,0.29863430799270746,0.30645689465990544,-0.22874285344380918,2.16106971029427,-0.1707780210823811,0
596,2024-09-18 21:20:29.831548096,0,009,0.15166005831402996,-1.1035462553532676,1.418014259617258,0.26231692466698103,0.38933417582834157,-0.28962123382268884,2.097993102849603,-0.16830982989103352,0
597,2024-09-18 21:20:29.893594971,0,009,0.29713671596798474,-1.1182143590772218,1.5872830638751387,0.21144776391317865,0.4622671126598029,-0.3456178169443864,2.041662929408751,-0.1723507483239359,0
598,2024-09-18 21:20:29.970285889,0,009,0.4437691457614173,-1.1401400241084012,1.761863273202882,0.14638020936772586,0.5231792606883466,-0.3955371528871453,1.9999594661646964,-0.1830935484452501,0
599,2024-09-18 21:20:30.038072998,0,009,0.5876385511327841,-1.165911879059253,1.9296231779908477,0.06824673190100332,0.5703907931572058,-0.4384357966878393,1.9783011718911068,-0.199864959480492,0
600,2024-09-18 21:20:30.105916016,0,009,0.7248754075960524,-1.1918154549733901,2.078297621009672,-0.020960050347580368,0.6027214953353411,-0.4736130015158988,1.9787922508319862,-0.22124535137225645,0
601,2024-09-18 21:20:31.038788086,0,009,0.8518173657977711,-1.2141350285708503,2.1963561967396523,-0.11839176110432716,0.6195790438579705,-0.5005848106722133,1.9999649698683932,-0.24527584110996517,0
