,time,MARKER,pid,L_O_DSI,L_D_DSI,L_O_DSphi,L_D_DSphi,R_O_DSI,R_D_DSI,R_O_DSphi,R_D_DSphi,trial_id
0,2024-09-18 22:43:16.591760128,TASK_BEGIN,010,-0.357209895538728,-0.10499433961229138,0.4382103511379577,0.14226195842512893,0.5058613242624656,-0.061777293646374735,-2.7851741609848,0.9284659831968382,3
1,2024-09-18 22:43:16.654247168,TASK_BEGIN,010,-0.19371048251784775,-0.1126257176193075,-0.070965082399059,0.23393037237185912,0.28971346582041463,-0.0627793018793965,-1.9249781625463969,0.9107111541206716,3
2,2024-09-18 22:43:16.734980352,TASK_BEGIN,010,-0.03595410811365232,-0.11915172063912491,-0.5646345715751749,0.3234796519270871,0.07804162310347922,-0.06383273378575147,-1.0864301678119526,0.8927809474495869,3
3,2024-09-18 22:43:16.803731968,TASK_BEGIN,010,0.11115226563096285,-0.12365034363744733,-1.027734770623361,0.40881895235487264,-0.12531445365245764,-0.06505131406359158,-0.287780914709409,0.8737221928521468,3
4,2024-09-18 22:43:16.871577856,TASK_BEGIN,010,0.24367210916187448,-0.12534537621142638,-1.4480475575173433,0.4881329792513968,-0.3169061314289025,-0.066584673523329,0.45619619936106853,0.8527183497170392,3
5,2024-09-18 22:43:16.935197952,TASK_BEGIN,010,0.358834458915049,-0.12364500010325583,-1.8170295626358766,0.5599390534703503,-0.49377474162628904,-0.0686148872868216,1.1347119414300526,0.8292507828012654,3
6,2024-09-18 22:43:16.997246976,TASK_BEGIN,010,0.45509246660267516,-0.11816443150555181,-2.1302621587443418,0.6231336787105222,-0.6535035902597979,-0.07134436743247195,1.7408081750787,0.8032287914441105,3
7,2024-09-18 22:43:17.924978944,TASK_BEGIN,010,0.5321132198689827,-0.10873805766984346,-2.387509653885598,0.6770366555639219,-0.7942523229134933,-0.07497921277164327,2.2708805090406092,0.7750375681938512,3
8,2024-09-18 22:43:17.990569984,TASK_BEGIN,010,0.5907142687899681,-0.09542358793561767,-2.592217639883497,0.7213943286092913,-0.9147932972431613,-0.07970930969556941,2.7241359309470563,0.7454872506662755,3
9,2024-09-18 22:43:18.052597248,TASK_BEGIN,010,0.6327231669699159,-0.07849498336233048,-2.7503747982511646,0.7563105191496886,-1.0145455449628948,-0.08568740697944024,3.1020170120525608,0.7156926921589767,3
10,2024-09-18 22:43:18.114601984,TASK_BEGIN,010,0.6607409403145666,-0.058417441243059094,-2.8690472118970924,0.7821315006314123,-1.093588133460931,-0.0930110106453562,3.407522405192,0.6869307760093575,3
11,2024-09-18 22:43:18.197359104,TASK_BEGIN,010,0.6778272019066872,-0.03580155192361045,-2.9551502505797034,0.7993485344682221,-1.1526377630604887,-0.1017119740178402,3.6445412312380667,0.6604881190653932,3
12,2024-09-18 22:43:18.254316288,TASK_BEGIN,010,0.6871614649583682,-0.011342853727897085,-3.014769775045042,0.8085453184095978,-1.19299096263339,-0.11175687738024846,3.817460294087525,0.6374920302109663,3
13,2024-09-18 22:43:18.333014016,TASK_BEGIN,010,0.6917427513281347,0.014240127903192934,-3.052902694305788,0.8103684090108711,-1.2164458087968013,-0.12305619751207467,3.931090886867321,0.6187616793395759,3
14,2024-09-18 22:43:19.276194048,TASK_BEGIN,010,0.6941607158263967,0.04025840250913503,-3.073412345256676,0.8055116406476577,-1.2252151076026283,-0.1354761193819019,3.9906968728234267,0.6047492894024836,3
15,2024-09-18 22:43:19.341872128,TASK_BEGIN,010,0.6964313298696253,0.06609397635823913,-3.0791715774423216,0.7947322675545471,-1.2218282325933714,-0.14884717398216205,4.001989018612104,0.595581685970369,3
16,2024-09-18 22:43:19.403863040,TASK_BEGIN,010,0.6998898142026403,0.09123227079405198,-3.0723483640394673,0.778889391812495,-1.2090104439238112,-0.1629694180102294,3.971161972190453,0.5911299687948113,3
17,2024-09-18 22:43:19.479728128,TASK_BEGIN,010,0.7051715776898395,0.11528146622824575,-3.0546647620051064,0.7589631320511142,-1.189529772859921,-0.17762085328424382,3.9049717315769468,0.5910476946508503,3
18,2024-09-18 22:43:19.547569152,TASK_BEGIN,010,0.712310445383903,0.13797341642063668,-3.02753810658745,0.7360336397590692,-1.1660164502250523,-0.19257481360815137,3.810673027228687,0.5947960943495488,3
19,2024-09-18 22:43:19.606636032,TASK_BEGIN,010,0.7209206288179231,0.1591504086549166,-2.9921891772832034,0.7112364657140723,-1.1407899658615352,-0.2076216510128393,3.695724815776689,0.6016995985466594,3
20,2024-09-18 22:43:19.683291136,TASK_BEGIN,010,0.7303865066250091,0.17874911517258943,-2.949827384721325,0.6857187249717148,-1.1157394314124698,-0.222584058101821,3.567375016056041,0.6110338906343867,3
21,2024-09-18 22:43:20.618566912,TASK_BEGIN,010,0.7400111517267457,0.1967879890996453,-2.901877896883544,0.66060445893133,-1.0922727463040098,-0.23732170407335199,3.4322857374913744,0.6221145745408301,3
22,2024-09-18 22:43:20.681289728,TASK_BEGIN,010,0.7491237697514639,0.2133546425219636,-2.85009258369728,0.636964081097069,-1.0713256778577147,-0.2517280912383886,3.2963032132940966,0.6343492888568797,3
23,2024-09-18 22:43:20.759156992,TASK_BEGIN,010,0.7571660198842602,0.22858689455497508,-2.796465260749714,0.615782150865056,-1.0534277707583564,-0.2657220103200577,3.16444205523018,0.6472245455962053,3
24,2024-09-18 22:43:20.821645056,TASK_BEGIN,010,0.763768104222435,0.2426470729940048,-2.743031719679668,0.5979146015923387,-1.0388084976331122,-0.2792362039288649,3.0410981598527203,0.6602312230350887,3
25,2024-09-18 22:43:20.897483264,TASK_BEGIN,010,0.7688117418168154,0.2556958520087534,-2.691638351021731,0.5840178923829122,-1.0274892988246258,-0.2922102233218903,2.9303533677088325,0.672780282473838,3
26,2024-09-18 22:43:20.960797184,TASK_BEGIN,010,0.7724738616757406,0.26787151580011936,-2.6436908316922927,0.5744478086823827,-1.0193144435077153,-0.3045921080354312,2.8361555041298376,0.6841693003386596,3
27,2024-09-18 22:43:21.022913024,TASK_BEGIN,010,0.775250705708238,0.27927479361158725,-2.5999415920890097,0.5691680299805132,-1.0139314221844733,-0.31634466536884204,2.7622853057210865,0.693615211616556,3
28,2024-09-18 22:43:21.976288000,TASK_BEGIN,010,0.7779680864359931,0.2899561383056568,-2.5604260720740304,0.5677240688116698,-1.0107643755600475,-0.3274501919175137,2.7121825026499935,0.7003163139933145,3
29,2024-09-18 22:43:22.043876096,TASK_BEGIN,010,0.7817732136753579,0.29990555797133966,-2.524578620244879,0.5693012007753604,-1.009008937405619,-0.3379123002035704,2.6887321199174647,0.7034927516771099,3
30,2024-09-18 22:43:22.111699200,TASK_BEGIN,010,0.7880710298968249,0.3090516322995806,-2.4914900984795487,0.5728451200930118,-1.0076579676469877,-0.34775532011335025,2.694032657474097,0.702390905946204,3
31,2024-09-18 22:43:22.178874112,TASK_BEGIN,010,0.7983596419676283,0.31727755212574904,-2.4602572136053835,0.5772116175262312,-1.0055601088895871,-0.3570216000931673,2.729108497689545,0.6962919143018018,3
32,2024-09-18 22:43:22.247503872,TASK_BEGIN,010,0.8139765092192129,0.32445335319707186,-2.4302800675082663,0.581299758338833,-1.0015039087845476,-0.36576834903368044,2.79358666486568,0.684579133422351,3
33,2024-09-18 22:43:22.315346944,TASK_BEGIN,010,0.8358389741832389,0.3304722800417312,-2.401255949428899,0.5841152394663631,-0.9943205749841727,-0.37406477775426505,2.885419472106368,0.6668727713753314,3
34,2024-09-18 22:43:22.382432768,TASK_BEGIN,010,0.8642743089152232,0.335275527029438,-2.3727337902250154,0.5847469274554018,-0.9830080678139602,-0.3819879614782053,3.0006920316473,0.6431816517045611,3
35,2024-09-18 22:43:23.301416960,TASK_BEGIN,010,0.898978669569541,0.3388568460178287,-2.3434428941573873,0.5823052088630816,-0.9668670362023556,-0.38961732866483795,3.133540271386192,0.6140115219820633,3
36,2024-09-18 22:43:23.368392192,TASK_BEGIN,010,0.9390713881060033,0.3412523430654161,-2.3108546017860436,0.5758992908926254,-0.9456128861074583,-0.39703024901466705,3.2762771965445388,0.5804011095838876,3
37,2024-09-18 22:43:23.437146112,TASK_BEGIN,010,0.9831868474346914,0.3425292864563502,-2.2712797537302505,0.564694281606662,-0.9194239966285309,-0.40430085837256036,3.419804712060769,0.5438864237231719,3
38,2024-09-18 22:43:23.504961792,TASK_BEGIN,010,1.0295873870570182,0.3427825305555792,-2.220440314281385,0.5480305345861799,-0.88890320827744,-0.41150399986395103,3.5542502280480583,0.5064027096592154,3
39,2024-09-18 22:43:23.572822016,TASK_BEGIN,010,1.0763248025632401,0.3421346347002929,-2.154298680756673,0.5255655188843409,-0.8549622555615937,-0.4187242836258616,3.6697194432584044,0.47012963868713314,3
40,2024-09-18 22:43:23.639712256,TASK_BEGIN,010,1.1214641486732868,0.34072958214453425,-2.0699909726463983,0.4974126810812871,-0.8186773502686645,-0.42606371399432524,3.7571099010857343,0.43728882525413293,3
41,2024-09-18 22:43:23.708168960,TASK_BEGIN,010,1.1633284123035545,0.3387167935807137,-1.9667211156938287,0.4642552493039463,-0.781168898966935,-0.43363872579271673,3.808918321934908,0.40992472725912876,3
42,2024-09-18 22:43:24.650863872,TASK_BEGIN,010,1.2006907951577093,0.3362343155167295,-1.846391512242989,0.42739001611750915,-0.7435255200643272,-0.44156473192835954,3.819941911308111,0.3897087407841031,3
43,2024-09-18 22:43:24.718721024,TASK_BEGIN,010,1.232864727479121,0.3334031313710528,-1.713736618611826,0.38865012562209617,-0.7067610810291789,-0.449935416107078,3.7877949249154983,0.37779089891078876,3
44,2024-09-18 22:43:24.785746944,TASK_BEGIN,010,1.2596918220688993,0.33033487446559795,-1.575907947281863,0.3502112350753124,-0.6717788346826106,-0.45880701624055864,3.7131625280811256,0.3747188013762887,3
45,2024-09-18 22:43:24.854438912,TASK_BEGIN,010,1.2814644863186548,0.3271441697521697,-1.4417047811701864,0.3143591695726631,-0.6393230785556498,-0.46819341513538115,3.599723844627114,0.3804383816413903,3
46,2024-09-18 22:43:24.922284032,TASK_BEGIN,010,1.2988262910894361,0.32395557303795125,-1.3206759838836073,0.283295833283071,-0.6099262847518309,-0.47806935450522553,3.4537212734735343,0.39436655260202663,3
47,2024-09-18 22:43:24.990120192,TASK_BEGIN,010,1.312668398835641,0.3209035690303437,-1.222197346278962,0.25899823026009233,-0.5838816403098049,-0.4883744429744178,3.2831778498764024,0.4155137213041354,3
48,2024-09-18 22:43:25.048434176,TASK_BEGIN,010,1.3240137492702038,0.3181316548940376,-1.154608189386527,0.24311294037592132,-0.5612638760973317,-0.4990136652776974,3.0969059444167084,0.442626274799933,3
49,2024-09-18 22:43:26.000875008,TASK_BEGIN,010,1.3338925339983707,0.31579312875939364,-1.1245152296174317,0.23687037051853654,-0.5419934333617981,-0.5098552087636568,2.9036902477804785,0.4742932490760372,3
50,2024-09-18 22:43:26.068361984,TASK_BEGIN,010,1.3432381128410928,0.3140481321929108,-1.1363409885131792,0.2410102473648248,-0.5259182946862258,-0.5207283811053918,2.7119312511450633,0.5089771719000216,3
51,2024-09-18 22:43:26.133976064,TASK_BEGIN,010,1.3528260684240137,0.31305170095738605,-1.1921422087910636,0.25572679871069354,-0.5128877668825931,-0.5314251891931336,2.529594822633531,0.545002106179108,3
52,2024-09-18 22:43:26.196449024,TASK_BEGIN,010,1.363259083943633,0.3129343964406401,-1.2916004385398832,0.28064232662725397,-0.5028044545213539,-0.5417093546296139,2.3641338174358277,0.5805653906475422,3
53,2024-09-18 22:43:26.272281856,TASK_BEGIN,010,1.3749891063845248,0.3137820435899099,-1.4319677967168358,0.31479551337862793,-0.4956597908595876,-0.5513317761967793,2.222255493238219,0.613804636639354,3
54,2024-09-18 22:43:26.335719936,TASK_BEGIN,010,1.3883561681501027,0.3156213086386951,-1.6078996928447988,0.3566484036532655,-0.4915703974298667,-0.5600458453909596,2.109562886139003,0.6429186608318954,3
55,2024-09-18 22:43:26.407956992,TASK_BEGIN,010,1.4036175920985083,0.3184135108242681,-1.811452571044183,0.4041682767935493,-0.49081557743025717,-0.5676189229431204,2.0301112053358263,0.6663268038537993,3
56,2024-09-18 22:43:27.351648256,TASK_BEGIN,010,1.4209451723231286,0.3220552653462569,-2.032625445464049,0.45503429808418894,-0.493851404832571,-0.5738429415252303,1.9859910063367683,0.6828296713533412,3
57,2024-09-18 22:43:27.419280896,TASK_BEGIN,010,1.4403772386193707,0.3263856933157605,-2.26051475312141,0.506938919419218,-0.5012762612335919,-0.5785477519278894,1.9771316414439388,0.6917181946054105,3
58,2024-09-18 22:43:27.479249920,TASK_BEGIN,010,1.4617490453364528,0.33119953181584355,-2.4847351971058274,0.5578851346936119,-0.5137359272839177,-0.5816173148134874,2.0014805898463197,0.6927870720202751,3
59,2024-09-18 22:43:27.549120768,TASK_BEGIN,010,1.4846654919217674,0.3362606023314316,-2.6965871815138343,0.6063795261533246,-0.5317741466838287,-0.5830056239424511,2.0555697624121048,0.6862445089351283,3
60,2024-09-18 22:43:27.611620096,TASK_BEGIN,010,1.5085524004710873,0.34131061763882153,-2.8896377547691343,0.6514746586205957,-0.5556643773064669,-0.5827471263261569,2.135288648235251,0.6725625704992901,3
61,2024-09-18 22:43:27.690825984,TASK_BEGIN,010,1.532746787891397,0.3460756921177769,-3.059725286941306,0.6926779454320346,-0.5852788897944994,-0.5809571707770007,2.2365724185615785,0.652343746548944,3
62,2024-09-18 22:43:27.750951936,TASK_BEGIN,010,1.5565601421583233,0.35027640421413725,-3.204589312242046,0.7297858527371722,-0.6200389090502887,-0.5778216022995741,2.3558421780803003,0.6262481326958736,3
63,2024-09-18 22:43:28.674468096,TASK_BEGIN,010,1.5792893287683523,0.35364450737604874,-3.3233186482864787,0.7627174216554583,-0.6589555452993231,-0.5735779254639859,2.4902566108565356,0.5949662616532165,3
64,2024-09-18 22:43:28.736953088,TASK_BEGIN,010,1.6001974448768865,0.3559456146579723,-3.4157482364637914,0.7913965075526506,-0.7007360658743004,-0.5684921281621887,2.637813554633977,0.5592155909927942,3
65,2024-09-18 22:43:28.798532096,TASK_BEGIN,010,1.6185075359204917,0.3570025564517643,-3.4818788897046296,0.8156708166267894,-0.7439162346706952,-0.562835053623045,2.797174878616846,0.5197724642134102,3
66,2024-09-18 22:43:28.876638976,TASK_BEGIN,010,1.6334463393600362,0.3567098977622346,-3.5213630170357657,0.8352224488620587,-0.7869920110765809,-0.556861797542512,2.9671454866295974,0.4775471027415909,3
67,2024-09-18 22:43:28.938638848,TASK_BEGIN,010,1.6443413886267808,0.3550338578346495,-3.533143945322121,0.8494652194651137,-0.8285304248152416,-0.5507994128632858,3.145976504653831,0.43367049685601033,3
68,2024-09-18 22:43:29.015934208,TASK_BEGIN,010,1.6507301807494401,0.3520028693680347,-3.5153946690673994,0.857484537525178,-0.8672378216492004,-0.5448468500294675,3.3307761297433243,0.3895470313188415,3
69,2024-09-18 22:43:29.083772928,TASK_BEGIN,010,1.652428110815508,0.3476991647441083,-3.4658319482953908,0.8580820969751627,-0.9019820677523184,-0.5391831748469316,3.5172424397196327,0.34683706363143374,3
70,2024-09-18 22:43:30.011584000,TASK_BEGIN,010,1.6495310075982226,0.34225581308678243,-3.382337228760201,0.8499453623596631,-0.93178729762402,-0.5339756496970939,3.6997926579941462,0.30735360857853794,3
71,2024-09-18 22:43:30.089408000,TASK_BEGIN,010,1.6423649300318837,0.335855878188105,-3.2637600361218753,0.831914373570467,-0.955821912606042,-0.5293835439101051,3.87199671188497,0.2728972691907607,3
72,2024-09-18 22:43:30.162350848,TASK_BEGIN,010,1.6314120341412204,0.3287295181180666,-3.11075489690635,0.803279617988713,-0.9733953029019434,-0.5255581857396558,4.027108971047047,0.2450925770527627,3
73,2024-09-18 22:43:30.230277120,TASK_BEGIN,010,1.617225975388582,0.321150095112331,-2.92640294160803,0.764021372930958,-0.9839780811722639,-0.5226383964547422,4.158536614687304,0.22527818554116305,3
74,2024-09-18 22:43:30.298010880,TASK_BEGIN,010,1.6003291263229258,0.31343366497535663,-2.716364519307975,0.7149165047849002,-0.9872569591459074,-0.5207380944052952,4.260240599268672,0.2144500028137689,3
75,2024-09-18 22:43:30.365158912,TASK_BEGIN,010,1.5811047525119835,0.3059406607745662,-2.4885228945551283,0.6574908784144579,-0.9832144352610696,-0.5199273226342501,4.327174058628774,0.2132247537950936,3
76,2024-09-18 22:43:30.432591104,TASK_BEGIN,010,1.5597392259196063,0.29907010030852793,-2.25228210426852,0.5938477643671712,-0.9721949281070298,-0.5202157123364979,4.355793040689694,0.2218076393424437,3
77,2024-09-18 22:43:31.372471296,TASK_BEGIN,010,1.5362536106528264,0.293238396560649,-2.017723047362154,0.5264361030099621,-0.9549138792434889,-0.5215489737460824,4.344500206600498,0.23997079038805763,3
78,2024-09-18 22:43:31.434958080,TASK_BEGIN,010,1.5105942257900409,0.2888458483083056,-1.7948143630894542,0.45783298766728814,-0.9323932865481811,-0.5238225537227851,4.2938340800719,0.2670542807488217,3
79,2024-09-18 22:43:31.512455936,TASK_BEGIN,010,1.4827180991854854,0.2862404825852647,-1.5928268900594593,0.39058996958233766,-0.905844642635427,-0.5269065146594926,4.206328786790093,0.3020046329866313,3
80,2024-09-18 22:43:31.580368896,TASK_BEGIN,010,1.4526441329832405,0.2856861634275581,-1.4199207825717892,0.3271388086907085,-0.8765367994427411,-0.5306695679823845,4.0861277256586375,0.34345787025388824,3
81,2024-09-18 22:43:31.639464960,TASK_BEGIN,010,1.4204879595123492,0.2873361852017346,-1.282689268089697,0.26970566132823337,-0.8456756695157199,-0.5349935322805252,3.9385853589774733,0.3898405586797267,3
82,2024-09-18 22:43:31.715996160,TASK_BEGIN,010,1.386508370951184,0.2912108192945124,-1.1855349527774972,0.22018569271518462,-0.8143180391682326,-0.5397762917657508,3.770088053403668,0.43944587002590896,3
83,2024-09-18 22:43:31.783772928,TASK_BEGIN,010,1.3511710860013286,0.2971791290541837,-1.130088536368207,0.17998491160637065,-0.7833492624938363,-0.5449235801271929,3.588085441951638,0.4904713689092095,3
84,2024-09-18 22:43:32.725910784,TASK_BEGIN,010,1.3152094128684901,0.3049500957374106,-1.1150290337953763,0.14989052622557317,-0.7535306812378388,-0.5503324555515027,3.401085733747841,0.5410392595267448,3
85,2024-09-18 22:43:32.780267008,TASK_BEGIN,010,1.2796503805060966,0.3140801818914303,-1.1364332649045448,0.13003297604845832,-0.72557062800348,-0.5558762826909327,3.2183630948104724,0.5892300549908746,3
86,2024-09-18 22:43:32.859816192,TASK_BEGIN,010,1.2457806766945365,0.32400016014357125,-1.1884681872108753,0.1199535052373662,-0.7001609543315023,-0.5614018633758925,3.049320965254406,0.633154022893418,3
87,2024-09-18 22:43:32.929405952,TASK_BEGIN,010,1.2150385128393337,0.33405753893529067,-1.2641368438846838,0.11873749975658564,-0.6779632508634977,-0.566739420218724,2.9026977168080452,0.6710594450069282,3
88,2024-09-18 22:43:32.996732928,TASK_BEGIN,010,1.1888423640724255,0.3435669712313878,-1.3558573021929274,0.12515095515384558,-0.6595651398159244,-0.5717179197646808,2.785887038564225,0.701449279523187,3
89,2024-09-18 22:43:33.058273280,TASK_BEGIN,010,1.1684111898654301,0.35185906475259904,-1.4557694890608808,0.13773044529816866,-0.6454270132582082,-0.5761792610714991,2.704495898078773,0.7231748001518996,3
90,2024-09-18 22:43:33.123452928,TASK_BEGIN,010,1.1546420247622662,0.35832054085966974,-1.555811602487142,0.15482189354179338,-0.6358265100288787,-0.579988895639194,2.66210433831644,0.7354894294502675,3
91,2024-09-18 22:43:34.050919936,TASK_BEGIN,010,1.1480537234987869,0.3624276249677096,-1.6477129376875461,0.17460811307813104,-0.6308055254006882,-0.583041962872373,2.6601979298357086,0.7380659929211887,3
92,2024-09-18 22:43:34.118799872,TASK_BEGIN,010,1.1487493206863475,0.3637790600374807,-1.7230749022048726,0.195170570192655,-0.6301345034544193,-0.5852646597284273,2.6982767634050573,0.7309957602374043,3
93,2024-09-18 22:43:34.186131200,TASK_BEGIN,010,1.15636757160257,0.36212752358302874,-1.7737500685516707,0.21460862526440525,-0.6333114901630228,-0.5866129146582357,2.7740586226280377,0.7147831046768532,3
94,2024-09-18 22:43:34.248615936,TASK_BEGIN,010,1.170051142879323,0.35740044750991273,-1.7926135187969,0.23120530845284343,-0.6395945581937076,-0.5870729329736992,2.883569510762552,0.6903379818295398,3
95,2024-09-18 22:43:34.311101184,TASK_BEGIN,010,1.18847129783161,0.34970510776717634,-1.7744256136816159,0.2435861508921356,-0.6480485936271903,-0.5866668451710204,3.020999441327218,0.6589567628971011,3
96,2024-09-18 22:43:34.387792896,TASK_BEGIN,010,1.209907351288169,0.3393211184202691,-1.7163161915785812,0.2508107136551297,-0.6575947772192515,-0.5854616232798403,3.1785112789379584,0.6222623301696364,3
97,2024-09-18 22:43:34.449337856,TASK_BEGIN,010,1.2323527913116967,0.32668395623138785,-1.617803836229379,0.2523872049113375,-0.6670656863475753,-0.5835764839822831,3.3463246816084826,0.5820818319129298,3
98,2024-09-18 22:43:35.400375040,TASK_BEGIN,010,1.2536390044449948,0.31235827459859816,-1.4806669136791928,0.2482513678235113,-0.6752697666417534,-0.5811861449457302,3.513211922386866,0.5402857811742695,3
99,2024-09-18 22:43:35.468271104,TASK_BEGIN,010,1.2715875519145592,0.29699882858015364,-1.3089023337017907,0.23874730879082168,-0.6810674933559572,-0.5785195113250752,3.6673567658300885,0.4986326812929128,3
100,2024-09-18 22:43:35.536158976,TASK_BEGIN,010,1.2841919766377348,0.2813004091683683,-1.1087102367237307,0.22461474709603763,-0.6834649032897371,-0.5758516233917018,3.797428398283373,0.45864499177624707,3
101,2024-09-18 22:43:35.603983872,TASK_BEGIN,010,1.2898049859483451,0.26594303457962076,-0.8883906288868407,0.2069757909546683,-0.6817188151071897,-0.5734859887123808,3.893622745194259,0.42153007724288655,3
102,2024-09-18 22:43:35.668920832,TASK_BEGIN,010,1.2872968257542632,0.25154203303449313,-0.6581635087919491,0.18731625013802208,-0.6754242180237866,-0.5717298933348305,3.948473935693863,0.38815151648205415,3
103,2024-09-18 22:43:35.731409152,TASK_BEGIN,010,1.2761634635509953,0.23861096487661868,-0.4298946810940602,0.16743721268651093,-0.6645526244862695,-0.5708707644534947,3.957428461941589,0.3590341148218952,3
104,2024-09-18 22:43:35.793894144,TASK_BEGIN,010,1.2565711684588656,0.22754078638197828,-0.21655629952137812,0.14933420338269704,-0.6494329772957932,-0.5711591067967747,3.919234304659113,0.33437636369882867,3
105,2024-09-18 22:43:36.750533120,TASK_BEGIN,010,1.2293272319391302,0.21859506310939925,-0.031286605356891435,0.1349898528964094,-0.6306817018490085,-0.5727971838954081,3.8361036963149697,0.3140657913836425,3
106,2024-09-18 22:43:36.818400000,TASK_BEGIN,010,1.1957869263213605,0.21191817573540814,0.11383375111946689,0.12612249229746705,-0.6090934412276865,-0.5759303856676923,3.7135494020630406,0.2977153584065729,3
107,2024-09-18 22:43:36.885283840,TASK_BEGIN,010,1.1577191923875172,0.2075527194539637,0.20898331437498452,0.12395996613549345,-0.5855159875463953,-0.5806394591781737,3.559851044820364,0.2847308425634317,3
108,2024-09-18 22:43:36.953072896,TASK_BEGIN,010,1.1171451018624454,0.20546243613757742,0.24748187826712134,0.12909705780948877,-0.560742499594379,-0.5869327824054709,3.3852383748234414,0.2743983436763701,3
109,2024-09-18 22:43:37.021913088,TASK_BEGIN,010,1.076166628202035,0.20555466395607183,0.2261657020628204,0.1414663855177956,-0.5354501821202494,-0.5947387045099407,3.2009523057691966,0.26597698282326465,3
110,2024-09-18 22:43:37.089752064,TASK_BEGIN,010,1.0368181475027167,0.2076948304775959,0.14518485821585145,0.16041922036798817,-0.5102017976670675,-0.6038993784599215,3.0182688811213154,0.2587894534148506,3
111,2024-09-18 22:43:37.147496192,TASK_BEGIN,010,1.0009705266147189,0.21170878723193637,0.007306940873624582,0.18488955703120702,-0.48550191931049985,-0.6141684247696187,2.84748731837119,0.25230358698749233,3
112,2024-09-18 22:43:38.100137984,TASK_BEGIN,010,0.9702889114968397,0.21737563775860508,-0.18295819370631708,0.2135985433968945,-0.46187131833072975,-0.625215049709864,2.6969874534763254,0.2461816078455824,3
113,2024-09-18 22:43:38.168432896,TASK_BEGIN,010,0.9462102940980532,0.2244197124217694,-0.42001911049762347,0.24524689087229112,-0.43990123999600983,-0.6366368609013072,2.5726267683891906,0.2402640597765927,3
114,2024-09-18 22:43:38.224590080,TASK_BEGIN,010,0.9299067425116028,0.23250860388056646,-0.6974916823190475,0.2786592514920372,-0.4202817183099622,-0.6479802362977906,2.4776360634421604,0.23449554750308305,3
115,2024-09-18 22:43:38.303375104,TASK_BEGIN,010,0.9222350928379874,0.2412571279889149,-1.0082519783632449,0.31287229461161054,-0.40381979834035725,-0.6587636165061479,2.412825055791711,0.22886067622415732,3
116,2024-09-18 22:43:38.371372032,TASK_BEGIN,010,0.9236928514872524,0.25023659576020607,-1.3444877422099542,0.3471712474766173,-0.391438503300237,-0.6685025811856057,2.3767886984869238,0.2233957362088843,3
117,2024-09-18 22:43:38.439759104,TASK_BEGIN,010,0.9343908587394993,0.2589930552101745,-1.6978734311606885,0.38108120577777865,-0.3841188879527581,-0.6767401931384034,2.3660485504122146,0.21826884434522403,3
118,2024-09-18 22:43:38.507550976,TASK_BEGIN,010,0.9540418829980881,0.26707560569590755,-2.059777843289564,0.4143147111580203,-0.3827729852809236,-0.6830817758502024,2.3752958546512675,0.21386136032116357,3
119,2024-09-18 22:43:39.426264832,TASK_BEGIN,010,0.9819570865927282,0.27406924730619847,-2.421353446530341,0.44667858241727215,-0.3880858398458117,-0.6872268416227604,2.397895997124066,0.2107908484757536,3
120,2024-09-18 22:43:39.494138880,TASK_BEGIN,010,1.017048313030821,0.27962451778459846,-2.7735322184488735,0.47796548186736776,-0.4003752089735998,-0.6889928665474649,2.4266592890777643,0.2098631799186946,3
121,2024-09-18 22:43:39.561983232,TASK_BEGIN,010,1.057852591438421,0.28347862152794306,-3.107075737555007,0.5078735780337515,-0.41948589792462293,-0.6883321903963479,2.4547091683341593,0.21197597583499245,3
122,2024-09-18 22:43:39.617414912,TASK_BEGIN,010,1.102593593645174,0.2854672101445045,-3.4127645481015096,0.5359787509280676,-0.4447212797553534,-0.6853428583039382,2.476217307044274,0.2180025015932025,3
123,2024-09-18 22:43:39.697603072,TASK_BEGIN,010,1.1492814963126932,0.28552728764070107,-3.6817176965296903,0.5617507691061242,-0.4748403851369281,-0.6802658497876105,2.4868949462135954,0.22867392978668552,3
124,2024-09-18 22:43:39.765430784,TASK_BEGIN,010,1.1958533852303443,0.28368936410185336,-3.90580978082183,0.5846024278394306,-0.5081525638640203,-0.6734603673435995,2.4843071907216308,0.24446107549264115,3
125,2024-09-18 22:43:39.817689088,TASK_BEGIN,010,1.240336977631563,0.2800604828487987,-4.078162513810436,0.6039743451578592,-0.5426942873393534,-0.6653608253510533,2.468108027588844,0.26545703354321254,3
126,2024-09-18 22:43:40.762970880,TASK_BEGIN,010,1.280988719020712,0.2748062598068707,-4.193652142950792,0.6194398903994615,-0.5764407134056092,-0.656427180753317,2.440151257784699,0.29128828163984116,3
127,2024-09-18 22:43:40.840158976,TASK_BEGIN,010,1.3163813164229206,0.2681353905105678,-4.24933490471906,0.6307846350089437,-0.6075160669505076,-0.6470973475861386,2.4043570925069306,0.32109671026789943,3
128,2024-09-18 22:43:40.902200064,TASK_BEGIN,010,1.3454591415903276,0.26028181762930086,-4.24474923218128,0.6380263602481522,-0.6343755435425145,-0.6377471978489208,2.366365546150934,0.3535989536945317,3
129,2024-09-18 22:43:40.964685056,TASK_BEGIN,010,1.367561838932769,0.2514844887351293,-4.1821156510810695,0.6413788033506351,-0.6559349872239472,-0.6286620890008848,2.3331396442315846,0.3871787713472822,3
130,2024-09-18 22:43:41.047629824,TASK_BEGIN,010,1.3823906853565489,0.2419725912995582,-4.066389290514084,0.641182936805513,-0.6716505030510298,-0.6200195555970689,2.312566018245369,0.4199724560281934,3
131,2024-09-18 22:43:41.103420928,TASK_BEGIN,010,1.3899244798370212,0.23196070569372995,-3.905017784442756,0.6378335697890145,-0.6815620928259798,-0.6118819664516522,2.3129320930442003,0.4499543244281493,3
132,2024-09-18 22:43:41.181766144,TASK_BEGIN,010,1.3903206048942567,0.22165195705383106,-3.707315894705372,0.6317237423359079,-0.6862849287619239,-0.6042036705142474,2.3421602772935413,0.4750553107943354,3
133,2024-09-18 22:43:42.126414080,TASK_BEGIN,010,1.383826662942159,0.21124627251674746,-3.4835925721910663,0.6232173042329558,-0.6869201068458404,-0.5968573598067242,2.406817232545091,0.493329181898083,3
134,2024-09-18 22:43:42.193261056,TASK_BEGIN,010,1.3707302141562043,0.2009490004269308,-3.244314509721039,0.6126532669771995,-0.6848998925453974,-0.589673960057717,2.5110761143106286,0.5031444348872629,3
135,2024-09-18 22:43:42.262068224,TASK_BEGIN,010,1.3513818520572942,0.1909724498774037,-2.99948264605158,0.6003792790261744,-0.6818143668392668,-0.5824824166629243,2.655883137060783,0.5033671613641338,3
136,2024-09-18 22:43:42.329859072,TASK_BEGIN,010,1.3262894962576657,0.18152731824667223,-2.758161196747595,0.5867909819584735,-0.679244545290727,-0.5751391769535241,2.838537542675391,0.4935115930535271,3
137,2024-09-18 22:43:42.397587200,TASK_BEGIN,010,1.2962311463931944,0.1728088402968006,-2.528009609066582,0.5723408278457374,-0.6786048100362759,-0.5675450315014293,3.0528049076324195,0.47383530764338144,3
138,2024-09-18 22:43:42.464519168,TASK_BEGIN,010,1.2623326548102993,0.1649832897881946,-2.3148213052924653,0.5575043191654119,-0.6810074193226721,-0.5596515311782687,3.2895816924061965,0.445347734252821,3
139,2024-09-18 22:43:42.533277184,TASK_BEGIN,010,1.226086318510624,0.15817682118304846,-2.1222228378172012,0.5427242269925335,-0.6871651574698161,-0.5514608504835784,3.537985946021134,0.40971453737707786,3
140,2024-09-18 22:43:43.476443136,TASK_BEGIN,010,1.189296691563561,0.15246930263154346,-1.9516191282682218,0.5283545319090891,-0.6973341332360137,-0.5430236580923946,3.7865904357642686,0.3690730356967523,3
141,2024-09-18 22:43:43.544323072,TASK_BEGIN,010,1.1539465855734286,0.14789705145822737,-1.8023702579046226,0.5146157513834834,-0.7113001782307692,-0.5344380480839455,4.024481384073137,0.32579647911372384,3
142,2024-09-18 22:43:43.598360064,TASK_BEGIN,010,1.1220045865749386,0.14446374184805053,-1.6722151827789684,0.5015718346922848,-0.7284285467967706,-0.5258470079702806,4.241974687227393,0.2822524012057964,3
143,2024-09-18 22:43:43.678616832,TASK_BEGIN,010,1.0952245718411786,0.14215359068289848,-1.5579749199029478,0.4891365472742749,-0.7477926108120645,-0.517426836943562,4.431001556319643,0.24059796521861976,3
144,2024-09-18 22:43:43.747553280,TASK_BEGIN,010,1.0749876642313825,0.14094186137991305,-1.4564778593207897,0.47711872339965944,-0.7683632383823239,-0.5093626269663174,4.585267349268131,0.20263446541324576,3
145,2024-09-18 22:43:43.814785792,TASK_BEGIN,010,1.062208746635546,0.1408018544171057,-1.3654954376683206,0.4653090030015299,-0.7892071910846771,-0.501817384525182,4.700285015044337,0.1697184364032404,3
146,2024-09-18 22:43:43.883449856,TASK_BEGIN,010,1.0573010203354423,0.14170911575100373,-1.2843560805196277,0.45357804914089395,-0.8096303006997694,-0.49490921861068865,4.773332886374037,0.14272165958853253,3
147,2024-09-18 22:43:44.799951104,TASK_BEGIN,010,1.0601844546462598,0.1436421349548411,-1.2139654791560188,0.4419341107954228,-0.8292106261791482,-0.48871030382211234,4.80338010075507,0.12203293426924057,3
148,2024-09-18 22:43:44.868541952,TASK_BEGIN,010,1.0703284671021234,0.1465787905007383,-1.156217207613517,0.43050700603460396,-0.8477123122878311,-0.4832698866819969,4.7910484704861585,0.10759333093500502,3
149,2024-09-18 22:43:44.928761088,TASK_BEGIN,010,1.0868222176963118,0.1504908110610144,-1.1130843070791872,0.4194695621143172,-0.8649351246569866,-0.4786479160364674,4.738637113798814,0.09896036682897207,3
150,2024-09-18 22:43:45.004257792,TASK_BEGIN,010,1.1084676256134862,0.155339461739365,-1.0858527943565406,0.40895217216560725,-0.8805803199533285,-0.4749397886119195,4.650145964912182,0.09539744152752014,3
151,2024-09-18 22:43:45.072071168,TASK_BEGIN,010,1.1338863610614134,0.16107223978533589,-1.0748370046829487,0.39901353568374953,-0.8941872779652654,-0.47228091493990304,4.531190309690511,0.0959842107216992,3
152,2024-09-18 22:43:45.130640896,TASK_BEGIN,010,1.1616222271197179,0.16761884286786594,-1.0795784358848466,0.38967967129134323,-0.905152066294772,-0.47083307422332044,4.388736643444344,0.09973844843400421,3
153,2024-09-18 22:43:45.207272960,TASK_BEGIN,010,1.1902219254559108,0.17488851051255289,-1.0992583445863393,0.381001842037065,-0.9128059636830336,-0.47076169999770195,4.230638344916644,0.10573008968197173,3
154,2024-09-18 22:43:46.142980864,TASK_BEGIN,010,1.218298485956201,0.18277263960973136,-1.1330272667958314,0.3730761036588713,-0.9165236489480711,-0.47221095034255783,4.064970521560271,0.11317590287482601,3
155,2024-09-18 22:43:46.218384128,TASK_BEGIN,010,1.2445981143672535,0.19115174463373302,-1.1801636680476792,0.366023639185075,-0.9158403445547882,-0.4752778550791352,3.899264567059533,0.12151617275973675,3
156,2024-09-18 22:43:46.286437120,TASK_BEGIN,010,1.2680748459985025,0.19990216055919507,-1.2401942906585781,0.35998601966755467,-0.9105570913702681,-0.4799873849454375,3.739878171300747,0.13046400585524717,3
157,2024-09-18 22:43:46.353689856,TASK_BEGIN,010,1.2879478682606669,0.20890027637124292,-1.3130273803702115,0.3551648391471893,-0.9008084582672437,-0.4862751854068669,3.591677789845862,0.14000499225253543,3
158,2024-09-18 22:43:46.421971200,TASK_BEGIN,010,1.3037154160811781,0.2180259097131922,-1.398898537174489,0.35186413398482325,-0.8870823919841243,-0.49398282763152057,3.4579775822967833,0.1503362202252975,3
159,2024-09-18 22:43:46.489485056,TASK_BEGIN,010,1.3151265356104969,0.22716798593801943,-1.4979383015472836,0.3504733493473129,-0.8702029982982951,-0.5028628782957567,3.340554717815157,0.16175539770350325,3
160,2024-09-18 22:43:46.557689856,TASK_BEGIN,010,1.3221374503232466,0.23623320195532183,-1.6094728693654277,0.35137719948972407,-0.8512873151069225,-0.5125893246900781,3.239696322624048,0.1745239041527681,3
161,2024-09-18 22:43:47.499720192,TASK_BEGIN,010,1.324876462953042,0.24515387945085604,-1.7314250643350735,0.354838240731453,-0.831673888296954,-0.5227723422825987,3.154433729042633,0.18873500900726486,3
162,2024-09-18 22:43:47.568260864,TASK_BEGIN,010,1.323611752721467,0.25389130190467524,-1.8601127357655793,0.36090640403174146,-0.8128170837122924,-0.532976336221795,3.0830820869668343,0.20422410546523148,3
163,2024-09-18 22:43:47.626821120,TASK_BEGIN,010,1.318702830234275,0.26243461070156976,-1.9904124918246668,0.369369207408823,-0.7961539943319768,-0.54273769712589,3.0239360181580133,0.2205477233882632,3
164,2024-09-18 22:43:47.703991040,TASK_BEGIN,010,1.310539447250009,0.27079751621096726,-2.1160743545684024,0.3797344208176787,-0.7829630149598239,-0.5515802309528385,2.9758001766721685,0.2370312105076043,3
165,2024-09-18 22:43:47.771848960,TASK_BEGIN,010,1.2994972317615734,0.27901539695389704,-2.2301287565741283,0.39125598106344667,-0.7742284854755211,-0.5590303849803268,2.9381982610046524,0.2528548908962884,3
166,2024-09-18 22:43:47.839670784,TASK_BEGIN,010,1.2859399858380574,0.2871434448296217,-2.325483768442385,0.40301438793519234,-0.7705210058123041,-0.5646349780125898,2.911399243324636,0.26712886342214953,3
167,2024-09-18 22:43:47.907485184,TASK_BEGIN,010,1.2702710285819805,0.29525458867768783,-2.3956889951695493,0.41402334648664957,-0.7719168528700449,-0.5679801153529088,2.896375850325858,0.27892922418860483,3
168,2024-09-18 22:43:48.850579968,TASK_BEGIN,010,1.2529979099197848,0.3034383358366662,-2.43564948550577,0.4233156589876997,-0.7779904055434138,-0.5687062244836988,2.894535493156632,0.2873243676173783,3
169,2024-09-18 22:43:48.918472192,TASK_BEGIN,010,1.2347661589492511,0.31180383049605864,-2.442059997974947,0.4299910361576539,-0.7878872668815753,-0.5665159511961816,2.9070934514822553,0.2914321901283714,3
170,2024-09-18 22:43:48.986316032,TASK_BEGIN,010,1.2163383492868578,0.3204875787282878,-2.4134675101398453,0.4332414116879289,-0.8004343333429146,-0.56117861355696,2.9343358295722495,0.290499841896569,3
171,2024-09-18 22:43:49.054073088,TASK_BEGIN,010,1.1985111130268498,0.32966248554216754,-2.3500644198563134,0.4323758548134311,-0.814227526479783,-0.5525379961232888,2.975207485095393,0.2839573058693607,3
172,2024-09-18 22:43:49.121107200,TASK_BEGIN,010,1.1819829788411311,0.3395429808396513,-2.2534546861695763,0.42685734691168975,-0.8276896292034698,-0.5405233565908664,3.0274513732824624,0.27140829614173456,3
173,2024-09-18 22:43:49.189111040,TASK_BEGIN,010,1.1672203516440651,0.35038079379430637,-2.126562802535941,0.4163476900901007,-0.8391466770069655,-0.5251558637975995,3.0881584875656687,0.2525787555335738,3
174,2024-09-18 22:43:49.257329920,TASK_BEGIN,010,1.1543766777662172,0.3624488381041743,-1.9736565727761857,0.4007478862835854,-0.8469613218986743,-0.5065455343999192,3.1542912215234793,0.22730592706489233,3
175,2024-09-18 22:43:50.175961856,TASK_BEGIN,010,1.1432817989969208,0.376016240754076,-1.8003948257851758,0.38022831678698366,-0.8497039363768213,-0.48488401858518215,3.222749749497296,0.19564485152649114,3
176,2024-09-18 22:43:50.243840000,TASK_BEGIN,010,1.1334868906083488,0.391320153918897,-1.6138613974713727,0.3552456150548298,-0.8463022260151438,-0.46044449972412455,3.2899424089209144,0.15807294797413213,3
177,2024-09-18 22:43:50.311508736,TASK_BEGIN,010,1.1243657849894724,0.4085354382691988,-1.4225060588263325,0.3265312928379366,-0.8361253180339336,-0.43359433625233873,3.3512410742645695,0.11568414719720375,3
178,2024-09-18 22:43:50.378789120,TASK_BEGIN,010,1.115287158346531,0.42773854169550224,-1.2358734966911848,0.2950431455891694,-0.8190045721741606,-0.4048148713354199,3.4007710399610245,0.07026513149821371,3
179,2024-09-18 22:43:50.447152128,TASK_BEGIN,010,1.1058251248684527,0.44886769372796526,-1.0641217076232559,0.26190465893219406,-0.7952246802969889,-0.37471668948607884,3.4317408157762115,0.02420946415959519,3
180,2024-09-18 22:43:50.515250944,TASK_BEGIN,010,1.095924444294079,0.4716918501539501,-0.9174368764566763,0.22837016300425,-0.7655209895787696,-0.3440392515186185,3.437229339825722,-0.019709087652398184,3
181,2024-09-18 22:43:50.576487936,TASK_BEGIN,010,1.0859689020719432,0.49579941357075985,-0.8053688646182484,0.19581667601201908,-0.7310862918588575,-0.31362957392633156,3.4111778293455486,-0.058641728069385335,3
182,2024-09-18 22:43:51.525959936,TASK_BEGIN,010,1.076769967442828,0.5206066672094294,-0.7360357336545232,0.1657288845338614,-0.6935433451672689,-0.2844031509664483,3.3492868533392155,-0.0899773654197715,3
183,2024-09-18 22:43:51.591496192,TASK_BEGIN,010,1.0695008001531843,0.5453809871064041,-0.7152666925404717,0.13965458829301033,-0.6548417779077206,-0.25729474880347214,3.2496004708790736,-0.11160970117439933,3
184,2024-09-18 22:43:51.653575936,TASK_BEGIN,010,1.0655692716782545,0.5692781313918023,-0.7459026811050319,0.11913008366256524,-0.6170912462038114,-0.2332053886272405,3.1127315365522135,-0.12212680560070084,3
185,2024-09-18 22:43:51.728667904,TASK_BEGIN,010,1.0664226649280228,0.5913965222446849,-0.8274583826935147,0.10557633226394633,-0.5823777362121177,-0.21295094943877702,2.9417852940876412,-0.12090595895312002,3
186,2024-09-18 22:43:51.793092096,TASK_BEGIN,010,1.0733088406703348,0.6108482248860105,-0.9562382480062032,0.10017078366184537,-0.5526003646822544,-0.19721795288918312,2.7420435703672155,-0.10812097625834599,3
187,2024-09-18 22:43:51.855365888,TASK_BEGIN,010,1.0870502789738294,0.6268374799390272,-1.1258575474907333,0.10371533287971484,-0.5293363534628499,-0.18652951463303374,2.5205348470190816,-0.08470183421820193,3
188,2024-09-18 22:43:51.932900864,TASK_BEGIN,010,1.1078930726074345,0.6387300933115783,-1.3279179368612801,0.11652019145420998,-0.5137174677743161,-0.18122268977635553,2.2856837517619084,-0.05228440095771532,3
189,2024-09-18 22:43:52.861235968,TASK_BEGIN,010,1.1354624905497752,0.6460993963144106,-1.5525081947868038,0.13830737129029663,-0.5063065622012387,-0.18144022421309808,2.047080324097681,-0.013134828630862391,3
190,2024-09-18 22:43:52.943453184,TASK_BEGIN,010,1.168810375782828,0.6487465063550648,-1.788438770518591,0.168137945225271,-0.5070021525460006,-0.18713748301050287,1.8151206419673167,0.030008923565283774,3
191,2024-09-18 22:43:53.000381952,TASK_BEGIN,010,1.2065169400012874,0.6467019712702954,-2.023439866885379,0.2043916758606012,-0.5150314403655165,-0.19809700338319122,1.6002390925901704,0.07420472617580301,3
192,2024-09-18 22:43:53.077530880,TASK_BEGIN,010,1.2468223163893462,0.6402143993451997,-2.2445775649088255,0.24484005098556946,-0.5290741133477909,-0.21394014918154064,1.4118122793454226,0.11663588168310891,3
193,2024-09-18 22:43:53.138657024,TASK_BEGIN,010,1.2877803291458498,0.6297266767427682,-2.438886950934467,0.2868182192706834,-0.547496693719933,-0.23413350433067434,1.257169752873914,0.1549106366140168,3
194,2024-09-18 22:43:53.200679936,TASK_BEGIN,010,1.3274243975823579,0.6158407756180778,-2.594079356343036,0.3274573326535684,-0.5686210746393497,-0.25799791119522725,1.141105524727242,0.18724675812294173,3
195,2024-09-18 22:43:53.279117312,TASK_BEGIN,010,1.363929388090425,0.599275308308493,-2.699313996046984,0.36394541097119026,-0.590950762376214,-0.28472941769046406,1.0659390105167845,0.21251054961636842,3
196,2024-09-18 22:43:54.225537024,TASK_BEGIN,010,1.3957549688858875,0.5808201127421152,-2.746065808498975,0.3937967325284552,-0.6133287322136626,-0.31343325355792945,1.0318513448724689,0.2301561722985726,3
197,2024-09-18 22:43:54.285983232,TASK_BEGIN,010,1.4217521321676077,0.5612893426550636,-2.72890209131386,0.4150814924128704,-0.6350369825131826,-0.34316485824024207,1.0371886501844476,0.24014248870984753,3
198,2024-09-18 22:43:54.346393088,TASK_BEGIN,010,1.441213270275932,0.5414726998122363,-2.6458919399719325,0.42656410063373146,-0.6558326194058043,-0.372973727651602,1.0786768365535604,0.24286475119601034,3
199,2024-09-18 22:43:54.429742080,TASK_BEGIN,010,1.4538700380367588,0.5220862940944485,-2.4985766887973506,0.4277424106177328,-0.6758969677658454,-0.4019499730505652,1.1516917445781127,0.23909266732699672,3
200,2024-09-18 22:43:54.485701888,TASK_BEGIN,010,1.4598675430325991,0.503728749806818,-2.2916179030587687,0.4188036055058415,-0.6957003631047657,-0.4292718140320714,1.2506608311645784,0.22990322496170024,3
201,2024-09-18 22:43:54.558883840,TASK_BEGIN,010,1.459722300673341,0.48685159491531443,-2.032251266563183,0.4005067532525542,-0.7158259384243387,-0.4542481325650656,1.369484904932029,0.21661431120649088,3
202,2024-09-18 22:43:54.620470016,TASK_BEGIN,010,1.4542325578234623,0.47175189328913936,-1.7296303275688958,0.3740091303565068,-0.7368103554451451,-0.47634906290750123,1.5017908346729802,0.20072863828018842,3
203,2024-09-18 22:43:55.572243968,TASK_BEGIN,010,1.4443287667602023,0.4585863456754123,-1.3941672945007892,0.3406773907266889,-0.7590491054087517,-0.49521900131103375,1.640998459502763,0.1838758006274987,3
204,2024-09-18 22:43:55.641423104,TASK_BEGIN,010,1.4309179100821907,0.4473956981654706,-1.0370236870884983,0.3019387593296646,-0.7827853874904291,-0.5106699278564889,1.7804420287847382,0.16772131840569351,3
205,2024-09-18 22:43:55.712610816,TASK_BEGIN,010,1.4147932041669173,0.4381276019861775,-0.66978992606326,0.2592010956678133,-0.8081594536432519,-0.522659519255258,1.9137696236901633,0.15383079352873064,3
206,2024-09-18 22:43:55.773981952,TASK_BEGIN,010,1.3966213098756717,0.4306557208439703,-0.3041861578289171,0.21382068087699924,-0.835265529738158,-0.5312647284210393,2.0355964895676353,0.14351113249333045,3
207,2024-09-18 22:43:55.836029952,TASK_BEGIN,010,1.3769654412961132,0.42480063548800784,0.04836142180664982,0.1670844978652829,-0.864176897122702,-0.5366593022139187,2.1422102305186796,0.13765768144522886,3
208,2024-09-18 22:43:55.916016128,TASK_BEGIN,010,1.3563230909138186,0.4203539050072047,0.37718947047137913,0.12020602809878074,-0.8949402289894742,-0.5390948349489293,2.2320538976128317,0.13663419873470525,3
209,2024-09-18 22:43:55.983800832,TASK_BEGIN,010,1.335197177495055,0.41709858071651934,0.6727332697400661,0.07435809437507228,-0.9275515089515519,-0.5388826963421174,2.3057851317562554,0.14021786914768347,3
210,2024-09-18 22:43:56.900813056,TASK_BEGIN,010,1.3141943542530339,0.4148227785940933,0.9266531339430982,0.030749992244265868,-0.9619013687368828,-0.5363800798130248,2.3659748613611224,0.1476252424451993,3
211,2024-09-18 22:43:56.963298048,TASK_BEGIN,010,1.29408996056431,0.41333166147471945,1.1318542072683115,-0.009294044877997464,-0.9976742561828524,-0.531984999494265,2.4166499646195025,0.1576110304786754,3
212,2024-09-18 22:43:57.036936960,TASK_BEGIN,010,1.2758108170028222,0.412460491106603,1.2826228762437113,-0.04432965400972634,-1.0342292352900693,-0.5261380717946372,2.4627378743836945,0.16863980975832893,3
213,2024-09-18 22:43:57.102627072,TASK_BEGIN,010,1.2603552390011838,0.41208225692905576,1.3749911332509257,-0.07289502689070526,-1.0705338159435105,-0.5193211780976141,2.509394941823665,0.17912796651156868,3
214,2024-09-18 22:43:57.166237184,TASK_BEGIN,010,1.2487045812329802,0.41210359248931117,1.407138083475353,-0.09367487811758075,-1.1052084774869566,-0.5120437185349522,2.5613383081991183,0.1876980434944788,3
215,2024-09-18 22:43:57.226653952,TASK_BEGIN,010,1.2417517860782519,0.4124511196868595,1.3795118847070618,-0.10564081822111265,-1.1366761101188145,-0.50481662207033,2.6223694692171886,0.19335614219798145,3
216,2024-09-18 22:43:57.304763904,TASK_BEGIN,010,1.2402338739953034,0.41305575418227936,1.2946086216441697,-0.10812789880928997,-1.163360271620525,-0.4981223686898057,2.6951908521709953,0.195554168024892,3
217,2024-09-18 22:43:58.247004160,TASK_BEGIN,010,1.244663088899956,0.4138403974388974,1.1566665201856237,-0.10088273093343238,-1.1838727128940336,-0.49238912721030886,2.781487433254848,0.19416533095785196,3
218,2024-09-18 22:43:58.309488896,TASK_BEGIN,010,1.2552849812106337,0.4147120670510433,0.9714864839954519,-0.08412099798846667,-1.1971537463348723,-0.4879719339700897,2.8821107404779394,0.1894156421953075,3
219,2024-09-18 22:43:58.371974144,TASK_BEGIN,010,1.2720837096406914,0.4155595102586891,0.7462242520354642,-0.058549955770196796,-1.2025515203187507,-0.4851394688537858,2.997187732166248,0.18179263035217685,3
220,2024-09-18 22:43:58.454194176,TASK_BEGIN,010,1.2948103239863167,0.41625865736353196,0.48885897907882697,-0.02527808061948805,-1.1998380832178586,-0.48406573739245706,3.1261220590834666,0.17193999779496452,3
221,2024-09-18 22:43:58.522497792,TASK_BEGIN,010,1.3230009710944903,0.4166850347081302,0.2073906695541017,0.014377128377593829,-1.189171770964779,-0.4848287147352941,3.2675524887226737,0.1605541141192271,3
222,2024-09-18 22:43:58.590329856,TASK_BEGIN,010,1.3559858603590262,0.41672889525563267,-0.09082058353043612,0.05908167379446285,-1.1710375891616696,-0.4874155836834908,3.419319934096143,0.14830146256175236,3
223,2024-09-18 22:43:58.647597824,TASK_BEGIN,010,1.3929070880463712,0.41631105857083855,-0.39927472119674323,0.1075955556163309,-1.146201099534209,-0.49173067900177514,3.578457085856573,0.13577310051339259,3
224,2024-09-18 22:43:59.585752832,TASK_BEGIN,010,1.432752485145294,0.41539951893926946,-0.7121773793045184,0.15878683495600757,-1.1156765667804838,-0.4976048731974324,3.7411826456729544,0.12348793119076128,3
225,2024-09-18 22:43:59.665080064,TASK_BEGIN,010,1.4744055850834175,0.4140228136313175,-1.0241212459853957,0.21156903340829114,-1.0806858945630597,-0.5048074956981387,3.902927517100009,0.11192606923800284,3
226,2024-09-18 22:43:59.736608768,TASK_BEGIN,010,1.5167092516035687,0.41227315474456094,-1.329714316011122,0.2647937416556035,-1.0426021491122588,-0.513058586352066,4.058511616896206,0.1015382890746931,3
227,2024-09-18 22:43:59.804454144,TASK_BEGIN,010,1.5585336704836108,0.41029685013830486,-1.6231596183633554,0.3171336659451269,-1.002883591210394,-0.522039357575639,4.2025405480485825,0.09270223646728962,3
228,2024-09-18 22:43:59.869288704,TASK_BEGIN,010,1.5988373137175336,0.40827593110699084,-1.8977730210529904,0.36697916344429676,-0.9629936145251754,-0.5314051951774766,4.329908135903737,0.08566234993365272,3
229,2024-09-18 22:43:59.930888960,TASK_BEGIN,010,1.6367103603778468,0.4064079634302808,-2.14556631554893,0.4123799283990176,-0.9243078928957957,-0.5408068097991429,4.436206989966031,0.08051303511973092,3
230,2024-09-18 22:43:59.993735168,TASK_BEGIN,010,1.671392606358717,0.40488959409220543,-2.357254495577483,0.4510962081166877,-0.8880305927019222,-0.5499176797264285,4.517960180718212,0.07723928401671505,3
231,2024-09-18 22:44:00.920238080,TASK_BEGIN,010,1.7022688328036928,0.40390333876726214,-2.523007363890069,0.4808016195675198,-0.8551447864857116,-0.558459541103981,4.572743168314867,0.07577314490964852,3
232,2024-09-18 22:44:00.994430208,TASK_BEGIN,010,1.7288534774656916,0.40360267526733423,-2.6338645352730534,0.4993931681201576,-0.8264062048857496,-0.5662187699887227,4.599323256091391,0.0760119787358268,3
233,2024-09-18 22:44:01.052471040,TASK_BEGIN,010,1.7507720077760183,0.40409396455324414,-2.6833614021444943,0.5053140594370515,-0.8023637071726792,-0.5730530262367509,4.597858521288106,0.07778147864845314,3
234,2024-09-18 22:44:01.130099200,TASK_BEGIN,010,1.767742741015365,0.4054203096191411,-2.6688476104325622,0.49781305994602043,-0.7833706693625081,-0.5788933166267415,4.570026316274091,0.0807868312052515,3
235,2024-09-18 22:44:01.193181184,TASK_BEGIN,010,1.7795700443129785,0.4075534251653071,-2.592141421847294,0.4770853719561373,-0.7695613744714855,-0.5837466469637724,4.518921732574508,0.08461712726939409,3
236,2024-09-18 22:44:01.256002816,TASK_BEGIN,010,1.7861543905098842,0.41039537676292287,-2.459376331910972,0.4442522102805842,-0.7608006885132691,-0.5876997861147842,4.448761258087447,0.08881384001697336,3
237,2024-09-18 22:44:01.318031104,TASK_BEGIN,010,1.7875009329727785,0.41378863687616385,-2.280092455857319,0.4011837750698299,-0.7566458724835536,-0.5909194449280938,4.364553325631672,0.09295718956188204,3
238,2024-09-18 22:44:02.276637952,TASK_BEGIN,010,1.7837081512617907,0.41753081388248187,-2.0658646815861634,0.3502412057305407,-0.7563576050211706,-0.5936432163473263,4.271790973309244,0.09673597227720615,3
239,2024-09-18 22:44:02.344517120,TASK_BEGIN,010,1.7749522487073126,0.42138867580961686,-1.828953777891257,0.2940377056804012,-0.7589579956681315,-0.5961618475105541,4.176144104440786,0.09999047880263885,3
240,2024-09-18 22:44:02.412368128,TASK_BEGIN,010,1.7615003610625424,0.42510768208901917,-1.5813514943604123,0.2352638976564521,-0.7633045087109807,-0.598798773958963,4.083228637645238,0.10270601779096422,3
241,2024-09-18 22:44:02.480236032,TASK_BEGIN,010,1.7437603425092552,0.42841738154755665,-1.33425442592441,0.176550558718791,-0.768172829483279,-0.6018884079259729,3.998575272089229,0.10494035443170646,3
242,2024-09-18 22:44:02.547968000,TASK_BEGIN,010,1.7223421106013947,0.4310350086952791,-1.0978320230578973,0.12033809864828815,-0.7723683202512797,-0.6057492717208566,3.9277783892264155,0.10670966201080147,3
243,2024-09-18 22:44:02.613235200,TASK_BEGIN,010,1.6980945008484394,0.43267015926714353,-0.8812159579142764,0.06877515143869768,-0.7748587365358671,-0.6106523644984151,3.8766185026069535,0.10788632692634136,3
244,2024-09-18 22:44:02.675257856,TASK_BEGIN,010,1.6720887563844669,0.43303497038199956,-0.6927168865138262,0.023698252062305816,-0.7748912592981605,-0.6167906684647506,3.8508788649574437,0.10816708129272619,3
245,2024-09-18 22:44:03.613957120,TASK_BEGIN,010,1.6455420572297768,0.43186379866269586,-0.540180614400354,-0.013302918893296186,-0.7720693275857863,-0.6242540346680522,3.855703934389424,0.10715068312382849,3
246,2024-09-18 22:44:03.692062976,TASK_BEGIN,010,1.6196981680445641,0.42894218630248565,-0.4311396085160856,-0.040819644852963466,-0.7663774213059075,-0.6330126743752794,3.894633283293949,0.10450514851616163,3
247,2024-09-18 22:44:03.754115072,TASK_BEGIN,010,1.5956879532273782,0.4241395346859286,-0.3723852448515197,-0.057659472897595994,-0.7581431841272179,-0.6429153294672795,3.968698777167916,0.10014020848402877,3
248,2024-09-18 22:44:03.815633920,TASK_BEGIN,010,1.5743902080623216,0.41743683377524615,-0.36898344223135937,-0.06299408030666108,-0.7479499743672212,-0.6537045068193831,4.075988272315864,0.09429242412480987,3
249,2024-09-18 22:44:03.897965824,TASK_BEGIN,010,1.556310904874482,0.40894328418740733,-0.42314759630043547,-0.056543849083474075,-0.7365431496968184,-0.6650397689699774,4.211814881087522,0.08748653003105246,3
250,2024-09-18 22:44:03.965567232,TASK_BEGIN,010,1.5414969198409145,0.39890063055884883,-0.533435053121033,-0.0387141353801981,-0.7247652921345572,-0.6765156700210398,4.369341931446388,0.08040152111478772,3
251,2024-09-18 22:44:04.032742912,TASK_BEGIN,010,1.5295091643790193,0.387674812462283,-0.6946008787797859,-0.010626056700129513,-0.7135155275473766,-0.6876698591169698,4.54044029264084,0.07369126514776779,3
252,2024-09-18 22:44:04.976761856,TASK_BEGIN,010,1.5194777234487398,0.375734601246749,-0.8982190854530354,0.025980725393291645,-0.7037042830633853,-0.6979870656323263,4.716564705007162,0.06780765925214102,3
253,2024-09-18 22:44:05.030540032,TASK_BEGIN,010,1.5102253736370976,0.36362211512057774,-1.1338476117022234,0.06894287622132685,-0.6961861617654043,-0.7069054524499487,4.889443777624332,0.06287792359588888,3
254,2024-09-18 22:44:05.112487936,TASK_BEGIN,010,1.5004123476288236,0.35192491839385226,-1.390287635718915,0.1158940520791909,-0.6916732074370566,-0.71382668299229,5.051541520753677,0.05866698032026847,3
255,2024-09-18 22:44:05.170512896,TASK_BEGIN,010,1.4886643760030274,0.34125643976593045,-1.6565932328081021,0.16445423606386844,-0.6906310013082921,-0.7181287539652057,5.19641781401978,0.0546144085061014,3
256,2024-09-18 22:44:05.247691008,TASK_BEGIN,010,1.4736884464559818,0.3322421243958044,-1.922773396300174,0.21237931555251557,-0.6931541493156913,-0.7191825377161544,5.319031583778589,0.04992045136798022,3
257,2024-09-18 22:44:05.310635008,TASK_BEGIN,010,1.4544101811474226,0.32550221528228407,-2.1802837655382565,0.2576876723692675,-0.6988448662143105,-0.7163721682965207,5.415875179442468,0.043659222248010825,3
258,2024-09-18 22:44:05.372675072,TASK_BEGIN,010,1.430142717125525,0.32162636006187606,-2.422384865867488,0.2987743898007533,-0.7067609281154806,-0.7091142099541758,5.484844896410204,0.03489297232984146,3
259,2024-09-18 22:44:06.326847232,TASK_BEGIN,010,1.4007438075088163,0.32114397968879627,-2.6443623588299054,0.33450989861143127,-0.7154864059231145,-0.6968695774558795,5.524911012405123,0.02276885816072328,3
260,2024-09-18 22:44:06.381735168,TASK_BEGIN,010,1.3666982699231802,0.3244962005387567,-2.843480263946035,0.36429337662681754,-0.7233105391054805,-0.6791497112097914,5.535830723441427,0.006599280459718118,3
261,2024-09-18 22:44:06.459841024,TASK_BEGIN,010,1.3290911108032164,0.3320122474647108,-3.0185199626096937,0.38801045169665843,-0.7284527746442829,-0.6555266895066135,5.518145164239567,-0.014074055530371414,3
262,2024-09-18 22:44:06.530361856,TASK_BEGIN,010,1.289480230212894,0.3438910305677705,-3.169005953096749,0.4058879825854691,-0.7292715703317837,-0.6256580278052651,5.473396792866218,-0.039433694616150816,3
263,2024-09-18 22:44:06.598230016,TASK_BEGIN,010,1.2497081532617778,0.36018658335732084,-3.2944349539012676,0.4183135372959468,-0.7244122442206492,-0.5893313199741744,5.404222813856848,-0.06933924817602811,3
264,2024-09-18 22:44:06.666013952,TASK_BEGIN,010,1.2117019866363592,0.38079494186863316,-3.393720565935273,0.4256917828603268,-0.7128838983458186,-0.5465237787571422,5.314131488841049,-0.10327357030885578,3
265,2024-09-18 22:44:06.733856000,TASK_BEGIN,010,1.1773041041821308,0.4054426662323501,-3.464875235333232,0.42835072602070356,-0.6941042946261615,-0.4974600329577452,5.207127470885864,-0.14032293210940838,3
266,2024-09-18 22:44:07.650986752,TASK_BEGIN,010,1.1481552843139613,0.43368227518141594,-3.50490423510964,0.4264767039154879,-0.6679659625650871,-0.44264616743148355,5.087409092863572,-0.17922515228986144,3
267,2024-09-18 22:44:07.718880768,TASK_BEGIN,010,1.1256284451874647,0.46490131707713717,-3.5099321737116775,0.4200725746833764,-0.6349342488646833,-0.38286515757275263,4.959151166045429,-0.21846357509304393,3
268,2024-09-18 22:44:07.786720000,TASK_BEGIN,010,1.1108013959749985,0.4983468496684608,-3.4756469480477596,0.4089581440965548,-0.5961309578225761,-0.31913375740536504,4.8263080267227965,-0.256377543096786,3
269,2024-09-18 22:44:07.854022912,TASK_BEGIN,010,1.1044550889099658,0.5331624752105133,-3.3980716082741806,0.39282455463723576,-0.553332492691057,-0.252632023735734,4.692470533346607,-0.29129810331593564,3
270,2024-09-18 22:44:07.916672000,TASK_BEGIN,010,1.1070782104281351,0.5684355887310998,-3.2743947596730103,0.3713154526349679,-0.508832804225864,-0.18461964809215253,4.560814513007654,-0.32170725684496815,3
271,2024-09-18 22:44:07.979156992,TASK_BEGIN,010,1.1188564820569278,0.6032531646457545,-3.103463201347338,0.3440940441001123,-0.4651789637489173,-0.11635346519968803,4.434065884684358,-0.3463744032641756,3
272,2024-09-18 22:44:08.056859136,TASK_BEGIN,010,1.1396326673040695,0.6367609927131901,-2.885834783151726,0.3108974534380071,-0.4248464177235136,-0.049019723610296995,4.31441142076088,-0.3644349379033359,3
273,2024-09-18 22:44:09.000948992,TASK_BEGIN,010,1.1688363752742166,0.668217692051201,-2.623672795857736,0.27162164023846336,-0.38994059190221786,0.01631177407546586,4.203404378247941,-0.3754222390865854,3
274,2024-09-18 22:44:09.068822016,TASK_BEGIN,010,1.2054035309718731,0.6970348137533373,-2.3208241386191744,0.22646496151299872,-0.3619890340609134,0.0787148847329846,4.101972232977894,-0.37927724956493497,3
275,2024-09-18 22:44:09.136660224,TASK_BEGIN,010,1.2477381979357114,0.7227950970416099,-1.9831791096515565,0.17610262502391685,-0.34185537935295457,0.13742344387469935,4.010583524666945,-0.3763511505994896,3
276,2024-09-18 22:44:09.204476160,TASK_BEGIN,010,1.2937831488907547,0.7452429877688568,-1.6191250176195608,0.12182449647692499,-0.32977488337125405,0.1918397003758909,3.9295140999059748,-0.36740274836374287,3
277,2024-09-18 22:44:09.272292864,TASK_BEGIN,010,1.3412207840598303,0.7642504305631269,-1.2398234887305315,0.0655817589053693,-0.3254704582670832,0.24153061026364378,3.8590724799331277,-0.35357135005996315,3
278,2024-09-18 22:44:09.340113920,TASK_BEGIN,010,1.3877472736870522,0.779772759631631,-0.8591668482709403,0.009927047547487038,-0.32828084497931187,0.2862070748075294,3.799726523479556,-0.33631407572610633,3
279,2024-09-18 22:44:09.407639040,TASK_BEGIN,010,1.4313218745163285,0.7918123809424567,-0.49335495743581265,-0.0421503142181424,-0.3372608048892499,0.32569002763331945,3.7521906705461254,-0.3173282002721126,3
280,2024-09-18 22:44:10.348836864,TASK_BEGIN,010,1.4703235017985905,0.8003994266370432,-0.15999856490251202,-0.08748731442775738,-0.3512638311641374,0.3598755004324298,3.7174349593494775,-0.2984626465872678,3
281,2024-09-18 22:44:10.412843008,TASK_BEGIN,010,1.5036075678836416,0.8055881583174553,0.12329146962428586,-0.12307713440639624,-0.36902113725429203,0.3887074486051283,3.696434175948175,-0.2815756144800095,3
282,2024-09-18 22:44:10.473224192,TASK_BEGIN,010,1.53049451122409,0.8074633576433531,0.3406308137123297,-0.1464063892349571,-0.3892149403098883,0.41216022314271533,3.6896664942845776,-0.26832118442812836,3
283,2024-09-18 22:44:10.554563840,TASK_BEGIN,010,1.5507261958460117,0.8061520751494282,0.47946786848549117,-0.15573465909716644,-0.4105643784661196,0.4302344756040472,3.6967069287718046,-0.2599302666006159,3
284,2024-09-18 22:44:10.606834944,TASK_BEGIN,010,1.5644062128702128,0.8018393132969983,0.531640940324928,-0.150263520624248,-0.4319498512406645,0.442973274456859,3.716198688458824,-0.2570646808995787,3
285,2024-09-18 22:44:10.690284032,TASK_BEGIN,010,1.5719205537463572,0.7947858798799396,0.4937519297053066,-0.13016396992570722,-0.45255333721669544,0.45049668287767347,3.7460843841197624,-0.2597572982991271,3
286,2024-09-18 22:44:10.757594880,TASK_BEGIN,010,1.5738468867239943,0.7853411079717438,0.3670209815258313,-0.09646558890870284,-0.47195649901041603,0.45304025926691743,3.783810851254589,-0.2674190557463595,3
287,2024-09-18 22:44:11.676139776,TASK_BEGIN,010,1.5708782224169195,0.7739413513009278,0.15683495991618873,-0.05085706616288292,-0.4901675955381568,0.4509818168643135,3.826414363962271,-0.27892003592848724,3
288,2024-09-18 22:44:11.732454144,TASK_BEGIN,010,1.563774497595828,0.7610918911085098,-0.12784763257228057,0.004519396140974156,-0.5075864407897773,0.44484935164948447,3.8705472181354725,-0.2927467630437522,3
289,2024-09-18 22:44:11.811810048,TASK_BEGIN,010,1.5533397098028778,0.7473358167300093,-0.4750737234368548,0.06721864375669198,-0.5249101658619197,0.4353077201089526,3.9124639663623397,-0.3071918602365067,3
290,2024-09-18 22:44:11.874066176,TASK_BEGIN,010,1.540419384994362,0.7332143942190538,-0.8704140318395273,0.1345961161688968,-0.5429706702017716,0.42312269977041744,3.947988018508092,-0.32053354051844263,3
291,2024-09-18 22:44:11.935283968,TASK_BEGIN,010,1.5259027218839936,0.7192261320639725,-1.2976259458795598,0.2039176342438682,-0.5625256455589731,0.4091078368383594,3.972574617687626,-0.3312085988385455,3
292,2024-09-18 22:44:12.015286016,TASK_BEGIN,010,1.510706582928778,0.705794785653144,-1.739730971380612,0.2725118486613485,-0.5840662827658233,0.3940688051203876,3.9815419904002445,-0.3379857172682014,3
293,2024-09-18 22:44:12.074495232,TASK_BEGIN,010,1.4957327139883698,0.6932528694526038,-2.180512936736708,0.3379594942923917,-0.6076989284830854,0.3787588761463501,3.970372446053878,-0.34010001061873973,3
294,2024-09-18 22:44:13.017762048,TASK_BEGIN,010,1.4818070195461372,0.6818402839169091,-2.6060374091943848,0.39827655398614287,-0.6331113653267966,0.3638466367244389,3.93499706836171,-0.3373001496966897,3
295,2024-09-18 22:44:13.079844096,TASK_BEGIN,010,1.4696170952891263,0.6717141948220616,-3.0056285008236503,0.45202985881401586,-0.6595975163056499,0.34988904330152926,3.872212110769165,-0.3298230646999005,3
296,2024-09-18 22:44:13.157083904,TASK_BEGIN,010,1.459665413040115,0.6629655598502149,-3.372055458135011,0.4983559405702342,-0.6861130660797141,0.33730722529693663,3.780393483086331,-0.318357371691036,3
297,2024-09-18 22:44:13.229577216,TASK_BEGIN,010,1.4522514477178101,0.6556369920494827,-3.70119521575131,0.5369211378886701,-0.7113566363348766,0.3263687649034725,3.660304112221551,-0.3040092952098656,3
298,2024-09-18 22:44:13.297436928,TASK_BEGIN,010,1.44749160562782,0.64973650707814,-3.9915401845668903,0.5678713697959568,-0.733885777485711,0.3171800396666769,3.515534378565798,-0.2882232236554369,3
299,2024-09-18 22:44:13.361340160,TASK_BEGIN,010,1.4453808256060838,0.6452439173989997,-4.243563548998081,0.5917541604031612,-0.7522630853658172,0.3096894871208579,3.352281635411272,-0.27261970500705535,3
300,2024-09-18 22:44:13.420856832,TASK_BEGIN,010,1.4458824172514826,0.6421116582655679,-4.458808595232923,0.6093699846768529,-0.7652047605446933,0.3037026600203206,3.1784881630227977,-0.25876435414596255,3
301,2024-09-18 22:44:14.375513088,TASK_BEGIN,010,1.449007503054313,0.640266045549549,-4.6388765964590375,0.621580782491829,-0.7717034933027702,0.29891081949205484,3.0026074698551697,-0.24791856257939665,3
302,2024-09-18 22:44:14.441824000,TASK_BEGIN,010,1.454837499805402,0.6396138425220373,-4.784666174263229,0.6291569225054017,-0.7711205336435704,0.2949328547959885,2.8324171218818823,-0.24083751858667005,3
303,2024-09-18 22:44:14.500556800,TASK_BEGIN,010,1.463470918733428,0.6400536134452871,-4.896002631163516,0.6326992382999761,-0.7632597035243182,0.29136653444447835,2.6742785392810147,-0.2376794457809224,3
304,2024-09-18 22:44:14.571774976,TASK_BEGIN,010,1.4749278455188233,0.6414858071426364,-4.9716244821453355,0.6326118556584153,-0.7484242381449061,0.28784169003216753,2.533046576351842,-0.23806864831333882,3
305,2024-09-18 22:44:14.647660800,TASK_BEGIN,010,1.4890732608338346,0.6438141420492397,-5.00951212554579,0.6291010980658526,-0.7274383607803567,0.284066462394122,2.4125355244924465,-0.24130742501861374,3
306,2024-09-18 22:44:14.711054080,TASK_BEGIN,010,1.5055886026227672,0.6469374057816523,-5.007473507679296,0.6221998270396403,-0.701620436457525,0.2798587369590951,2.3162416439016384,-0.24667482932501858,3
307,2024-09-18 22:44:14.773285888,TASK_BEGIN,010,1.523974840405017,0.6507397544753711,-4.963769069454563,0.6118170301604015,-0.6727029450443712,0.2751564198583056,2.248009093962747,-0.2537099892207508,3
308,2024-09-18 22:44:15.716960000,TASK_BEGIN,010,1.543573025631596,0.6550875733867675,-4.877544236331057,0.5977914212329185,-0.6426895889446377,0.27000255621088454,2.2123561104162164,-0.2623745619849422,3
309,2024-09-18 22:44:15.778956800,TASK_BEGIN,010,1.563609998960292,0.6598335472204949,-4.748946306737933,0.5799241575893156,-0.6136476075736371,0.26450749398512957,2.214200549984936,-0.273037957775962,3
310,2024-09-18 22:44:15.862088960,TASK_BEGIN,010,1.583258719866174,0.6648255944851913,-4.579016129299197,0.558005939214827,-0.5874641509742561,0.25879961147742403,2.257945385064127,-0.28631212090984187,3
311,2024-09-18 22:44:15.917217024,TASK_BEGIN,010,1.6016781829857338,0.6699201540958191,-4.369633370554219,0.5318848462339312,-0.5656248300680741,0.25298255863157154,2.3462793141431826,-0.3028259147543701,3
312,2024-09-18 22:44:15.994843904,TASK_BEGIN,010,1.618024648263305,0.6749972039694881,-4.123710911160134,0.5015824530478858,-0.5490773878928876,0.24711393238732246,2.4792315068056308,-0.3230291565727088,3
313,2024-09-18 22:44:16.065496832,TASK_BEGIN,010,1.631466170867814,0.6799701058393675,-3.8455162584270832,0.4674017268835063,-0.5382129581925982,0.24120788538842286,2.6538213059956957,-0.34706707649769364,3
314,2024-09-18 22:44:16.121344000,TASK_BEGIN,010,1.6412261673390367,0.6847853594770151,-3.540809640816888,0.4299602851572123,-0.5329470772866313,0.23525246356136298,2.864317916561898,-0.37473139605476086,3
315,2024-09-18 22:44:17.065001984,TASK_BEGIN,010,1.646651267947429,0.689413383615521,-3.216614501521631,0.39012709719672556,-0.5328552042650863,0.22923098414563334,3.1029214404539305,-0.4054906732808695,3
316,2024-09-18 22:44:17.142643968,TASK_BEGIN,010,1.6472866957611916,0.693833901074512,-2.8806876178658674,0.3488921391966438,-0.537318495758428,0.22314093407885727,3.3606012682428235,-0.43857562329380406,3
317,2024-09-18 22:44:17.205128960,TASK_BEGIN,010,1.6429497381373985,0.6980179455416429,-2.5408910265510705,0.3072214394569585,-0.545636427259439,0.2170047980204548,3.6278331387700358,-0.47305427664535993,3
318,2024-09-18 22:44:17.267628800,TASK_BEGIN,010,1.6338057543264766,0.7019067402067823,-2.2046101039762807,0.265930395630584,-0.557075324600866,0.21086822484903134,3.895105145370465,-0.5078560829154631,3
319,2024-09-18 22:44:17.347780096,TASK_BEGIN,010,1.6204465578761718,0.7053906103547698,-1.8782599659891648,0.22558014057430478,-0.5708600441646633,0.20478691777851227,4.153267725941965,-0.541777017963744,3
320,2024-09-18 22:44:17.415645952,TASK_BEGIN,010,1.6039324521545604,0.7082987354234435,-1.5669612469066836,0.18641547262754274,-0.5861438655512755,0.1988086994249974,4.393850772123552,-0.5735188113575941,3
321,2024-09-18 22:44:17.468784128,TASK_BEGIN,010,1.5857347866849427,0.7104113507300059,-1.2745519368479676,0.14839043885688338,-0.6019879621392727,0.1929570420236451,4.609339438237619,-0.60177038672225,3
322,2024-09-18 22:44:18.392459008,TASK_BEGIN,010,1.5675564036261052,0.7114942713073296,-1.004026779420716,0.11130444990980383,-0.617368889224985,0.18722061211889784,4.793344930926039,-0.6253043245520448,3
323,2024-09-18 22:44:18.454945024,TASK_BEGIN,010,1.551075304106461,0.7113443863387376,-0.7582482421111202,0.07500808353032368,-0.6312261875072707,0.18155217653970945,4.940686268123175,-0.6430695201508155,3
324,2024-09-18 22:44:18.536303872,TASK_BEGIN,010,1.537681435366641,0.709834883037484,-0.5405309973401671,0.0395901917177829,-0.6425569992085634,0.17587851417741898,5.047477353826667,-0.6542810971605204,3
325,2024-09-18 22:44:18.601435136,TASK_BEGIN,010,1.5282569670517394,0.706954049952422,-0.3547240868250428,0.005462756056161687,-0.6505509141740812,0.17012043366656213,5.111329753189614,-0.6585104933931321,3
326,2024-09-18 22:44:18.671996160,TASK_BEGIN,010,1.5230370924147159,0.7028316468467637,-0.20475828373868157,-0.02667947733333648,-0.6547370075520005,0.16421885754964877,5.131702247003009,-0.6557665422990051,3
327,2024-09-18 22:44:18.725019136,TASK_BEGIN,010,1.5215874740318869,0.6977435767711756,-0.09396288982555878,-0.05597751591001437,-0.6551032943356876,0.15816077424173441,5.110275159292071,-0.6465518974082256,3
328,2024-09-18 22:44:18.802373120,TASK_BEGIN,010,1.5229110431184671,0.6920881302670493,-0.024495978003501732,-0.08153587129272583,-0.6521569450594544,0.15199914199795794,5.0511475850368965,-0.6318828814976708,3
329,2024-09-18 22:44:19.741836288,TASK_BEGIN,010,1.5256527568262,0.6863371147343483,0.002940052843048403,-0.10251791639725928,-0.646908238837399,0.14586165108449306,4.960741413031279,-0.6132573545203718,3
330,2024-09-18 22:44:19.804322048,TASK_BEGIN,010,1.5283397549015159,0.6809739637895942,-0.010888207791526721,-0.11820325924271746,-0.6407751192343198,0.1399446354960637,4.847451655278044,-0.5925436765892904,3
331,2024-09-18 22:44:19.881516032,TASK_BEGIN,010,1.5295937493658809,0.6764322716414857,-0.0638826110812615,-0.1280152325403954,-0.6354272679922278,0.1344933432928385,4.721135678960035,-0.5717791975506596,3
332,2024-09-18 22:44:19.954211840,TASK_BEGIN,010,1.528280755413309,0.67304495842897,-0.1527739679096828,-0.13152679398343323,-0.6326088578996852,0.12977491529539198,4.592401216061025,-0.5529094334094582,3
333,2024-09-18 22:44:20.022074880,TASK_BEGIN,010,1.5236001078906083,0.6710105307505441,-0.2732425210268213,-0.12846323262893158,-0.6339766896325865,0.1260501419325621,4.471520327780062,-0.5375193695618972,3
334,2024-09-18 22:44:20.083660032,TASK_BEGIN,010,1.5151315431795385,0.6703793546389387,-0.4200241296994552,-0.11872122856373737,-0.6409670040501588,0.12354575619378169,4.366973338005108,-0.5265997316318013,3
335,2024-09-18 22:44:20.145211904,TASK_BEGIN,010,1.5028539571633615,0.6710592934135853,-0.5870778730317869,-0.10239805247398238,-0.6546791588232378,0.12242568902253571,4.283987015977062,-0.5203844058715349,3
336,2024-09-18 22:44:21.100759040,TASK_BEGIN,010,1.4871410290348834,0.6728364275004816,-0.7678448950569531,-0.07981232432367998,-0.6757606806404515,0.12276073313355279,4.223557891295272,-0.5182961596169872,3
337,2024-09-18 22:44:21.168669952,TASK_BEGIN,010,1.4687332255132903,0.6754037550009572,-0.9555471475134203,-0.05151734612028006,-0.7043052862676312,0.12450128338009271,4.182285775647399,-0.519032178395747,3
338,2024-09-18 22:44:21.222681856,TASK_BEGIN,010,1.4486815438898188,0.6783906700823974,-1.1435010318579037,-0.018312437665784942,-0.7398045875689081,0.1274627005944543,4.1530700538540755,-0.5207841871501595,3
339,2024-09-18 22:44:21.300332032,TASK_BEGIN,010,1.4282620523582212,0.6813887924856155,-1.3254603342742837,0.01875701501644731,-0.7811802693361846,0.13132993677758115,4.126469429288772,-0.5215325241643299,3
340,2024-09-18 22:44:21.362358272,TASK_BEGIN,010,1.4088723347054697,0.6839731543207803,-1.4958676660624843,0.05840815707520521,-0.8268713295811232,0.1356768353770327,4.092373552839825,-0.5193322851957106,3
341,2024-09-18 22:44:21.424843008,TASK_BEGIN,010,1.3919240876780477,0.6857202584723006,-1.6498288492225892,0.0991218094013195,-0.874925901427389,0.13998985545336198,4.041606785223937,-0.5125340932667007,3
342,2024-09-18 22:44:21.502948864,TASK_BEGIN,010,1.3787273761487004,0.686226516812987,-1.7828710182494443,0.1391437924258694,-0.9230871916752217,0.14369460294006411,3.9672063363374837,-0.4999273673959053,3
343,2024-09-18 22:44:22.440700928,TASK_BEGIN,010,1.3703472446524392,0.6851311036693385,-1.8907794826629167,0.17651575332835623,-0.9689175425967588,0.14619302569894382,3.8653000827899624,-0.48082790876310827,3
344,2024-09-18 22:44:22.518758912,TASK_BEGIN,010,1.3674353538278323,0.6821445882219812,-1.969725544334264,0.2091605934783007,-1.009999967521365,0.14691496961256104,3.735554317717392,-0.4551251199876841,3
345,2024-09-18 22:44:22.582395904,TASK_BEGIN,010,1.3700765255953857,0.6770809613964804,-2.016621897635225,0.23503306352938777,-1.0441953290508679,0.1453755243043122,3.5811435685897406,-0.42328088156155097,3
346,2024-09-18 22:44:22.654499072,TASK_BEGIN,010,1.3777039538215057,0.6698871732554429,-2.029456930419963,0.2523200864316452,-1.069890443350196,0.1412246241248005,3.4082923103773424,-0.38626805181902646,3
347,2024-09-18 22:44:22.720611072,TASK_BEGIN,010,1.3891244959014784,0.6606609127616667,-2.007452768170283,0.2596511005354164,-1.0861893551832338,0.13428272491402016,3.2255344228775336,-0.34544586847121783,3
348,2024-09-18 22:44:22.783096832,TASK_BEGIN,010,1.4026601318807883,0.6496494890597377,-1.951131711045288,0.2562781277012768,-1.093030232903186,0.12456441860826344,3.0428199415125334,-0.3023929421307137,3
349,2024-09-18 22:44:22.845957888,TASK_BEGIN,010,1.4163688030155195,0.6372301409770391,-1.8624608454058487,0.24219903073594676,-1.091207708470927,0.11228953373267345,2.8705608117902903,-0.25874911674647055,3
350,2024-09-18 22:44:23.773406976,TASK_BEGIN,010,1.4282962888357238,0.6238748238691794,-1.7451323883867271,0.21821039202696224,-1.0822758406999025,0.09787499426027486,2.7186787659487903,-0.21610998951615484,3
351,2024-09-18 22:44:23.844796928,TASK_BEGIN,010,1.4367206861949422,0.610101887142325,-1.6048934216005073,0.18588514476656634,-1.068337758295972,0.08190226599383653,2.5956751994517697,-0.17596932279866018,3
352,2024-09-18 22:44:23.912656128,TASK_BEGIN,010,1.4403404068182513,0.5964224134492582,-1.44975683249323,0.1474755515298423,-1.0517712219651039,0.0650639741749307,2.5077545935166468,-0.1396725182690663,3
353,2024-09-18 22:44:23.980489984,TASK_BEGIN,010,1.438348717411131,0.5832946459246519,-1.2899187260228069,0.10575520643603539,-1.0349558439792452,0.04810048201351164,2.4581488717436164,-0.10835805241994884,3
354,2024-09-18 22:44:24.048361984,TASK_BEGIN,010,1.4303781552965245,0.5710957394588283,-1.1372889539554032,0.06383180068221768,-1.0200477586453554,0.03173718596070216,2.446866826716226,-0.0828953637709748,3
355,2024-09-18 22:44:24.114384128,TASK_BEGIN,010,1.416364407294721,0.5601104370909249,-1.0046693121551813,0.02495380536431049,-1.0088089340170798,0.016627780122082,2.470989178600215,-0.06384431852444272,3
356,2024-09-18 22:44:24.176868864,TASK_BEGIN,010,1.3964121178558138,0.5505307886894304,-0.904697080419722,-0.007698177941402552,-1.0024773038085655,0.0033055340955712264,2.52545960587033,-0.05145855566382965,3
357,2024-09-18 22:44:25.125336064,TASK_BEGIN,010,1.3707193150652461,0.5424612478805145,-0.8486952720162949,-0.031243621527300952,-1.0016808656730432,-0.007852782705432238,2.6042068698703775,-0.04573501960926926,3
358,2024-09-18 22:44:25.184758784,TASK_BEGIN,010,1.3395651850808117,0.5359254376101844,-0.8455937178358515,-0.0433222936123859,-1.0064244102375715,-0.01664370774456442,2.7013383446324704,-0.04648386060018692,3
359,2024-09-18 22:44:25.246829056,TASK_BEGIN,010,1.303338312386591,0.5308727155785438,-0.9011196051629953,-0.04224942073637884,-1.0161645791565206,-0.023032613840846556,2.812114305119456,-0.05338970553407967,3
360,2024-09-18 22:44:25.324692992,TASK_BEGIN,010,1.2625877719138432,0.5271846504125064,-1.0174414791664623,-0.027090334757837824,-1.0299411099968832,-0.02713390689160441,2.9335084780846303,-0.06606019915514709,3
361,2024-09-18 22:44:25.386731008,TASK_BEGIN,010,1.2180869992693775,0.5246822436065176,-1.1933340369626049,0.0023256981167404287,-1.0465085481786753,-0.029185189225799345,3.064287179147558,-0.08406701720278602,3
362,2024-09-18 22:44:25.464704000,TASK_BEGIN,010,1.170886329974692,0.5231353607368335,-1.4247389247090434,0.045438928956805534,-1.064447832099628,-0.02952031396989348,3.2046503168439497,-0.1069747089491211,3
363,2024-09-18 22:44:25.532541952,TASK_BEGIN,010,1.1223122757469917,0.5222778867796856,-1.7054420205139633,0.1010384724774464,-1.082286311836305,-0.028539174084935438,3.355593020223999,-0.13435107420526574,3
364,2024-09-18 22:44:26.465957888,TASK_BEGIN,010,1.073896439757678,0.5218293212719775,-2.027586545480408,0.16737227852007114,-1.098652770715152,-0.02667017496334934,3.518172312752494,-0.16575161560782128,3
365,2024-09-18 22:44:26.531028992,TASK_BEGIN,010,1.0272708634715344,0.5215158051235638,-2.381875886456838,0.24225655833066162,-1.1124487708248656,-0.024326635167379953,3.692812452029661,-0.20067606644197408,3
366,2024-09-18 22:44:26.610637056,TASK_BEGIN,010,0.9840749330753751,0.5210827598825555,-2.757473914599291,0.32316213132979665,-1.1229908407712867,-0.02186434253761939,3.8787662834828747,-0.2385213691134109,3
367,2024-09-18 22:44:26.678989056,TASK_BEGIN,010,0.945877850397374,0.5202988999388148,-3.1417357621270336,0.40727312400965604,-1.1300838234356114,-0.019550251036398136,4.073803688368837,-0.2785632906354955,3
368,2024-09-18 22:44:26.734731008,TASK_BEGIN,010,0.9140918324210437,0.518958257392741,-3.5200131283781966,0.49152513242252494,-1.1339988682708748,-0.01755327032171325,4.274089183615413,-0.31996455556731224,3
369,2024-09-18 22:44:26.811891968,TASK_BEGIN,010,0.8898616565939299,0.516887397598859,-3.875846336754715,0.572647146609282,-1.1353583278929458,-0.01596188018145685,4.474173923332195,-0.3617778950500486,3
370,2024-09-18 22:44:26.874376960,TASK_BEGIN,010,0.8739544526451989,0.5139574179420314,-4.191776272987542,0.6472491936984033,-1.1349771988448711,-0.014817413669234942,4.667132684434237,-0.4029308338428846,3
371,2024-09-18 22:44:27.810928128,TASK_BEGIN,010,0.8666965602304807,0.5100922143422125,-4.45071196341415,0.7119819740628668,-1.1337297038085925,-0.014142118536706386,4.844992773505153,-0.44221966872272034,3
372,2024-09-18 22:44:27.888577792,TASK_BEGIN,010,0.8679780450959284,0.5052665931304988,-4.637471517016479,0.7637482225822535,-1.1324706574533387,-0.013950198878548982,4.999520755499415,-0.4783476291947538,3
373,2024-09-18 22:44:27.950571008,TASK_BEGIN,010,0.8773072373050447,0.4994957819654605,-4.740099112011033,0.7999206972118592,-1.1319878643415535,-0.01424600740844767,5.123185174615093,-0.5100131507959346,3
374,2024-09-18 22:44:28.027798016,TASK_BEGIN,010,0.8938887650405986,0.49282217408750517,-4.750786863583221,0.8185341534640218,-1.1329531673448596,-0.015018941775963544,5.209980551387025,-0.5360282378612916,3
375,2024-09-18 22:44:28.089337856,TASK_BEGIN,010,0.9167028306957405,0.4853066257011284,-4.666379812902387,0.8184320794451623,-1.135869547818808,-0.016239821461948474,5.255926058986906,-0.5554369621019639,3
376,2024-09-18 22:44:28.151349248,TASK_BEGIN,010,0.9445640177053434,0.4770314524034832,-4.488516468063794,0.7993611951524763,-1.1410296274583562,-0.017859038479729247,5.259251989669194,-0.5675980720167417,3
377,2024-09-18 22:44:28.233261312,TASK_BEGIN,010,0.9761477582257997,0.4681155783444898,-4.223568001628792,0.7620274316050885,-1.1484941457813918,-0.019806345579153443,5.220304240252077,-0.5722032654929425,3
378,2024-09-18 22:44:29.151200000,TASK_BEGIN,010,1.0099972155792258,0.4587311567617107,-3.882483856298836,0.7081165692508323,-1.1580938487257937,-0.021992902014325178,5.141158036700262,-0.5692409489558227,3
379,2024-09-18 22:44:29.214266112,TASK_BEGIN,010,1.0445444054885868,0.4491069356070777,-3.4803909314409123,0.6402409196658273,-1.169460362928289,-0.02431597513707971,5.025115888327646,-0.558959780018802,3
380,2024-09-18 22:44:29.276260096,TASK_BEGIN,010,1.0781750967823398,0.4395119339630864,-3.035708019429173,0.5617677924329931,-1.1820843665559009,-0.026665286940983097,4.876441596459293,-0.5418869839146393,3
381,2024-09-18 22:44:29.354670080,TASK_BEGIN,010,1.1093363046823357,0.43022495556986545,-2.5687349628723752,0.476525712406925,-1.1953863755517586,-0.0289285567268505,4.700445273514608,-0.5188999208712614,3
382,2024-09-18 22:44:29.422447872,TASK_BEGIN,010,1.1366560486316888,0.4215008979091033,-2.0998716113087528,0.3884246065349418,-1.208789569657564,-0.03099386952418385,4.503602632741839,-0.4912817475992755,3
383,2024-09-18 22:44:29.490331904,TASK_BEGIN,010,1.1590439242388304,0.4135436065124475,-1.6477685674283127,0.30106138666596194,-1.2218009269386354,-0.03274791120171418,4.293314283590138,-0.46068223333259767,3
384,2024-09-18 22:44:29.557786880,TASK_BEGIN,010,1.1757575916271548,0.4064910951760752,-1.2279102132388362,0.21741648518140827,-1.2340978894856287,-0.034072326316201045,4.07724155396665,-0.4289650184140165,3
385,2024-09-18 22:44:30.487219968,TASK_BEGIN,010,1.1864330538016814,0.4004130615286881,-0.8520952419964096,0.13973260837791524,-1.2455859358178183,-0.034844361455247455,3.8624615315264013,-0.3979802551666355,3
386,2024-09-18 22:44:30.569102080,TASK_BEGIN,010,1.1910794126742057,0.395316185377697,-0.528770340408644,0.06957344426720495,-1.2563933175566768,-0.03494598329522078,3.6546896078387663,-0.3693079197155686,3
387,2024-09-18 22:44:30.636940800,TASK_BEGIN,010,1.1900319443555216,0.3911544431406387,-0.2636566626586005,0.007959489532716281,-1.2668016084051752,-0.03427880719032652,3.4576932936241005,-0.3440167309270308,3
388,2024-09-18 22:44:30.697668096,TASK_BEGIN,010,1.183862650119256,0.3878444747344583,-0.06012821872831442,-0.04453454603260557,-1.2771217202727925,-0.03278175283895158,3.2730464505188896,-0.3225118084258108,3
389,2024-09-18 22:44:30.772603136,TASK_BEGIN,010,1.1732785694591112,0.3852833736709322,0.08079667803680303,-0.08776595541658475,-1.2875251203451714,-0.030452960646760854,3.1004540019437328,-0.30454867490815846,3
390,2024-09-18 22:44:30.837443072,TASK_BEGIN,010,1.159048973466443,0.38336372863866813,0.16064649123386712,-0.12205570816585537,-1.297870443344173,-0.027373693028280965,2.938687633866398,-0.2894200982012834,3
391,2024-09-18 22:44:30.899442944,TASK_BEGIN,010,1.1419669736673457,0.38198339132457,0.18359758750817837,-0.14819006177364225,-1.3075962429457304,-0.023721840231023025,2.7868019772551724,-0.27623124430892954,3
392,2024-09-18 22:44:31.846272000,TASK_BEGIN,010,1.1228248484167047,0.38105006433393784,0.15632615980186418,-0.16734069308082947,-1.3157275815188436,-0.019762574171184807,2.6451574256675148,-0.26416352295678447,3
393,2024-09-18 22:44:31.909606912,TASK_BEGIN,010,1.1023985097714546,0.3804802689825196,0.08750368336045532,-0.1808982282115166,-1.3209855944848117,-0.015816854530201097,2.5159265555138837,-0.25267877721435783,3
394,2024-09-18 22:44:31.986974208,TASK_BEGIN,010,1.081451223281047,0.38019223763914917,-0.013121108141237769,-0.19024913355240636,-1.3219480899551168,-0.01222164099003582,2.402986477853225,-0.24165078179077043,3
395,2024-09-18 22:44:32.054788096,TASK_BEGIN,010,1.0607506831295617,0.3800949118275652,-0.13585088970268966,-0.19655648261757774,-1.317207772568345,-0.009297294090854733,2.311339617276398,-0.2314169336561873,3
396,2024-09-18 22:44:32.122579968,TASK_BEGIN,010,1.0410756060983513,0.3800778080548068,-0.27195378351437605,-0.20061459945808038,-1.305512987242235,-0.007326416745747021,2.2464188459522436,-0.22275758837854973,3
397,2024-09-18 22:44:32.190432000,TASK_BEGIN,010,1.023196082099364,0.3800053837990288,-0.41411513279736206,-0.20280385212258156,-1.2859132695637223,-0.006536410638260605,2.213572531330836,-0.21681971697674549,3
398,2024-09-18 22:44:32.257455104,TASK_BEGIN,010,1.0078351624852906,0.3797160480763154,-0.5565576006110297,-0.20311324562876573,-1.2579098571365817,-0.007080921871126949,2.217714666019914,-0.21498830250352188,3
399,2024-09-18 22:44:33.201498112,TASK_BEGIN,010,0.995631911395764,0.3790251036705272,-0.6950927469904746,-0.20119346162038407,-1.221566295652326,-0.00902622622264688,2.2629831326049765,-0.21871036300673488,3
400,2024-09-18 22:44:33.268478976,TASK_BEGIN,010,0.9871148757976568,0.377733271229199,-0.8271941854116888,-0.19643724632361592,-1.177540066496956,-0.012349412877120908,2.352326410762541,-0.22929313600684703,3
401,2024-09-18 22:44:33.337320960,TASK_BEGIN,010,0.9826691222671872,0.37564404517688105,-0.9519645941497731,-0.18809724754998275,-1.1270277034316531,-0.016949596131749536,2.486970902635553,-0.2476920999792737,3
402,2024-09-18 22:44:33.396099072,TASK_BEGIN,010,0.9824781278507352,0.3725897387342297,-1.0698106949518047,-0.17543624514468967,-1.0716364707310773,-0.022671236149605763,2.6658011039596317,-0.2742996996609486,3
403,2024-09-18 22:44:33.458584064,TASK_BEGIN,010,0.9864578748559356,0.36845832007970086,-1.181792566192282,-0.1578845806229632,-1.013223619697303,-0.02933472999498763,2.8848863725097216,-0.30877043483352395,3
404,2024-09-18 22:44:33.540893184,TASK_BEGIN,010,0.9942208922427218,0.36321060068994576,-1.288887167984933,-0.13515897774497884,-0.9537559193453307,-0.03676329450609932,3.1374155602534497,-0.3499310741745054,3
405,2024-09-18 22:44:33.604672768,TASK_BEGIN,010,1.0050866067277215,0.35688487989053574,-1.3915887516777024,-0.10728741333277406,-0.8952075799040236,-0.04479733173552046,3.4140985053362116,-0.3958029655566153,3
406,2024-09-18 22:44:34.526444800,TASK_BEGIN,010,1.0181328057315684,0.3495936503630684,-1.4901181979318618,-0.07452386678696003,-0.8394798670155952,-0.05329728041094091,3.7039434973998184,-0.44374130972756554,3
407,2024-09-18 22:44:34.587953152,TASK_BEGIN,010,1.0322761102791278,0.34151669262077405,-1.5850300678505649,-0.03722009739287007,-0.7883268100444425,-0.062140944088031946,3.995274515190696,-0.4906813935631864,3
408,2024-09-18 22:44:34.649563904,TASK_BEGIN,010,1.0463642617528495,0.33289146014273197,-1.6776673278784167,0.004242614251679339,-0.743287246420359,-0.07121752648529822,4.276766114664557,-0.5334524055060319,3
409,2024-09-18 22:44:34.727194112,TASK_BEGIN,010,1.0592641777825742,0.3240002033934,-1.7701147408243698,0.04942320026169021,-0.7056329354594694,-0.08041736533921355,4.538237931122175,-0.5690962700470938,3
410,2024-09-18 22:44:34.797828864,TASK_BEGIN,010,1.06993957036491,0.3151530676307024,-1.864748949133015,0.09773467291474738,-0.676339479052911,-0.08961960949808855,4.771103296875099,-0.595139168860356,3
411,2024-09-18 22:44:34.850318848,TASK_BEGIN,010,1.0775247856009549,0.30666596289389564,-1.9636865767154121,0.1483595382163549,-0.6560756784467817,-0.09868348254885298,4.968551533885713,-0.6097861586468798,3
412,2024-09-18 22:44:34.928428032,TASK_BEGIN,010,1.0814023062227736,0.2988337318868059,-2.0683047696469337,0.2001975981161659,-0.6451986450851439,-0.10744645480345032,5.125627490613668,-0.6120292762033872,3
413,2024-09-18 22:44:35.861041920,TASK_BEGIN,010,1.0812673125700514,0.29190438025920096,-2.178814612964521,0.25185996684999107,-0.6437434517577835,-0.11572806389515038,5.239357210044885,-0.60167336510809,3
414,2024-09-18 22:44:35.938690816,TASK_BEGIN,010,1.077140504231651,0.28606294800038967,-2.293915252457938,0.3017247593608463,-0.6514100708178077,-0.12333702459979842,5.30889752564171,-0.5792789624416779,3
415,2024-09-18 22:44:36.000686848,TASK_BEGIN,010,1.0693128070713975,0.28142826188186343,-2.4107736363909797,0.3480684073832025,-0.6675637575158283,-0.13008172005177338,5.335511905161205,-0.546027236330779,3
416,2024-09-18 22:44:36.079531008,TASK_BEGIN,010,1.0582565224756608,0.27805770655796636,-2.5255302516197027,0.3892528506932269,-0.6912630505310148,-0.13578383118885676,5.322229535307609,-0.5035413676275622,3
417,2024-09-18 22:44:36.147386112,TASK_BEGIN,010,1.0445477658491533,0.27595474858996183,-2.634141988313111,0.4239036130943755,-0.7213178219803872,-0.14029109064520306,5.27322791649903,-0.45369963860382356,3
418,2024-09-18 22:44:36.202737152,TASK_BEGIN,010,1.0288017426178147,0.27508066929643005,-2.733103581503,0.4510203612384198,-0.7563670758642163,-0.14348575581900833,5.1931481957804495,-0.3984570556952978,3
419,2024-09-18 22:44:36.283032832,TASK_BEGIN,010,1.0115981073908853,0.2753740182125718,-2.819739785636692,0.47001366223234936,-0.7949594528881063,-0.1452884950125892,5.08663495539523,-0.33970650356245224,3
420,2024-09-18 22:44:37.214940928,TASK_BEGIN,010,0.9934047137097186,0.276774215756526,-2.8921166958206546,0.48069000535264916,-0.8356240638294025,-0.14565654597170197,4.958232993743905,-0.2792176794800454,3
421,2024-09-18 22:44:37.292813056,TASK_BEGIN,010,0.9745352440004329,0.27923981152004057,-2.948843636029121,0.48320452844854594,-0.8769324144645816,-0.14457546264991836,4.812484849242399,-0.2186501233196895,3
422,2024-09-18 22:44:37.354435072,TASK_BEGIN,010,0.9551551811429654,0.28275468754508476,-2.988993958544016,0.4780072023820969,-0.9175678527561513,-0.1420479569406944,4.653974380686737,-0.15959554268661474,3
423,2024-09-18 22:44:37.429624064,TASK_BEGIN,010,0.9353191407110173,0.28732174562407725,-3.0121555013044445,0.4658091369368426,-0.9564159611185812,-0.13808525797576116,4.4871975957344,-0.1036092196488829,3
424,2024-09-18 22:44:37.495138048,TASK_BEGIN,010,0.9150185199274224,0.29294766322500937,-3.0184563825745676,0.4475611098131243,-0.9926534255408629,-0.1327052906321172,4.316359273727417,-0.05221873048640449,3
425,2024-09-18 22:44:37.553188864,TASK_BEGIN,010,0.8942303199579094,0.29962329455495124,-3.008481808170551,0.42441012291703145,-1.0257854789665557,-0.12593891330697513,4.145269506883558,-0.006903369231099809,3
426,2024-09-18 22:44:37.633188864,TASK_BEGIN,010,0.8729635213763556,0.3073030855975913,-2.983189178906276,0.3976281862897118,-1.0556087731092663,-0.11783996642751084,3.977313276125101,0.03098327407524403,3
427,2024-09-18 22:44:38.567531008,TASK_BEGIN,010,0.8512905482917427,0.31588711075084536,-2.9439426584600445,0.3685435989172272,-1.082128029842178,-0.10849196907664703,3.815327292570249,0.06035818650199135,3
428,2024-09-18 22:44:38.629156864,TASK_BEGIN,010,0.8293416597742079,0.3252115948791375,-2.8926248163472055,0.33849897325669315,-1.1054710167909283,-0.09800896423190571,3.661434785569124,0.08056521617251239,3
429,2024-09-18 22:44:38.712433152,TASK_BEGIN,010,0.8072559242922668,0.33505178228220134,-2.831714591690948,0.30883838720172263,-1.1258220489744435,-0.08653554155141988,3.517064673249266,0.09146391970659982,3
430,2024-09-18 22:44:38.780252928,TASK_BEGIN,010,0.7851205686160786,0.3451335295830574,-2.7642786783826954,0.28090808544847384,-1.1433679708085671,-0.07425152485648968,3.383174761332292,0.09343046773728156,3
431,2024-09-18 22:44:38.848084992,TASK_BEGIN,010,0.7629449303857033,0.35514663748364006,-2.6938469555837736,0.2560368488618791,-1.1582502745657184,-0.0613783881054913,3.260463749606787,0.08730174155776838,3
432,2024-09-18 22:44:38.908476928,TASK_BEGIN,010,0.7406835542002976,0.3647586519611725,-2.6241915056149114,0.23547250032582123,-1.1705382097457702,-0.04817832901090144,3.1494639691428423,0.07427999168372093,3
433,2024-09-18 22:44:38.983202816,TASK_BEGIN,010,0.7182860191660871,0.3736338113438738,-2.5591666700672175,0.22029726952950338,-1.1802458852950952,-0.03494172997573148,3.0506477318366505,0.05579159114654348,3
434,2024-09-18 22:44:39.922696960,TASK_BEGIN,010,0.6957445869688399,0.3814603089404202,-2.5027699798662115,0.2113687303445682,-1.1873852345097349,-0.021967091445122426,2.9647001606296794,0.033309033946456415,3
435,2024-09-18 22:44:39.994353152,TASK_BEGIN,010,0.6731230824577872,0.38798282873833945,-2.4593303392256756,0.2092971927879407,-1.1920081238807754,-0.009539592890341614,2.8929378388524682,0.008165956848475498,3
436,2024-09-18 22:44:40.062499072,TASK_BEGIN,010,0.6505624577827708,0.3930317782540957,-2.4334871633361095,0.21441850776351928,-1.1942021803883236,0.002087948147281488,2.83769088409785,-0.018603714062598323,3
437,2024-09-18 22:44:40.123415040,TASK_BEGIN,010,0.6282672791420495,0.3965399044214453,-2.4297067627163633,0.22672037537000533,-1.1940582359641263,0.01271004135219058,2.8024051587379635,-0.04637138867691853,3
438,2024-09-18 22:44:40.198185984,TASK_BEGIN,010,0.6064915943769604,0.3985412671081678,-2.4514338874353867,0.24573442177410565,-1.191654763270482,0.022179861652651102,2.7913194579710043,-0.07494057160356395,3
439,2024-09-18 22:44:40.263345920,TASK_BEGIN,010,0.5855521089970838,0.39915271312955275,-2.5002579994542136,0.27045915246018637,-1.1870776301982313,0.03041793246236865,2.8087849587644707,-0.10449268061417724,3
440,2024-09-18 22:44:40.325832960,TASK_BEGIN,010,0.5658735317625214,0.3985424031110985,-2.575463892799228,0.29937915406476506,-1.1804471846379119,0.03741381688741582,2.8584496192375464,-0.13547086096642716,3
441,2024-09-18 22:44:41.241950976,TASK_BEGIN,010,0.5480378346045393,0.3968932074558442,-2.6740501805291377,0.3305875986319556,-1.1719075885960337,0.043211872781157755,2.9425446026467137,-0.1684336681621283,3
442,2024-09-18 22:44:41.319798016,TASK_BEGIN,010,0.5328077256907091,0.39436961044839175,-2.791013342336395,0.36195952624449323,-1.1615664977732618,0.04787969166434361,3.061391753705853,-0.20390259517308199,3
443,2024-09-18 22:44:41.383427072,TASK_BEGIN,010,0.5211069749888768,0.39109587250347516,-2.9197320030304796,0.39132554104489387,-1.1494171869429202,0.051469925750624534,3.213118423159184,-0.24221078203049323,3
444,2024-09-18 22:44:41.446968064,TASK_BEGIN,010,0.5139492939445267,0.38714919530604613,-3.0524929121546975,0.41663640107142663,-1.1352771568081017,0.053987427815373766,3.3935815540349608,-0.28337466670514827,3
445,2024-09-18 22:44:41.523624960,TASK_BEGIN,010,0.5123299986121528,0.38256380998068,-3.1812002745170984,0.4361268706273251,-1.1187555086575607,0.05536819408630788,3.596565550219482,-0.32703025491402404,3
446,2024-09-18 22:44:41.580923136,TASK_BEGIN,010,0.5171102044494857,0.3773376529316912,-3.2981371312022176,0.44846851645469044,-1.0992568657805881,0.05547427540878392,3.8142163077869466,-0.3724439373063668,3
447,2024-09-18 22:44:41.659346176,TASK_BEGIN,010,0.5289105417485472,0.3714370474625566,-3.3965744216790577,0.4528717672571223,-1.0760368942392653,0.05410755953568208,4.0375451172896915,-0.41856052344648037,3
448,2024-09-18 22:44:42.597997056,TASK_BEGIN,010,0.5480235044347973,0.3648000897298119,-3.471135831370925,0.44909454627856255,-1.0483216550576404,0.05104225465406725,4.256935419072825,-0.4640602834786457,3
449,2024-09-18 22:44:42.668772864,TASK_BEGIN,010,0.5743551987676297,0.35734170655328873,-3.5179832809552987,0.43735495431330507,-1.0154781129273478,0.04607113383153387,4.462731515000582,-0.5074334836434485,3
450,2024-09-18 22:44:42.721360896,TASK_BEGIN,010,0.6073917173567268,0.34896352820251114,-3.5349349558947276,0.4182014530739819,-0.9771903649006194,0.039055042541181605,4.645908727516731,-0.54708046241394,3
451,2024-09-18 22:44:42.799001856,TASK_BEGIN,010,0.64618104529153,0.339568321795637,-3.5215796803076014,0.39241712087502034,-0.9335890915897803,0.029963046035235717,4.7986887723510625,-0.58142541173805,3
452,2024-09-18 22:44:42.861133056,TASK_BEGIN,010,0.6893454935174782,0.329074489430378,-3.4793932796016125,0.36100021333595034,-0.8853065659242276,0.0188949194828401,4.914968120852962,-0.6090287722416239,3
453,2024-09-18 22:44:42.938750976,TASK_BEGIN,010,0.7351419935958161,0.31742844408074283,-3.411781939905765,0.32519539917264767,-0.8334693110090565,0.006086999305003456,4.9905291718085545,-0.6286941550175913,3
454,2024-09-18 22:44:43.001686016,TASK_BEGIN,010,0.7815546526307248,0.3046189683841356,-3.3238727545493494,0.28650109503723376,-0.77966703946349,-0.008090510384217216,5.023165065746361,-0.6395819586319389,3
455,2024-09-18 22:44:43.936355328,TASK_BEGIN,010,0.8263840226946508,0.29069878585158565,-3.2219086876543486,0.24659275321499932,-0.725915445819829,-0.023141040407555363,5.012885544182326,-0.6413346896274782,3
456,2024-09-18 22:44:44.013994752,TASK_BEGIN,010,0.8673192017782868,0.27581150241492053,-3.112364817936376,0.20717381704928073,-0.6745821620807965,-0.038460996484809086,4.962136954431352,-0.634179703630688,3
457,2024-09-18 22:44:44.076003072,TASK_BEGIN,010,0.9020257039513153,0.2602116489412503,-3.0011443766159323,0.1698258441960997,-0.6282371714664416,-0.05337861186421905,4.875795835745271,-0.6189586640786829,3
458,2024-09-18 22:44:44.153652736,TASK_BEGIN,010,0.9283029296441101,0.24426230463745782,-2.893183246562445,0.13592100071168825,-0.5894322897522348,-0.06720806065105966,4.760871650437452,-0.597065776966787,3
459,2024-09-18 22:44:44.222488064,TASK_BEGIN,010,0.9443182498099605,0.22840458556983476,-2.7925248395489732,0.1066070846534996,-0.5604503714468079,-0.07930509098396937,4.6260825844820275,-0.5703163065451442,3
460,2024-09-18 22:44:44.277585920,TASK_BEGIN,010,0.9488458058161027,0.21310879971433075,-2.7026453918529776,0.08283286784642999,-0.5430611914630216,-0.08911313433550494,4.481385469193167,-0.5407730781589613,3
461,2024-09-18 22:44:44.356012288,TASK_BEGIN,010,0.9414057715106765,0.19882669641886697,-2.626700760197489,0.06536886699458427,-0.5383070004071174,-0.0961972242812909,4.337297519293885,-0.5105349098873676,3
462,2024-09-18 22:44:45.262682880,TASK_BEGIN,010,0.9222433251340695,0.18596150032981526,-2.5674635505323757,0.05478586557858717,-0.5463427562800316,-0.10026760176823168,4.203851779175697,-0.48148741574550863,3
463,2024-09-18 22:44:45.340178944,TASK_BEGIN,010,0.8921747941124563,0.17485847803569432,-2.5269468411988756,0.05138124992102046,-0.5663651098809863,-0.1011946535133259,4.089332337048945,-0.45506778006110277,3
464,2024-09-18 22:44:45.411889920,TASK_BEGIN,010,0.8523966137090168,0.16580545332057886,-2.5059513676237386,0.0550893216161333,-0.5966628412568269,-0.09901366550794723,3.999178660135892,-0.43213553830957474,3
465,2024-09-18 22:44:45.465414144,TASK_BEGIN,010,0.8043409182426432,0.15903278415738986,-2.5038565998135756,0.06543639041571996,-0.6347928141652872,-0.09391439722822832,3.9353763959571455,-0.4129898673578378,3
466,2024-09-18 22:44:45.547523072,TASK_BEGIN,010,0.7495906661991881,0.154711658605172,-2.5188005159070994,0.08157143095631443,-0.6778352851561186,-0.0862140241635229,3.896380116482763,-0.3974782261670438,3
467,2024-09-18 22:44:45.610832128,TASK_BEGIN,010,0.6898238489979308,0.15295368914014157,-2.548109758721433,0.10235300001907835,-0.7226568049402953,-0.07632117386618466,3.87743169171921,-0.38511833986895305,3
468,2024-09-18 22:44:45.673319168,TASK_BEGIN,010,0.6267673211030265,0.15381154845367856,-2.5887257204464063,0.1264588185356374,-0.7661378223228547,-0.0646995809882867,3.8711928021350905,-0.37521562452833845,3
469,2024-09-18 22:44:46.613522944,TASK_BEGIN,010,0.5621592209426562,0.15727863029900485,-2.6375264569516896,0.15251172444455866,-0.8053705411738953,-0.05183144796469368,3.868719575931782,-0.36699955778777893,3
470,2024-09-18 22:44:46.670866944,TASK_BEGIN,010,0.4977229244052302,0.16328834401868292,-2.6916359502475586,0.17923301223530816,-0.8378478128128481,-0.03817796747118081,3.860731407370659,-0.3597802834969185,3
471,2024-09-18 22:44:46.733392128,TASK_BEGIN,010,0.435150050621973,0.17171616166493597,-2.7487370170083683,0.20559726264581626,-0.8616405704743202,-0.02414041348494531,3.8389221604016277,-0.35309433283743574,3
472,2024-09-18 22:44:46.811075840,TASK_BEGIN,010,0.37606832408266117,0.18238739557633982,-2.807224349995921,0.23092175556199857,-0.8755374232879518,-0.010028431123555956,3.796971946721841,-0.34679968745486117,3
473,2024-09-18 22:44:46.873156096,TASK_BEGIN,010,0.32195205802884547,0.19509242106493477,-2.866101106080023,0.25485042463589386,-0.8791196580215092,0.003959763375319639,3.7310601709582394,-0.34109082336665014,3
474,2024-09-18 22:44:46.950800128,TASK_BEGIN,010,0.2739645610021549,0.20960805314053874,-2.9247299343168076,0.27725584182883944,-0.8727578731643617,0.017741433333966286,3.639924121605638,-0.33643297270347916,3
475,2024-09-18 22:44:47.013345024,TASK_BEGIN,010,0.2327900181349988,0.22571785381404738,-2.98258909550663,0.2981110126927137,-0.8575329719140554,0.03133492969884255,3.524627132577157,-0.3334414436490358,3
476,2024-09-18 22:44:47.961900800,TASK_BEGIN,010,0.19853792517927488,0.2432215857900035,-3.0390630752961814,0.3173681281353783,-0.8351028297865645,0.04482933872790872,3.38815089260414,-0.332731052285757,3
477,2024-09-18 22:44:48.043459072,TASK_BEGIN,010,0.1707574710140667,0.26192981817876493,-3.0932826542082266,0.33486951205791243,-0.8075455692222999,0.05834550290812083,3.2348979334994525,-0.3347579316893842,3
478,2024-09-18 22:44:48.101136896,TASK_BEGIN,010,0.14854676306426248,0.28164727885373253,-3.144149810429847,0.35031629866740555,-0.777203660486487,0.07199583555194676,3.0702791075358173,-0.33970023446975406,3
479,2024-09-18 22:44:48.179174912,TASK_BEGIN,010,0.13072785892460587,0.3021513000983312,-3.1905904525168562,0.3632888737112974,-0.746541132837524,0.08584931021109403,2.9005348928970434,-0.34742984766898183,3
480,2024-09-18 22:44:48.243859200,TASK_BEGIN,010,0.11605595386074927,0.323171759612144,-3.2317798413809586,0.373273271522875,-0.7180144632710674,0.09990929312472989,2.7327000866134075,-0.35757346779408655,3
481,2024-09-18 22:44:48.303523840,TASK_BEGIN,010,0.103414880426888,0.3443800153369704,-3.2670722914275787,0.3796726224202082,-0.6939399624054954,0.11411011118230219,2.574475318855284,-0.3696056111661446,3
482,2024-09-18 22:44:48.381179904,TASK_BEGIN,010,0.09194497859383782,0.3653941861282378,-3.2956736348859286,0.3818350629435844,-0.6763372931264927,0.1283300355838297,2.433871453824379,-0.38292606611361824,3
483,2024-09-18 22:44:49.313700864,TASK_BEGIN,010,0.08108006539003343,0.3858022658627052,-3.316290519157988,0.37912717194879986,-0.6667630899043577,0.14241172171224645,2.318632961179769,-0.3969208756497833,3
484,2024-09-18 22:44:49.391678976,TASK_BEGIN,010,0.07051189576308126,0.40519681304841093,-3.326985563244362,0.37104642035552937,-0.6661867847353499,0.15618261213859946,2.235471428512954,-0.4110138722202965,3
485,2024-09-18 22:44:49.454166016,TASK_BEGIN,010,0.06011076486626496,0.4232125904044019,-3.3253582931972785,0.35734138811505045,-0.6749546305827875,0.16947278272617983,2.18913003663305,-0.4246816544848596,3
486,2024-09-18 22:44:49.529214976,TASK_BEGIN,010,0.04982706363781232,0.43955921277840276,-3.3089289749730226,0.3380931270877371,-0.692840857974467,0.18212883537916116,2.1813921401843235,-0.43740048986153574,3
487,2024-09-18 22:44:49.597014016,TASK_BEGIN,010,0.039615337429942866,0.454040176344521,-3.275453499826452,0.31372589678525564,-0.7191418352813489,0.19402072089045042,2.210351524523536,-0.44855272945904073,3
488,2024-09-18 22:44:49.664366848,TASK_BEGIN,010,0.029427030724697635,0.4665519100901788,-3.2230887414069387,0.28496331858328283,-0.752767927572922,0.20504039772020335,2.2703653851474983,-0.45738042127482453,3
489,2024-09-18 22:44:49.732701952,TASK_BEGIN,010,0.01926807930030365,0.47706520109581685,-3.1505660852784247,0.25276762534349917,-0.7923222798466799,0.215096135149681,2.352886895753399,-0.4630539822729784,3
490,2024-09-18 22:44:50.676414976,TASK_BEGIN,010,0.009250374642314338,0.48560031550355276,-3.0574595531636874,0.2182765891816537,-0.8361873594073289,0.22410790745140524,2.4479415691064235,-0.4648358800070209,3
491,2024-09-18 22:44:50.743555072,TASK_BEGIN,010,-0.0004387056972174099,0.49220762534751744,-2.9444131139356626,0.18272800653910298,-0.8826366603635509,0.2320069540634358,2.545753345600116,-0.46226009719104283,3
492,2024-09-18 22:44:50.812172032,TASK_BEGIN,010,-0.009647629234498132,0.49695713448210516,-2.813182386561028,0.1473649994420878,-0.929954099465502,0.23873798238986652,2.6381140773131446,-0.45526912556503535,3
493,2024-09-18 22:44:50.870545920,TASK_BEGIN,010,-0.018370737238444904,0.49993218869513706,-2.666570147945148,0.11334558662396621,-0.9765192203707601,0.24425831330797074,2.719294852011845,-0.44428890347508804,3
494,2024-09-18 22:44:50.947770880,TASK_BEGIN,010,-0.026776478502876323,0.5012227533827716,-2.508432405069831,0.08169366202229562,-1.020839006292181,0.24853036670881987,2.7863688375610987,-0.430213786163541,3
495,2024-09-18 22:44:51.010351872,TASK_BEGIN,010,-0.035145612361122326,0.5009193311380131,-2.3437477863142835,0.05328969524744722,-1.061555942739324,0.2515116750634034,2.838872379511592,-0.41426722176709346,3
496,2024-09-18 22:44:51.072429056,TASK_BEGIN,010,-0.043768474114732926,0.4991110539268476,-2.1786108107142317,0.02886437017486134,-1.0974748361823994,0.25314970317833557,2.8779637297138407,-0.397763154903757,3
497,2024-09-18 22:44:51.992598016,TASK_BEGIN,010,-0.052851171183584,0.49588842788091253,-2.020119902698782,0.008979015343852361,-1.1276135119561899,0.2533840358839611,2.9054541223573866,-0.3818600874778883,3
498,2024-09-18 22:44:52.065604864,TASK_BEGIN,010,-0.06245749014636126,0.49134891027672273,-1.8762344953227388,-0.005992523064789381,-1.151253105212141,0.25215457927187407,2.9230437093411576,-0.3673907596064206,3
499,2024-09-18 22:44:52.127860992,TASK_BEGIN,010,-0.07249722947450124,0.48560407246653875,-1.7556275396798613,-0.015856768483638164,-1.1679730393754344,0.24941373412935747,2.9319064987085364,-0.3547930661512684,3
500,2024-09-18 22:44:52.204169984,TASK_BEGIN,010,-0.08276114010978637,0.4787874861152201,-1.6674715635154926,-0.020544871484556918,-1.1776702291873289,0.24513915706230816,2.9326050116650886,-0.3441288084356595,3
501,2024-09-18 22:44:52.267164928,TASK_BEGIN,010,-0.09298876014379442,0.4710617805875034,-1.6210099927381698,-0.020018483253672816,-1.180561650870061,0.23934410422403227,2.9252131952893965,-0.33516615886473694,3
502,2024-09-18 22:44:52.329649920,TASK_BEGIN,010,-0.10293486675562737,0.4626214796633729,-1.6247504907608832,-0.014203010586275905,-1.1771692751669782,0.23208613443081397,2.909516180128926,-0.32750172119656074,3
503,2024-09-18 22:44:52.406880000,TASK_BEGIN,010,-0.11239887396869216,0.45368861914493713,-1.6853280543421914,-0.003008056219903512,-1.1682917864248297,0.22347684708648227,2.8852510658066364,-0.3206985054731488,3
504,2024-09-18 22:44:53.344342016,TASK_BEGIN,010,-0.12121780213285548,0.4445036646160947,-1.8063732250908422,0.01357627602487202,-1.15496384019675,0.2136920167982691,2.852472817073889,-0.3144144961737272,3
505,2024-09-18 22:44:53.406012928,TASK_BEGIN,010,-0.1292483987143491,0.4353169263697953,-1.9877119071888687,0.035356471773331406,-1.1383903670358921,0.202976764709704,2.812109998939051,-0.30849889058468455,3
506,2024-09-18 22:44:53.483635968,TASK_BEGIN,010,-0.13634640872307727,0.4263804637070181,-2.224926128705778,0.06180918030039833,-1.119843980253957,0.19163923573904448,2.7665850289339216,-0.3030433471274509,3
507,2024-09-18 22:44:53.554231808,TASK_BEGIN,010,-0.14234101746236688,0.41793675801257296,-2.509180276941813,0.09196113267956875,-1.1005316431265215,0.18002894698559352,2.7202139227841955,-0.2983864528818203,3
508,2024-09-18 22:44:53.620167936,TASK_BEGIN,010,-0.14701914755698756,0.41020367233634414,-2.827460793099607,0.12432466268463056,-1.0814552543825273,0.16850225332756633,2.679113415916619,-0.2950704179137582,3
509,2024-09-18 22:44:53.689577984,TASK_BEGIN,010,-0.1501305632274022,0.40335858879100317,-3.163501199772493,0.15695525316066833,-1.0633019155874852,0.15738474854673778,2.650516868574175,-0.293746421005812,3
510,2024-09-18 22:44:53.757353984,TASK_BEGIN,010,-0.15140137808447163,0.3975251253854953,-3.4992901753605485,0.1876310326883291,-1.0463938275551998,0.14694071171011963,2.6416801443029096,-0.29504351169388926,3
511,2024-09-18 22:44:54.700728064,TASK_BEGIN,010,-0.15055007373449808,0.3927669071879128,-3.81665035907209,0.21407420591762655,-1.0307040163275258,0.13735394066906648,2.6587554683982266,-0.2994475964148348,3
512,2024-09-18 22:44:54.767818752,TASK_BEGIN,010,-0.1473237011588238,0.38909134002350326,-4.098486977814826,0.234137596963117,-1.0159226038177134,0.12872251586892286,2.705922105750735,-0.30723339020042484,3
513,2024-09-18 22:44:54.836387072,TASK_BEGIN,010,-0.14155933083563146,0.38645893870302167,-4.329728401788402,0.2459459269452235,-1.0015487322358934,0.12106969987188966,2.784842848527633,-0.31845159231392106,3
514,2024-09-18 22:44:54.904230144,TASK_BEGIN,010,-0.1332386854152465,0.3847889642230097,-4.498155907342554,0.24801891129826828,-0.9869843152518466,0.11436763092749919,2.8944810973238546,-0.33295435217605046,3
515,2024-09-18 22:44:54.971396864,TASK_BEGIN,010,-0.12249438284881196,0.38395636529240795,-4.595142065394361,0.23938454965959827,-0.9716207669848985,0.10856620571212523,3.0313507582063237,-0.35045303032673464,3
516,2024-09-18 22:44:55.039052032,TASK_BEGIN,010,-0.1095553947487601,0.3837829601738528,-4.6161725488564,0.21967558411858712,-0.9549242225530036,0.10362050333193527,3.1901089684487176,-0.37059715873765825,3
517,2024-09-18 22:44:55.107225856,TASK_BEGIN,010,-0.09465664045005623,0.38403106557787825,-4.561131979925703,0.18921568687503296,-0.9365175600184855,0.09951009985787429,3.3642242285623247,-0.3930430577473185,3
518,2024-09-18 22:44:56.042377984,TASK_BEGIN,010,-0.07795029883045995,0.3844072399464362,-4.434400316616419,0.14909065702917426,-0.916245813610127,0.09624392077490698,3.5464907293802796,-0.4174822723774665,3
519,2024-09-18 22:44:56.118969088,TASK_BEGIN,010,-0.059444104853853076,0.3845777550172249,-4.244617505346147,0.10115259301693125,-0.8942177060240105,0.09385044739435731,3.729309185718957,-0.44362646464986716,3
520,2024-09-18 22:44:56.181821952,TASK_BEGIN,010,-0.038981186434894954,0.38419187945286676,-4.003884367186259,0.047898390382509745,-0.8708183896267935,0.09235907940572852,3.904837733088742,-0.47116986671459155,3
521,2024-09-18 22:44:56.243855104,TASK_BEGIN,010,-0.016271763280597245,0.3829085374415934,-3.726464413006935,-0.007773134401255701,-0.8466782958755309,0.09177856948576568,4.065261999305644,-0.4997530871706579,3
522,2024-09-18 22:44:56.321472000,TASK_BEGIN,010,0.009027128539266923,0.3804241420024713,-3.4273756524254275,-0.06285862680193807,-0.8225954329469086,0.09207873827601147,4.203350543985788,-0.5289346780495094,3
523,2024-09-18 22:44:56.383004928,TASK_BEGIN,010,0.03720546525103042,0.37650116720903987,-3.121263859117084,-0.11452518188777394,-0.7994445836174292,0.09318393505676817,4.313187679223415,-0.5581598559265066,3
524,2024-09-18 22:44:56.458163968,TASK_BEGIN,010,0.06839019433936303,0.37099680646473127,-2.8217513841262956,-0.16031345397937424,-0.7781168228907103,0.09498412049829616,4.390790317726337,-0.586719825110918,3
525,2024-09-18 22:44:57.376163072,TASK_BEGIN,010,0.10244629755962183,0.3638876544007545,-2.5411865045926905,-0.19825892881063412,-0.7594980492096794,0.09736080007275666,4.4343731742248576,-0.6137141206063303,3
526,2024-09-18 22:44:57.438651136,TASK_BEGIN,010,0.13890597980107797,0.3552824913742561,-2.290471820280446,-0.226955704065999,-0.7444592080436662,0.10021696715674734,4.444230994959843,-0.6380349966295449,3
527,2024-09-18 22:44:57.500364032,TASK_BEGIN,010,0.1769424387979216,0.34541756427669235,-2.0787029829688075,-0.24559216313791887,-0.7338316384547925,0.10349937155924818,4.422360918506349,-0.6583869710396638,3
528,2024-09-18 22:44:57.568201984,TASK_BEGIN,010,0.2153960943745453,0.3346360286239442,-1.9126973606565485,-0.253960616954701,-0.7283604254423718,0.10720712178227655,4.371974890494649,-0.6733585545016205,3
529,2024-09-18 22:44:57.646652928,TASK_BEGIN,010,0.25286489753124564,0.32335552900253806,-1.7966688568953355,-0.25242576945648276,-0.7286343215581057,0.11138544533109385,4.297020676472077,-0.6815659029678667,3
530,2024-09-18 22:44:57.708259072,TASK_BEGIN,010,0.2878707363900756,0.31202493697206957,-1.7321186374844308,-0.2418542164454271,-0.7349876184851182,0.11610511224708701,4.2017734782915985,-0.6818578126957744,3
531,2024-09-18 22:44:57.769790720,TASK_BEGIN,010,0.3190778964461476,0.3010735586049773,-1.7178695100408539,-0.22351629543468093,-0.7473838597101256,0.12143176313152183,4.090485061077842,-0.6735217375143158,3
532,2024-09-18 22:44:58.721989120,TASK_BEGIN,010,0.34549840097411855,0.2908635637026912,-1.7502600472821972,-0.1989595260090697,-0.7653279392227913,0.12739548610023765,3.9671111743563596,-0.6564236215461693,3
533,2024-09-18 22:44:58.785990912,TASK_BEGIN,010,0.3666222139856564,0.2816577046578254,-1.8234784367680668,-0.16987276879939128,-0.7878721394629171,0.13397208196688953,3.835268126444868,-0.6310639632424944,3
534,2024-09-18 22:44:58.861973248,TASK_BEGIN,010,0.38243746706888954,0.273607800786444,-1.9298607608712337,-0.13799029456802062,-0.8137348714344906,0.14107938961240363,3.6984813951214064,-0.5985651306396144,3
535,2024-09-18 22:44:58.923612160,TASK_BEGIN,010,0.393329815251465,0.2667624693459496,-2.0601016846809306,-0.10505301419322488,-0.8414723881589043,0.14858229857067298,3.560480631261056,-0.5605887937881177,3
536,2024-09-18 22:44:58.985626880,TASK_BEGIN,010,0.39989251378222995,0.26108806700152365,-2.203591173367043,-0.07279021438934799,-0.8696289213935017,0.1562999852312911,3.425247269210835,-0.519178836120111,3
537,2024-09-18 22:44:59.063735040,TASK_BEGIN,010,0.4027251381056272,0.25649471421689585,-2.3490914931382867,-0.042877760646132204,-0.896845343839602,0.1640167192318667,3.2968347329577705,-0.4765566887887824,3
538,2024-09-18 22:44:59.133227008,TASK_BEGIN,010,0.4022940947871726,0.2528603684047778,-2.485729999658663,-0.016849661786873704,-0.9219450547480224,0.17150085390454356,3.179188929130905,-0.4349150883488933,3
539,2024-09-18 22:45:00.075406080,TASK_BEGIN,010,0.398880194054756,0.25004885931045945,-2.604003379087933,0.004025914842606154,-0.9440051090305519,0.1785314065671895,3.0760613301371404,-0.39624465974886286,3
540,2024-09-18 22:45:00.135514880,TASK_BEGIN,010,0.39259985379620427,0.24792175130840022,-2.696375031512408,0.01885612940990724,-0.9624000140153741,0.184925815410277,2.9908866912044973,-0.3622053968277639,3
541,2024-09-18 22:45:00.210396928,TASK_BEGIN,010,0.3834677501283311,0.24634843631292058,-2.7573600713708175,0.027180333578200593,-0.9768064421259601,0.19056202949907983,2.926501296973243,-0.3340395117553407,3
542,2024-09-18 22:45:00.278400000,TASK_BEGIN,010,0.37145945263856106,0.24521922306015229,-2.7834629137742275,0.02899164909069653,-0.9871743354241557,0.19539059976967746,2.8847535622104474,-0.31252158918872186,3
543,2024-09-18 22:45:00.339462912,TASK_BEGIN,010,0.3565501237062021,0.24445923939506597,-2.7732937701934306,0.024748846143566042,-0.9936765210940176,0.19943325400767012,2.866123118298334,-0.2979474115858153,3
544,2024-09-18 22:45:00.403027968,TASK_BEGIN,010,0.33874845042562546,0.2440338789422121,-2.7277763482072106,0.015361058616136774,-0.9966393244780039,0.2027660481597018,2.8694374408618812,-0.29016447015700647,3
545,2024-09-18 22:45:00.482489088,TASK_BEGIN,010,0.31815849578808586,0.24393913989032173,-2.6502515438312857,0.0021232805477661393,-0.9964640753028743,0.2054927632235241,2.891823775274283,-0.28864548582055766,3
546,2024-09-18 22:45:01.425541120,TASK_BEGIN,010,0.2950653982739259,0.2441806683388736,-2.5463963014191107,-0.013380796792117278,-0.993568364467473,0.2077203378731642,2.9289971489328575,-0.2925935551268978,3
547,2024-09-18 22:45:01.493902848,TASK_BEGIN,010,0.270008884225915,0.24475213141870844,-2.4238161314659914,-0.02938912849800119,-0.9883612655319802,0.20954318471114028,2.975813619882633,-0.301052558527699,3
548,2024-09-18 22:45:01.561714944,TASK_BEGIN,010,0.24380999843875456,0.24562146910492957,-2.2911723583770995,-0.04409896119654268,-0.9812352011026322,0.21103551159386172,3.0269917743426955,-0.31300838218606497,3
549,2024-09-18 22:45:01.629337088,TASK_BEGIN,010,0.21752997448406008,0.2467278761655575,-2.1569816395116774,-0.05584733402298792,-0.9725534471664312,0.21225009194515473,3.0779566471761224,-0.3274868673934665,3
550,2024-09-18 22:45:01.697332992,TASK_BEGIN,010,0.192365776677952,0.24798808365418162,-2.0284680894755347,-0.06330933228142957,-0.9626289215599091,0.213223353856892,3.1256068960065826,-0.34363920827330946,3
551,2024-09-18 22:45:01.765217024,TASK_BEGIN,010,0.16951416274704978,0.24930887410448307,-1.9108199474758312,-0.06566121067625974,-0.9517051062494813,0.21398536355946773,3.1686713669991255,-0.36078265256009123,3
552,2024-09-18 22:45:01.828687104,TASK_BEGIN,010,0.1500337145571784,0.2506032585687494,-1.8069843028975738,-0.06267269663121297,-0.9399618295504663,0.21457234768930103,3.2075115990069767,-0.37838513563372533,3
553,2024-09-18 22:45:02.750770944,TASK_BEGIN,010,0.13472563195766618,0.2518062530184181,-1.71792408386257,-0.054723393064569435,-0.9275700063158627,0.21504044011155185,3.2435204961464956,-0.3960205847063874,3
554,2024-09-18 22:45:02.815248896,TASK_BEGIN,010,0.12406114027473833,0.25288319130623377,-1.6432072419606087,-0.042741220113116984,-0.9147922471513251,0.21547954730409127,3.2783899324842825,-0.4133276046497814,3
555,2024-09-18 22:45:02.877654016,TASK_BEGIN,010,0.11816862206376114,0.25382738280526995,-1.5818251242984642,-0.028053044385703083,-0.9020830192650805,0.21602421506410216,3.3135442375101194,-0.42998874008578003,3
556,2024-09-18 22:45:02.954351872,TASK_BEGIN,010,0.11686100222953683,0.2546525393201453,-1.5330766591310057,-0.012159643589233422,-0.8901313324072074,0.21685681151431258,3.349994953020292,-0.44574012971613547,3
557,2024-09-18 22:45:03.022888960,TASK_BEGIN,010,0.11967652346380858,0.25538712592164065,-1.4972285232518332,0.0035080711909186387,-0.8798235082129745,0.21819963835443051,3.3886554199547816,-0.4604131667082637,3
558,2024-09-18 22:45:03.090441984,TASK_BEGIN,010,0.1259154626763319,0.2560731152031961,-1.4756570794314143,0.017773561970976133,-0.8721437135289857,0.22029599841730435,3.430883606996801,-0.47398854217719116,3
559,2024-09-18 22:45:03.158039040,TASK_BEGIN,010,0.134664463707619,0.2567686125333949,-1.4704393552119543,0.02979878831180914,-0.868049072248242,0.22338399474313672,3.4789220446454205,-0.48662975054303614,3
560,2024-09-18 22:45:04.099521024,TASK_BEGIN,010,0.14481564066688346,0.2575532836966327,-1.4837202243488299,0.03909314375171874,-0.8683553767136348,0.2276691378984037,3.5359867797667177,-0.4986750115035528,3
561,2024-09-18 22:45:04.168992000,TASK_BEGIN,010,0.1550980612349659,0.2585346910474424,-1.5172364237546028,0.04549490856052322,-0.8736538360752728,0.23330132653524027,3.605938906683199,-0.5105894848326075,3
562,2024-09-18 22:45:04.233673216,TASK_BEGIN,010,0.16413739971882166,0.25985192677697705,-1.5721054498855114,0.04914573867938944,-0.8842618329607865,0.24035924238195547,3.692659571167789,-0.5228953852055893,3
563,2024-09-18 22:45:04.302162176,TASK_BEGIN,010,0.1705596594953011,0.2616708857205132,-1.6487752348569407,0.0504593520347616,-0.9001988574892161,0.24884173964268128,3.7993748238669163,-0.5361066177237078,3
564,2024-09-18 22:45:04.364154112,TASK_BEGIN,010,0.17314695156620225,0.2641656969926876,-1.747022000831926,0.05008286648031196,-0.9211721181744864,0.25866269287068694,3.9281764037193883,-0.5506931650999115,3
565,2024-09-18 22:45:04.425839872,TASK_BEGIN,010,0.17101946618446345,0.26748705101676035,-1.8659571449629728,0.048842069660738195,-0.9465673157426174,0.26964695725269844,4.079773838109176,-0.5670749136096054,3
566,2024-09-18 22:45:04.502999040,TASK_BEGIN,010,0.16378404559896728,0.27172760254396744,-2.004081700453067,0.04766160111766432,-0.975460273273373,0.2815296762605731,4.253305876341896,-0.5856191006844611,3
567,2024-09-18 22:45:05.450930176,TASK_BEGIN,010,0.15159304194327597,0.2768972548051625,-2.159435808164537,0.04746880885733048,-1.006659782077143,0.29396135288405373,4.446127427663691,-0.6066224847045044,3
568,2024-09-18 22:45:05.515944960,TASK_BEGIN,010,0.13509490861944873,0.28291436398243824,-2.329812835695798,0.04910972412241783,-1.0387682588778027,0.30651645978872494,4.653647163608361,-0.6302663674395261,3
569,2024-09-18 22:45:05.576675840,TASK_BEGIN,010,0.11529687413621417,0.2896121990369454,-2.512979004834541,0.05330437647326021,-1.070242699152253,0.3187024625584626,4.869283231756281,-0.6565276055999738,3
570,2024-09-18 22:45:05.654308096,TASK_BEGIN,010,0.09337250177164373,0.29675863501986116,-2.7068892368508686,0.06064150565820985,-1.099460807441855,0.32997220894146556,5.084634966691755,-0.6850632487485786,3
571,2024-09-18 22:45:05.717262848,TASK_BEGIN,010,0.07044538414008475,0.3040855942989374,-2.909867294317664,0.07158625240406942,-1.1248185366974697,0.3397481853657832,5.290039395597435,-0.7151345019276854,3
572,2024-09-18 22:45:05.779262976,TASK_BEGIN,010,0.04739513770736862,0.3113198627238831,-3.120639207036482,0.08647531309378512,-1.14487180828298,0.3474629342360697,5.475533889958754,-0.7456177596754976,3
573,2024-09-18 22:45:05.857477888,TASK_BEGIN,010,0.02474848691606869,0.3182046275640601,-3.3380989119516933,0.10548226438050849,-1.1584927071829978,0.35260925332306825,5.631975217833592,-0.7750887432159115,3
574,2024-09-18 22:45:06.795986944,TASK_BEGIN,010,0.002692981587135974,0.32450784905514457,-3.5607524362036167,0.12853682914060172,-1.16499005223539,0.35478981573842094,5.7519877341504,-0.801935218478559,3
575,2024-09-18 22:45:06.858474240,TASK_BEGIN,010,-0.01880494267564128,0.33002378302022223,-3.7859753944219903,0.1552114030071134,-1.1641666367881593,0.3537599737256178,5.830573009550819,-0.8244691422236906,3
576,2024-09-18 22:45:06.936580864,TASK_BEGIN,010,-0.039828204089905166,0.33457533174773696,-4.0094409911157545,0.18463591827483117,-1.1563125272627277,0.3494593226471889,5.865364421629016,-0.8410354075484,3
577,2024-09-18 22:45:06.999066112,TASK_BEGIN,010,-0.060336557551199585,0.33801770039210555,-4.225017417317017,0.21549933005694466,-1.1421412471857366,0.3420260969375737,5.856519190273322,-0.8501188664636457,3
578,2024-09-18 22:45:07.072531968,TASK_BEGIN,010,-0.0800422114112593,0.3402393214258635,-4.425138726051494,0.24614448636384542,-1.1226838528840262,0.3317896000413341,5.806279425706771,-0.850440815207399,3
