,time,MARKER,pid,L_O_DSI,L_D_DSI,L_O_DSphi,L_D_DSphi,R_O_DSI,R_D_DSI,R_O_DSphi,R_D_DSphi,trial_id
0,2024-09-18 22:36:45.501183105,TASK_BEGIN,010,0.1648927228358916,-0.4457990106644168,-4.848053871824418,0.6841346500920746,0.06308067171539543,-0.2445221985182965,-1.0144025117036357,0.01643791137249592,2
1,2024-09-18 22:36:45.569060059,0,010,0.14437017208804032,-0.43600725540247026,-4.555031093352529,0.6561283286276673,0.061516066146080364,-0.2336816574360684,-0.9769595784126874,0.03674752079740374,2
2,2024-09-18 22:36:45.636056885,0,010,0.12227924819133948,-0.4244079495190379,-4.2776932286983556,0.6285523562474534,0.06153537001005187,-0.22197580960195626,-0.966822256356107,0.0627653036621194,2
3,2024-09-18 22:36:45.697604004,0,010,0.09926878704898517,-0.4111464655683195,-4.022787397081253,0.601844955562147,0.06272674744034985,-0.20952699605206337,-0.9853593976530592,0.09354914704290429,2
4,2024-09-18 22:36:45.759649902,0,010,0.0759156899589302,-0.39640521522897404,-3.796272585920535,0.5763979541552956,0.06467527692376293,-0.19646468903110847,-1.0318408775721006,0.12779427777732313,2
5,2024-09-18 22:36:45.836833984,0,010,0.05271061229848745,-0.38040579695602383,-3.603241778233306,0.5525784543164867,0.06697188382624852,-0.18291881083141395,-1.1036595437070142,0.16394205454095667,2
6,2024-09-18 22:36:45.904959961,0,010,0.030008216747237203,-0.3634009353536467,-3.4477088562620417,0.5307465119336822,0.06926222586638647,-0.16902240168124785,-1.196563959617055,0.20029728255692736,2
7,2024-09-18 22:36:46.816397949,0,010,0.007975629433340856,-0.34566012673110724,-3.3322697104742804,0.5112635655391949,0.07130326993615187,-0.15491978556865457,-1.3048445998496527,0.23514023027442116,2
8,2024-09-18 22:36:46.878901123,0,010,-0.013433404677191741,-0.3274536568446962,-3.2577667837301476,0.4944957719770192,0.07298566162881003,-0.14077454536110257,-1.4216281500806973,0.266856570471858,2
9,2024-09-18 22:36:46.961987061,0,010,-0.034467140610627695,-0.3090399718828825,-3.2231281379529957,0.4808143054991086,0.0743094449910655,-0.1267741834939824,-1.5394866454650729,0.2941067545401198,2
10,2024-09-18 22:36:47.029820068,0,010,-0.05552604873059181,-0.29065956865243936,-3.225466930663418,0.470586104172769,0.07533317016913933,-0.11313067910449487,-1.651313742256711,0.31600632370621823,2
11,2024-09-18 22:36:47.095920166,0,010,-0.07707916398097413,-0.2725348216627529,-3.260442406806069,0.4641600240436584,0.07612394432747747,-0.10007565051167909,-1.751188927358784,0.33226424896198076,2
12,2024-09-18 22:36:47.158245117,0,010,-0.09955532896581479,-0.25487302429057285,-3.322812497498347,0.4618622399321873,0.07672204634730415,-0.08784763021299047,-1.8350109781689161,0.34324728060787507,2
13,2024-09-18 22:36:47.233308105,0,010,-0.12322543480489444,-0.2378693979905188,-3.40702445629217,0.4639917481415784,0.07712046235681665,-0.07666999770206122,-1.9008604942559741,0.34995660487661856,2
14,2024-09-18 22:36:48.175996094,0,010,-0.1481053218872373,-0.22170677586516765,-3.50769179981533,0.4707945450743375,0.07725897517157586,-0.06672244341088501,-1.9490849604130267,0.3539043803654826,2
15,2024-09-18 22:36:48.237052979,0,010,-0.17391970333564988,-0.20654962757905684,-3.6199209263634557,0.4824216024654789,0.07703181672404816,-0.05811391765342349,-1.982027704301855,0.3568879855107966,2
16,2024-09-18 22:36:48.311680176,0,010,-0.20014931967131785,-0.19253302765122815,-3.739524061833607,0.4988908324801693,0.07629613428264465,-0.05086469925112287,-2.0033820731448837,0.3606932795748221,2
17,2024-09-18 22:36:48.379525879,0,010,-0.22613015959653027,-0.179751865253043,-3.8630844965061266,0.5200503907173369,0.07486172547949481,-0.04489938217798706,-2.0173575074667704,0.3667944497344747,2
18,2024-09-18 22:36:48.447371094,0,010,-0.25113914991601616,-0.16825735314619386,-3.9877616860947587,0.5455261328278442,0.07246143095410716,-0.04005004436442258,-2.0278902758113344,0.3761146022620991,2
19,2024-09-18 22:36:48.515281006,0,010,-0.2744338980240826,-0.15806308231635302,-4.110812714861971,0.5746570313458712,0.068732181371581,-0.03607158573340157,-2.0379416803840362,0.38886948427561957,2
20,2024-09-18 22:36:48.571077881,0,010,-0.29527610335399235,-0.1491555464621285,-4.2290235136335825,0.6064487926601486,0.06323868432996799,-0.03267025694961646,-2.048880608769114,0.40450291585439047,2
21,2024-09-18 22:36:49.525891113,0,010,-0.31298667318632567,-0.14150096023793465,-4.338388199087024,0.639582818751635,0.055536921256356266,-0.029539285416349134,-2.0601405020530263,0.4217474221578934,2
22,2024-09-18 22:36:49.585301025,0,010,-0.32704183185556657,-0.135044496139966,-4.43428093187585,0.6725036506325891,0.04524886586431074,-0.02639173381982928,-2.069322007063184,0.43882214051304447,2
23,2024-09-18 22:36:49.648248047,0,010,-0.337170466040815,-0.12970563042460215,-4.512039210159969,0.703567609484148,0.03212961545710082,-0.022985049295242296,-2.072612644006511,0.4537028399806855,2
24,2024-09-18 22:36:49.726902100,0,010,-0.3434017961664008,-0.12537588001326605,-4.567577560904155,0.731188516076769,0.016114987742852784,-0.019135885421114718,-2.065297290617639,0.46437097267363037,2
25,2024-09-18 22:36:49.797243164,0,010,-0.34604719023992697,-0.12192137283913644,-4.597692148585231,0.7539214491146196,-0.002675691397575782,-0.014723093588104873,-2.0423043074554106,0.4689955228193122,2
26,2024-09-18 22:36:49.865062988,0,010,-0.34564699357169976,-0.11918827261482087,-4.600063275874285,0.7704903653034524,-0.023992611828377038,-0.00967910536365138,-1.998784980669615,0.4660463278045638,2
27,2024-09-18 22:36:49.928044189,0,010,-0.3429233144685272,-0.1170084839184502,-4.573234680452111,0.7798159623179656,-0.047526573851669224,-0.003977116256675052,-1.9306363597620804,0.45435892502772923,2
28,2024-09-18 22:36:50.836023193,0,010,-0.3387435971726058,-0.11520516916172009,-4.516777470673721,0.7810811206489522,-0.07294620724132475,0.002377322775501245,-1.834908076123486,0.4331876170236972,2
29,2024-09-18 22:36:50.918427979,0,010,-0.3340692459634042,-0.11359842749394261,-4.4315457691462035,0.7738123464603823,-0.09989409762467105,0.009349911115809092,-1.7101197048744885,0.4022725662722436,2
30,2024-09-18 22:36:50.986272949,0,010,-0.3298759868478501,-0.1120102402992344,-4.319774866301467,0.7579285357189138,-0.12797523438279282,0.016882063955458763,-1.5564784014227826,0.36190717540632594,2
31,2024-09-18 22:36:51.054007080,0,010,-0.32706384917207393,-0.11026717317699077,-4.184938903445494,0.733738786889287,-0.15676134746062398,0.024898336985019746,-1.3759601717684566,0.31297574993649496,2
32,2024-09-18 22:36:51.121926025,0,010,-0.32638863502055937,-0.1082006038117015,-4.031513043359661,0.7019108192841632,-0.1858033658022248,0.033313364345358865,-1.1723179744626433,0.25695210148914693,2
33,2024-09-18 22:36:51.178626953,0,010,-0.32843261306082755,-0.1056461680907255,-3.8648288145947354,0.6634423217126826,-0.21463491036426696,0.0420352856922437,-0.9511184230989819,0.19586040907469576,2
34,2024-09-18 22:36:51.257576904,0,010,-0.3336027367969957,-0.10244484298176973,-3.6911032838983293,0.6196557617565106,-0.24276016990713908,0.05096513648687549,-0.7197568597090628,0.13218386935797474,2
35,2024-09-18 22:36:52.198422119,0,010,-0.3421283958258002,-0.09844754289091127,-3.517504225671557,0.5722025920271948,-0.26962625665513174,0.059991338221048594,-0.48723191059439414,0.06870677081715955,2
36,2024-09-18 22:36:52.260906982,0,010,-0.3540415580696246,-0.093523985332969,-3.351955681147268,0.523030331530168,-0.2945855169255163,0.06897968957584165,-0.26353547508910735,0.008312584826043981,2
37,2024-09-18 22:36:52.336980957,0,010,-0.3691475220625142,-0.0875735646166632,-3.202552308084382,0.47428505245742014,-0.3168693135546649,0.07776505241449065,-0.058815844370699186,-0.046208387890060966,2
38,2024-09-18 22:36:52.404797119,0,010,-0.38701384345514667,-0.08053252955805588,-3.076716927211631,0.42816278597878066,-0.33560505284533293,0.08615341353537428,0.11734253327930376,-0.0923043249789172,2
39,2024-09-18 22:36:52.469324951,0,010,-0.4070000485894178,-0.07237365170026047,-2.980263026579296,0.3867299242089855,-0.349889838523605,0.0939368628708878,0.2563269743737883,-0.12776292114795054,2
40,2024-09-18 22:36:52.540257812,0,010,-0.4283239207143437,-0.06310077305714056,-2.9165019048946705,0.3517301549774959,-0.35890376610261004,0.10091657768453012,0.35069480397110214,-0.1507924154099465,2
41,2024-09-18 22:36:52.608300049,0,010,-0.4501379334654858,-0.05274356740705471,-2.885620769805214,0.32441011778080286,-0.3620371160408908,0.10692734794811165,0.39439780455520546,-0.16010177947286774,2
42,2024-09-18 22:36:53.549885986,0,010,-0.4715852593684186,-0.04135655673911639,-2.8845347932559315,0.3054003897999138,-0.35900976371878657,0.11185824080777661,0.3831334302650367,-0.1549787799922425,2
43,2024-09-18 22:36:53.615035156,0,010,-0.49181678441220966,-0.029023917100873042,-2.907241297487577,0.2946749822332613,-0.34995275544813437,0.1156640590250209,0.3147250118889815,-0.13534930390366504,2
44,2024-09-18 22:36:53.677479004,0,010,-0.5099803095700034,-0.015867062125694047,-2.9455658427326585,0.29159421018719484,-0.3354223929369606,0.1183654347225183,0.18939496471569223,-0.10180654627178293,2
45,2024-09-18 22:36:53.749401123,0,010,-0.5252182810391487,-0.0020476935273488137,-2.9901766360917645,0.29501893301114274,-0.3163479959389926,0.12004217868800292,0.009858877343156035,-0.05560516201149765,2
46,2024-09-18 22:36:53.822156006,0,010,-0.5366933272232749,0.01223827614528117,-3.0317867181956357,0.30347962560442915,-0.2939414176387496,0.12082661251969805,-0.2187545959452363,0.0013857143577349067,2
47,2024-09-18 22:36:53.882680908,0,010,-0.5436236348373216,0.026772841468685984,-3.062380792121713,0.31537593123710406,-0.26959021948539325,0.12089888272849106,-0.48906567080356717,0.06676942337662545,2
48,2024-09-18 22:36:53.957854980,0,010,-0.545316775706271,0.04132955763798956,-3.0761190535776404,0.329155939889361,-0.24474002513574952,0.12048170200526255,-0.7916551563603897,0.13774631069855645,2
49,2024-09-18 22:36:54.900793945,0,010,-0.5412269782891928,0.05568940763151416,-3.0696150001351583,0.34342336773895416,-0.2207708437602557,0.11983139483272448,-1.1154913854566935,0.21128705588714958,2
50,2024-09-18 22:36:54.968697021,0,010,-0.531048371900811,0.06965877950786865,-3.041587628991582,0.35696352856518637,-0.19888067237820933,0.11922435640816925,-1.4487273436858616,0.28436170643694303,2
51,2024-09-18 22:36:55.036524170,0,010,-0.5148016300470954,0.08308266749346409,-2.9921140142504576,0.3687150272505908,-0.17999278357955176,0.11894082486182621,-1.7797639816901423,0.35420103170890727,2
52,2024-09-18 22:36:55.089075928,0,010,-0.49285833233607995,0.09584681085806451,-2.9217797933327034,0.37772368631396247,-0.1646981763036255,0.11924801713233465,-2.0982744466568737,0.41853638777655744,2
53,2024-09-18 22:36:55.167633057,0,010,-0.4658899253652776,0.10787026271198337,-2.8310189801481958,0.38311013004628824,-0.1532359010899943,0.12038177835915741,-2.395889973590125,0.475756307267485,2
54,2024-09-18 22:36:55.230915039,0,010,-0.4347665665533842,0.11909319268938001,-2.7197779872460854,0.38405950110342296,-0.14550811526899313,0.12252519985322784,-2.6664421027108713,0.524950402946919,2
55,2024-09-18 22:36:55.307792969,0,010,-0.40044148544171065,0.12946319354775981,-2.587440353851698,0.3798254059850962,-0.14112519197363682,0.12578694164031926,-2.905867138821361,0.5658617924242295,2
56,2024-09-18 22:36:56.250960205,0,010,-0.3638529635442626,0.1389229949465714,-2.4329508030736977,0.3697583473174648,-0.13947318385010085,0.13018578319944324,-3.111895836173852,0.5987871003433793,2
57,2024-09-18 22:36:56.315261963,0,010,-0.32585844300420747,0.1474016289328613,-2.2551846177920294,0.3533814724725888,-0.13979284705393769,0.1356464016437575,-3.283586756809548,0.6244520101550237,2
58,2024-09-18 22:36:56.386629150,0,010,-0.2871928851426615,0.15480856665067133,-2.0535604583070555,0.33050374748548034,-0.14125935525486616,0.14200636828277383,-3.42080423822737,0.6438804300755282,2
59,2024-09-18 22:36:56.454418945,0,010,-0.2484470661417759,0.16103112465504635,-1.828746499878089,0.3013288891961514,-0.1430511113389753,0.14902987886184452,-3.5237755236817687,0.6582599210866071,2
60,2024-09-18 22:36:56.517280029,0,010,-0.21007753943774773,0.16593858702320421,-1.5832732170698778,0.26653052878973044,-0.14439852055132438,0.15642280738523856,-3.592774546801133,0.6687897088716064,2
61,2024-09-18 22:36:56.581535156,0,010,-0.1724457026361384,0.1693949947280337,-1.3219394295377551,0.22728545189759308,-0.14461465930181933,0.16384701439368235,-3.6278843158374157,0.6765053426929294,2
62,2024-09-18 22:36:56.657885986,0,010,-0.13585855719063317,0.17127731159055226,-1.051976617926337,0.18526104031875162,-0.1431200039227255,0.1709365177154965,-3.6287931422710393,0.6820985213766317,2
63,2024-09-18 22:36:57.571080078,0,010,-0.10059109346689238,0.17149342603892792,-0.7829569837306288,0.14255288498430393,-0.1394721151711702,0.17731947350770857,-3.594667518036581,0.6857708159923626,2
64,2024-09-18 22:36:57.643790039,0,010,-0.06689725654671191,0.16999695303906437,-0.5263756682033668,0.10156655938797958,-0.13340003420348215,0.1826464749780835,-3.524224626967914,0.6871688205423266,2
65,2024-09-18 22:36:57.704705078,0,010,-0.03503193445010737,0.16679995290235985,-0.29482525074149946,0.06483995019004832,-0.12483234200932368,0.18662113340165026,-3.4160812546599484,0.6854346540957451,2
66,2024-09-18 22:36:57.766759033,0,010,-0.005292713035643613,0.1619849751508301,-0.10080404461535221,0.03481824550223173,-0.11390997464771321,0.18902736149365076,-3.2692760113288455,0.6793630566182309,2
67,2024-09-18 22:36:57.845035889,0,010,0.021943174740809198,0.15571284197613383,0.04464550321135311,0.013610679730511107,-0.10098693442613985,0.1897493850752095,-3.0837334178437454,0.6676139417575218,2
68,2024-09-18 22:36:57.906119141,0,010,0.04621732435604081,0.14822055183560734,0.13318974413272178,0.0027667602735109036,-0.08662354588310792,0.1887827044062437,-2.860527836825811,0.6489302386891194,2
69,2024-09-18 22:36:57.982877930,0,010,0.06702640958298853,0.139808423287627,0.1600798457077387,0.003111927460288054,-0.07156302584266344,0.1862346874511996,-2.6020022635841746,0.6223378104583376,2
70,2024-09-18 22:36:58.926037109,0,010,0.08388567674827847,0.130819270804784,0.12451439152838319,0.014672533889117557,-0.056673287498240084,0.18231226416149207,-2.311856496868418,0.5873086185049503,2
71,2024-09-18 22:36:58.993915039,0,010,0.09641356240190808,0.12161239156677227,0.029527938009656685,0.03669641696747159,-0.042848163311668665,0.1772948825037109,-1.995219720234582,0.5438640380729393,2
72,2024-09-18 22:36:59.059464111,0,010,0.10441748604647991,0.11253673649532897,-0.11852494940087667,0.06775879684615758,-0.030887789702524693,0.17149631262277312,-1.6586480724547434,0.49260832312626274,2
73,2024-09-18 22:36:59.129521973,0,010,0.10794347151359918,0.10391043301723386,-0.3108702087788199,0.10593729232358379,-0.02139386863464968,0.16522511821472577,-1.3100068089616568,0.4346939556175052,2
74,2024-09-18 22:36:59.197320068,0,010,0.1072638280317875,0.09601290006201509,-0.5374597114044106,0.14902666130795192,-0.01470518549328112,0.15875348412102058,-0.9582195496993727,0.37172488221730554,2
75,2024-09-18 22:36:59.260438965,0,010,0.10281178532411066,0.08908993627309462,-0.7880497499285708,0.19475389283832056,-0.010871825242201429,0.15229710758891932,-0.6128786686565975,0.30561419761427844,2
76,2024-09-18 22:36:59.329137207,0,010,0.09509740205604766,0.0833651644007503,-1.0529429484830504,0.24095714261904083,-0.009654619834968165,0.14600326988807763,-0.2837495715202643,0.23842315316210777,2
77,2024-09-18 22:37:00.273750977,0,010,0.0846342032513802,0.07904871294043125,-1.3233070082888987,0.2856970747169263,-0.01054868604586788,0.1399456601171731,0.0197777900685496,0.17220472826215877,2
78,2024-09-18 22:37:00.344395020,0,010,0.07189177693172381,0.07633701740656351,-1.591161461543352,0.3272935494683151,-0.012836515926919879,0.1341278724992943,0.28923923878129143,0.1088667426210137,2
79,2024-09-18 22:37:00.411218994,0,010,0.05729039831194093,0.07540189978953045,-1.8492374091901007,0.36432173058683215,-0.015663586005807625,0.12849679106410358,0.5176161192203169,0.050063089529909954,2
80,2024-09-18 22:37:00.473372070,0,010,0.041246602592541745,0.07637084490168411,-2.0908629021630243,0.395603405254504,-0.018121999538262545,0.12296403680893256,0.6998733948267593,-0.002894574717693806,2
81,2024-09-18 22:37:00.547854004,0,010,0.02424482331487261,0.07930474059740376,-2.3099148594881456,0.42019993772374764,-0.019333508718431088,0.117431260976266,0.8335658124366702,-0.04911672348504075,2
82,2024-09-18 22:37:00.607877930,0,010,0.0068844568659597845,0.08418186865419594,-2.500898722057828,0.4374172972452501,-0.018526113346875928,0.11181387341533208,0.9193426878906369,-0.08819083370509127,2
83,2024-09-18 22:37:00.683209961,0,010,-0.010134034966175726,0.09089399823779706,-2.6591842523256464,0.4468384155743285,-0.015093810608959979,0.10605762174319693,0.9610145279134898,-0.12017759243720859,2
84,2024-09-18 22:37:01.622445068,0,010,-0.02608258280152156,0.09925403634995328,-2.781217516873411,0.4483543265540496,-0.008626198732032932,0.10014359714453708,0.9650277437248141,-0.14554041914791008,2
85,2024-09-18 22:37:01.694058105,0,010,-0.0403086173223715,0.10901059135479345,-2.864485481065669,0.4421448315095062,0.0010966020636045673,0.09408114464053943,0.9395555614702129,-0.16503400033999974,2
86,2024-09-18 22:37:01.761896973,0,010,-0.052331381448376874,0.11986492789951757,-2.907283981411412,0.42861006957196934,0.014132262885539183,0.08789276039005571,0.8935445160221671,-0.17958395347900874,2
87,2024-09-18 22:37:01.822844971,0,010,-0.06190155727419868,0.1314865270942426,-2.908599845690905,0.4083040724839531,0.030410752757088436,0.08159627724986727,0.8358546141473852,-0.19017083438624144,2
88,2024-09-18 22:37:01.885427002,0,010,-0.06900693230891475,0.1435238020002543,-2.8683449313234712,0.3819139290449445,0.049764506943541266,0.0751887444595641,0.774466101611769,-0.19772026041419166,2
89,2024-09-18 22:37:01.963077881,0,010,-0.07383145118350978,0.15561031095940744,-2.787836651952686,0.35028722674763346,0.07195095604406299,0.06863586759520507,0.7158526651303817,-0.20301745914426156,2
90,2024-09-18 22:37:02.025135010,0,010,-0.07669942338789013,0.16737141754331844,-2.6701960212472016,0.3144789201117645,0.09666832205158948,0.06186995004898305,0.664725101912644,-0.20667518421117473,2
91,2024-09-18 22:37:02.949707031,0,010,-0.07802918323575055,0.17843379912002302,-2.5204635472116625,0.27578759656182206,0.123567538895621,0.054797163295217326,0.6241617124181358,-0.20915650908098918,2
92,2024-09-18 22:37:03.011856934,0,010,-0.0782916130777945,0.18843421802642324,-2.345479877518891,0.2357657197831638,0.15226514768846286,0.04731176440520779,0.5959403075737235,-0.210821044201572,2
93,2024-09-18 22:37:03.074342041,0,010,-0.07796348263297352,0.19702493565504164,-2.1536120757702113,0.19618843949811812,0.18235951306520054,0.03931320283019851,0.5809413637106037,-0.21196938594502024,2
94,2024-09-18 22:37:03.151617920,0,010,-0.07747865949323236,0.203878047229268,-1.9542574684771163,0.15895739851830376,0.21343901014904884,0.030724183947438432,0.5796211397334001,-0.21288850385591493,2
95,2024-09-18 22:37:03.214104980,0,010,-0.07717850375182798,0.2086912403996169,-1.757055402201982,0.12594084112623707,0.24506677193992257,0.021509308448573888,0.5924777815130199,-0.21389089239281192,2
96,2024-09-18 22:37:03.278090088,0,010,-0.07725718547394447,0.21119515850749027,-1.5709698898056155,0.09880225515701153,0.2767525248142433,0.011690924229941285,0.6202582443915146,-0.21529957873940975,2
97,2024-09-18 22:37:03.353195801,0,010,-0.07770576989863624,0.21116153588064607,-1.40352547957701,0.07887817543385073,0.30794036348492065,0.001356687279427842,0.6637399058474098,-0.2173506824263142,2
98,2024-09-18 22:37:04.287406982,0,010,-0.07827081825175346,0.20841109106311823,-1.2603371938950114,0.0671150861644158,0.3380132859168736,-0.009342483715764141,0.723251929343525,-0.22007331971726907,2
99,2024-09-18 22:37:04.368266113,0,010,-0.07845296533076178,0.20282176832963175,-1.1449273102804145,0.06403485407195429,0.36628696906495556,-0.020200376864686086,0.7982830962276033,-0.22324752115982008,2
100,2024-09-18 22:37:04.427370117,0,010,-0.07756902402364184,0.19433940674842115,-1.0587684351110676,0.06970855582088437,0.39199194394443126,-0.0309669808954032,0.8873943417578323,-0.22647995244098276,2
101,2024-09-18 22:37:04.503946045,0,010,-0.07487580052693059,0.18299015827041004,-1.0014569438994751,0.08374624610077121,0.4142839188757447,-0.04136455836644664,0.9883822433270748,-0.22934179139840288,2
102,2024-09-18 22:37:04.571781006,0,010,-0.06972240118606234,0.16888975982450494,-0.9709314735554697,0.10531626000452973,0.43230715703289835,-0.051107876389988635,1.0984630675580358,-0.23147207966756603,2
103,2024-09-18 22:37:04.635428955,0,010,-0.06168720996944113,0.15224497334585763,-0.9636939419958854,0.1331894765624394,0.44528524422056887,-0.05992434805165468,1.2143272560384117,-0.23259701064168675,2
104,2024-09-18 22:37:04.697026855,0,010,-0.05066692112064994,0.13334656065025213,-0.9749883485511428,0.16578931524666318,0.45259899686534766,-0.0675699723691984,1.3321383006780998,-0.23249591414135864,2
105,2024-09-18 22:37:05.650552979,0,010,-0.03690095941670308,0.1125561570620533,-0.9988991282082484,0.2012414206531032,0.4538371475482287,-0.07383961582047689,1.4476143769459502,-0.23097087987317594,2
106,2024-09-18 22:37:05.713537842,0,010,-0.020929872027200848,0.09029084389235496,-1.0284182299226563,0.2374407900067983,0.44882143504147565,-0.07857127471158684,1.5561787309136121,-0.2278382879123177,2
107,2024-09-18 22:37:05.775576172,0,010,-0.0035127839483207095,0.06701108179288456,-1.0556152211572938,0.2721560374918305,0.4376070659614798,-0.08164574714080124,1.6530807405682753,-0.22292655344196066,2
108,2024-09-18 22:37:05.852780029,0,010,0.014448964700863785,0.043215501408634935,-1.072032792856506,0.30317317771769675,0.4204639957843708,-0.08298628960767311,1.7335330425728657,-0.21608039898408402,2
109,2024-09-18 22:37:05.921910889,0,010,0.031958219437173425,0.019437280636854567,-1.0693429051279326,0.3284666164833292,0.39784625550837366,-0.08256151221761385,1.7930213516561306,-0.20719407213885724,2
110,2024-09-18 22:37:05.989779053,0,010,0.04796139833969537,-0.0037672971302387137,-1.0401973473351236,0.34637469804700555,0.37035145862774466,-0.08038971875395075,1.8277916587595666,-0.196272595783684,2
111,2024-09-18 22:37:06.055109131,0,010,0.061410427249277755,-0.02583992832027378,-0.9791222135575562,0.35574494907684073,0.3386778382234553,-0.07654177932400161,1.8353179465088876,-0.1834854205034831,2
112,2024-09-18 22:37:06.996071045,0,010,0.07135065079439162,-0.04624590957754179,-0.8832491230123024,0.35601426683420034,0.30359211017813686,-0.07114176403940628,1.8145762978556448,-0.1691828839897854,2
113,2024-09-18 22:37:07.061642822,0,010,0.07702659248677951,-0.0645021045938361,-0.7527254314634811,0.34721664978198846,0.2659079657846251,-0.06436466151144063,1.7661237828172323,-0.15387996792447853,2
114,2024-09-18 22:37:07.136291992,0,010,0.07799567459349856,-0.08020845684768634,-0.5908183353916339,0.32994256576103437,0.22646101410193545,-0.05642964918917538,1.6920614505247356,-0.13822688602065902,2
115,2024-09-18 22:37:07.195777832,0,010,0.0742237250808964,-0.09307970279191644,-0.40379291621486424,0.30527184238152427,0.18607265128758155,-0.047588238040752906,1.5958806398397922,-0.12296261845364935,2
116,2024-09-18 22:37:07.258265137,0,010,0.06612555458274601,-0.10296801230247064,-0.20052483263895865,0.27467698854730566,0.14551096669713734,-0.03810907369368274,1.482133784256387,-0.108829569450496,2
117,2024-09-18 22:37:07.339777832,0,010,0.05453702936336395,-0.10986927399147357,0.008221240379716638,0.23989219169763717,0.10546399902348483,-0.02826328167747079,1.3559569860242355,-0.09645677338545053,2
118,2024-09-18 22:37:07.397120850,0,010,0.04063869037478302,-0.1139140590232037,0.21079154465171038,0.20276341590698266,0.0665314653678982,-0.018313081249846454,1.2225683003165313,-0.08625373646791852,2
119,2024-09-18 22:37:08.315152100,0,010,0.02585788583655712,-0.11534971691880824,0.3957941822860183,0.16509531549373005,0.02922896256976308,-0.008503178594604909,1.0868583337497917,-0.0783519837465586,2
120,2024-09-18 22:37:08.391830811,0,010,0.011763568620751792,-0.11451871294801992,0.5532578014478203,0.12849711825073545,-0.005993643252787068,0.0009463271777288132,0.9531241078662719,-0.07261110343773586,2
121,2024-09-18 22:37:08.461818115,0,010,-4.0966819430213036e-05,-0.11183518204860331,0.6756079997579579,0.09423849246524403,-0.038712621752393435,0.009846299625829035,0.8249366074318518,-0.06869164706720644,2
122,2024-09-18 22:37:08.529640869,0,010,-0.00802586606564524,-0.1077602619585205,0.7582646696185508,0.06314964497022779,-0.06849103941178353,0.018046537436451075,0.7050979007485574,-0.06617583057294853,2
123,2024-09-18 22:37:08.597458984,0,010,-0.01084504137689149,-0.1027753265342152,0.7997292189871203,0.03560546160469805,-0.09488101529592353,0.025446938940918467,0.5956521084584613,-0.06469840122367533,2
124,2024-09-18 22:37:08.665298096,0,010,-0.00745360982304171,-0.0973509951295799,0.8011464578744883,0.01160753512880645,-0.11747311556605412,0.032007343411780756,0.49797201429564714,-0.06405783720128543,2
125,2024-09-18 22:37:08.725200928,0,010,0.0027638881543923014,-0.09191170348654899,0.7655058457901345,-0.009067030311900393,-0.13595101774042154,0.03774813389234396,0.4129607932143931,-0.0642918159796175,2
126,2024-09-18 22:37:09.664397949,0,010,0.019864156233097695,-0.08680121267609929,0.6967825337830278,-0.026709025412235278,-0.15010892917547267,0.04273798096686591,0.3412989947909903,-0.06569284549565654,2
127,2024-09-18 22:37:09.743546875,0,010,0.04325303062971598,-0.08225958214028802,0.5992637551016569,-0.04156224309084092,-0.15981893741677541,0.04707096921932247,0.2835635849109133,-0.0687404064972125,2
128,2024-09-18 22:37:09.806271973,0,010,0.07168579193383844,-0.07842014294939728,0.47717242564463785,-0.05377389595155557,-0.16495757252366713,0.05083797999434777,0.24013324094811675,-0.07396201443289531,2
129,2024-09-18 22:37:09.866134766,0,010,0.10338606504988725,-0.07532558098099501,0.3346588772347241,-0.06341312651327816,-0.16531681546936094,0.05409844921232729,0.21097637522344423,-0.08177095624614507,2
130,2024-09-18 22:37:09.946931885,0,010,0.13625240649059894,-0.0729546358335884,0.17616891484870828,-0.07054109848499948,-0.16054182450814694,0.056859605009280126,0.1954758367465796,-0.09233300654493774,2
131,2024-09-18 22:37:10.006259033,0,010,0.16809402786599587,-0.07125068529706449,0.0070172998634151695,-0.07530093122471564,-0.15013792563050582,0.05906928811408033,0.19240192338752599,-0.10550182653879193,2
132,2024-09-18 22:37:10.069147217,0,010,0.19685209827236794,-0.07014596087350199,-0.1661330174116103,-0.0779925394078803,-0.13356132207448237,0.06062450319568738,0.2001274844024511,-0.12084239738030325,2
133,2024-09-18 22:37:11.019899902,0,010,0.22078290977151116,-0.06957700797344749,-0.3351672174403507,-0.07910068791599083,-0.110367797762511,0.061392498482320555,0.21710374900607135,-0.13773235155939373,2
134,2024-09-18 22:37:11.081954102,0,010,0.23858704280557425,-0.06949069695106073,-0.49092226583284077,-0.07926009361694251,-0.08036788872328977,0.06123740375591707,0.24244958925863053,-0.15550342226106023,2
135,2024-09-18 22:37:11.160109131,0,010,0.2494811035666401,-0.06984507978036916,-0.623999026337399,-0.07917085537782921,-0.04374587446670039,0.0600461314719042,0.2764269729924705,-0.17357571112572737,2
136,2024-09-18 22:37:11.222261963,0,010,0.2532288574970384,-0.0706111918638386,-0.7257582862542811,-0.07949226864227098,-0.0011375177504866353,0.05775213738889154,0.3205958698141627,-0.1915463569412802,2
137,2024-09-18 22:37:11.297004883,0,010,0.25014890890371827,-0.07177801698827362,-0.7893105081356551,-0.08073853285293242,0.046319638918924384,0.05435741166853219,0.3774509510644881,-0.20920394227528585,2
138,2024-09-18 22:37:11.361519043,0,010,0.2410823480578855,-0.07335537843906388,-0.8103398419985539,-0.08320151939369583,0.09697571772371602,0.04994770173511836,0.44945438053761233,-0.22644907729871222,2
139,2024-09-18 22:37:11.432651123,0,010,0.2272828067202238,-0.07536665517576087,-0.7876221950204081,-0.08692511759848486,0.14872743963399004,0.04469412939166895,0.5377024011121897,-0.2431352406847719,2
140,2024-09-18 22:37:12.375933838,0,010,0.21022825476834683,-0.07783047952123172,-0.7231943493387929,-0.09173025478162417,0.19914298748170775,0.03884183978861362,0.6407518306184719,-0.2588993210055047,2
141,2024-09-18 22:37:12.428308105,0,010,0.19140876038767016,-0.0807394265439867,-0.6222155122344982,-0.09726132189775913,0.24561410784088253,0.032691601270635556,0.7540536695147839,-0.27307007521352566,2
142,2024-09-18 22:37:12.511472900,0,010,0.17215415624327063,-0.08404373988841235,-0.4925479714265292,-0.1030262482098912,0.2855079872631067,0.02657776802794399,0.8700847463981028,-0.2846907888915832,2
143,2024-09-18 22:37:12.567298096,0,010,0.15352646684545443,-0.08764210763015255,-0.3440457243017502,-0.10842754851750415,0.31632357004524164,0.02084310324493764,0.9790254595669663,-0.2926251120721677,2
144,2024-09-18 22:37:12.644770996,0,010,0.13625471937227102,-0.09137706286580503,-0.18756034200445332,-0.11280440172024969,0.33586628038993255,0.015811599502125694,1.0697928623571493,-0.2956961062048565,2
145,2024-09-18 22:37:12.706770996,0,010,0.12068667408179644,-0.09503403080366919,-0.03375658120462971,-0.11550599432935237,0.3424338759838049,0.011763009332813884,1.13124284552728,-0.29282820629579914,2
146,2024-09-18 22:37:12.782882080,0,010,0.10677792897599032,-0.09834899494707558,0.10808353991881851,-0.11598961316745295,0.334979668387696,0.008914384374247492,1.1533887163716308,-0.2831826236670148,2
147,2024-09-18 22:37:13.700575195,0,010,0.09415818498480505,-0.1010304908244761,0.2310511578173924,-0.11390960930226258,0.3132188001779749,0.0074108021353031265,1.128520330284728,-0.2662812168092452,2
148,2024-09-18 22:37:13.756077148,0,010,0.08227391260781117,-0.1027939330783863,0.3311919226932771,-0.10916933985880968,0.2776714230393138,0.0073212242112692125,1.0520877999163647,-0.24210318140945222,2
149,2024-09-18 22:37:13.833254150,0,010,0.07057425212228809,-0.10340086061729115,0.407592170077183,-0.10194000045761911,0.22965629425822243,0.008634625342369775,0.9232376065118896,-0.21113006570625176,2
150,2024-09-18 22:37:13.895506104,0,010,0.05870538777746332,-0.1026957357719606,0.4620745062993075,-0.09266358175122594,0.17123547840695064,0.011258076411395377,0.7449741941375422,-0.17432277822673492,2
151,2024-09-18 22:37:13.972266113,0,010,0.04666548408101044,-0.10063220655518053,0.49868687480249163,-0.08204104538957072,0.10509768551589226,0.015021887767282159,0.5239620274448269,-0.13303835288399618,2
152,2024-09-18 22:37:14.035145020,0,010,0.034870274073626535,-0.0972822075935147,0.5231069583445817,-0.07099753537933923,0.034381386126500095,0.019692820874908805,0.2699896239762286,-0.08891386969696909,2
153,2024-09-18 22:37:14.097631836,0,010,0.02412217778851492,-0.09282796767754016,0.5420197296273033,-0.06062486825978794,-0.0375418819216668,0.024993315892575873,-0.004892357810527745,-0.043733908658999246,2
154,2024-09-18 22:37:15.050451904,0,010,0.015508795128640273,-0.08754036701989028,0.5624913450138351,-0.05210656790606392,-0.10729826434359145,0.030625794101682317,-0.28753764744965116,0.0007240340773947285,2
155,2024-09-18 22:37:15.116633789,0,010,0.010248035475664724,-0.081745250071078,0.591319683346577,-0.046627918488534724,-0.1717364824042687,0.036300455304611755,-0.5650183315810944,0.04285341040851145,2
156,2024-09-18 22:37:15.186151123,0,010,0.009500375709347546,-0.07578170764421757,0.6343461325255799,-0.045269494118235803,-0.22813514746986122,0.04176174105251811,-0.8257460685101871,0.08133660973990381,2
157,2024-09-18 22:37:15.246011963,0,010,0.014193923214205567,-0.0699621659769398,0.6957847224571582,-0.048881137945349915,-0.2743800878746188,0.04680762311301642,-1.0600730263869798,0.11516486447625425,2
158,2024-09-18 22:37:15.318624023,0,010,0.02490564179011493,-0.06454342383458272,0.7776756090785362,-0.05794605855968008,-0.3090901280072103,0.051298124624619926,-1.2603155216661457,0.14356629137711568,2
159,2024-09-18 22:37:15.381540039,0,010,0.041808766483829696,-0.05971056021999322,0.8795826875031331,-0.07247240917490796,-0.3316705290094638,0.05515260222131112,-1.4204641465359364,0.16590430675384985,2
160,2024-09-18 22:37:15.443048096,0,010,0.06466321673916664,-0.05556955681041787,0.998619749164857,-0.09195285890042963,-0.34229224232371813,0.058338545527970354,-1.5359442222833735,0.18161401213043873,2
161,2024-09-18 22:37:16.400605957,0,010,0.09281488085025826,-0.052144173703799576,1.129782764761955,-0.11539583127413969,-0.34181369157225394,0.06085692466453155,-1.6036339696934527,0.1902079471624751,2
162,2024-09-18 22:37:16.468458984,0,010,0.1251961798757509,-0.049377714483615685,1.2665173885003418,-0.14141120586036757,-0.3316660245800398,0.06272847634689431,-1.6221455433357708,0.1913464630304022,2
163,2024-09-18 22:37:16.536263916,0,010,0.16035742345851625,-0.047144918679273354,1.401480881076229,-0.16834360423624942,-0.3137207919135789,0.06398302895304445,-1.5922672705422027,0.18494977242382676,2
164,2024-09-18 22:37:16.604077148,0,010,0.19655637424214006,-0.045277112679453564,1.5273941960099024,-0.19443459181511388,-0.29015289888892387,0.0646530866529135,-1.517411382212643,0.17131802246951508,2
165,2024-09-18 22:37:16.657507812,0,010,0.23190069565711408,-0.04359677760200952,1.6377688882559254,-0.2179667077563739,-0.2632979522872362,0.06477257474505618,-1.4038524116679365,0.15121410433891178,2
166,2024-09-18 22:37:16.734733887,0,010,0.26451442993745133,-0.04195197057087204,1.7273404863877915,-0.23735770027190145,-0.23549802010780402,0.06437947773753773,-1.2605340567164005,0.12586607018213591,2
167,2024-09-18 22:37:16.807561035,0,010,0.29269366690586684,-0.040240208313748596,1.7922457312647007,-0.25123057655679554,-0.20894320502695293,0.06351860166702433,-1.0983710254883265,0.09688247444242755,2
168,2024-09-18 22:37:17.751568115,0,010,0.3150269728973947,-0.038417555775249725,1.8301403230303133,-0.2585122044026903,-0.18552534752755193,0.06223984676460375,-0.9292145126886879,0.06611793042275121,2
169,2024-09-18 22:37:17.816384033,0,010,0.330474861515746,-0.03649794695765263,1.8403827576981857,-0.25856960489116415,-0.16671387528133824,0.0605887707257453,-0.7647447460090238,0.03552679201185359,2
170,2024-09-18 22:37:17.877892090,0,010,0.33840730842835376,-0.03454977431996795,1.8241806165914622,-0.25132620455138377,-0.15346545015062701,0.0585912394701233,-0.6154499404058111,0.007014097070261962,2
171,2024-09-18 22:37:17.940116943,0,010,0.33859625471616966,-0.03269020265122362,1.7844842759310087,-0.23728422314210207,-0.1461906090366593,0.056240098580650724,-0.4897941497527582,-0.01770957381376394,2
172,2024-09-18 22:37:18.017376953,0,010,0.3311739687289401,-0.031073979040842983,1.7255433485034666,-0.2174288556870136,-0.14479178923073888,0.053492362804221746,-0.39372295410296443,-0.0372442163947306,2
173,2024-09-18 22:37:18.078943115,0,010,0.3165859982382129,-0.02987786820511075,1.6522565512805687,-0.19305502720472104,-0.1487574858428879,0.05027935031896376,-0.3305716865611602,-0.05056727954018068,2
174,2024-09-18 22:37:18.157516846,0,010,0.2955640481092198,-0.02928554491103982,1.569534317585838,-0.16558478972884036,-0.15728351552742445,0.04652608082146469,-0.3012408328599675,-0.05705441903595318,2
175,2024-09-18 22:37:19.101924805,0,010,0.2691204374703515,-0.029474456631012173,1.4818183573549104,-0.13642721440445413,-0.1694012839923277,0.042174151897813664,-0.30444792466094445,-0.056470279922612984,2
176,2024-09-18 22:37:19.162885010,0,010,0.2385434013778598,-0.030601972109413126,1.3927622422906178,-0.10689364791165268,-0.18409585031411516,0.0372021487205717,-0.3369959724203267,-0.04894560892256112,2
177,2024-09-18 22:37:19.227369141,0,010,0.20536634901908915,-0.032789185353975785,1.3049622120425002,-0.07813843117782986,-0.2003938182416082,0.031638569630917,-0.3941346717990932,-0.034949062257418236,2
178,2024-09-18 22:37:19.302922852,0,010,0.17129342215402746,-0.03610325494807693,1.2196495520451707,-0.051084710023102546,-0.21741321094556842,0.02556506821517113,-0.4700717586406867,-0.015253006425500345,2
179,2024-09-18 22:37:19.364032959,0,010,0.1380819179397165,-0.04053946208691807,1.136459144579673,-0.026339132457613983,-0.23438525698974338,0.019111122678202926,-0.5585395977840815,0.009109549069584237,2
180,2024-09-18 22:37:19.426567139,0,010,0.10740104320158059,-0.046005079596812826,1.0535550917155478,-0.00415122766112083,-0.2506652082103048,0.012443649859103253,-0.6532389117240018,0.03690040970512443,2
181,2024-09-18 22:37:19.503761963,0,010,0.08069930214197875,-0.05230965923295469,0.9682455083072709,0.015539287316295251,-0.26574557552566525,0.005755507036893516,-0.7480811669901803,0.06674467417490261,2
182,2024-09-18 22:37:20.426305908,0,010,0.05911410538947199,-0.05916666846732227,0.877829676373892,0.03299728643879922,-0.2792728933724146,-0.0007449191621406175,-0.8373210162880956,0.09720194263230209,2
183,2024-09-18 22:37:20.494136963,0,010,0.04343837587839547,-0.06620758131831782,0.780228160859131,0.04860215856850847,-0.29105848343357044,-0.006842084577552969,-0.9157388452690656,0.12682976928012907,2
184,2024-09-18 22:37:20.560106934,0,010,0.03412660694918111,-0.07300469453405829,0.6741980983056727,0.06280618097484705,-0.3010748079567882,-0.012319438088541973,-0.9789381839046947,0.15424385417917033,2
185,2024-09-18 22:37:20.622617920,0,010,0.031306009283221,-0.07909729427913209,0.5593108145638165,0.07611309901436093,-0.3094358630187854,-0.016965640524777167,-1.0236571897311697,0.17818276766979874,2
186,2024-09-18 22:37:20.685123047,0,010,0.03477323427786603,-0.08401758893930905,0.4359355920551184,0.0890400971021066,-0.31636372196627166,-0.02058381641201475,-1.0479330264419346,0.1975720008274711,2
187,2024-09-18 22:37:20.765348877,0,010,0.04398280361669792,-0.08731500207673988,0.30528325487099445,0.1020574710926504,-0.3221431616965066,-0.023003152924390705,-1.0510748144925017,0.21157865468575252,2
188,2024-09-18 22:37:20.833197021,0,010,0.05804582974706348,-0.08857859972833215,0.1694625922290213,0.11551357666091563,-0.3270671373359757,-0.02408951360852036,-1.0335555534168206,0.21965926053766208,2
189,2024-09-18 22:37:21.767979004,0,010,0.0757624776053427,-0.08745910100242864,0.031562512833082715,0.12954301657295755,-0.3313812713353871,-0.02375316972378527,-0.9969544174157603,0.22160986667174268,2
190,2024-09-18 22:37:21.830467041,0,010,0.09570739577110403,-0.0836932277115472,-0.10423781039054886,0.1439657044158122,-0.33523936665487986,-0.021953587170519814,-0.9439673796730267,0.21761814056940149,2
191,2024-09-18 22:37:21.912018066,0,010,0.11635853391673893,-0.07713046937120084,-0.23266448109287247,0.15821659176988132,-0.3386781271027505,-0.018701162976152402,-0.8783632831036462,0.20829353706511075,2
192,2024-09-18 22:37:21.972322021,0,010,0.13623212798558462,-0.0677570065243992,-0.34760757830114847,0.17135430279133743,-0.3416149893492473,-0.014055234906455605,-0.8047323970220208,0.19463737290433708,2
193,2024-09-18 22:37:22.047656006,0,010,0.15399390983067693,-0.055709125996279744,-0.4426135501030644,0.18215917048036315,-0.3438744609286855,-0.008117519959828038,-0.7280370651003855,0.1779419239019658,2
194,2024-09-18 22:37:22.115444824,0,010,0.16853894832559496,-0.0412707009006048,-0.5114348321803145,0.18928517630571423,-0.34524648858410456,-0.0010204901530469735,-0.6531764505892076,0.15965726875816139,2
195,2024-09-18 22:37:22.174616211,0,010,0.1790423400963299,-0.02485452399165341,-0.5485514383020889,0.19142605856713965,-0.34556564800653927,0.007088445299705057,-0.5847705402316812,0.14127860558851807,2
196,2024-09-18 22:37:23.126481934,0,010,0.18498315245058275,-0.006973042449110192,-0.5496970646499935,0.18747750259656745,-0.3447827531095156,0.01606385755227417,-0.527163344646973,0.1242741287621399,2
197,2024-09-18 22:37:23.190540039,0,010,0.1861436664106643,0.011793872775915615,-0.512349865926024,0.17667599277938065,-0.34300223136434954,0.025775582972115914,-0.4844740016614378,0.11003607686606275,2
198,2024-09-18 22:37:23.253025146,0,010,0.18258937931344396,0.030830171108836183,-0.43608246245132665,0.15868750247329755,-0.3404811944514127,0.03611450306599009,-0.4605145089089421,0.09982646019615324,2
199,2024-09-18 22:37:23.315510986,0,010,0.17463715041422045,0.04951515910712584,-0.32277003298503054,0.1336432164744439,-0.33760414078489,0.04699019374263942,-0.45851977062582006,0.09470936690080968,2
200,2024-09-18 22:37:23.393212158,0,010,0.16281460565144568,0.06725665002130096,-0.17675701845926706,0.10215202695713117,-0.33484294750341587,0.0583225178290756,-0.4808043777375754,0.09549296395802806,2
201,2024-09-18 22:37:23.454813965,0,010,0.14781342361240546,0.0835219777740992,-0.005019297258701003,0.06531864263889774,-0.33270703653077127,0.07003039854930582,-0.5284775911057903,0.10269990762276952,2
202,2024-09-18 22:37:23.533006836,0,010,0.1304398677485306,0.09786192383524452,0.1828561821357083,0.024748864078191803,-0.3317028518140845,0.08202177033569279,-0.6011831613714977,0.11654550769600482,2
203,2024-09-18 22:37:24.451562012,0,010,0.1115618997262576,0.10992749535096716,0.37519169762081567,-0.01752567215179496,-0.3323234749517387,0.09418696042023121,-0.6967856690620094,0.1368981202043427,2
204,2024-09-18 22:37:24.506125977,0,010,0.09205971712204038,0.11948081520002202,0.5593771208994563,-0.05924614313053889,-0.33505479253110243,0.10639332840533597,-0.8111104622644584,0.16323700299275154,2
205,2024-09-18 22:37:24.587232178,0,010,0.07279359974927017,0.12639870221040486,0.7234647615379929,-0.09820608972723681,-0.34035531977832445,0.11847821065803538,-0.937935769172199,0.19463756674577773,2
206,2024-09-18 22:37:24.652245117,0,010,0.0545776566106969,0.13067032490682806,0.8577801300175083,-0.132517560673149,-0.34858487702026136,0.13024174881929593,-1.0692980993419943,0.2297927417603381,2
207,2024-09-18 22:37:24.715220947,0,010,0.038126533841313134,0.13239456992818233,0.9560880517235745,-0.16078670033632633,-0.3599004547387035,0.14144369156583506,-1.1960525496231902,0.2670715877950778,2
208,2024-09-18 22:37:24.777575928,0,010,0.023975512393257705,0.13177837604326387,1.0160533997401697,-0.18217679010925594,-0.3741571231934535,0.1518052482006969,-1.3085929512399255,0.3046131697334432,2
209,2024-09-18 22:37:24.858513184,0,010,0.012419756494710318,0.12912997665431927,1.039072989573898,-0.19639045797577606,-0.3908404115989571,0.16101411970797136,-1.3975674745134543,0.34043110085507244,2
210,2024-09-18 22:37:25.794948975,0,010,0.003511893346151439,0.12484108647367505,1.0297008636907,-0.20361913692215663,-0.409042814373668,0.1687322111595489,-1.4544229097879589,0.37249410877689476,2
211,2024-09-18 22:37:25.868494873,0,010,-0.002885388335577426,0.11935840734203629,0.994834534912984,-0.20448529636809867,-0.4274949028094751,0.1746081319729589,-1.4717643736916504,0.3987764009294471,2
212,2024-09-18 22:37:25.934650879,0,010,-0.007028931695448781,0.11315107286099188,0.9427674778165525,-0.1999713814984465,-0.4446573314589455,0.17829647908556695,-1.4436288783557545,0.4173052321523898,2
213,2024-09-18 22:37:26.004114990,0,010,-0.009248240155430965,0.10668200280470573,0.8821583084817428,-0.19131435252818219,-0.4588631260262383,0.17948337567717335,-1.3657099570337305,0.4262311847900635,2
214,2024-09-18 22:37:26.059178955,0,010,-0.009934995101740849,0.10038683114232964,0.8209859027719715,-0.1798602075129087,-0.4684827190707428,0.17791475362526227,-1.2355451041338847,0.4239286236840209,2
215,2024-09-18 22:37:26.139753174,0,010,-0.009549927754355442,0.09465943021311468,0.765660381657701,-0.16689981843735005,-0.47208386885862696,0.17342265616779196,-1.0527597853022579,0.4091265634194095,2
216,2024-09-18 22:37:26.199020020,0,010,-0.008623587476920809,0.08984209789149157,0.7204244603236724,-0.15351035462741647,-0.46857040321192633,0.16594690474054652,-0.8193815435468162,0.38105206776183276,2
217,2024-09-18 22:37:27.148847168,0,010,-0.007737555866922317,0.08621865485353196,0.6870088219755672,-0.140414462198275,-0.4572914508733216,0.15555162169668696,-0.5400422930970621,0.3395473267465973,2
218,2024-09-18 22:37:27.210840820,0,010,-0.007481683244377809,0.0840083540815486,0.6644672416992186,-0.12787489902787305,-0.4381144363909736,0.14243492000411387,-0.2219104163556154,0.2851325958519973,2
219,2024-09-18 22:37:27.285812012,0,010,-0.008399451770930773,0.08335997541974129,0.6492662004282805,-0.11566102556329391,-0.41146002331725745,0.12692948063888446,0.1256479885679549,0.21900535000845667,2
220,2024-09-18 22:37:27.350983887,0,010,-0.010948539664341846,0.08434850643091767,0.63579634748297,-0.10312057282403178,-0.3782997902283196,0.10949435518423697,0.49163593621374707,0.14296822876533136,2
221,2024-09-18 22:37:27.421386963,0,010,-0.015493816008696277,0.08697719924108754,0.6173479270365547,-0.08935549613098882,-0.340108345076175,0.0906989808049115,0.8641607076252718,0.059294222382455554,2
222,2024-09-18 22:37:27.489242920,0,010,-0.02231956301073987,0.0911839544542247,0.587389442119793,-0.07346326952369299,-0.2987587767023187,0.07119804559543486,1.2312060766992377,-0.029434739191343397,2
223,2024-09-18 22:37:27.557001953,0,010,-0.031630861738936415,0.09684754997236536,0.5409204900819743,-0.054790325614584884,-0.2563697446311234,0.05169578234650026,1.5813217132600186,-0.12047951823432611,2
224,2024-09-18 22:37:28.497474121,0,010,-0.043533019071882575,0.1037909813092482,0.4757156996834722,-0.03315426128859744,-0.2151305782268984,0.03290116190908614,1.9041961695002445,-0.21107160423330798,2
225,2024-09-18 22:37:28.568058105,0,010,-0.05800517306539116,0.11178349907811333,0.39322033614905033,-0.00900089372236847,-0.17712712029519675,0.01547871158691592,2.19106089141708,-0.29850884859921833,2
226,2024-09-18 22:37:28.631205078,0,010,-0.07488502154073784,0.1205450213793565,0.29870542265804007,0.016552493932373537,-0.14418348486225221,2.252690317790276e-06,2.4348076747663403,-0.38021003348604365,2
227,2024-09-18 22:37:28.693750000,0,010,-0.09387310189992626,0.12975739001013875,0.20040605117148647,0.041838094768723695,-0.11773795437038516,-0.013080814054840207,2.629811359880275,-0.4537445512370982,2
228,2024-09-18 22:37:28.756237061,0,010,-0.11456741001059592,0.1390865910429441,0.10785384960822747,0.06491229807302362,-0.09877108496239423,-0.023469526646433654,2.7716348935425463,-0.5168752246280994,2
229,2024-09-18 22:37:28.839334961,0,010,-0.13652650510938988,0.1482141714638945,0.030020405211350604,0.08389264174624647,-0.0877866436077097,-0.031012809426525775,2.856803055267332,-0.5676315885946697,2
230,2024-09-18 22:37:28.895885986,0,010,-0.1593247882104964,0.15686710566458462,-0.02615910714426857,0.09724957218979201,-0.08482320847247951,-0.035700416806792416,2.882714631866186,-0.6044020906072253,2
231,2024-09-18 22:37:29.839791992,0,010,-0.1825589929795457,0.16483421916189525,-0.056658040420560676,0.10400036594345295,-0.08947077507154103,-0.037647806547004566,2.8476910719939674,-0.6260267117807042,2
232,2024-09-18 22:37:29.916656982,0,010,-0.20581151235349038,0.1719665614722227,-0.06069033063849465,0.10381129644231532,-0.10088507620786355,-0.03707897450594046,2.7511437755863173,-0.631869629547638,2
233,2024-09-18 22:37:29.982355957,0,010,-0.22861360421281351,0.17816808232120096,-0.040647507554845176,0.09703000554948661,-0.11781076145214663,-0.034308046047097716,2.5938424011073176,-0.6218560361434733,2
234,2024-09-18 22:37:30.054407959,0,010,-0.25043871799033984,0.18338426995399873,-0.0017052506697648668,0.08464717009235488,-0.13862767511181937,-0.029720377907707755,2.3782521369887037,-0.5964759653905056,2
235,2024-09-18 22:37:30.122177979,0,010,-0.2707298149794705,0.1875937703574562,0.048929817143358936,0.06816756603644818,-0.16142945668686387,-0.02375456752317587,2.108861351664669,-0.5567686300377572,2
236,2024-09-18 22:37:30.189999023,0,010,-0.2889541394446489,0.19080538383068338,0.10310065859357734,0.049395474404854964,-0.18413820928122643,-0.01688538245468011,1.7924100104237692,-0.5042909996358604,2
237,2024-09-18 22:37:30.257391846,0,010,-0.3046686365547003,0.19305941322841363,0.15289721096602948,0.030184699438436734,-0.20464756530674394,-0.009606716162102779,1.4379684750872772,-0.44106172671570226,2
238,2024-09-18 22:37:31.169408936,0,010,-0.3175644855248764,0.1944281062169017,0.1916810967996826,0.012217390306641105,-0.22097338947467546,-0.0024147015197406594,1.0568001891122933,-0.36947286498463133,2
239,2024-09-18 22:37:31.229935791,0,010,-0.32746467007288654,0.19500894025630536,0.21473501479695986,-0.0031459803928778804,-0.23138794426677595,0.004208391979057086,0.6619390238815137,-0.29218251529735684,2
240,2024-09-18 22:37:31.307596924,0,010,-0.3342822764768414,0.19491010535686012,0.21951227883635613,-0.01494124001491147,-0.23452262349319747,0.009810678564334416,0.26759172945350945,-0.21202767041643725,2
241,2024-09-18 22:37:31.379461914,0,010,-0.3379748444432487,0.19423514243699866,0.20564547516687254,-0.022631754487883148,-0.22944533874757442,0.013992033277264494,-0.11136400943071453,-0.13198657262858154,2
242,2024-09-18 22:37:31.447252930,0,010,-0.33852089942380154,0.1930745029805378,0.17490166815259628,-0.02612953956762255,-0.21573172118592837,0.01643485466986179,-0.4596952989361168,-0.0551634133304247,2
243,2024-09-18 22:37:31.513353027,0,010,-0.3359187661405602,0.19150527423339242,0.13111511648377328,-0.025807488883870803,-0.19352805160501582,0.016941000399077026,-0.762175172245896,0.015268236092936276,2
244,2024-09-18 22:37:31.581370117,0,010,-0.33019958353334444,0.1895945639152191,0.08002720424453687,-0.022489737630206928,-0.16356628928179912,0.015460959936018006,-1.00426886783105,0.07619607202640007,2
245,2024-09-18 22:37:32.523751953,0,010,-0.32144994496468826,0.18740154104208134,0.02900805983753375,-0.017417962432508795,-0.12708700536614112,0.012099573381488366,-1.1732141535377216,0.12476277517223824,2
246,2024-09-18 22:37:32.581240967,0,010,-0.3098264631862951,0.18497446406319426,-0.013362951381673732,-0.012183111810578627,-0.08566803732850256,0.0070933663713417736,-1.2593490159156833,0.15860574560308405,2
247,2024-09-18 22:37:32.659399902,0,010,-0.2955256489621498,0.18233939869997443,-0.03797828316385452,-0.008588588775677888,-0.04100679193327972,0.0007681625163704708,-1.2574083643043878,0.17612046562629838,2
248,2024-09-18 22:37:32.720454834,0,010,-0.27869251524578187,0.17948040688239983,-0.03627664990849682,-0.008425230705311853,0.005280867360069117,-0.006508722443082943,-1.1674849230418811,0.17669145137653652,2
249,2024-09-18 22:37:32.782833984,0,010,-0.25930663900641415,0.17631869738822867,-0.0016362129011709564,-0.01319249948796838,0.05180330095898651,-0.01437018536502763,-0.9954231631722944,0.16081685555917952,2
250,2024-09-18 22:37:32.860092041,0,010,-0.2371130982554181,0.17270301024863655,0.06927809490379103,-0.023838275301571604,0.09746423942744024,-0.022479291534216597,-0.7525071954576458,0.13008737420445998,2
251,2024-09-18 22:37:32.932889893,0,010,-0.21164086356996895,0.1684192787336676,0.17569290584670927,-0.04058835493260759,0.14147223662330438,-0.030548383940030257,-0.4544394752620724,0.08703515658670863,2
252,2024-09-18 22:37:33.868653076,0,010,-0.1823077933697522,0.16321932342389325,0.3127330104047125,-0.06291070174743098,0.18331427371859088,-0.03835241316502333,-0.11982730999152356,0.03489470194428687,2
253,2024-09-18 22:37:33.930216064,0,010,-0.14858445134441864,0.15686237267961411,0.472201146890355,-0.08960975990145557,0.22271727867413268,-0.04573907308599703,0.23147170740561496,-0.022685029727869215,2
254,2024-09-18 22:37:34.008323975,0,010,-0.11017975404231163,0.14916009174517705,0.6437772378680262,-0.11899035367710417,0.2596040827384876,-0.05263363783504228,0.5798661010639001,-0.08194268904093019,2
255,2024-09-18 22:37:34.079572998,0,010,-0.0672029874951394,0.14001428552167808,0.8162077109185042,-0.14902048443603705,0.2940424268548812,-0.05903714758529925,0.9072706993512772,-0.13928728956350986,2
256,2024-09-18 22:37:34.147089844,0,010,-0.020252703746158215,0.1294377029263884,0.978231623619132,-0.1774709521010999,0.3261880858628915,-0.06501886127326349,1.1979959909550675,-0.1915311106841459,2
257,2024-09-18 22:37:34.209382080,0,010,0.029592390995522383,0.11755518149047114,1.1192937893402208,-0.20206019326509722,0.35621977845679287,-0.07070143691151298,1.4392178005927891,-0.23604441345074106,2
258,2024-09-18 22:37:34.271010010,0,010,0.08086133744607976,0.10459159537984053,1.2302060342817553,-0.22063134243038524,0.3842613470266254,-0.07623570441505578,1.6210294308371342,-0.2708141130062828,2
259,2024-09-18 22:37:35.227055176,0,010,0.1318160455292001,0.0908553162499084,1.3037486940812313,-0.23135410289515562,0.41029664657658177,-0.08176729281722783,1.7362825729596467,-0.29442610203748387,2
260,2024-09-18 22:37:35.284410889,0,010,0.18058530395294126,0.07671936416635608,1.3351056466103388,-0.23292434457033562,0.4341018842385148,-0.08740519963498475,1.7805720775032172,-0.3060353267110322,2
261,2024-09-18 22:37:35.362472900,0,010,0.22530510139452117,0.06259615343705233,1.3221273728686154,-0.22473213973009,0.45523609140910903,-0.09320418203371403,1.7525560127033977,-0.305382294088572,2
262,2024-09-18 22:37:35.430547119,0,010,0.26427274796189215,0.04890249982204688,1.2654611922596242,-0.2069678595654858,0.4731130216643913,-0.09916507565626576,1.6544750972351794,-0.29285466728345794,2
263,2024-09-18 22:37:35.486169189,0,010,0.2961049660210948,0.03601832373784952,1.1684810081955124,-0.18063789674618444,0.4871245989408305,-0.10524605584839739,1.4925740230882591,-0.26954085861423205,2
264,2024-09-18 22:37:35.563739990,0,010,0.3198670239104526,0.024249138269958604,1.0368817074157919,-0.14747341211793466,0.4967542881679632,-0.11137417243926964,1.2771377226805578,-0.23721910110584257,2
265,2024-09-18 22:37:35.634020020,0,010,0.33514919822104633,0.01380096999598232,0.8779531450338501,-0.1097438309719452,0.5016412463116507,-0.1174514289080793,1.0219610272728386,-0.1982591865994312,2
266,2024-09-18 22:37:36.550370850,0,010,0.3421042092277804,0.0047676041941376165,0.6997915370218156,-0.07001784828068203,0.5015952562643116,-0.12335635705188784,0.7433004437995366,-0.15545569899510595,2
267,2024-09-18 22:37:36.608444092,0,010,0.34146788155853425,-0.002873874661213222,0.510740373173902,-0.030920626371173886,0.496587970355611,-0.12894740636865437,0.4585509310686907,-0.11182687725258164,2
268,2024-09-18 22:37:36.671303955,0,010,0.3345450544511103,-0.009258207296712472,0.3191381237697799,0.005080177005888717,0.4867568144834464,-0.13407601388022936,0.18484038405646,-0.07039435612864187,2
269,2024-09-18 22:37:36.748490967,0,010,0.3231161179927125,-0.0146133736719606,0.13322259254903934,0.0358463064769208,0.47244011052575946,-0.13861040427881452,-0.06240728457533078,-0.03394333868755931,2
270,2024-09-18 22:37:36.810065918,0,010,0.3092496914988743,-0.01922820177989555,-0.03902301766812805,0.059700550460438005,0.4542225317629361,-0.1424614358927784,-0.2708294144920387,-0.004781374405915636,2
271,2024-09-18 22:37:36.889551025,0,010,0.2950594569553908,-0.023412636202686382,-0.19019388510185253,0.07551966269799397,0.43295531576022356,-0.14560074014416502,-0.4321057789535198,0.01545869138283039,2
272,2024-09-18 22:37:36.957386963,0,010,0.28247094829497366,-0.027460166121988414,-0.31386675967737826,0.08277255832515058,0.40973742385437356,-0.14806758013139948,-0.5423088097690142,0.02593776876938766,2
273,2024-09-18 22:37:37.900093018,0,010,0.27304673029326626,-0.03161846250021622,-0.4048470793321579,0.08148139475317123,0.38586180170856293,-0.14996427235620094,-0.6016751606974455,0.026656809357964578,2
274,2024-09-18 22:37:37.964556885,0,010,0.26787451532445944,-0.03606759404307114,-0.45911739890791287,0.07210896037511795,0.3627286918862397,-0.15144047189529813,-0.6140464381533339,0.01844236210231472,2
275,2024-09-18 22:37:38.027043213,0,010,0.26750219198731895,-0.04090381264416863,-0.4736145043705991,0.05541177867287594,0.3417315311002126,-0.15266982588236663,-0.5861101826431111,0.002857400974718222,2
276,2024-09-18 22:37:38.089110107,0,010,0.2719214899964142,-0.04613113103580887,-0.44612140337992107,0.03231510955141036,0.32413703656183324,-0.1538260518238811,-0.5264202822667899,-0.017977773859712186,2
277,2024-09-18 22:37:38.166742188,0,010,0.2806174409127522,-0.05166465702895817,-0.37544777640795174,0.003851954922206347,0.3109825082826956,-0.15506315538758147,-0.44423999301659733,-0.041640237472885935,2
278,2024-09-18 22:37:38.228280029,0,010,0.2926824391025216,-0.0573464969158263,-0.2618398688132332,-0.028832391929131604,0.3029944979329608,-0.15649862672864415,-0.34836908728347327,-0.06570248957465592,2
279,2024-09-18 22:37:38.306407959,0,010,0.30696412560803815,-0.06297050745410762,-0.10745117728948879,-0.06444366983995367,0.3005230815921348,-0.15819692438906865,-0.24612816515112873,-0.08803468762369498,2
280,2024-09-18 22:37:39.236687988,0,010,0.3222085866908494,-0.06830842237779182,0.08326657584202182,-0.10150805998980776,0.3034944410275769,-0.1601538929402584,-0.14266962921894433,-0.10705522928432984,2
281,2024-09-18 22:37:39.318085938,0,010,0.3371704810021644,-0.07312974064264759,0.30336250583139235,-0.138377844913202,0.311390749379707,-0.16228551343579803,-0.04075925819747926,-0.12187068549587897,2
282,2024-09-18 22:37:39.385184082,0,010,0.35068007907354654,-0.07721364134462141,0.5434737566742454,-0.17329666443258177,0.3232678860537577,-0.16442614335996614,0.058972754453326934,-0.13228035784496356,2
283,2024-09-18 22:37:39.453349121,0,010,0.3616797743748723,-0.0803578771186646,0.7922634069980449,-0.20452960947453513,0.337826034381281,-0.1663424167916051,0.15748790177688715,-0.13867002773427334,2
284,2024-09-18 22:37:39.521261963,0,010,0.36924751759642926,-0.0823893426457789,1.0372280199139652,-0.23053489814858313,0.3535403891501112,-0.1677646261277369,0.2567191115955764,-0.14184465635048002,2
285,2024-09-18 22:37:39.575530029,0,010,0.3726093622885249,-0.08317527718783162,1.265816730581364,-0.25013336908081246,0.36883264488654294,-0.16842951182698815,0.3589679052536014,-0.14283885652570966,2
286,2024-09-18 22:37:39.657018799,0,010,0.3711377324533498,-0.08263080508638192,1.466667183097366,-0.2626307645790163,0.38224583034843485,-0.16812488682979243,0.46632183507395064,-0.14272876992515746,2
287,2024-09-18 22:37:40.592798828,0,010,0.36434422377731174,-0.0807211211416381,1.6306769829125631,-0.2678695448577717,0.3925924994253456,-0.16672739249036564,0.5801970940510724,-0.14247810424306379,2
288,2024-09-18 22:37:40.655760010,0,010,0.35188658775294707,-0.07746135395846476,1.7517093714848726,-0.2662187447657888,0.3990572405782892,-0.1642250068334237,0.7011834501703859,-0.14285955431270816,2
289,2024-09-18 22:37:40.736323975,0,010,0.3336073121730237,-0.07291846342366677,1.8269286485452312,-0.25852784710147314,0.40123234543215874,-0.1607169698656405,0.8291969560843607,-0.14446905649526873,2
290,2024-09-18 22:37:40.796489014,0,010,0.30960114464247995,-0.06721532885617214,1.8568808810713695,-0.24606551648143415,0.3990735115339538,-0.15638976502184163,0.963766015383049,-0.14780747316312323,2
291,2024-09-18 22:37:40.871958008,0,010,0.2802774629661776,-0.060531322611869165,1.8453478724890064,-0.2304411744788328,0.3927935009746046,-0.15147668517021554,1.1043023542975479,-0.15337390963467082,2
292,2024-09-18 22:37:40.935605957,0,010,0.24637677217128423,-0.053093611345183214,1.7988697526362345,-0.2134883424236341,0.38273671853970653,-0.14621422037746498,1.2502791805070348,-0.16171613191294745,2
293,2024-09-18 22:37:40.998384033,0,010,0.2089362058997894,-0.04516064204507012,1.7259024765286415,-0.19710101239818842,0.3692758458974829,-0.14080899614956094,1.4012404030319447,-0.17341522379505356,2
294,2024-09-18 22:37:41.914160889,0,010,0.16922940427950503,-0.037005315115880774,1.6357757793904022,-0.18304398035500255,0.3527542411959478,-0.1354245303055668,1.556628314167849,-0.18901979709346844,2
295,2024-09-18 22:37:41.991818115,0,010,0.12869535277703748,-0.028903555459604963,1.5377046962253298,-0.1727737468916503,0.33347876089059825,-0.13018752074162393,1.7155267079997976,-0.2089575357771387,2
296,2024-09-18 22:37:42.062320068,0,010,0.08884735206281817,-0.021127684159962263,1.4400388373946755,-0.1673066309541804,0.3117519016553214,-0.12520374278786886,1.876388597781275,-0.2334317193680397,2
297,2024-09-18 22:37:42.115977051,0,010,0.05114907086909992,-0.013940011035903237,1.3497892854457278,-0.16715671772281016,0.28792307326201205,-0.12057193532030393,2.0367524054678214,-0.26229871027729473,2
298,2024-09-18 22:37:42.194083008,0,010,0.016865684698664302,-0.007583345769206019,1.2723499849135893,-0.1723410526637041,0.2624386166980995,-0.11639055214374933,2.193041955691765,-0.29495043220543765,2
299,2024-09-18 22:37:42.258187012,0,010,-0.013069959023714734,-0.002268920527522242,1.211326031432029,-0.18243488277254707,0.2358747215886859,-0.11275890674528992,2.3406038752807548,-0.3302521368467809,2
300,2024-09-18 22:37:42.318593018,0,010,-0.03813106144485716,0.0018361010762329016,1.1684552597545375,-0.19666034907083974,0.20893783999746432,-0.10977488514269092,2.4739772591244065,-0.36656854383016957,2
301,2024-09-18 22:37:43.276209961,0,010,-0.058196424390696645,0.004619580161138317,1.143637402381008,-0.213991530276484,0.18241984633644104,-0.10752876693102177,2.5872489290042804,-0.40187559580850307,2
302,2024-09-18 22:37:43.333643799,0,010,-0.07349308803090333,0.00603142009499242,1.1350566515929557,-0.23325600966461038,0.15711909193600704,-0.10609354817539139,2.674406029252544,-0.4339335183848777,2
303,2024-09-18 22:37:43.411752930,0,010,-0.08450968898114328,0.006085016452337881,1.1393791556385156,-0.2532181987176888,0.1337667852105868,-0.10551608085938784,2.729698265239211,-0.46049536379731554,2
304,2024-09-18 22:37:43.473797119,0,010,-0.09190465041620452,0.0048540847742736745,1.152051556932002,-0.2726458780741889,0.11298873856561029,-0.10581328839220829,2.7480441641425157,-0.479534154205739,2
305,2024-09-18 22:37:43.547601074,0,010,-0.09642538316428455,0.002466019690641136,1.1677040054621035,-0.2903722945679811,0.09529724158155779,-0.10697293493246804,2.7255085073460132,-0.48946843118447086,2
306,2024-09-18 22:37:43.602399170,0,010,-0.09884788412265254,-0.000908009461963474,1.1805359738726655,-0.3053510568869473,0.08109221947801384,-0.10895540595913222,2.6598381097296477,-0.48934857608326904,2
307,2024-09-18 22:37:43.680605957,0,010,-0.09993543129108168,-0.005064939911642396,1.1845950658134363,-0.31668759118858847,0.07065730347186257,-0.11169399060754624,2.5509381536381572,-0.47896136631114566,2
308,2024-09-18 22:37:44.619410156,0,010,-0.1003974179924493,-0.009783451199237108,1.1740903244394512,-0.3236512050650803,0.06414341243154638,-0.11509340011295849,2.401083784198693,-0.45882446658323894,2
309,2024-09-18 22:37:44.687941895,0,010,-0.10082680145847331,-0.014842365300361064,1.1438915929176299,-0.3256866341724763,0.06153838482819504,-0.11902834592384111,2.2147172999050775,-0.43006305148223156,2
310,2024-09-18 22:37:44.759449951,0,010,-0.10162562134469817,-0.02004367808686856,1.090099341539566,-0.32242754862143774,0.06263740469147135,-0.1233459763740326,1.9979062850083968,-0.39419438560910086,2
311,2024-09-18 22:37:44.823908203,0,010,-0.10296122313238958,-0.025231798039129952,1.0104925695474138,-0.31371201403014737,0.06704584240876081,-0.12787553061773707,1.7577393895372604,-0.3528867563484082,2
312,2024-09-18 22:37:44.897015137,0,010,-0.104782411109697,-0.03030014345519098,0.9048550648704755,-0.29961900060362257,0.07423136394835353,-0.1324439063689735,1.5018504345414143,-0.3077609073408642,2
313,2024-09-18 22:37:44.961714111,0,010,-0.10687776273731917,-0.03518601065176393,0.7752806007274898,-0.2805401023047525,0.08360427565158217,-0.13689198719363724,1.2380272800470982,-0.26026284787091297,2
314,2024-09-18 22:37:45.024301025,0,010,-0.10893655602198765,-0.03986178867311972,0.6264503106048992,-0.25726806004925235,0.0945904788764425,-0.14108807257061695,0.9738462761522346,-0.2116088654593631,2
315,2024-09-18 22:37:45.970349121,0,010,-0.11059248184389073,-0.0443280495206345,0.46573336714672225,-0.23105690918571678,0.10667470809672608,-0.1449367585130589,0.7164026800474663,-0.16279557355209487,2
316,2024-09-18 22:37:46.043726807,0,010,-0.11145934978456189,-0.048607648197969255,0.3029325005987222,-0.20360796909961262,0.11940854227510546,-0.1483808380743564,0.47218536044075066,-0.11465503477356519,2
317,2024-09-18 22:37:46.109166992,0,010,-0.11117683636310835,-0.052737163948830185,0.14958600570813688,-0.17696124418695422,0.13239146466119556,-0.15139423025090654,0.24701273745264007,-0.06792266748381702,2
318,2024-09-18 22:37:46.170708008,0,010,-0.10946300844904686,-0.05675501485882183,0.017866052471631314,-0.15330365166488405,0.145239786455798,-0.15396667426211602,0.04591263251379979,-0.023291734195117146,2
319,2024-09-18 22:37:46.232322998,0,010,-0.10613960808448332,-0.06069101417251675,-0.08073781649531393,-0.13472956701891783,0.15755532717488263,-0.15608413640776816,-0.12709116349088706,0.01855486873650864,2
320,2024-09-18 22:37:46.309995850,0,010,-0.10110232545518737,-0.06456305443325201,-0.1366405527379509,-0.12300482644297854,0.16890292538048102,-0.15771186947115534,-0.26923199398957437,0.05693760480435401,2
321,2024-09-18 22:37:46.372481201,0,010,-0.09426159106224337,-0.06837966979204005,-0.1430582557884049,-0.11938026594702959,0.17880466958606223,-0.15878626507907798,-0.3792015103718349,0.09120157229740032,2
322,2024-09-18 22:37:47.300925049,0,010,-0.0855189592136079,-0.07213982278094298,-0.09655979574777193,-0.12447611635866083,0.18675012288844778,-0.15921552699724084,-0.4572539093739498,0.12076885202265324,2
323,2024-09-18 22:37:47.368740967,0,010,-0.07481090194793971,-0.07582468211650505,0.002677706614378597,-0.13823913639051713,0.19221283978966444,-0.15888506595537147,-0.5052335242948832,0.14521166595016757,2
324,2024-09-18 22:37:47.428980957,0,010,-0.06217774483053317,-0.07938787310426038,0.150917951805356,-0.1599630858600734,0.1946741288673944,-0.1576665673740738,-0.526510272808129,0.16430807551341933,2
325,2024-09-18 22:37:47.504437988,0,010,-0.047790853096990896,-0.08275526510214028,0.34121374047870323,-0.18835493166829084,0.1936718634033027,-0.15543344809858128,-0.5257631769271205,0.17804050375612562,2
326,2024-09-18 22:37:47.568700195,0,010,-0.0319226783777433,-0.08583696725974968,0.5639707926465805,-0.22163321923347182,0.1888798192433256,-0.15208256926854108,-0.5086247551766394,0.1865463633672568,2
327,2024-09-18 22:37:47.640080078,0,010,-0.01490309036135314,-0.08854362657113511,0.8076459571840088,-0.2576539830545425,0.18019063143880354,-0.14755549301712198,-0.4812452510193234,0.1900671843762558,2
328,2024-09-18 22:37:47.707225098,0,010,0.002894592907619211,-0.09079788144860997,1.0595989451805727,-0.29406367640328007,0.16776304923388471,-0.1418500912004365,-0.4497717959991698,0.1889214771162122,2
329,2024-09-18 22:37:48.648009033,0,010,0.021038584173919062,-0.09253872776973934,1.3071261842452169,-0.32847996054221207,0.15201234620870308,-0.13501791110401445,-0.41974001036913106,0.18349399105859454,2
330,2024-09-18 22:37:48.718229004,0,010,0.039023790470590944,-0.09372173494145632,1.5385389818325816,-0.35868868482925126,0.13354971451443284,-0.12715008893844976,-0.3954980209396175,0.1742377855788368,2
331,2024-09-18 22:37:48.786061035,0,010,0.05628003234762741,-0.0943181446100975,1.7440432359743383,-0.38282357190155125,0.11309319264370153,-0.11835932091078943,-0.37982369259653614,0.1616974708978116,2
332,2024-09-18 22:37:48.851984863,0,010,0.07220686400305587,-0.09431455563324591,1.9162923780501515,-0.3994940807991975,0.09137742310042099,-0.10876590727860634,-0.37375501488776325,0.14654439845952982,2
333,2024-09-18 22:37:48.921724121,0,010,0.0862173652583146,-0.09371256741302574,2.0506338386660516,-0.40784721774269633,0.06908017059918432,-0.09849164711969566,-0.3765315241796707,0.12959107681267887,2
334,2024-09-18 22:37:48.974369141,0,010,0.09776834406997725,-0.09252623683810184,2.1451144221049248,-0.4075731054874985,0.046765390179440584,-0.08765875919573911,-0.38563069887186974,0.11176002272128961,2
335,2024-09-18 22:37:49.057354004,0,010,0.10637845748391489,-0.09077783616099044,2.2003306559924676,-0.398886068330787,0.024840325952612426,-0.07638950071222389,-0.39702521162212906,0.0940129890310901,2
336,2024-09-18 22:37:49.990632080,0,010,0.11165241960833855,-0.08849491015595892,2.2192187174556577,-0.3825140664791132,0.00353972397695538,-0.06480700419734707,-0.40574075203542026,0.0772667665771925,2
337,2024-09-18 22:37:50.068366943,0,010,0.11331682482497907,-0.08571048216315673,2.206806597533423,-0.3596987514311729,-0.017047478582440694,-0.05304079819000166,-0.4066194167820734,0.062321405928558074,2
338,2024-09-18 22:37:50.136205811,0,010,0.11125836098434404,-0.08246612568748835,2.1698662822113675,-0.33217635229238596,-0.036916432661223374,-0.04123713119337771,-0.39510665790430577,0.0498185156318984,2
339,2024-09-18 22:37:50.201471924,0,010,0.10554953138706955,-0.07881515344478462,2.116432100021498,-0.30210730884020426,-0.05607515086112809,-0.029569492685798438,-0.3679136609783774,0.04022861077357345,2
340,2024-09-18 22:37:50.271882080,0,010,0.0964443411644731,-0.07482142354218524,2.0552436594224957,-0.27194605694125595,-0.07448087736184063,-0.018243883006137288,-0.323440773312857,0.03383561518788453,2
341,2024-09-18 22:37:50.339721924,0,010,0.08433590709750675,-0.07055175964049355,1.9951897283512252,-0.24426710036978933,-0.0919906398902574,-0.007495639692148273,-0.2618589479828327,0.03068268698497019,2
342,2024-09-18 22:37:50.407257079,0,010,0.06969219368928481,-0.06606537525884103,1.944781895121068,-0.2215721463186394,-0.10833734785377978,0.002422589660172024,-0.18483499477784274,0.03048754779066436,2
343,2024-09-18 22:37:51.338159180,0,010,0.05300536332620293,-0.06140669829974135,1.9116464446009775,-0.2060988037562727,-0.12313998359797813,0.011259403811716752,-0.09504571000728931,0.03258013407362201,2
344,2024-09-18 22:37:51.419029053,0,010,0.034783247234568035,-0.056606613334319274,1.901992268816304,-0.1996436592656204,-0.13594124324627244,0.018785427263871977,0.004282768468854386,0.035919442318989005,2
345,2024-09-18 22:37:51.486865967,0,010,0.01557993452908215,-0.05169304001971793,1.920035519231467,-0.20340544874935168,-0.14625907574595484,0.024811890080463538,0.10963093950532964,0.039215278042345335,2
346,2024-09-18 22:37:51.554719971,0,010,-0.0039673712601040025,-0.04670696985647785,1.9674659250781086,-0.21785378064580724,-0.15363928154391077,0.029204149341485144,0.21722254996908805,0.04112966099884657,2
347,2024-09-18 22:37:51.622492920,0,010,-0.023127907548155816,-0.04171770195032256,2.0430888076559053,-0.2426358596815249,-0.15769627880884005,0.03188919954140824,0.32298413691584166,0.0404901475415126,2
348,2024-09-18 22:37:51.690335938,0,010,-0.04109890924496736,-0.03683256995174664,2.1427184363500866,-0.27653986261349944,-0.1581354377408137,0.0328572946261228,0.4226058307755594,0.03644820213512351,2
349,2024-09-18 22:37:51.758151123,0,010,-0.057050063094293516,-0.032197695301403824,2.2593934931190756,-0.31753832780230484,-0.15476694109471104,0.03215827910293247,0.5117702926857586,0.02855984195013156,2
350,2024-09-18 22:37:52.701217773,0,010,-0.07019423919901358,-0.02798567464958074,2.3840218787942713,-0.3629327020780589,-0.14753088900592448,0.029893942329678524,0.5864528057105739,0.016813236396569568,2
351,2024-09-18 22:37:52.769038818,0,010,-0.0798892821698017,-0.02436938829111208,2.506420189335774,-0.40959700877944943,-0.13653849224732928,0.026208144366520122,0.6431441487049405,0.0016344889593047087,2
352,2024-09-18 22:37:52.836919189,0,010,-0.08574747411947647,-0.021489300072230922,2.6164465016879195,-0.45428007286977545,-0.12210972786584749,0.02127583318980869,0.6789401727359435,-0.016126813231734444,2
353,2024-09-18 22:37:52.904718018,0,010,-0.08771028098905377,-0.019426164401231665,2.704848448347604,-0.49389649822145654,-0.10478016992663883,0.015291622384077556,0.6915279390431056,-0.035244511156517055,2
354,2024-09-18 22:37:52.972557129,0,010,-0.0860620703430449,-0.018187070237792785,2.763642957454651,-0.5257382397839202,-0.08526233609421695,0.008459608290189475,0.6791238061047683,-0.05419251068223607,2
355,2024-09-18 22:37:53.040373047,0,010,-0.0813834633148248,-0.01770598666841374,2.7860837461180803,-0.5475744643384071,-0.06437035043646792,0.0009867260807044477,0.6404512425177775,-0.07124448610535455,2
356,2024-09-18 22:37:53.094947021,0,010,-0.07446510376859636,-0.017855228050736843,2.7664024749732894,-0.5576557616036429,-0.04293403180696631,-0.006919838391140219,0.574842991125205,-0.08460375170166157,2
357,2024-09-18 22:37:54.026271973,0,010,-0.06622160188322072,-0.018460448745969905,2.6995587840290702,-0.5546723301865939,-0.021726546771346705,-0.015052127854137745,0.4824381832496024,-0.09256787045247505,2
358,2024-09-18 22:37:54.084801025,0,010,-0.05764572414832322,-0.019311556167206676,2.581199547867857,-0.5377202499989888,-0.001418295893065626,-0.023198046712730798,0.3643068467434927,-0.09370842060412748,2
359,2024-09-18 22:37:54.161958984,0,010,-0.04980439406927745,-0.020168411998405807,2.4079026061451154,-0.5063088678163291,0.017440162957798044,-0.031136544834173833,0.22234879945231759,-0.08702999019859949,2
360,2024-09-18 22:37:54.229775879,0,010,-0.043835065775296105,-0.02076680249014964,2.1776913131064948,-0.4604185778970494,0.03441180327813656,-0.03863510910939342,0.05899915168270665,-0.07207890357260249,2
361,2024-09-18 22:37:54.297583008,0,010,-0.04089966744767841,-0.02083004058973978,1.890798081838416,-0.40060453316334454,0.04915302609475073,-0.04545145677191244,-0.12307497072116273,-0.04898763848679884,2
362,2024-09-18 22:37:54.365408936,0,010,-0.04208680447606491,-0.020087622064443256,1.5505602486441563,-0.32811731634197505,0.06138883466316819,-0.051338130757453415,-0.3211218952570162,-0.01845435626798437,2
363,2024-09-18 22:37:54.433218994,0,010,-0.04829237809134174,-0.018298470178843944,1.164097725603055,-0.24497178567144157,0.07089311897199083,-0.05604966566417722,-0.532220958676567,0.018323322303977537,2
364,2024-09-18 22:37:55.376395996,0,010,-0.06012920182343736,-0.015273362001167443,0.7423691528699152,-0.15389631984906288,0.07748166316373034,-0.05935410279196896,-0.7529652948042442,0.0597250100880748,2
365,2024-09-18 22:37:55.443934814,0,010,-0.07789282140611871,-0.010891809372948954,0.29955230352366585,-0.05816601928746362,0.08101373925589522,-0.06104936444886969,-0.9790686239846751,0.10378633519878021,2
366,2024-09-18 22:37:55.511384033,0,010,-0.10156343271810689,-0.005112836304664958,-0.14799620581315698,0.038622403530318504,0.08138914270911762,-0.060981399178131536,-1.205222336420501,0.14832635623683527,2
367,2024-09-18 22:37:55.579899170,0,010,-0.13080813703085556,0.0020179861469686953,-0.5830755822522459,0.13280510917420218,0.07853548530167773,-0.05905877752704829,-1.4254285902033466,0.19116565164405452,2
368,2024-09-18 22:37:55.647715088,0,010,-0.16497245144751285,0.010363669473013978,-0.989259833089149,0.22093345828803945,0.07239430229202215,-0.0552597908394425,-1.633690220086028,0.23039619833202885,2
369,2024-09-18 22:37:55.714818848,0,010,-0.20307661992988743,0.019694664825456898,-1.3525233908973497,0.3000479638584662,0.06291802878465327,-0.04963232244902377,-1.8247252940872762,0.26460620991540457,2
370,2024-09-18 22:37:55.778029053,0,010,-0.2438407864640686,0.0296955391419788,-1.6624159268581353,0.36788533160616693,0.05008726087653143,-0.04229074262838499,-1.9944560729996317,0.2929903124358602,2
371,2024-09-18 22:37:56.726393066,0,010,-0.2857574417419402,0.03998266980794323,-1.9125969779430214,0.4229943120426592,0.033954745667571236,-0.03341444542418527,-2.14018930677238,0.3153360596832674,2
372,2024-09-18 22:37:56.793425049,0,010,-0.3272043639441348,0.05013090854864877,-2.100889038400678,0.46477347149299836,0.014711361012677617,-0.023248716874947242,-2.2604959420268047,0.3319098053214767,2
373,2024-09-18 22:37:56.862085938,0,010,-0.36655147963354023,0.05970021264658301,-2.2290314178631587,0.4934448279647748,-0.007250652928286012,-0.012103714324480912,-2.3548785737642817,0.34327406806341515,2
374,2024-09-18 22:37:56.929031981,0,010,-0.40221066555341345,0.06825316052439422,-2.3021500137269197,0.5099650369343928,-0.03131248678608118,-0.0003456000945111975,-2.4233743365112814,0.3500767636713727,2
375,2024-09-18 22:37:56.997713135,0,010,-0.43263736239692324,0.07536558913993961,-2.327925704320363,0.5158806444691391,-0.05666750968063749,0.011623771834038931,-2.466169583560588,0.3528500668260602,2
376,2024-09-18 22:37:57.064935059,0,010,-0.45634842548245297,0.08064216136648437,-2.3155242649835817,0.513140136934267,-0.08242705653507076,0.023397643001115125,-2.4832230248515903,0.3518460947083054,2
377,2024-09-18 22:37:57.133330078,0,010,-0.47199876828938986,0.08374306501997532,-2.2743880940271586,0.5038681141815313,-0.10776487451504074,0.03459984941470844,-2.4739865439299695,0.3469430102844307,2
378,2024-09-18 22:37:58.051308105,0,010,-0.47849862487347533,0.08441658782654482,-2.213074232703706,0.49011981939306126,-0.13204501495919252,0.04491646096802355,-2.437412532984396,0.3376619443631589,2
379,2024-09-18 22:37:58.118387939,0,010,-0.47512806018747145,0.08252903607554472,-2.138458768845151,0.47367226999910306,-0.15487885824884204,0.054115870351929676,-2.372311173273475,0.3233056967815799,2
380,2024-09-18 22:37:58.186605957,0,010,-0.4616195514561863,0.07808612007047949,-2.0555504943812886,0.4559120961841769,-0.17609107310798341,0.062054001316427986,-2.2778782095379877,0.3031778791255251,2
381,2024-09-18 22:37:58.243010010,0,010,-0.43820035708078486,0.07124260142015237,-1.9678479189881168,0.4378346273640544,-0.1956239200008866,0.06866756169027236,-2.154126201386814,0.27680928421008705,2
382,2024-09-18 22:37:58.322837891,0,010,-0.4055979893362631,0.06229954878551284,-1.8779697012392935,0.4201254411946293,-0.21343888588022827,0.07396225270875353,-2.002098386758842,0.24412742003095442,2
383,2024-09-18 22:37:58.390396973,0,010,-0.36501391989919946,0.0516900260222404,-1.788316052083481,0.4032788748372029,-0.22945841644918624,0.07800083537821957,-1.8239429846000736,0.2055435900948388,2
384,2024-09-18 22:37:58.458480957,0,010,-0.31806725587941925,0.039953282974868255,-1.7015812473257563,0.3877058998879241,-0.24355135273318906,0.08089106855853377,-1.623009685238617,0.16197328174597497,2
385,2024-09-18 22:37:59.401087158,0,010,-0.2667059955511042,0.027697034397552018,-1.6209533294066458,0.3737936498049233,-0.25554463671966693,0.08277124087134523,-1.4040775559624636,0.11482186643685227,2
386,2024-09-18 22:37:59.462821045,0,010,-0.21308486293758908,0.015549556671962762,-1.5499302854990111,0.3619047849110481,-0.26524802464958386,0.08379265371637068,-1.1736557289788876,0.06594762216874211,2
387,2024-09-18 22:37:59.536802979,0,010,-0.1594181743665573,0.0041070307395650475,-1.4918749727869693,0.3523380116225631,-0.27248793483712047,0.08410228891539624,-0.9401526738965517,0.017589972135119692,2
388,2024-09-18 22:37:59.604612061,0,010,-0.10782816649525016,-0.0061149963174164605,-1.4495547968042601,0.34528760737510233,-0.2771452370267503,0.08383059901285111,-0.7137284093943628,-0.027748807660694198,2
389,2024-09-18 22:37:59.672442871,0,010,-0.06021447883191434,-0.014716413664422785,-1.4248616677533004,0.340830021459205,-0.2791828014829302,0.08308578996709372,-0.5057298801568725,-0.06747682922792532,2
390,2024-09-18 22:37:59.740262939,0,010,-0.01815712628580331,-0.021429477878425293,-1.4187800280237972,0.33894652037060924,-0.27864585824216453,0.0819513612884446,-0.3276844148876398,-0.0991460421945855,2
391,2024-09-18 22:37:59.807027100,0,010,0.017155571081466578,-0.02612189816772938,-1.4315588860243185,0.33957171058669516,-0.275628137884513,0.08048344944481145,-0.18998768849783082,-0.1207167195928914,2
392,2024-09-18 22:38:00.747360107,0,010,0.044979265221739534,-0.028791524182290848,-1.4629231855382478,0.342638243450807,-0.2702175428571521,0.07870758622813502,-0.10062841608492129,-0.13077938478770734,2
393,2024-09-18 22:38:00.809847168,0,010,0.06503439290987925,-0.029554003126691496,-1.512089399505847,0.34808200651572874,-0.26245827214975614,0.07661753960362622,-0.06429616155108936,-0.12867034846198427,2
394,2024-09-18 22:38:00.871992188,0,010,0.0774858983561914,-0.028623662516963556,-1.577464654659259,0.3557887932091271,-0.252365186208227,0.07418030675711361,-0.08194295737844247,-0.11448587615620623,2
395,2024-09-18 22:38:00.953613037,0,010,0.0828778699627994,-0.026288299239217286,-1.6561248774079314,0.3654904811095862,-0.23998512384725879,0.07134855612586259,-0.1506313005342329,-0.08904996587786151,2
396,2024-09-18 22:38:01.020785156,0,010,0.08201474307949663,-0.02287759407731483,-1.7432946671038265,0.3766427492243261,-0.22545944454685396,0.06807564309361319,-0.26357892354688517,-0.053867434684250134,2
397,2024-09-18 22:38:01.089267090,0,010,0.07579579636082198,-0.018727803889842458,-1.8321142709075022,0.38833606337590454,-0.20904987646109907,0.06432632706965755,-0.4104764455424575,-0.011047338287312691,2
398,2024-09-18 22:38:01.149177002,0,010,0.06504740447118014,-0.014151370312705044,-1.9140051615029974,0.39929956526957333,-0.19112692866634096,0.06008111855252999,-0.5781295596347943,0.036825340402907115,2
399,2024-09-18 22:38:02.092433838,0,010,0.05041549084797009,-0.009419990535382663,-1.979722475382465,0.408025007128917,-0.17213928570230608,0.055337104558515204,-0.7513996132788195,0.08686880630624702,2
400,2024-09-18 22:38:02.154050049,0,010,0.032357890594581815,-0.0047627542797744555,-2.020703938905679,0.412966144106427,-0.1525762793664119,0.05010921197163452,-0.9144199731779348,0.13611050410711326,2
401,2024-09-18 22:38:02.231183105,0,010,0.011231057142590982,-0.00037447932963398985,-2.0301067121027634,0.4127315086839577,-0.13292606311690977,0.04443417408268302,-1.0520190934831992,0.18168963181881206,2
402,2024-09-18 22:38:02.303705811,0,010,-0.012579827000022015,0.0035736334323947755,-2.0032839397082354,0.4062307593452499,-0.11363476186742172,0.0383767778196704,-1.1511431700177543,0.22103991239104842,2
403,2024-09-18 22:38:02.371162842,0,010,-0.0385586069671244,0.006928800177507115,-1.9379234222781434,0.39278893680576843,-0.09508206747198346,0.03203692608810902,-1.2020087326687372,0.2520486276711548,2
404,2024-09-18 22:38:02.433322998,0,010,-0.0660305756711889,0.009560984743013855,-1.834124519680135,0.37223968825104925,-0.07758615968955965,0.02555553976931927,-1.1988053085645463,0.2731812869054969,2
405,2024-09-18 22:38:02.495810059,0,010,-0.09420532545857499,0.011374670189782419,-1.694445965593899,0.344974197420153,-0.06142838302023306,0.01911495938444522,-1.139907675486196,0.28355658570128695,2
406,2024-09-18 22:38:03.450831055,0,010,-0.12224936929074709,0.012320808236510007,-1.5237871795447913,0.31191089665492716,-0.04687294784144186,0.012929725070759835,-1.0276679958928718,0.28296837273503467,2
407,2024-09-18 22:38:03.507121094,0,010,-0.1493481804126412,0.01240181802337959,-1.329003498847984,0.2743769891423482,-0.03417092545535035,0.007229368178958849,-0.8679206667782329,0.271863222337962,2
408,2024-09-18 22:38:03.586540039,0,010,-0.17474239005197273,0.011668366021813674,-1.1183053447966358,0.23393559177311218,-0.02356173356281435,0.002239915303319354,-0.6693266990322595,0.251280628679933,2
409,2024-09-18 22:38:03.649358887,0,010,-0.19774091399724888,0.010211477098626446,-0.9005869566666527,0.1922145575589869,-0.015289070269257255,-0.001830200770801982,-0.4426531127117311,0.2227576778229154,2
410,2024-09-18 22:38:03.722170166,0,010,-0.21771058809309637,0.00815180061927595,-0.6847819147308813,0.15077399901928898,-0.009627057080655576,-0.004799314273375391,-0.20006586468691376,0.18820174609129006,2
411,2024-09-18 22:38:03.789055176,0,010,-0.23403871183350713,0.005623881016573346,-0.47923805809073505,0.1110132669111303,-0.006891595616198249,-0.0065204615550075755,0.045526372763516315,0.1497418850777985,2
412,2024-09-18 22:38:03.851944824,0,010,-0.2460833679587533,0.00275520288731555,-0.2911299138210425,0.0741068797011613,-0.007417037408405697,-0.006891983731208483,0.2811156253205496,0.1095740584691817,2
413,2024-09-18 22:38:04.775125000,0,010,-0.2531532809443175,-0.0003525910140274235,-0.1260489660357861,0.04097208973743825,-0.011494435595531378,-0.005873004101484625,0.4943152392544715,0.06981022518673867,2
414,2024-09-18 22:38:04.837610840,0,010,-0.2545577541561473,-0.00363005924549137,0.012098199915453495,0.01227326957797752,-0.0192747041191271,-0.0035035514021145658,0.6741982081510012,0.03233815429015833,2
415,2024-09-18 22:38:04.899612793,0,010,-0.24972065587155992,-0.0070323369604048825,0.12089840903600459,-0.011547206265286372,-0.03065604563680707,7.646831213836e-05,0.8121635501058962,-0.0012912388196207314,2
416,2024-09-18 22:38:04.979354980,0,010,-0.23829825678832173,-0.0105274299067281,0.1990807356741845,-0.03023343906592341,-0.04519913627672503,0.00462053412270413,0.9026903842667336,-0.029933611016713657,2
417,2024-09-18 22:38:05.039354980,0,010,-0.22023913565144027,-0.014091400754246296,0.24621429692854727,-0.0436939373473831,-0.062106514756546785,0.009788696238692832,0.9438988512222396,-0.05288695193001663,2
418,2024-09-18 22:38:05.114985107,0,010,-0.1957773503676642,-0.017711889833245748,0.26263928508354384,-0.051995089547538495,-0.08026812114921533,0.015177713179712728,0.9378458468490373,-0.06991331012906574,2
419,2024-09-18 22:38:05.178797119,0,010,-0.16539827437955815,-0.021392227546486158,0.24960439100676204,-0.055353800228840885,-0.0983532058278367,0.020357887330586053,0.8904212292930241,-0.08124547951611745,2
420,2024-09-18 22:38:06.125979004,0,010,-0.12981723586954014,-0.025148177461096287,0.20939657060875488,-0.054110869818128626,-0.11492292093727148,0.0249073841045845,0.8107657605997246,-0.08755831619222085,2
421,2024-09-18 22:38:06.193793945,0,010,-0.08997930659022194,-0.028996434780724525,0.1453056329370845,-0.04868335187473228,-0.12853675846278265,0.028439785056860886,0.7103680693314596,-0.08989641616107963,2
422,2024-09-18 22:38:06.260232910,0,010,-0.047062502433375425,-0.03293999676468102,0.06140005358391207,-0.039507265841066244,-0.13783731390228832,0.030623748011879122,0.6021358864682682,-0.08957428098992137,2
423,2024-09-18 22:38:06.329411133,0,010,-0.0024591319534302404,-0.03695664149776728,-0.0378477224613234,-0.026987236826655207,-0.14161809757340488,0.031195764739433505,0.4995400531210835,-0.08806293702333523,2
424,2024-09-18 22:38:06.397221191,0,010,0.04228662024660226,-0.0409962253514199,-0.1479692537435166,-0.01147361940757589,-0.1388921458935017,0.02997175637025717,0.41567951084317717,-0.08685699021480761,2
425,2024-09-18 22:38:06.460700928,0,010,0.08559017931989303,-0.04499002118637297,-0.2647743504224421,0.006721767231129876,-0.1289757211116689,0.026864556964122262,0.36218204902935575,-0.08732290268789815,2
426,2024-09-18 22:38:06.526858154,0,010,0.12596273545819167,-0.04886753080204156,-0.38441294257899783,0.027277992436082015,-0.11157952780660263,0.021905278291356016,0.3480745348814266,-0.09055626236972308,2
427,2024-09-18 22:38:07.476061035,0,010,0.1621260713999372,-0.05256889649133317,-0.50327286717656,0.04979873947244533,-0.08687736981082429,0.015257431336222182,0.37882191161349676,-0.09727700467023322,2
428,2024-09-18 22:38:07.543922119,0,010,0.193070007418778,-0.056044254397019856,-0.6178049808044537,0.07374572740924913,-0.05552815635442169,0.007215535047133341,0.4557359511081566,-0.10777769246793271,2
429,2024-09-18 22:38:07.597855957,0,010,0.21805645354282718,-0.059243121880808616,-0.7243392982245137,0.09839652229773352,-0.01865158703327233,-0.0018122472602216703,0.5759749657291385,-0.12193929834876936,2
430,2024-09-18 22:38:07.679540039,0,010,0.23660731590566308,-0.062104483108653935,-0.8189614666792157,0.12284325724465978,0.022237687137414596,-0.011335237815608034,0.7331591825486944,-0.13930825006070807,2
431,2024-09-18 22:38:07.736699219,0,010,0.24850809706044116,-0.06455528168174264,-0.8975821760617257,0.14603776249597544,0.06534289845863983,-0.020822155301994678,0.9182952721811605,-0.15919187029154752,2
432,2024-09-18 22:38:07.814052002,0,010,0.25383367135854895,-0.0665180999362897,-0.9562770948822926,0.16688400344769114,0.10874021322573807,-0.029747702284893998,1.120706689349804,-0.1807401444795155,2
433,2024-09-18 22:38:07.876080078,0,010,0.2529864601655614,-0.06792505282657112,-0.9917835469285299,0.18436375640264993,0.15054514456847862,-0.03763550255721332,1.3289279288593083,-0.2030166771518751,2
434,2024-09-18 22:38:08.794220947,0,010,0.2467258635401287,-0.0687333290902852,-1.001976789367386,0.19766339694465868,0.18904846127092403,-0.04408965444874068,1.5315593184218437,-0.22506010399609014,2
435,2024-09-18 22:38:08.868083984,0,010,0.23615804725211276,-0.06893668555070191,-0.986241068413706,0.20627290119221564,0.22279275728386905,-0.048809992368667454,1.7179683596318707,-0.24592986379319873,2
436,2024-09-18 22:38:08.933793945,0,010,0.22266440917679498,-0.0685688848859165,-0.945686520409531,0.21004467111263475,0.250593792547344,-0.05159268193140064,1.8787914988075192,-0.2647463865706548,2
437,2024-09-18 22:38:09.002775879,0,010,0.20777678536953026,-0.06769892289009499,-0.8831454827386831,0.20920685916282725,0.2715445016259881,-0.052324766684416296,2.0062995192586324,-0.28073581412396037,2
438,2024-09-18 22:38:09.058999023,0,010,0.19303568966617968,-0.06642064564992982,-0.8029313932001108,0.2043277569659859,0.285033036137974,-0.050980367519866815,2.0946326375557236,-0.29326661457779735,2
439,2024-09-18 22:38:09.136632812,0,010,0.1798780041875331,-0.0648417687008433,-0.7104235989497218,0.19623820453865848,0.29076447573548814,-0.047618307544303434,2.1398535019662304,-0.3018641423674677,2
440,2024-09-18 22:38:09.199007080,0,010,0.16958178100070975,-0.06307839418223159,-0.6115534002154498,0.18592675944738893,0.288762132379809,-0.042376700368055784,2.1398449302396543,-0.3062101141967638,2
441,2024-09-18 22:38:10.150162842,0,010,0.16325020291688389,-0.06125587456574217,-0.5122367711089623,0.17441814811362225,0.2793529668871849,-0.03546375641331797,2.0941613250712847,-0.3061397942376355,2
442,2024-09-18 22:38:10.218206787,0,010,0.16178036612130128,-0.059508357234842164,-0.41781379992932294,0.16264678439459343,0.2631611648889398,-0.02714856086942531,2.003923542745464,-0.3016386586441286,2
443,2024-09-18 22:38:10.283114990,0,010,0.16577632994973054,-0.057968646821085164,-0.3325660610944967,0.15134558855403069,0.24112208083516712,-0.01775455227194494,1.871768149431343,-0.29283386970980185,2
444,2024-09-18 22:38:10.345205078,0,010,0.17542822889244794,-0.056749830685141625,-0.2593163848448307,0.14096343533181482,0.21450771738157637,-0.007654306684498581,1.701797477271739,-0.2799794272918241,2
445,2024-09-18 22:38:10.421347900,0,010,0.19043117894918826,-0.055928389502912235,-0.19907055496343856,0.13161005397925307,0.18493645228709543,0.0027386866690739566,1.499485177895726,-0.26344081021948607,2
446,2024-09-18 22:38:10.488775879,0,010,0.20999799194213412,-0.05553515887212754,-0.15075825483151598,0.12303337071141397,0.15432766058424713,0.012986309311267053,1.2715619446935864,-0.2436839754477071,2
447,2024-09-18 22:38:10.557038086,0,010,0.23295555808966192,-0.055552653099784896,-0.11129265165377548,0.11465401274117361,0.12477639766879017,0.022653136157866464,1.0259342571626688,-0.2212636273579409,2
448,2024-09-18 22:38:11.499368896,0,010,0.25788358172626524,-0.05591601785633296,-0.07613080163047375,0.10567442157389005,0.09836551566423496,0.03134281008323291,0.7716366664515375,-0.1968050079180308,2
449,2024-09-18 22:38:11.567988037,0,010,0.28326553769886903,-0.05651836524266764,-0.04017548951100975,0.09523099292297303,0.07696333994804486,0.03873642292402653,0.5187611755041006,-0.17098383192469016,2
450,2024-09-18 22:38:11.635783936,0,010,0.3076324959420748,-0.05722246551995154,0.0013898289149197344,0.08252685296887606,0.062047768287181004,0.044624361388273207,0.2782782190691773,-0.14451037963317367,2
451,2024-09-18 22:38:11.703604004,0,010,0.3296834162474327,-0.05787913325908044,0.052531950399704846,0.06692385639852244,0.05457364465316118,0.048925642927632955,0.06168263062441421,-0.11812180516048838,2
452,2024-09-18 22:38:11.771406006,0,010,0.348376660145771,-0.05835072227652184,0.11593832984765216,0.04802155149102517,0.05489146269669264,0.051692136091335085,-0.1195208024531558,-0.09259138442439016,2
453,2024-09-18 22:38:11.838353027,0,010,0.36299425433373134,-0.05853601199661866,0.19260771001421823,0.025734139626165085,0.06272640458334298,0.05309782696174423,-0.2544437457381039,-0.06875384244485298,2
454,2024-09-18 22:38:11.904879883,0,010,0.3731729653651035,-0.05839074359100834,0.28152974492443306,0.00033975862304739564,0.07721370292752203,0.05341745027913688,-0.3335654996655174,-0.04752171376467035,2
455,2024-09-18 22:38:12.842310059,0,010,0.3788986775302152,-0.05793916165642943,0.379598343557949,-0.02752068986737376,0.09697446702917795,0.05300160630218219,-0.3496380695951377,-0.029860255803068607,2
456,2024-09-18 22:38:12.914624023,0,010,0.38047167909797913,-0.05727507394962932,0.48185977653423473,-0.056896518844587074,0.12023376013447554,0.052251130879030036,-0.29864941327797184,-0.01670872179340344,2
457,2024-09-18 22:38:12.982161133,0,010,0.37844347303520326,-0.05655174675284437,0.5820901124337481,-0.08661823202115708,0.14499978086639898,0.05158644368650122,-0.1805881139820981,-0.008866720003985215,2
458,2024-09-18 22:38:13.053506104,0,010,0.37351961618719887,-0.05596061239976864,0.6735666395614132,-0.11539767219719788,0.16929422128793278,0.05140876774004638,0.0002619295208467893,-0.006883092715472386,2
459,2024-09-18 22:38:13.121159912,0,010,0.3664461050821035,-0.055702797067738036,0.7498447209010082,-0.14190567738063242,0.19138212469044372,0.052058331063670533,0.2356200720037151,-0.010984373383611164,2
460,2024-09-18 22:38:13.189250977,0,010,0.3579217114024661,-0.05596082227304926,0.8054446118287656,-0.16482582770717363,0.2099540359947651,0.05377858737117358,0.5140506343827076,-0.021065332246679936,2
461,2024-09-18 22:38:13.257068115,0,010,0.3485592685025755,-0.05687531066793438,0.8364926312498867,-0.1829187613458165,0.22424141488254032,0.056692635135515014,0.8221565344588518,-0.03673127675487667,2
462,2024-09-18 22:38:14.200584961,0,010,0.3388672579193819,-0.058525698967545295,0.8413341440807225,-0.19512003676988807,0.23404976995195698,0.060794903675849804,1.1458291353111292,-0.05735100009696092,2
463,2024-09-18 22:38:14.268440918,0,010,0.3292123991786618,-0.06091360457385518,0.8209381825858473,-0.2006472055893297,0.23969892595223752,0.06595877925736122,1.471289006954131,-0.08209707976110117,2
464,2024-09-18 22:38:14.332499023,0,010,0.3197703034345789,-0.06395332366273696,0.7788358814272449,-0.1990727431695325,0.24189646815498633,0.07195671994717681,1.7858553931063528,-0.10999747388264995,2
465,2024-09-18 22:38:14.394007812,0,010,0.3104993779135456,-0.06747518943804412,0.7205257932258056,-0.19034639560529928,0.24159464367995137,0.07848686212244693,2.078536282965325,-0.14002100990594646,2
466,2024-09-18 22:38:14.471909912,0,010,0.3011571904878292,-0.07124196591389241,0.6525329079140251,-0.1747847669472157,0.23986139510525095,0.08520134589451325,2.340423654551096,-0.17116248512831989,2
467,2024-09-18 22:38:14.539750000,0,010,0.2913618153660663,-0.07497457701999947,0.581409039315439,-0.15305328609512703,0.23776990397866474,0.09173316744710293,2.5647239687757315,-0.2024636706186627,2
468,2024-09-18 22:38:14.594521973,0,010,0.28068609509690695,-0.07838209089518823,0.512890589744965,-0.12614295248154878,0.23630455389130173,0.0977198652332597,2.7463842385645396,-0.23295201525742096,2
469,2024-09-18 22:38:15.512958008,0,010,0.26874810996873116,-0.08118924830983006,0.4513003970660051,-0.09532140965378137,0.23628081721038413,0.10282504939146199,2.8815267045194,-0.26154179100712954,2
470,2024-09-18 22:38:15.593434082,0,010,0.25526282728040134,-0.0831572089336697,0.39925624994312847,-0.06205013824597537,0.23827603293332358,0.10675983292137879,2.966936203880606,-0.28695398846228964,2
471,2024-09-18 22:38:15.655919189,0,010,0.240065638956451,-0.08410001703879805,0.35776960219131454,-0.02789330031390009,0.24257024714209377,0.10930488906709751,2.99972739757727,-0.3076912686520035,2
472,2024-09-18 22:38:15.718717041,0,010,0.2231493134469179,-0.08390126684870676,0.32666145615224085,0.00555202744980045,0.24909848638785761,0.11033239731039615,2.977252591993885,-0.3220940946185411,2
473,2024-09-18 22:38:15.797815186,0,010,0.2047239752261918,-0.08252917884457611,0.3050099115379044,0.03671027057090973,0.25742106554298855,0.10982477139900962,2.897276484509866,-0.3284890306486332,2
474,2024-09-18 22:38:15.858360107,0,010,0.18526437377574737,-0.08004373835428748,0.2913962294966227,0.06410078091119568,0.26672758994130247,0.10788389279552729,2.758413002239515,-0.32540789735356623,2
475,2024-09-18 22:38:15.933466064,0,010,0.16551167319243615,-0.07659325907297027,0.283961921545509,0.08645075646270116,0.2758924067536066,0.10472411171019697,2.5607512082520474,-0.31182530610153425,2
476,2024-09-18 22:38:16.875467041,0,010,0.14642768146072158,-0.07240312958484822,0.2804008163900522,0.10283208309875469,0.2835886328248193,0.10064614031830851,2.306435268747458,-0.2873418442411076,2
477,2024-09-18 22:38:16.943829102,0,010,0.12911291377072898,-0.06775954259781691,0.27795391239596434,0.11278239018500388,0.28844997130060157,0.09599556008363165,1.9999062677337605,-0.25225200582402274,2
478,2024-09-18 22:38:17.012304932,0,010,0.11469700621541193,-0.06298773194496499,0.27345013906652066,0.11637057447921917,0.28925191710707754,0.09111539886316074,1.6477644227893395,-0.2074964724154234,2
479,2024-09-18 22:38:17.080062012,0,010,0.10421213624755053,-0.058423551070750396,0.2634431927382538,0.11419032296486185,0.2850739761106711,0.08630315317290288,1.2585062685342374,-0.1545542834698131,2
480,2024-09-18 22:38:17.147425781,0,010,0.09846852232764,-0.05438065915715032,0.24444425191720634,0.10729143764546997,0.27540586537312667,0.08177952889120373,0.8423755688147073,-0.09532876725696024,2
481,2024-09-18 22:38:17.215750977,0,010,0.09795220481350282,-0.05111870869170517,0.2132331290540873,0.0970571300609481,0.260177699440712,0.0776725131843798,0.41132712154601403,-0.03205137135142218,2
482,2024-09-18 22:38:17.283591064,0,010,0.10275657872008055,-0.04881721361173721,0.16727313627095786,0.08502260193151533,0.23972974792877572,0.07401586857870163,-0.021071619587970773,0.03279375055220575,2
483,2024-09-18 22:38:18.226308105,0,010,0.11255431199416523,-0.047558044569443854,0.10521616151809562,0.0726513360309384,0.2147624829592926,0.07075734521052489,-0.43998363246842376,0.0965376650457309,2
484,2024-09-18 22:38:18.294099121,0,010,0.12661714323331497,-0.04731907174003908,0.02737007902363291,0.06112357450551619,0.18628997306078726,0.06777279119978333,-0.8299697038534148,0.15641080177752573,2
485,2024-09-18 22:38:18.361928955,0,010,0.14387701500377167,-0.04797905265902739,-0.06403339957339155,0.05119296258187934,0.15558939278168762,0.06488415582381556,-1.1759078743086762,0.20966011108809354,2
486,2024-09-18 22:38:18.427172119,0,010,0.16300415444768213,-0.04933090580741894,-0.16486167406793395,0.04313450980325289,0.1241353677465493,0.061878958952651324,-1.4639632060667964,0.25369022944228287,2
487,2024-09-18 22:38:18.497575928,0,010,0.18249587952165972,-0.05110288556752398,-0.26938813310515436,0.03677607464987237,0.09351092706104906,0.058531008677273046,-1.6824312327421134,0.2862021787818124,2
488,2024-09-18 22:38:18.558276855,0,010,0.20079374865282532,-0.05298916192327483,-0.37078717704860614,0.03158755279066592,0.06528495965470424,0.054625191988720644,-1.822474703907778,0.30532581571398354,2
489,2024-09-18 22:38:18.633163086,0,010,0.21641684824227028,-0.054684832586877584,-0.46169004082535114,0.02679713513984903,0.04086010360327846,0.04998605986528716,-1.878871240481602,0.309770448329082,2
490,2024-09-18 22:38:19.575794922,0,010,0.22806349764472075,-0.0559148857542083,-0.534739845967048,0.021515378054454436,0.021318636419794843,0.0445039265880048,-1.8506883271538412,0.2989902858279979,2
491,2024-09-18 22:38:19.635683105,0,010,0.23466302766439037,-0.05645239498857937,-0.5831846476437185,0.014863225739919389,0.007303349766872332,0.0381506164868374,-1.7415996364119413,0.2733140869085083,2
492,2024-09-18 22:38:19.697676025,0,010,0.23540636112957314,-0.056129540835774705,-0.6015334879173511,0.006097193092956332,-0.0010412520410434866,0.030981789227293357,-1.5596869717777693,0.23399399586223565,2
493,2024-09-18 22:38:19.775639160,0,010,0.22978280113015898,-0.054845470581682994,-0.5861173276515853,-0.005297339007013108,-0.004065948958437359,0.02312998514252153,-1.3168256174192354,0.18316241704821554,2
494,2024-09-18 22:38:19.847784912,0,010,0.2176225865689383,-0.05257116892518055,-0.5352936106287309,-0.01957953844881209,-0.002562629458544575,0.014793629751795125,-1.0278437747248694,0.1237050947849668,2
495,2024-09-18 22:38:19.915720947,0,010,0.19913263701313563,-0.04935102900166953,-0.4492438790738389,-0.03679142725730109,0.0023346839506102955,0.006222288655427162,-0.7096136683720534,0.05907222928666426,2
496,2024-09-18 22:38:19.983441162,0,010,0.1749175342161101,-0.045303235309519144,-0.329590364321338,-0.05681507027734331,0.009281100020569826,-0.0023027846073220945,-0.3801371192447507,-0.006946869531081729,2
497,2024-09-18 22:38:20.895304932,0,010,0.1459765036539153,-0.04061852278142841,-0.17907535612937728,-0.07940106028557345,0.0168581109999694,-0.01049100663868007,-0.05758813277275563,-0.07047014231899915,2
498,2024-09-18 22:38:20.958277832,0,010,0.11365541050529135,-0.03554981484721333,-0.0013814293979728142,-0.10416061837749985,0.023699815396100502,-0.018065732782804243,0.24074973058611457,-0.1277803306836006,2
499,2024-09-18 22:38:21.036550049,0,010,0.07953639402278233,-0.030386689554442826,0.19896952734997606,-0.13055261781046978,0.028613120788279017,-0.024787295403268246,0.4996340741821559,-0.17558013029381142,2
500,2024-09-18 22:38:21.104308105,0,010,0.04527449696022383,-0.02541960126478083,0.4166961646953878,-0.1578940641170955,0.03069334965952869,-0.03047300225268151,0.706903343044087,-0.2112165102370172,2
501,2024-09-18 22:38:21.159681152,0,010,0.012414123258263137,-0.02090428196326295,0.6457562257096015,-0.1853849640908694,0.0294127454574532,-0.035009842426248494,0.8540873749332385,-0.23283107831364033,2
502,2024-09-18 22:38:21.237395020,0,010,-0.017774762660710357,-0.01703309098313507,0.8791840086350768,-0.2121202116179329,0.024654729377174518,-0.03835729742004311,0.9364191666136421,-0.2394104401972805,2
503,2024-09-18 22:38:21.307774170,0,010,-0.04440062875385194,-0.013917621041950476,1.108848357549329,-0.2370823252820074,0.016685927069132432,-0.04054011533622002,0.9523630848921006,-0.23075164034783985,2
504,2024-09-18 22:38:22.250798828,0,010,-0.06696299248832657,-0.011587817876264455,1.325368564947925,-0.2591343288694453,0.00607391706982704,-0.04163209675905728,0.9029077671285423,-0.20737489728139477,2
505,2024-09-18 22:38:22.318686035,0,010,-0.08527273155948265,-0.010009066256451734,1.5183972000728445,-0.27703831465604795,-0.006431619710802004,-0.04173441303699617,0.7908236774403635,-0.17039872349000082,2
506,2024-09-18 22:38:22.386591064,0,010,-0.09932364996228758,-0.009108841129695506,1.6772874032305658,-0.2895157715666909,-0.020021841074412402,-0.04095625361306401,0.6200446299993219,-0.12138455249341476,2
507,2024-09-18 22:38:22.454370117,0,010,-0.10917987364721136,-0.008799111205398814,1.7919887339079543,-0.2953494191615118,-0.03392074649768289,-0.039405348667750036,0.39537225522609615,-0.06218015848930916,2
508,2024-09-18 22:38:22.522191895,0,010,-0.11491946165283384,-0.008986898498506082,1.8539701507056363,-0.2935116015434937,-0.04744058356638873,-0.03718796603580582,0.12265912391631813,0.005192671412485472,2
509,2024-09-18 22:38:22.590016112,0,010,-0.11663737036890887,-0.009575220843438906,1.8569869009376885,-0.28329037965054243,-0.06002658106180374,-0.034410362166718673,-0.19061993573316893,0.07857871476116664,2
510,2024-09-18 22:38:22.657268066,0,010,-0.11449631203654485,-0.010458865130845372,1.797567249004715,-0.2643790790467429,-0.0713061246598308,-0.031175421149514198,-0.5347758705902986,0.1556692409404377,2
511,2024-09-18 22:38:23.600995117,0,010,-0.10880304266022923,-0.011517605817103982,1.675231494387983,-0.2369173970511564,-0.08111981921451542,-0.027576337044434514,-0.8976925461728988,0.2339669559376993,2
512,2024-09-18 22:38:23.668837158,0,010,-0.1000672043225871,-0.01261194078226904,1.4925804788371568,-0.20150457911248845,-0.0895027008966832,-0.02369293398880589,-1.2651503769685182,0.3107871347032188,2
513,2024-09-18 22:38:23.736434082,0,010,-0.08900646086116318,-0.013588076390167358,1.255361663814009,-0.15920471675943607,-0.09661275561451041,-0.019592755626294228,-1.6215870226978126,0.3833230305643602,2
514,2024-09-18 22:38:23.804425049,0,010,-0.07650075115516232,-0.01429286765043221,0.9724653992981505,-0.11153375584381466,-0.10263456567277256,-0.015335178359139959,-1.9511309596861315,0.4487812041777385,2
515,2024-09-18 22:38:23.871962158,0,010,-0.06352172338222281,-0.014592618499018587,0.6557117796928464,-0.06040028198522454,-0.10769737351537313,-0.010975783051454253,-2.2387642659354645,0.5045697774586922,2
516,2024-09-18 22:38:23.940058838,0,010,-0.05105189201024005,-0.014390027264804659,0.3193292886927021,-0.007983431647235778,-0.11183632969057553,-0.006568267610301888,-2.4714282643605854,0.5484930767651296,2
517,2024-09-18 22:38:24.007288086,0,010,-0.0399944051110525,-0.013636899196623172,-0.02091207527583868,0.043446770111866054,-0.11499794315272219,-0.0021627235757417304,-2.638865388596586,0.578902085874248,2
518,2024-09-18 22:38:24.951141113,0,010,-0.031081950343962866,-0.012340258691376824,-0.34889929354071436,0.09174077041852816,-0.11707063554251722,0.0021978742571977243,-2.7340931060943165,0.5947809559322961,2
519,2024-09-18 22:38:25.018989990,0,010,-0.024804897660649795,-0.010558914917833126,-0.6495724994813895,0.1350692313868662,-0.11792459691875465,0.006479968521764941,-2.7535643422011558,0.5957807367988531,2
520,2024-09-18 22:38:25.084348877,0,010,-0.021373500845635603,-0.008390893403098907,-0.9102449391189096,0.17206575806496904,-0.11745414697979335,0.010659469407469535,-2.697152687322276,0.5822154756959166,2
521,2024-09-18 22:38:25.146360107,0,010,-0.020717992743872215,-0.0059561488851502,-1.121586322513456,0.20189142380814984,-0.11561394579072133,0.014720558773223619,-2.5680333351242934,0.555017111279025,2
522,2024-09-18 22:38:25.208959961,0,010,-0.02252644951638212,-0.0033789727765855117,-1.2781737134510018,0.22423042668795445,-0.11243705366504096,0.018654380535674732,-2.3724035962493506,0.5156361194913776,2
523,2024-09-18 22:38:25.287068115,0,010,-0.026309509133894942,-0.0007729752864269017,-1.3786524605817183,0.2392388667141862,-0.10803183219956228,0.02245798837436062,-2.118983820597865,0.4658946331016624,2
524,2024-09-18 22:38:25.357997803,0,010,-0.03146310439444749,0.0017679534377328047,-1.4255845206620097,0.24746558493749593,-0.10256586534099457,0.026132964361020538,-1.818384570104315,0.407831444054796,2
525,2024-09-18 22:38:26.301178955,0,010,-0.03730963802863749,0.004169989490371796,-1.424985151799246,0.24974861662500816,-0.0962401206694712,0.029681675630660008,-1.4825580916281422,0.3435998736051264,2
526,2024-09-18 22:38:26.369048096,0,010,-0.0431367470779418,0.006374003309413112,-1.385471481248366,0.24708389571616798,-0.08924815287332849,0.033099086199058395,-1.1244930773320772,0.27545960396195107,2
527,2024-09-18 22:38:26.436392090,0,010,-0.048263145019611584,0.008332041439225049,-1.317108271033254,0.2404935705927635,-0.08172773491914882,0.0363624727407944,-0.7580655835184218,0.20583096978888005,2
528,2024-09-18 22:38:26.504674072,0,010,-0.05212342108413572,0.010009776102994365,-1.230298740484749,0.23094542219833106,-0.07373236881853588,0.0394266837902125,-0.39778370961775966,0.13732082782603736,2
529,2024-09-18 22:38:26.572421143,0,010,-0.054336593495904834,0.011392681063002265,-1.1350214231223252,0.2193383928476964,-0.06524253980343776,0.042229860441281665,-0.05824540036350269,0.07265181529859846,2
530,2024-09-18 22:38:26.630335205,0,010,-0.05473819743472826,0.012491622979774549,-1.0404029198480123,0.20651669512786855,-0.05620268428179502,0.04470515825480729,0.24664581074272027,0.014500670173778134,2
531,2024-09-18 22:38:26.708046875,0,010,-0.053380274781738235,0.013344723547453469,-0.9544057033387326,0.19326487736946782,-0.0465494627527462,0.04678981157288511,0.5044961414172471,-0.03469900652971238,2
532,2024-09-18 22:38:27.626233154,0,010,-0.0505107431530177,0.014013655177660138,-0.8834537050375675,0.18026242719272398,-0.03621215300022324,0.04842791585719518,0.7050706500383871,-0.07293585101060131,2
533,2024-09-18 22:38:27.694058105,0,010,-0.046536695319993056,0.014573841803171273,-0.832025945133429,0.16801417075632247,-0.025095139548779906,0.0495699374146848,0.8407249455133582,-0.09875257644705539,2
534,2024-09-18 22:38:27.752793945,0,010,-0.041971148771535696,0.015100597175140356,-0.8023767128621729,0.15679381276792165,-0.013066300270378113,0.05017375569781121,0.9066757870763568,-0.11131884805962333,2
535,2024-09-18 22:38:27.829663086,0,010,-0.037366752520689335,0.015655783114251344,-0.794422336599641,0.1466198599915594,3.0894848595576525e-05,0.050209561961781356,0.9011803446595217,-0.11044808881993592,2
536,2024-09-18 22:38:27.897357910,0,010,-0.03324594403906203,0.016279239816288017,-0.8056837309694558,0.13725423904953094,0.014341877631296107,0.049666640853797094,0.8256684602760485,-0.09657860029917799,2
537,2024-09-18 22:38:27.965143799,0,010,-0.030043853049342813,0.0169868780831008,-0.8312930194218487,0.12822443736066205,0.029960939505699384,0.04855648654124387,0.6848209798932794,-0.07074398180647527,2
538,2024-09-18 22:38:28.032893799,0,010,-0.028084632612358933,0.017775242274214002,-0.8642922950106167,0.11889979471544114,0.04690659726393873,0.04690793718370612,0.4865072439740305,-0.0345390227320668,2
539,2024-09-18 22:38:28.976393066,0,010,-0.02759925751466297,0.01863041310044207,-0.896371916669292,0.10862860551912959,0.0651149003631976,0.04475644538816887,0.2414503500584546,0.00993659063698755,2
540,2024-09-18 22:38:29.033534912,0,010,-0.02876854040611244,0.019537637540351153,-0.9189013358955114,0.09688167504927098,0.08443417172238118,0.04213537647587416,-0.03742141587638124,0.060174361671194505,2
541,2024-09-18 22:38:29.112110107,0,010,-0.03176246866828155,0.020488060621623477,-0.9239899864131819,0.08334619852437272,0.10459867292587897,0.0390765910874888,-0.33579677326363033,0.11338750361150148,2
542,2024-09-18 22:38:29.179904053,0,010,-0.03675139585697656,0.021479795507548836,-0.9053709556011564,0.06796645122155262,0.12517488522978756,0.03562084328966019,-0.6387479263578012,0.16664871769832443,2
543,2024-09-18 22:38:29.244926025,0,010,-0.04387972785864766,0.022512520651574247,-0.8589647826124537,0.05095113858258441,0.14549940631163993,0.031832719747056065,-0.9313386189215532,0.21701011153850763,2
544,2024-09-18 22:38:29.315522949,0,010,-0.05321170782896313,0.02357833993509336,-0.7831422937739029,0.032757903093749256,0.16463671322675136,0.02781459530035649,-1.1991963734227529,0.2616097888269092,2
545,2024-09-18 22:38:29.382518066,0,010,-0.06466916148962747,0.024654174015156422,-0.67887599554152,0.01406594610733032,0.18138278463552415,0.023714463029308675,-1.429179417860472,0.2977874880667016,2
546,2024-09-18 22:38:30.326441162,0,010,-0.0779816433685741,0.025699919157750318,-0.5498745541349138,-0.004251099354159485,0.19434033608112905,0.019720534796518377,-1.610046793997689,0.3232139725523579,2
547,2024-09-18 22:38:30.394270996,0,010,-0.09266942318299784,0.026663422428619108,-0.402533737037797,-0.021164035565277396,0.20207347498523734,0.016038923526142113,-1.7329811916646831,0.33602652401628247,2
548,2024-09-18 22:38:30.462106934,0,010,-0.10807460123218061,0.02749143818177361,-0.24547896293246593,-0.03557127934800828,0.20330386489310853,0.012862135341207157,-1.7920033200103749,0.3349740401847678,2
549,2024-09-18 22:38:30.518248047,0,010,-0.12344009436548024,0.02814568879850769,-0.08868982774002378,-0.046431059635932755,0.19708382466823937,0.010342792964003549,-1.7844102027513216,0.31957092655032326,2
550,2024-09-18 22:38:30.597647949,0,010,-0.1380193213338077,0.028621457018090136,0.05760088105254199,-0.052903426929869234,0.18290473840216992,0.008580838623077323,-1.7112012159689733,0.29022266086091647,2
551,2024-09-18 22:38:30.658315918,0,010,-0.15118871512203802,0.028962606588882903,0.18404301049566757,-0.05446621324077107,0.16073484427024753,0.007622886922185086,-1.577223404227323,0.2482538939219381,2
552,2024-09-18 22:38:30.733329102,0,010,-0.1625338688224075,0.029267159128400836,0.28322120526231803,-0.05100106728940037,0.13100178756888123,0.007469010149612906,-1.3907760825666338,0.1957906072676355,2
553,2024-09-18 22:38:31.651472168,0,010,-0.17189147344762412,0.029682306508904122,0.35047641606558255,-0.04284810514213742,0.0945487390619444,0.008082447593558594,-1.162733859528352,0.13552330864190337,2
554,2024-09-18 22:38:31.714529053,0,010,-0.17934559376970655,0.030390658198728132,0.38430599707904356,-0.03080890747546667,0.05259089194077542,0.00939735888943298,-0.9055480729916999,0.0704408935913076,2
555,2024-09-18 22:38:31.787164062,0,010,-0.18518711319137918,0.031589669098769944,0.38625496004440824,-0.01608144901859531,0.006674025667038629,0.011321783603547072,-0.6324267426962318,0.0036080422327474278,2
556,2024-09-18 22:38:31.843638916,0,010,-0.18984989745849898,0.033467921532605374,0.36038897811169274,-0.00013462818780902053,-0.041387958119511147,0.013738664097647468,-0.35670030275169873,-0.0620073340513655,2
557,2024-09-18 22:38:31.921657959,0,010,-0.19383696204148965,0.03618325074602718,0.3125144624927553,0.01545636947981017,-0.08961339083892053,0.016509869122983998,-0.09121256209322877,-0.12368109636653678,2
558,2024-09-18 22:38:31.983159180,0,010,-0.19764283285363737,0.039845167433407463,0.2492818680625181,0.029195257784080043,-0.13598112649864458,0.01948394916991156,0.15237191501767067,-0.179062363721732,2
559,2024-09-18 22:38:32.045156982,0,010,-0.20167234458065336,0.044501116320918827,0.17730525261907065,0.039847138135578546,-0.17856331484802027,0.02250511107340384,0.3642766386662849,-0.22627620545582577,2
560,2024-09-18 22:38:32.997863037,0,010,-0.20616134768629704,0.05012627029758893,0.10250472982224336,0.04657165079580081,-0.21564265905172894,0.025421559899109297,0.5370844247525636,-0.2639812409864851,2
561,2024-09-18 22:38:33.055760010,0,010,-0.21111938774746689,0.056619310750201206,0.0298891573921857,0.04895352382401111,-0.24580388734819067,0.028092511998209047,0.6657383636816946,-0.29135992703369856,2
562,2024-09-18 22:38:33.133434082,0,010,-0.21631774588323827,0.06380839408879688,-0.03620904168308184,0.04692087813153028,-0.26800279526213683,0.030394105573909407,0.7471645029143658,-0.30804315808663557,2
563,2024-09-18 22:38:33.205012939,0,010,-0.2213212647859155,0.07146717704341361,-0.09171469803871309,0.04060174319824898,-0.2816218907277244,0.03222551319962268,0.7798809114384576,-0.3140106052933749,2
564,2024-09-18 22:38:33.261914062,0,010,-0.2255380305354391,0.07933400859435212,-0.1325343663861341,0.030189625863587265,-0.2865114266638635,0.03351603561462944,0.7638055800278428,-0.3095105888503183,2
565,2024-09-18 22:38:33.335702881,0,010,-0.22827710099102536,0.08712820761970692,-0.15456492942925146,0.015864499601088045,-0.2830045402471102,0.03423153119561068,0.7001744821896989,-0.2950081059073844,2
566,2024-09-18 22:38:33.408526855,0,010,-0.22883629678096115,0.09456464465973403,-0.1539185375857122,-0.00222476864411677,-0.2718998116810034,0.03437699548991324,0.5915149572450427,-0.27115754171846146,2
567,2024-09-18 22:38:34.338664062,0,010,-0.22663178507193085,0.10137097577196073,-0.12719904963711254,-0.02394751291730337,-0.25441246509864546,0.03399304808796648,0.4418231048155749,-0.23881384573191425,2
568,2024-09-18 22:38:34.417062012,0,010,-0.2213331402136056,0.10730755062639759,-0.07165874150170838,-0.04919136513481983,-0.23209227983551603,0.033145757502897624,0.2570101315801868,-0.19908949182137364,2
569,2024-09-18 22:38:34.487248779,0,010,-0.21294698084742336,0.11218521991590809,0.01481195473338531,-0.07788634963069585,-0.20670226666153224,0.03191093918450761,0.04539526676660412,-0.15343338394287362,2
570,2024-09-18 22:38:34.555048828,0,010,-0.201826708857467,0.11587684769338806,0.1337039562164418,-0.11001874996264696,-0.18006154875368985,0.030356497160537232,-0.18208688643842086,-0.10368907874282995,2
571,2024-09-18 22:38:34.608130859,0,010,-0.1886260703834538,0.11832192302687937,0.2857300572944164,-0.14559924749303177,-0.1538720959845128,0.028527566026552535,-0.4121943429179995,-0.05208446735741168,2
572,2024-09-18 22:38:34.690655029,0,010,-0.17421841871718627,0.11952564460555676,0.47044608913821717,-0.1845825833727158,-0.12956353051630168,0.026438284436619854,-0.6302597298773898,-0.0011165322750620237,2
573,2024-09-18 22:38:34.758468994,0,010,-0.1595950751674113,0.1195543726139677,0.6856951972830757,-0.22675577160639065,-0.10819552809413352,0.024072599941730874,-0.8214773593209075,0.04665627661449438,2
574,2024-09-18 22:38:35.699803223,0,010,-0.14576212927480622,0.1185296053936748,0.9269636803169622,-0.2716164744889924,-0.09043599256701629,0.021393667247177665,-0.9722388221033702,0.08884186352366305,2
575,2024-09-18 22:38:35.768701172,0,010,-0.1336610875489603,0.1166218341515883,1.1868440362496804,-0.3182685285609744,-0.07659753567417456,0.018357931035900197,-1.0711852175072174,0.12338394725478177,2
576,2024-09-18 22:38:35.829969971,0,010,-0.12412391559076988,0.11404336913290179,1.4548429843814823,-0.3653624816352908,-0.06670461157821006,0.014929584332613308,-1.1098523311486128,0.1486519756936272,2
577,2024-09-18 22:38:35.904226074,0,010,-0.11784045522234486,0.11103579872515008,1.7176824968388769,-0.4111003210219788,-0.060574562458654106,0.011092405951032306,-1.0830333715499878,0.1634910550180987,2
578,2024-09-18 22:38:35.972044922,0,010,-0.11530005155172579,0.10784690902461667,1.9600946991728891,-0.45330997345355434,-0.05789461370356746,0.006856055431835377,-0.9891253072042375,0.16728180756105956,2
579,2024-09-18 22:38:36.031818115,0,010,-0.11669911850722631,0.10469878862515924,2.165990656782461,-0.4895848755358349,-0.058274246232690514,0.002255448012993526,-0.8305835657194721,0.1600168407382509,2
580,2024-09-18 22:38:36.093854980,0,010,-0.1218559203935382,0.1017586108692523,2.319807288321957,-0.5174767179386165,-0.061274357697672546,-0.002653286690957782,-0.6142670338990713,0.14234675361142252,2
581,2024-09-18 22:38:37.050786865,0,010,-0.13018952543880993,0.09912490457307128,2.4077898936346087,-0.534716027543499,-0.06644004521786168,-0.007793521173788855,-0.351330695911373,0.11554782773967821,2
582,2024-09-18 22:38:37.114364990,0,010,-0.14078643726772164,0.09683310230425328,2.4190350518285184,-0.5394235141791275,-0.07335665990464726,-0.013062280215753567,-0.05656971767836083,0.08141510362464559,2
583,2024-09-18 22:38:37.182097900,0,010,-0.15253002542657282,0.0948738269474764,2.346290416835757,-0.5302791630646022,-0.08171727475233923,-0.018322141427420578,0.2526163805042837,0.04211646179955602,2
584,2024-09-18 22:38:37.239903076,0,010,-0.16424935192902648,0.0932138958510476,2.1865721122851367,-0.5066295351188422,-0.09137216799553799,-0.023398677442609258,0.5574492819033169,3.5216177050889076e-05,2
585,2024-09-18 22:38:37.322063964,0,010,-0.1748618948437432,0.09181364365347326,1.941564543423145,-0.4685288713865454,-0.10234171526957034,-0.028087045180032306,0.8390961488284268,-0.04238148213760669,2
586,2024-09-18 22:38:37.378138184,0,010,-0.18350616335189007,0.09064016958055707,1.6176944023839532,-0.4167288309380337,-0.1147920654423572,-0.03216572655997762,1.0800224011690442,-0.08275710386931358,2
587,2024-09-18 22:38:37.457750000,0,010,-0.18965744918079858,0.08967895583648727,1.2258352412041456,-0.3526437578816472,-0.12897843856510072,-0.03541518815922534,1.2652321038046062,-0.11890071010970552,2
