,time,MARKER,pid,L_O_DSI,L_D_DSI,L_O_DSphi,L_D_DSphi,R_O_DSI,R_D_DSI,R_O_DSphi,R_D_DSphi,trial_id
0,2024-09-19 21:19:02.046258176,TASK_BEGIN,011,1.0569163873668166,0.41978428881955376,4.05447416053513,-1.41387760573215,0.944503777421219,-0.3640136802239076,-1.4355265701998845,1.3179235756642318,2
1,2024-09-19 21:19:02.099724032,TASK_BEGIN,011,1.1814397889422636,0.37285874014420256,4.150241419384128,-1.4731244875671132,1.0428839806759131,-0.35626352948582496,0.6226686743899496,0.8062803221551081,2
2,2024-09-19 21:19:02.177383168,TASK_BEGIN,011,1.301953440871308,0.32715805712635526,4.251268079347062,-1.533220884948656,1.139376856379292,-0.3490412035242232,2.6155887295426727,0.31135701749146333,2
3,2024-09-19 21:19:02.239383040,TASK_BEGIN,011,1.4145303948187478,0.28372576802218324,4.358012087664674,-1.5938742987805237,1.2311675182203938,-0.3429839180563835,4.490376398165976,-0.15447133713563305,2
4,2024-09-19 21:19:02.317049088,TASK_BEGIN,011,1.5159298532204677,0.24344289582010303,4.469739025384601,-1.6546840556542217,1.3156698557285995,-0.3386908768892774,6.203020228696021,-0.5812385687359303,2
5,2024-09-19 21:19:02.384751872,TASK_BEGIN,011,1.603832836853002,0.2069609321365328,4.5843645830437,-1.715141814577987,1.390592298618699,-0.33668864330640474,7.720659891172915,-0.9617988530293531,2
6,2024-09-19 21:19:02.441123072,TASK_BEGIN,011,1.67695550625317,0.17465058527470043,4.698479215142576,-1.7746425232298764,1.4539590865750451,-0.33740222539324477,9.022755174400748,-1.291882171386427,2
7,2024-09-19 21:19:03.397915904,TASK_BEGIN,011,1.7350344995850535,0.14657801641402082,4.807531859194116,-1.8325118427654281,1.5041154511799626,-0.3411377426048079,10.101368175819822,-1.5699875494063409,2
8,2024-09-19 21:19:03.465502976,TASK_BEGIN,011,1.7787172639222522,0.12251387749587493,4.906206099759571,-1.8880509683884994,1.5397448203689146,-0.34807510602423675,10.960325109065813,-1.7971431516882932,2
9,2024-09-19 21:19:03.533204992,TASK_BEGIN,011,1.8094061758020845,0.10196989369550938,4.988952341945404,-1.940579545893098,1.5599084424935057,-0.3582737841331926,11.613080795665914,-1.9764797457804202,2
10,2024-09-19 21:19:03.588758016,TASK_BEGIN,011,1.8290752439852416,0.08425461809012491,5.050579631872315,-1.9894604160991982,1.5640976341065178,-0.37169793944184687,12.079759249530358,-2.1126506521707973,2
11,2024-09-19 21:19:03.666379776,TASK_BEGIN,011,1.8400479523033617,0.06854329834661665,5.086866378204029,-2.0341249323584774,1.5522841297134036,-0.3882558675902813,12.384257628088273,-2.211227555533943,2
12,2024-09-19 21:19:03.728723200,TASK_BEGIN,011,1.844746473853648,0.05395621088803638,5.095156772494784,-2.074124940329096,1.524952463522793,-0.4078354359713834,12.552005149064854,-2.2781765756502046,2
13,2024-09-19 21:19:03.790288128,TASK_BEGIN,011,1.8454594980595223,0.03963511490220696,5.074799025621033,-2.109190708640694,1.4830928682556312,-0.43032021158313016,12.608428123882419,-2.319436520883835,2
14,2024-09-19 21:19:04.716102912,TASK_BEGIN,011,1.8441584053129016,0.024809412413806974,5.027263654792753,-2.139248823667118,1.428146915368187,-0.4555853035892969,12.578045625667835,-2.3406211281683764,2
15,2024-09-19 21:19:04.790531072,TASK_BEGIN,011,1.8423494312037327,0.008852008211838765,4.9559196734317315,-2.1643921226679432,1.3619187441244807,-0.4834787657708162,12.484229591441538,-2.3469055394209914,2
16,2024-09-19 21:19:04.858247168,TASK_BEGIN,011,1.840960229151249,-0.008672420686596514,4.865524475364542,-2.1848220158505383,1.2864593687997945,-0.5137909634190879,12.349480825203086,-2.3430929769361675,2
17,2024-09-19 21:19:04.918768896,TASK_BEGIN,011,1.8402974473843388,-0.027968326520771056,4.761446518918284,-2.2007689462691955,1.2039211635084108,-0.5462145378602119,12.195760754111681,-2.333736805770634,2
18,2024-09-19 21:19:04.993626880,TASK_BEGIN,011,1.8401072999826567,-0.04898461876632384,4.648692630501309,-2.2123977356997546,1.1163991977635501,-0.5803062930988329,12.044399775169738,-2.323166200515933,2
19,2024-09-19 21:19:05.058460928,TASK_BEGIN,011,1.8397316835312945,-0.07141126129445745,4.531010238109216,-2.2197352529778516,1.0257997622286994,-0.6154681025992095,11.915392883677788,-2.3153525282843552,2
20,2024-09-19 21:19:05.120289024,TASK_BEGIN,011,1.8383118817216575,-0.09470208302825085,4.410425865676196,-2.222665188378764,0.9337657684771177,-0.650958280379286,11.826258087869855,-2.3136546712881847,2
21,2024-09-19 21:19:06.070816768,TASK_BEGIN,011,1.8349672678558864,-0.11812226159961116,4.287372028557945,-2.2209932062109052,0.8416660396527225,-0.6859331646145581,11.790786475378898,-2.320514458252178,2
22,2024-09-19 21:19:06.137872128,TASK_BEGIN,011,1.8288929487597048,-0.1408138761850855,4.161249838190575,-2.2145369084899125,0.750646113998913,-0.7195096217390275,11.817953086806662,-2.3371828524223592,2
23,2024-09-19 21:19:06.199928832,TASK_BEGIN,011,1.819373275378215,-0.1618722105215182,4.031161934788674,-2.2031934487087295,0.6617292425366401,-0.7508360907904059,11.911272589852238,-2.363598601636875,2
24,2024-09-19 21:19:06.262414080,TASK_BEGIN,011,1.8057517496560778,-0.18042576476770347,3.896621306781449,-2.1869770271567606,0.5759416466309124,-0.7791612860057633,12.068855360980482,-2.3985213628227497,2
25,2024-09-19 21:19:06.340519936,TASK_BEGIN,011,1.7874022053684342,-0.195712616537056,3.758117285111498,-2.16604334601006,0.49442065884404546,-0.8038928401473148,12.284082399889842,-2.43987062259099,2
26,2024-09-19 21:19:06.402974976,TASK_BEGIN,011,1.7637264435722384,-0.20714604118123156,3.6174076334212564,-2.1407063034762177,0.4184638972256906,-0.8246423453412919,12.546548694213556,-2.4850927167243944,2
27,2024-09-19 21:19:06.472774912,TASK_BEGIN,011,1.7341893933627521,-0.21436499034560394,3.4774177627247207,-2.1114396833681552,0.34949925459891884,-0.8412554374144184,12.843025818016999,-2.5314195656538323,2
28,2024-09-19 21:19:07.387254784,TASK_BEGIN,011,1.6983964461776602,-0.21726930316841828,3.341783479243728,-2.078864479421712,0.28897276631699426,-0.8538217093253729,13.15832042883774,-2.576013421873858,2
29,2024-09-19 21:19:07.465827840,TASK_BEGIN,011,1.6562042073472385,-0.21604172250464118,3.214240552433125,-2.043727578373907,0.23816345582008566,-0.8626572888922993,13.475954988801135,-2.6160718946860357,2
30,2024-09-19 21:19:07.533520896,TASK_BEGIN,011,1.6078342773498535,-0.21115697789321633,3.0980734521310445,-2.0068690390321087,0.19796259527772678,-0.8682623447251653,13.778781628833068,-2.648958152809945,2
31,2024-09-19 21:19:07.601256192,TASK_BEGIN,011,1.5539472208040734,-0.20337367910356982,2.99573384495264,-1.9691713798957047,0.16868521859584018,-0.8712691287201695,14.049756759451274,-2.6723534429371525,2
32,2024-09-19 21:19:07.662874880,TASK_BEGIN,011,1.495645944684071,-0.19370145454578847,2.9086505165429486,-1.9314947031074032,0.1499935960589463,-0.8723995301632546,14.272942815816355,-2.6843881906721565,2
33,2024-09-19 21:19:07.724905984,TASK_BEGIN,011,1.434399034228196,-0.1833376169629185,2.8372042565364195,-1.8946097246075944,0.14098377119173713,-0.8724387419002787,14.434677322265086,-2.683759439017808,2
34,2024-09-19 21:19:07.802153984,TASK_BEGIN,011,1.3718923745943215,-0.17357555548920808,2.7808085754246417,-1.8591333539406805,0.1404041986481373,-0.8722131654087298,14.524877439393883,-2.6698920190320967,2
35,2024-09-19 21:19:08.732527104,TASK_BEGIN,011,1.3098458882842121,-0.16569808907457667,2.738038249165824,-1.8254680886732593,0.14690485653519722,-0.8725553677724905,14.538258983772106,-2.6431311025754587,2
36,2024-09-19 21:19:08.815732992,TASK_BEGIN,011,1.2498563600809836,-0.16087507880777935,2.7068130274739524,-1.7937690993693582,0.15922545338800184,-0.8742489036014167,14.47496649257481,-2.6048728645876307,2
37,2024-09-19 21:19:08.876714752,TASK_BEGIN,011,1.1933107686004236,-0.16007832639525535,2.684686613547934,-1.7639784402183616,0.1762975903063148,-0.8779598569292945,14.340281993696223,-2.5575765970190663,2
38,2024-09-19 21:19:08.950708992,TASK_BEGIN,011,1.1413680181454737,-0.16401414669127373,2.66918897050074,-1.7359229761838595,0.19729621499423322,-0.8841742970562604,14.14355730918246,-2.5046503682622876,2
39,2024-09-19 21:19:09.018774784,TASK_BEGIN,011,1.0949717191960515,-0.1730688258283891,2.658051349643263,-1.7094116820169476,0.22167873174523728,-0.8931593951734871,13.89670549172569,-2.450178170616887,2
40,2024-09-19 21:19:09.074338816,TASK_BEGIN,011,1.0548544740362948,-0.18726689939368066,2.6492221369780804,-1.6842765806492137,0.24919700253421373,-0.9049479025143401,13.61247028290517,-2.3984614978589778,2
41,2024-09-19 21:19:09.151976192,TASK_BEGIN,011,1.0215223116959118,-0.20624966933379876,2.6407489272016735,-1.6603657716208964,0.2798478006371294,-0.9193375015380711,13.302722228014554,-2.353440328586229,2
42,2024-09-19 21:19:10.091665152,TASK_BEGIN,011,0.9952384194678882,-0.22928544971255604,2.6306639567533447,-1.6375340348224239,0.313772839131776,-0.9359059783578186,12.977203704624788,-2.318146143742211,2
43,2024-09-19 21:19:10.165966080,TASK_BEGIN,011,0.9760214351677465,-0.2553168526601234,2.6169970377563425,-1.6156573730999333,0.35113537625855834,-0.9540426062918101,12.643030875098278,-2.294333466463655,2
44,2024-09-19 21:19:10.230803968,TASK_BEGIN,011,0.9636485093593985,-0.2830366616316425,2.5979653226011714,-1.594659173767601,0.3919687662206443,-0.9729844430334708,12.304909556308434,-2.2823588712635923,2
45,2024-09-19 21:19:10.301271040,TASK_BEGIN,011,0.9576506332713897,-0.31097891325349203,2.5722300161270106,-1.574523950323778,0.4360096528674778,-0.9918515713815683,11.965823398484625,-2.2813015895929474,2
46,2024-09-19 21:19:10.368971264,TASK_BEGIN,011,0.9573020543302087,-0.3376191764310967,2.5390360980380238,-1.5552930600331676,0.482589613285998,-1.009694049199803,11.627973885051736,-2.289281865633071,2
47,2024-09-19 21:19:10.431965952,TASK_BEGIN,011,0.9616127014400959,-0.36148226622184454,2.4981792880629157,-1.537053967535531,0.5306598193333756,-1.0255666205754337,11.293813214090997,-2.3039081359182516,2
48,2024-09-19 21:19:10.494452992,TASK_BEGIN,011,0.9693357686260197,-0.38125036777493376,2.449904767034092,-1.5199335685914175,0.5789476456536536,-1.0386316121149077,10.966995383805372,-2.3227499189721956,2
49,2024-09-19 21:19:11.436764928,TASK_BEGIN,011,0.9790008932863359,-0.3958587409500148,2.3948410611602773,-1.5040897931644437,0.6261673272881891,-1.0482737460201104,10.653090960341556,-2.3437345636803983,2
50,2024-09-19 21:19:11.505487104,TASK_BEGIN,011,0.9889719687503266,-0.40456661768956154,2.333934953676923,-1.4896835411696643,0.6711835989311776,-1.0541992147436847,10.359969808392842,-2.3654114561745927,2
51,2024-09-19 21:19:11.567805952,TASK_BEGIN,011,0.9975186508611874,-0.40699598864195713,2.268280228540475,-1.4768297942286641,0.713073688812098,-1.0564874029104192,10.097610158126919,-2.387043305828222,2
52,2024-09-19 21:19:11.645611008,TASK_BEGIN,011,1.0028963390677506,-0.4031376033724338,2.1988421540395544,-1.465554708760606,0.751111628319459,-1.0555761111513657,9.87703222476029,-2.408497617586752,2
53,2024-09-19 21:19:11.706770944,TASK_BEGIN,011,1.0034512738305836,-0.3933310199721659,2.126210247691198,-1.4557831407340671,0.7847216593471711,-1.0521847562937308,9.708603438578528,-2.4300035265901987,2
54,2024-09-19 21:19:11.784879872,TASK_BEGIN,011,0.99777191425409,-0.37823026342295113,2.050480578752322,-1.44735207733876,0.8134160247215988,-1.0471982533005393,9.600571551114765,-2.451921771349381,2
55,2024-09-19 21:19:11.846905088,TASK_BEGIN,011,0.9848649856150729,-0.35876163203239614,1.971270535419698,-1.4400276944438843,0.8367377247799784,-1.0415414856885306,9.558441395732066,-2.474629009279251,2
56,2024-09-19 21:19:12.788969984,TASK_BEGIN,011,0.9642912578699315,-0.33606945676129735,1.8879014254705668,-1.4335181434754287,0.8542639147287825,-1.0360714604427577,9.585082564257544,-2.4985061123395225,2
57,2024-09-19 21:19:12.851030016,TASK_BEGIN,011,0.9362188159204167,-0.3114447543484194,1.7998629654321925,-1.4274982060548915,0.865693089512149,-1.0315012228758427,9.68114966824904,-2.52396073158806,2
58,2024-09-19 21:19:12.928251904,TASK_BEGIN,011,0.9014098033557677,-0.286244430851998,1.7075165095269595,-1.4216550148562122,0.8709410932077398,-1.0283518437333128,9.845465992867261,-2.551418165817822,2
59,2024-09-19 21:19:12.990275840,TASK_BEGIN,011,0.861172890524551,-0.26181886655659703,1.6126857878678273,-1.41573494461629,0.8701472352772883,-1.0269210333848557,10.075048066357299,-2.5812496264772338,2
60,2024-09-19 21:19:13.067430912,TASK_BEGIN,011,0.8172924673598997,-0.23946092017575746,1.5187718864247197,-1.409569312958009,0.8635915219403412,-1.027263814449533,10.364667233054151,-2.6136696246396807,2
61,2024-09-19 21:19:13.135279872,TASK_BEGIN,011,0.7719407225822182,-0.22037706554944114,1.4303839240404073,-1.403087069299737,0.8515989178094663,-1.029188294983357,10.706339560095786,-2.648682909053328,2
62,2024-09-19 21:19:13.192013824,TASK_BEGIN,011,0.72758277061786,-0.20567303742346105,1.3527258781612688,-1.3963348171837455,0.8344762741721693,-1.0322731138961407,11.0892652668664,-2.686117933344366,2
63,2024-09-19 21:19:14.145905920,TASK_BEGIN,011,0.6868665030197473,-0.19634412340331828,1.2908531737941256,-1.3894887702654632,0.8124845531146384,-1.0359156344316702,11.500375747672003,-2.725694417120693,2
64,2024-09-19 21:19:14.209882112,TASK_BEGIN,011,0.6524782180041969,-0.19326406095256224,1.2487652973985188,-1.3828124394929395,0.7858456556593497,-1.0394119925911132,11.925391770900568,-2.7670626575257624,2
65,2024-09-19 21:19:14.272829184,TASK_BEGIN,011,0.6269693165496331,-0.19717276750327953,1.2284870943405706,-1.3765497851705963,0.7547842824869947,-1.0420516055760292,12.350152106076758,-2.8097892510416895,2
66,2024-09-19 21:19:14.349028096,TASK_BEGIN,011,0.6125825674078038,-0.20866435146507922,1.229521802159668,-1.370811009570128,0.7195922800138659,-1.0431975870300998,12.761688879876308,-2.853260776092798,2
67,2024-09-19 21:19:14.416724736,TASK_BEGIN,011,0.6111067194757798,-0.22817537521020334,1.248902229009322,-1.3655180326475844,0.6806863109354513,-1.0423307088342788,13.14858028267589,-2.896506495081985,2
68,2024-09-19 21:19:14.475907072,TASK_BEGIN,011,0.6237812005986793,-0.2559730932289737,1.281700427237796,-1.3604152182775386,0.6386231884222835,-1.039053456716313,13.50073189595744,-2.9380446194861034,2
69,2024-09-19 21:19:14.552118784,TASK_BEGIN,011,0.6512580028838512,-0.292139455754936,1.3217362083022575,-1.355105913532165,0.5940566261414606,-1.0330687821252424,13.809177889280237,-2.9758949549275546,2
70,2024-09-19 21:19:15.461172992,TASK_BEGIN,011,0.6936067497712864,-0.33654290748827215,1.3623904257854942,-1.3491042383689544,0.5476643137122428,-1.0241530648265256,14.066172255849473,-3.007788980213841,2
71,2024-09-19 21:19:15.538768128,TASK_BEGIN,011,0.7503431103211363,-0.3887977193958667,1.3975448504650028,-1.341926380581771,0.5001005586590178,-1.0121379206511778,14.265280361024164,-3.031463195834938,2
72,2024-09-19 21:19:15.594429952,TASK_BEGIN,011,0.8204703141141929,-0.4482248682812054,1.4225432738286423,-1.3332165687124438,0.45199943813585736,-0.9969103095443111,14.401232462887554,-3.0448984686727285,2
73,2024-09-19 21:19:15.672144128,TASK_BEGIN,011,0.9025267027389059,-0.513832513546075,1.4348941671166084,-1.3228552837954448,0.40400527114112395,-0.978434065812191,14.469802674118862,-3.046460920876689,2
74,2024-09-19 21:19:15.734629888,TASK_BEGIN,011,0.9946329103178797,-0.5843245121913286,1.4344525262869359,-1.3109952726912988,0.3568031192360774,-0.956786707601936,14.468085483817866,-3.0349816274155157,2
75,2024-09-19 21:19:15.798487808,TASK_BEGIN,011,1.0945486145204089,-0.6581362308784617,1.423012621550042,-1.2980084325845958,0.3111540647832056,-0.9321990651617502,14.395152608278073,-3.00982257935333,2
76,2024-09-19 21:19:15.874506752,TASK_BEGIN,011,1.19976309401077,-0.73349764914128,1.403518645555442,-1.2843737659801542,0.26794891460231063,-0.9050845150894595,14.252695577445301,-2.9709275728815467,2
77,2024-09-19 21:19:16.820488960,TASK_BEGIN,011,1.3076288279237165,-0.8085259153199048,1.379291935056948,-1.2705667803627456,0.2282582225940673,-0.8760447615573194,14.04519306194731,-2.9187958781757453,2
78,2024-09-19 21:19:16.888217088,TASK_BEGIN,011,1.4155207293367562,-0.8813416882036794,1.3535880393110211,-1.257002257878501,0.19331880548742783,-0.8458398145600796,13.779513194972816,-2.854340634906547,2
79,2024-09-19 21:19:16.942903040,TASK_BEGIN,011,1.5209978477296,-0.9501914005687743,1.329530242340754,-1.2440469272575911,0.1644156561067807,-0.815321833894341,13.46436096721233,-2.7786916047420465,2
80,2024-09-19 21:19:17.021011968,TASK_BEGIN,011,1.621954138120734,-1.01355554220178,1.310264538729119,-1.2320828195293183,0.1426925412133375,-0.7853549540052076,13.10995858107164,-2.693037368552393,2
81,2024-09-19 21:19:17.083143168,TASK_BEGIN,011,1.7167438152931214,-1.0702315710704247,1.299116800234893,-1.2215780884499672,0.1289672240232302,-0.7567483205906255,12.727919071598627,-2.598566017084819,2
82,2024-09-19 21:19:17.148745984,TASK_BEGIN,011,1.8042581054614284,-1.1193884887530892,1.2995865244990406,-1.2131207896441478,0.12358811125428983,-0.7302070313443059,12.331054840134499,-2.496532863123405,2
83,2024-09-19 21:19:17.222385920,TASK_BEGIN,011,1.8839393599963772,-1.160594159101082,1.3151569971622685,-1.2073960063872993,0.12632695542539085,-0.7062874579825356,11.932902823213,-2.38843502001202,2
84,2024-09-19 21:19:18.135415040,TASK_BEGIN,011,1.9557392144618024,-1.1938173026860393,1.3490210353387326,-1.2051180387981435,0.13632211120058696,-0.6853521267202859,11.54693618815535,-2.2762005385524735,2
85,2024-09-19 21:19:18.213089792,TASK_BEGIN,011,2.020029460708037,-1.219404497001047,1.403801479702556,-1.2069433241213234,0.15211049733536836,-0.6675363995021487,11.185734918347041,-2.1622912697619014,2
86,2024-09-19 21:19:18.275575040,TASK_BEGIN,011,2.0774611430794914,-1.2380307928514145,1.4812901196853279,-1.2133900007017342,0.17175380126507714,-0.6527391569674377,10.860460907119274,-2.0496972606690123,2
87,2024-09-19 21:19:18.337579008,TASK_BEGIN,011,2.1287730179166844,-1.2506233195335366,1.5822584349295725,-1.224790016772535,0.19302009167308012,-0.6406348269529861,10.58071917461257,-1.9418736078806778,2
88,2024-09-19 21:19:18.415262976,TASK_BEGIN,011,2.1745813052842036,-1.2582602965741791,1.7063577908140537,-1.2412753213239507,0.21358427850471984,-0.6306953569414064,10.354648994401128,-1.8426492777137717,2
89,2024-09-19 21:19:18.477750016,TASK_BEGIN,011,2.2152034572763353,-1.2620543680270195,1.851973296193081,-1.2627501098013396,0.2312279529561737,-0.6222173350284798,10.18907832733803,-1.756065013748207,2
90,2024-09-19 21:19:18.552215040,TASK_BEGIN,011,2.2505514174967174,-1.2630393541006608,2.015915248627845,-1.288804519370312,0.24401112115808019,-0.6143606526530979,10.08970154909465,-1.6861045462761244,2
91,2024-09-19 21:19:19.483895040,TASK_BEGIN,011,2.2800951369378897,-1.2620837739823476,2.193107268314715,-1.3186066663404639,0.2503926093464233,-0.6062060356791935,10.061285274334539,-1.636367593764532,2
92,2024-09-19 21:19:19.563959040,TASK_BEGIN,011,2.3028894797060038,-1.2598444934541753,2.376594606529023,-1.3508688583197765,0.24930760031124155,-0.5968275629523984,10.10770652433342,-1.6097529996815494,2
93,2024-09-19 21:19:19.622297088,TASK_BEGIN,011,2.3176776890649187,-1.2567574988531816,2.5580145291878127,-1.3839417572832273,0.24022265923209168,-0.5853670352756798,10.231465030697052,-1.6081655552188643,2
94,2024-09-19 21:19:19.684329984,TASK_BEGIN,011,2.3230848204334738,-1.2530546685641926,2.7283963170475114,-1.415999197808327,0.22317344195225503,-0.5711010637905881,10.432562515980804,-1.6322520119342971,2
95,2024-09-19 21:19:19.761538048,TASK_BEGIN,011,2.3178746251144537,-1.2487989938031194,2.879073969885936,-1.4452329298104647,0.1987746592781757,-0.5534992580819862,10.70711133194774,-1.6812119801027112,2
96,2024-09-19 21:19:19.823549184,TASK_BEGIN,011,2.301198698023489,-1.2439337639864587,3.002526633580854,-1.47000004375508,0.1681864081206836,-0.532269593849276,11.046331244257091,-1.7527413334475874,2
97,2024-09-19 21:19:19.900752896,TASK_BEGIN,011,2.272765492536306,-1.2383360446224874,3.0929994211420686,-1.4889075547476507,0.13303931447070344,-0.5073840853102476,11.43651063528165,-1.843143138747626,2
98,2024-09-19 21:19:20.846263040,TASK_BEGIN,011,2.2329107263404957,-1.2318633490959077,3.146833569973642,-1.5008457608877108,0.09534812483374255,-0.4790840960750414,11.860006850184636,-1.947593464578452,2
99,2024-09-19 21:19:20.913983232,TASK_BEGIN,011,2.1826055428563857,-1.2243906294203342,3.1625444969893026,-1.50499890409519,0.05743163038214432,-0.44786736711617203,12.296811692911689,-2.060499412475105,2
100,2024-09-19 21:19:20.968298752,TASK_BEGIN,011,2.1234301349563247,-1.2158396957805255,3.140774992367346,-1.5008670230721055,0.021809463929606327,-0.4144544248040013,12.726073567970444,-2.175888905767053,2
101,2024-09-19 21:19:21.049325824,TASK_BEGIN,011,2.0574963004020237,-1.2062003948840017,3.084227077218343,-1.4883124606476361,-0.008973325773350641,-0.3797334204274477,13.127243438444374,-2.2878057490771035,2
102,2024-09-19 21:19:21.108136960,TASK_BEGIN,011,1.987300188399095,-1.1955403446350348,2.9975328871077194,-1.4676113774402322,-0.032599783650691,-0.34468658570431626,13.480885961739551,-2.3906774001729785,2
103,2024-09-19 21:19:21.184713984,TASK_BEGIN,011,1.9155225105483278,-1.1840003213964954,2.886968153454838,-1.4394759025356605,-0.047256238146216586,-0.31030182992670735,13.769351963362201,-2.479599301566352,2
104,2024-09-19 21:19:21.252440832,TASK_BEGIN,011,1.844811852890202,-1.171775678494434,2.760023130973519,-1.405024192947432,-0.051854068140811345,-0.277478895303952,13.977395857761328,-2.5505117189927624,2
105,2024-09-19 21:19:22.186980864,TASK_BEGIN,011,1.7775845537810546,-1.159092213388407,2.6249189585938493,-1.365700418195484,-0.04615158464261299,-0.24694867176600568,14.092749157852776,-2.6003134721239345,2
106,2024-09-19 21:19:22.259794944,TASK_BEGIN,011,1.7158720150733948,-1.146191003674747,2.490106853984189,-1.3231641225279416,-0.0307788707877886,-0.21922042452517027,14.106814674999887,-2.626994119506224,2
107,2024-09-19 21:19:22.327788032,TASK_BEGIN,011,1.661233431166372,-1.1333307015941896,2.3637524677845896,-1.2791665861732933,-0.00721274427285732,-0.19455852362183554,14.015732021939616,-2.6298428802958282,2
108,2024-09-19 21:19:22.399476992,TASK_BEGIN,011,1.6147253433279147,-1.1208014305517708,2.253238217875076,-1.2354239582611684,0.022264183614424785,-0.1729856045400773,13.82170756037975,-2.6096850155069684,2
109,2024-09-19 21:19:22.452285184,TASK_BEGIN,011,1.5769041273823121,-1.108936467819839,2.16474544529367,-1.1934981713507398,0.054665107460522507,-0.15431232555201504,13.533941707127427,-2.5689652272583183,2
110,2024-09-19 21:19:22.534889984,TASK_BEGIN,011,1.5478520112218055,-1.0981130612672494,2.1029535920366866,-1.1547010660021597,0.08654143609271032,-0.1381928805054574,13.168419447036207,-2.511523920267067,2
111,2024-09-19 21:19:22.588477952,TASK_BEGIN,011,1.527239738511104,-1.0887441757519127,2.0708121195748617,-1.1200367449370605,0.11436141836350942,-0.1241984353049321,12.746431226832602,-2.442115927200231,2
112,2024-09-19 21:19:23.546524928,TASK_BEGIN,011,1.5144289637988588,-1.081266264198005,2.0693118275583986,-1.0901901677399712,0.13490554151765446,-0.11189116431893988,12.292372734171352,-2.3658711966805184,2
113,2024-09-19 21:19:23.614242304,TASK_BEGIN,011,1.5085825755736535,-1.0761218972410171,2.0972923049143892,-1.0655552768815475,0.1455551930050563,-0.10087750193663113,11.831517370611442,-2.287846744704205,2
114,2024-09-19 21:19:23.681956096,TASK_BEGIN,011,1.5087464421037928,-1.0737314255731942,2.1514201364904215,-1.0462785053873482,0.14446694408663638,-0.09083291644783416,11.38812301013445,-2.2126867820463043,2
115,2024-09-19 21:19:23.742179072,TASK_BEGIN,011,1.513902704867914,-1.0744543990406155,2.226405803254212,-1.0322871920965582,0.13071392201217688,-0.08151177379561211,10.983961364807108,-2.144360899298231,2
116,2024-09-19 21:19:23.804666112,TASK_BEGIN,011,1.5230198517948195,-1.0785527563692856,2.315427289901145,-1.023293871326493,0.10443164639221336,-0.07275772791861644,10.637247850858545,-2.0859760211308815,2
117,2024-09-19 21:19:23.882319872,TASK_BEGIN,011,1.5351123749305224,-1.0861694157088695,2.4107345989585665,-1.0188066772951594,0.06691151883949777,-0.0645131166084906,10.361810879643057,-2.0396553431934996,2
118,2024-09-19 21:19:23.944324096,TASK_BEGIN,011,1.5493049981687605,-1.0973248528462187,2.504424934531825,-1.018186822421777,0.020560151883674698,-0.05681506769580976,10.166448056219291,-2.006470466869735,2
119,2024-09-19 21:19:24.883688960,TASK_BEGIN,011,1.5648963260320814,-1.111922814902428,2.589310328128404,-1.0207490914949653,-0.03130838149299156,-0.049771983887241675,10.054787543634891,-1.9864607500574933,2
120,2024-09-19 21:19:24.960887040,TASK_BEGIN,011,1.5814192511699976,-1.129755724066539,2.659690968483809,-1.0258418867569432,-0.08480453749720122,-0.04352740817783651,10.025892224600826,-1.9787970541674524,2
121,2024-09-19 21:19:25.022449920,TASK_BEGIN,011,1.5986816140443132,-1.1505072103989198,2.7118066225653177,-1.0328456862559232,-0.13582511768448796,-0.038227321237672,10.075217048210964,-1.9820682890927277,2
122,2024-09-19 21:19:25.099649792,TASK_BEGIN,011,1.616748786123359,-1.1737531425158836,2.7438779197311143,-1.0411016513066818,-0.18037178458175107,-0.0340028099029075,10.19519770197733,-1.994569578882534,2
123,2024-09-19 21:19:25.167370240,TASK_BEGIN,011,1.6358359514527812,-1.1989605136520118,2.7558330418631662,-1.0498323535944758,-0.21483149574933924,-0.030962289865944247,10.375175604259969,-2.014473640210966,2
124,2024-09-19 21:19:25.235054080,TASK_BEGIN,011,1.6561309494897158,-1.225482083654523,2.748802389167658,-1.0580852568075536,-0.23627165669152247,-0.029174068219326256,10.601112077481961,-2.0398709999711815,2
125,2024-09-19 21:19:25.302729984,TASK_BEGIN,011,1.677626809852734,-1.2525497910010326,2.72443405850041,-1.064694188093164,-0.24276146323200068,-0.02862903696591882,10.855807231361343,-2.0687513225830485,2
126,2024-09-19 21:19:26.214120192,TASK_BEGIN,011,1.7000379846821565,-1.2792767023670952,2.6842338947091906,-1.0682808889227389,-0.23365067507528403,-0.029195697066580626,11.119885066812401,-2.0990035325321728,2
127,2024-09-19 21:19:26.289289984,TASK_BEGIN,011,1.7228043971688756,-1.3046756752281794,2.629177588106253,-1.0673425741437155,-0.20971316065533868,-0.030591742751657585,11.373296608235357,-2.128483874473381,2
128,2024-09-19 21:19:26.353596928,TASK_BEGIN,011,1.7451332292282915,-1.3276927848948845,2.559664052502612,-1.0604416666672227,-0.17310547218265132,-0.03239000155678693,11.596995804825745,-2.1551586579146838,2
129,2024-09-19 21:19:26.416083968,TASK_BEGIN,011,1.7660361161420675,-1.3472446162324956,2.4757638359133085,-1.0464679950169338,-0.12713169443819605,-0.03406308134553971,11.774525584554803,-2.177269657338281,2
130,2024-09-19 21:19:26.478569216,TASK_BEGIN,011,1.7843537190568144,-1.3622499963565116,2.3776915582001834,-1.0249012946677125,-0.0758309368697519,-0.03505879797770349,11.893326868361823,-2.193449371789134,2
131,2024-09-19 21:19:26.560103936,TASK_BEGIN,011,1.7987867768299644,-1.371658221671944,2.2663386380492265,-0.9959766015114635,-0.023455647853693733,-0.03488518286704228,11.945674836785267,-2.202759352178017,2
132,2024-09-19 21:19:26.627778048,TASK_BEGIN,011,1.8079607342006523,-1.374485096863088,2.143634586035928,-0.9606870855148507,0.02603982613972141,-0.03317871248214364,11.929222955242698,-2.204689807121418,2
133,2024-09-19 21:19:27.570816000,TASK_BEGIN,011,1.8105294331741393,-1.369864393040468,2.012603858397416,-0.9206374014953062,0.06939771300966006,-0.02974380796609171,11.847146013056566,-2.19916915259208,2
134,2024-09-19 21:19:27.632870144,TASK_BEGIN,011,1.805294844526208,-1.3571096909884537,1.8771806942219942,-0.8778236717091593,0.1043046384998125,-0.02456720275648027,11.707794328520622,-2.1865605452206713,2
135,2024-09-19 21:19:27.707075072,TASK_BEGIN,011,1.7913188872618524,-1.3357731638702433,1.741953682799506,-0.8344220603965676,0.12949191722802073,-0.01780775219019256,11.523769875716757,-2.1675607400013828,2
136,2024-09-19 21:19:27.774795264,TASK_BEGIN,011,1.7680221880082123,-1.3056925417008847,1.6119307158054832,-0.7926251809902869,0.14469994453295312,-0.009758883861372948,11.310567047413027,-2.1429794774587547,2
137,2024-09-19 21:19:27.835197952,TASK_BEGIN,011,1.7352715474219202,-1.2670300871814517,1.4922467423605021,-0.7545167599999282,0.1505348807779314,-0.0007933547280624259,11.08509587979841,-2.1135112834257317,2
138,2024-09-19 21:19:27.897682944,TASK_BEGIN,011,1.6934416645456656,-1.2203100407921474,1.3876904893679587,-0.7219533483212397,0.1482651679727192,0.008690776071807954,10.864245834443768,-2.07964256570974,2
139,2024-09-19 21:19:27.975790080,TASK_BEGIN,011,1.6434203127108167,-1.1664471316145184,1.3020742503736527,-0.6964358829881784,0.1395977981357089,0.01831191604998633,10.663391707485136,-2.0417070326007285,2
140,2024-09-19 21:19:28.883753216,TASK_BEGIN,011,1.5865439673886546,-1.1067469896848978,1.2376939448363071,-0.6789951183751302,0.12645923070980591,0.027733030732740586,10.494815855030259,-1.999969675419276,2
141,2024-09-19 21:19:28.962204160,TASK_BEGIN,011,1.5244967791453856,-1.0428662398855595,1.1952029982251033,-0.6701457978780865,0.11081170647410894,0.03667274649021962,10.366445249399566,-1.9546584443725932,2
142,2024-09-19 21:19:29.032206080,TASK_BEGIN,011,1.4592245267963126,-0.9767361643936273,1.1739949115257196,-0.6699416249751463,0.09452856020028137,0.04489552982488589,10.281435017337602,-1.9059949298407013,2
143,2024-09-19 21:19:29.086344960,TASK_BEGIN,011,1.392876365353134,-0.9104599945787943,1.172808052620665,-0.6781001822190222,0.07930061897026637,0.052191708807728034,10.238571352067375,-1.8542870472396542,2
144,2024-09-19 21:19:29.164453120,TASK_BEGIN,011,1.327739468233777,-0.8461897130354368,1.1901292392603557,-0.694129247168032,0.06651872530291426,0.05836976511821354,10.232926115588986,-1.8000356425355106,2
145,2024-09-19 21:19:29.226458880,TASK_BEGIN,011,1.2661392837838032,-0.785988912720386,1.224230164844239,-0.7174085357643354,0.05713570579478626,0.06327016744775918,10.256417057182844,-1.743965831146578,2
146,2024-09-19 21:19:29.288505088,TASK_BEGIN,011,1.210322670414227,-0.7316965429621732,1.272996328115299,-0.747223212279247,0.051566196713897595,0.06678924163602949,10.298517030014711,-1.6869868135783257,2
147,2024-09-19 21:19:30.243747072,TASK_BEGIN,011,1.1623482830709742,-0.6848096335805134,1.333760486976291,-0.7827570466598153,0.049653684413841395,0.06889754921337914,10.347438251311326,-1.630155132415679,2
148,2024-09-19 21:19:30.305312000,TASK_BEGIN,011,1.123971892334519,-0.6463973474903615,1.4032110594785412,-0.8230509117071756,0.05070325568734187,0.06964390871158997,10.391614976099254,-1.5746597207999586,2
149,2024-09-19 21:19:30.382573056,TASK_BEGIN,011,1.096504575910937,-0.6170511232190362,1.4773885114275613,-0.866956790000088,0.05360008242182122,0.06914307742875021,10.421012650161362,-1.5217766168275113,2
150,2024-09-19 21:19:30.450506752,TASK_BEGIN,011,1.08066523816652,-0.5968698419563043,1.5518702992811848,-0.9131488126156706,0.05701829767733646,0.06755544226420383,10.428128994739911,-1.4727823837704026,2
151,2024-09-19 21:19:30.506582016,TASK_BEGIN,011,1.0764883407224735,-0.585475253553128,1.62225895250387,-0.960236119322243,0.05966183780176538,0.06507211707331073,10.408917377507523,-1.4288923794900201,2
152,2024-09-19 21:19:30.582345984,TASK_BEGIN,011,1.083326317702541,-0.5820518879004979,1.684886219124611,-1.006955045802584,0.06046867679887682,0.06190629938722489,10.363576349240713,-1.3912560297995993,2
153,2024-09-19 21:19:30.644833024,TASK_BEGIN,011,1.0999250116531838,-0.5854063528079924,1.737443177274191,-1.0523599700627346,0.058744344034143886,0.05827975274329206,10.2966156350678,-1.3609396777730143,2
154,2024-09-19 21:19:31.581864960,TASK_BEGIN,011,1.1245217224904487,-0.5940421209929355,1.779274148503699,-1.095932199658696,0.054210935917140185,0.05439910823804821,10.215793760973947,-1.3388303101959995,2
155,2024-09-19 21:19:31.659570944,TASK_BEGIN,011,1.154944358806836,-0.6062463403979123,1.811238043217504,-1.1375759841675295,0.04698143619208774,0.05042702082602039,10.13036096892301,-1.3255050048372354,2
156,2024-09-19 21:19:31.731398144,TASK_BEGIN,011,1.1887353593174532,-0.6201854132528883,1.835196860210462,-1.177524284645255,0.037487238151447014,0.04645860824776522,10.049501030489889,-1.3211752879182377,2
157,2024-09-19 21:19:31.784097792,TASK_BEGIN,011,1.2233380344711546,-0.6340090686885231,1.8533225130773054,-1.2161962172270533,0.026383198730176423,0.04251190335193083,9.98153978070846,-1.3257572120075256,2
158,2024-09-19 21:19:31.861256960,TASK_BEGIN,011,1.2563475929461818,-0.6459640231575378,1.867454700966374,-1.2540351430070404,0.01446477952847035,0.03852703299007402,9.933932313935681,-1.3390212198563018,2
159,2024-09-19 21:19:31.932878848,TASK_BEGIN,011,1.2857692770708036,-0.6545093672651042,1.8786370641251138,-1.291344683673273,0.002634394558161771,0.034359058363876704,9.913713220135138,-1.3607545302003026,2
160,2024-09-19 21:19:32.001168896,TASK_BEGIN,011,1.3102019766155935,-0.6584142698295405,1.8868300297327494,-1.3281454724696444,-0.008094313794594743,0.029761982204108695,9.92797164382823,-1.3909099992523402,2
161,2024-09-19 21:19:32.935322112,TASK_BEGIN,011,1.3289097686067874,-0.6568229209589922,1.8907896233944224,-1.364083821780203,-0.01659816002825317,0.024377606203277252,9.983986207945803,-1.4297296202319798,2
162,2024-09-19 21:19:33.013001984,TASK_BEGIN,011,1.3418104724906417,-0.6492895985280572,1.8881648609841437,-1.3984187352967383,-0.021652694413333513,0.017740353811137324,10.088901530718886,-1.4777983497120921,2
163,2024-09-19 21:19:33.075486720,TASK_BEGIN,011,1.3494324864292366,-0.6357967627551804,1.8758575045419104,-1.4300902055382554,-0.021920714850033135,0.009298855304125076,10.248974712108462,-1.5359610845956324,2
164,2024-09-19 21:19:33.149744896,TASK_BEGIN,011,1.3528598162695025,-0.6167613747307358,1.8505730870652928,-1.4578444932008061,-0.015951587556848446,-0.0015474695165552629,10.468407047182628,-1.6050695335464318,2
165,2024-09-19 21:19:33.215224064,TASK_BEGIN,011,1.3536421750773044,-0.5930197800410627,1.809396709227904,-1.4803875052985354,-0.002257566836225378,-0.015398718430379202,10.74789331184733,-1.685601135732236,2
166,2024-09-19 21:19:33.277709056,TASK_BEGIN,011,1.3536420512247849,-0.5657760403244225,1.750282671956049,-1.496551332096564,0.020521441519122063,-0.032796992045118926,11.08330074581037,-1.7772659773465314,2
167,2024-09-19 21:19:33.339965184,TASK_BEGIN,011,1.354834176210256,-0.5365100914771044,1.6724630115285264,-1.5054596015542219,0.05341580055016775,-0.05416897510002788,11.465003265650484,-1.8787459898357497,2
168,2024-09-19 21:19:34.291892992,TASK_BEGIN,011,1.3591110971379263,-0.5068605321496576,1.5767608752296247,-1.5066595402949226,0.09694424134453791,-0.0797758973501467,11.878237703190614,-1.9876575143630801,2
169,2024-09-19 21:19:34.354563072,TASK_BEGIN,011,1.3681360120810602,-0.4785057289670904,1.4657201280627525,-1.5001838463861994,0.15098172038728766,-0.10967359925559085,12.304622550390016,-2.100734756688836,2
170,2024-09-19 21:19:34.417048064,TASK_BEGIN,011,1.3832489431719646,-0.4530624932821271,1.3435210374282294,-1.4865280862426518,0.21468609643142547,-0.14368089122602756,12.724654282310421,-2.2141728779800762,2
171,2024-09-19 21:19:34.495155968,TASK_BEGIN,011,1.4054162164976833,-0.43200959926689375,1.2157342804952378,-1.4665606851669848,0.2864982514783239,-0.18135938197245524,13.120473538396617,-2.324041859063917,2
172,2024-09-19 21:19:34.566964992,TASK_BEGIN,011,1.4352143978922536,-0.41663089242164475,1.088929689077575,-1.4414057250249073,0.36423651690199965,-0.22201836358800273,13.477868404277592,-2.426659974314698,2
173,2024-09-19 21:19:34.634682880,TASK_BEGIN,011,1.4728420820908716,-0.4079679955782975,0.9701241054363526,-1.4123416017119852,0.44528273929133544,-0.26475555107244847,13.786790543805639,-2.5188275723622233,2
174,2024-09-19 21:19:34.700752896,TASK_BEGIN,011,1.5181512504387606,-0.40677577855145175,0.8660863117290623,-1.3807277317009923,0.5268153833624203,-0.3085247674261912,14.0404482280234,-2.5978885411291888,2
175,2024-09-19 21:19:35.640990976,TASK_BEGIN,011,1.5706900207063426,-0.4134776843713536,0.7825280905068778,-1.347929487171225,0.6060218872920641,-0.3522069922893094,14.233795706386916,-2.6616766098032656,2
176,2024-09-19 21:19:35.713999872,TASK_BEGIN,011,1.6297559610182342,-0.4281232860009237,0.7232822430012049,-1.3152164672840667,0.6802432536044953,-0.3946690551590239,14.362513628375272,-2.7084699508349037,2
177,2024-09-19 21:19:35.780729856,TASK_BEGIN,011,1.6944582542657252,-0.45035716182976304,0.6897409493216606,-1.2836601299994184,0.7470507461389482,-0.43481144744212563,14.423155704685314,-2.737063696032573,2
178,2024-09-19 21:19:35.843739904,TASK_BEGIN,011,1.7637594033938004,-0.4794064233480028,0.68081214020528,-1.254077171332528,0.8042889156983221,-0.47161262796479014,14.41428453160456,-2.746967800441027,2
179,2024-09-19 21:19:35.906861056,TASK_BEGIN,011,1.8364444621204241,-0.5140845655634421,0.693367730860398,-1.2270337570677785,0.8501263633808778,-0.5041721504043923,14.337823698248409,-2.7386511413937256,2
180,2024-09-19 21:19:35.971299840,TASK_BEGIN,011,1.9110017684968665,-0.5528075191649228,0.722980185588993,-1.2028962341939131,0.8831383572541509,-0.5317488306329695,14.199911338181254,-2.713742754026485,2
181,2024-09-19 21:19:36.052553984,TASK_BEGIN,011,1.985472649973484,-0.5936280810497485,0.7648060547365525,-1.1819077127854847,0.9024164659610151,-0.5537902957540588,14.01100024590443,-2.6751094400896926,2
182,2024-09-19 21:19:36.982804992,TASK_BEGIN,011,2.0573584294241045,-0.6343040325352991,0.8144969028026274,-1.1642765723000201,0.9076831986551858,-0.569958351061822,13.785293624018625,-2.6267354986521165,2
183,2024-09-19 21:19:37.060026880,TASK_BEGIN,011,2.1236387017688876,-0.672411073228425,0.8689143654740061,-1.150263328902889,0.8993839494579869,-0.5801577581226015,13.53955673654665,-2.5733721109320484,2
184,2024-09-19 21:19:37.122117888,TASK_BEGIN,011,2.1809054039867126,-0.7054931958149439,0.9263844492601049,-1.1402226194286647,0.8787169542561809,-0.5845630858383088,13.291207473481434,-2.5200051200536797,2
185,2024-09-19 21:19:37.184114944,TASK_BEGIN,011,2.2255912288062984,-0.7312240942962009,0.9863608207075284,-1.134544339900043,0.8475686075261871,-0.5836262715433524,13.055830933173379,-2.4712625980074012,2
186,2024-09-19 21:19:37.261331968,TASK_BEGIN,011,2.254265122578336,-0.7475542653380336,1.0486511455341139,-1.1335067085663533,0.8083648010868139,-0.5780556724880221,12.844725717003708,-2.4308776139688657,2
187,2024-09-19 21:19:37.334030080,TASK_BEGIN,011,2.2639623726139564,-0.7528383458614434,1.112616587730037,-1.1371382578742888,0.7638743153786626,-0.5687721629927435,12.663225700245357,-2.401266945237425,2
188,2024-09-19 21:19:37.401415936,TASK_BEGIN,011,2.2525000175807177,-0.7459481148021516,1.1767641142075582,-1.1451793644921817,0.7169849152191937,-0.5568516913171119,12.510242415344727,-2.3832874044471226,2
189,2024-09-19 21:19:38.321282048,TASK_BEGIN,011,2.2187162968089043,-0.7263651019532177,1.238904795115419,-1.157156169270927,0.6704718483755165,-0.5434627062649818,12.37905146064006,-2.3762415152710643,2
190,2024-09-19 21:19:38.382543872,TASK_BEGIN,011,2.162591179929258,-0.6942329334104581,1.296712478872558,-1.1725130999838225,0.626798804777427,-0.5298048641167645,12.259019178664262,-2.3781172395106824,2
191,2024-09-19 21:19:38.443913728,TASK_BEGIN,011,2.0852481912257335,-0.650355771408182,1.3483247659968822,-1.1907329774655735,0.5879794081970452,-0.5170479543487448,12.13778041308651,-2.3859469881750597,2
192,2024-09-19 21:19:38.524221952,TASK_BEGIN,011,1.9888709112838943,-0.5961507650790275,1.3927509475943327,-1.2114055460588906,0.5554812918122319,-0.5062664772537442,12.003360126562292,-2.3961806215697203,2
193,2024-09-19 21:19:38.591331072,TASK_BEGIN,011,1.8765566368467763,-0.5335715219702573,1.4300940159458437,-1.2342543955716547,0.5301383303884044,-0.49837409699627017,11.845903084890775,-2.405042687531669,2
194,2024-09-19 21:19:38.653601792,TASK_BEGIN,011,1.7520917006984718,-0.46500476762456155,1.4616295836013622,-1.2591473645417215,0.5120747032785,-0.4940691973791586,11.658907541583986,-2.4088959073090916,2
195,2024-09-19 21:19:38.715868928,TASK_BEGIN,011,1.6196350515117157,-0.3931301190573809,1.489665412403981,-1.2860867013841808,0.5006827210895047,-0.49379720634101915,11.439936544778336,-2.4046294375944095,2
196,2024-09-19 21:19:39.636424960,TASK_BEGIN,011,1.483353032787723,-0.3207444502842404,1.517115669343398,-1.3151510971742597,0.49470084382742413,-0.49773048070803577,11.190738394440649,-2.3900389936854194,2
197,2024-09-19 21:19:39.699059200,TASK_BEGIN,011,1.3470912816943628,-0.2505725091755871,1.546896659932493,-1.3463795767211133,0.49241986581951575,-0.5057692829695619,10.916716507282887,-2.364104108589271,2
198,2024-09-19 21:19:39.776270080,TASK_BEGIN,011,1.2141517711351226,-0.18509155880168845,1.5813405532847975,-1.37962424340371,0.49198903568657903,-0.5175627500769198,10.625839325205982,-2.3270619594952606,2
199,2024-09-19 21:19:39.849576960,TASK_BEGIN,011,1.0871857988109275,-0.12638683402898815,1.621702391656405,-1.4144096834606752,0.4917167934960168,-0.5325365446643038,10.327356886720068,-2.2802630411760325,2
200,2024-09-19 21:19:39.916112896,TASK_BEGIN,011,0.9681677098008109,-0.07604149933187893,1.6676896533521373,-1.4498149740573052,0.4902489630743665,-0.5499145352735306,10.030791714000845,-2.225896706135792,2
201,2024-09-19 21:19:39.978176000,TASK_BEGIN,011,0.8584120788886187,-0.03506289698013984,1.7170309333430875,-1.484391681781502,0.4865939420834203,-0.5687369062714275,9.74536588122522,-2.1666909874467937,2
202,2024-09-19 21:19:40.052660992,TASK_BEGIN,011,0.758626619551653,-0.0038521669653270056,1.7653470955419526,-1.516169723670803,0.4800677383682367,-0.5878892413675503,9.47969451484318,-2.105642657804816,2
203,2024-09-19 21:19:40.982119168,TASK_BEGIN,011,0.6690113750954817,0.017774302126706183,1.806584038700918,-1.5428019173437633,0.47024359040602576,-0.6061562208618094,9.241658394267612,-2.045801887953633,2
204,2024-09-19 21:19:41.064177920,TASK_BEGIN,011,0.5893955693044782,0.030510579013824014,1.8339076483224082,-1.5618226967529936,0.45690832807524295,-0.6222973821368663,9.038556997809344,-1.9901129422239627,2
205,2024-09-19 21:19:41.131907840,TASK_BEGIN,011,0.5193677573776267,0.03544705972944275,1.840702233583278,-1.570942326418557,0.4399753364550605,-0.6351231680262027,8.877467745368907,-1.9412726444331632,2
206,2024-09-19 21:19:41.199446016,TASK_BEGIN,011,0.45835234157643795,0.033940880086810093,1.8214185405153673,-1.5683117981813106,0.4193576959579693,-0.6435519774735169,8.765462806246388,-1.9015699130814998,2
207,2024-09-19 21:19:41.267268864,TASK_BEGIN,011,0.4056330665028334,0.027493630792489766,1.7721993248228587,-1.5527182057553133,0.3948732878067347,-0.6466516692010867,8.709383209853604,-1.8727196254435339,2
208,2024-09-19 21:19:41.325014272,TASK_BEGIN,011,0.3603746445769663,0.017645241829267348,1.6912415974940862,-1.5236831524081444,0.366241143176169,-0.6436824802319264,8.715117140741734,-1.8557138997181777,2
209,2024-09-19 21:19:41.401046784,TASK_BEGIN,011,0.3216910848771297,0.005880057973578795,1.578884363100656,-1.4814601139746033,0.3331589718600427,-0.6341480111433295,8.786522730045375,-1.8506780804992051,2
210,2024-09-19 21:19:42.346558976,TASK_BEGIN,011,0.2887601012343241,-0.006460925942535204,1.4375402229616778,-1.426954201351604,0.29539778879557205,-0.617840216934003,8.9242668517647,-1.856731658760826,2
211,2024-09-19 21:19:42.401972224,TASK_BEGIN,011,0.2609470881895304,-0.018262825141090747,1.271621030396047,-1.361597302384385,0.2528657060182795,-0.5948555122297389,9.12496175437492,-1.8719234043091355,2
212,2024-09-19 21:19:42.481995008,TASK_BEGIN,011,0.23791567455230375,-0.02871160087439419,1.0874242914862153,-1.2871985872467266,0.20564962782547072,-0.5655695564534611,9.380906913646752,-1.8933177299923367,2
213,2024-09-19 21:19:42.549649920,TASK_BEGIN,011,0.2197276310990974,-0.037356047790762494,0.8927804860428626,-1.205772676757928,0.15405770640789568,-0.5305770164336412,9.680389716502772,-1.917222581207715,2
214,2024-09-19 21:19:42.602864128,TASK_BEGIN,011,0.20691805936559693,-0.044149096612627295,0.6963391777215437,-1.1193557624807502,0.09866529534551066,-0.4906176954874276,10.008269878915064,-1.9394926077697665,2
215,2024-09-19 21:19:42.680498944,TASK_BEGIN,011,0.20049316992870803,-0.04945328325807123,0.5066086728779318,-1.0298532395462396,0.04036098886589019,-0.4465117751374278,10.346742789196517,-1.9558657952963914,2
216,2024-09-19 21:19:42.742585088,TASK_BEGIN,011,0.20180416941481838,-0.05399142711397348,0.3310359686538125,-0.9389749764928431,-0.019629595798575903,-0.39910921066778854,10.676293573138942,-1.962308936963448,2
217,2024-09-19 21:19:43.681277184,TASK_BEGIN,011,0.2123108395413228,-0.058735682055770795,0.17539613160823792,-0.8482721157660418,-0.07979790235968241,-0.3492400607728395,10.976694051681273,-1.955341223019822,2
218,2024-09-19 21:19:43.764398080,TASK_BEGIN,011,0.23331097180404814,-0.06475489151906072,0.043580089613628546,-0.7592197129800934,-0.13851905341483395,-0.2976586736780456,11.227925459466453,-1.9323238265702787,2
219,2024-09-19 21:19:43.832113152,TASK_BEGIN,011,0.26572202372370013,-0.07305838620928526,-0.06232980614796387,-0.6732631434466023,-0.19428940583128868,-0.24499539227061118,11.41116871650046,-1.891709621639428,2
220,2024-09-19 21:19:43.896596992,TASK_BEGIN,011,0.3099452018291846,-0.08446488497767562,-0.14185382225870855,-0.5917972615743008,-0.24594070714244626,-0.19173617189031167,11.509947364515906,-1.8332096386935575,2
221,2024-09-19 21:19:43.967447040,TASK_BEGIN,011,0.3657805683386818,-0.09950176190580412,-0.1958278838830005,-0.5161181030744971,-0.2927426824698903,-0.13823926056511934,11.511173370911088,-1.7578134474102494,2
222,2024-09-19 21:19:44.035129856,TASK_BEGIN,011,0.43236649246890224,-0.11833062064448734,-0.22603748528863551,-0.4473938209816678,-0.3343526809334572,-0.0847832794947242,11.405891712280397,-1.6676521128881223,2
223,2024-09-19 21:19:44.097821952,TASK_BEGIN,011,0.5081650653092242,-0.14070387156955622,-0.23485918676281275,-0.38664836462017843,-0.3706449997323712,-0.03162997627513689,11.189973269591551,-1.565781744367028,2
224,2024-09-19 21:19:45.044881152,TASK_BEGIN,011,0.5910298800976634,-0.16596471291424944,-0.22500569390783984,-0.33472184901287966,-0.4015161989256099,0.020918111497690996,10.865094581595095,-1.4560008332077294,2
225,2024-09-19 21:19:45.110510080,TASK_BEGIN,011,0.6783587682412205,-0.19309638174416038,-0.19935570113045073,-0.2922016787269851,-0.4267560090287862,0.07247584854608666,10.439843812662623,-1.3427390555587024,2
226,2024-09-19 21:19:45.168392704,TASK_BEGIN,011,0.7673051465172,-0.2208135529885079,-0.16081705120280537,-0.25935435867855183,-0.44601226591907,0.12255076744176222,9.930355466049427,-1.2309350037969657,2
227,2024-09-19 21:19:45.249252096,TASK_BEGIN,011,0.8550269157779571,-0.24768437178543445,-0.11223525955214111,-0.23609030648784363,-0.4588239290468683,0.17053704952934104,9.359915139011008,-1.1257819321786549,2
228,2024-09-19 21:19:45.317477120,TASK_BEGIN,011,0.9389555480255193,-0.27227492450331664,-0.05634515147613064,-0.22197987271203148,-0.4646651904157363,0.21572734066715987,8.75733772178759,-1.0323041631716523,2
229,2024-09-19 21:19:45.385209088,TASK_BEGIN,011,1.0170436535037108,-0.2933066954737156,0.00430180648157588,-0.21631944665801167,-0.46296101411986645,0.2573331252569631,8.154368628533465,-0.9548531330032392,2
230,2024-09-19 21:19:45.448455936,TASK_BEGIN,011,1.0879287987508448,-0.3098088515911005,0.06745096443303195,-0.21822072838956597,-0.45309931163906414,0.2945091025784558,7.582637782289248,-0.8966618770107123,2
231,2024-09-19 21:19:46.396858880,TASK_BEGIN,011,1.1509611678302245,-0.32123641097770084,0.13118902747435454,-0.22668285154676854,-0.43448631148021866,0.32639089061297627,7.070656909361679,-0.8595324879158731,2
232,2024-09-19 21:19:46.464538112,TASK_BEGIN,011,1.2060751568355343,-0.32752134014350603,0.1938319028084581,-0.2406316251961784,-0.4066415257339731,0.35215456725819505,6.6411783168241545,-0.8436547933222754,2
233,2024-09-19 21:19:46.532131840,TASK_BEGIN,011,1.2535375236625665,-0.32903983903625567,0.25375694927708986,-0.25895556383962676,-0.36929241211793107,0.37109141104933413,6.309181837371206,-0.8475613126971449,2
234,2024-09-19 21:19:46.586179840,TASK_BEGIN,011,1.2936559453526897,-0.3265113890225003,0.30937890379854094,-0.2805756713474997,-0.32245300966703444,0.38268265776485655,6.0808154957304135,-0.8682662629515357,2
235,2024-09-19 21:19:46.663812096,TASK_BEGIN,011,1.3265343554374043,-0.32086398193596044,0.3593352725407303,-0.3045401144017381,-0.26651493952585714,0.3866654160981083,5.953559070884919,-0.9016204321833827,2
236,2024-09-19 21:19:46.725425920,TASK_BEGIN,011,1.35192189273637,-0.3130920191162716,0.40272643430337085,-0.33008913494896397,-0.20237354957327003,0.3830876226429547,5.917545883163001,-0.9428289491727513,2
237,2024-09-19 21:19:46.802946048,TASK_BEGIN,011,1.3691762870023136,-0.30411974752618903,0.43917952642182384,-0.35664022849019505,-0.13154718780879307,0.37234313342233055,5.9575780109159435,-0.9870054211118179,2
238,2024-09-19 21:19:47.746917888,TASK_BEGIN,011,1.377360948845395,-0.29468433377748793,0.46868864936959576,-0.38370348721122993,-0.05621128969491904,0.3551693972207491,6.055278651279689,-1.029646676552558,2
239,2024-09-19 21:19:47.805480960,TASK_BEGIN,011,1.3754746699591835,-0.2852637495053563,0.4914735240562954,-0.41080360048737785,0.02088567319402552,0.33259775524043267,6.191071936253467,-1.066981774052633,2
240,2024-09-19 21:19:47.867538944,TASK_BEGIN,011,1.3627516524545433,-0.2760711145380565,0.5081512447856271,-0.4374896498659986,0.09659684165231477,0.3058657107498417,6.3459557396920365,-1.0962037631619583,2
241,2024-09-19 21:19:47.945165056,TASK_BEGIN,011,1.3389176761646786,-0.2671073002625826,0.5202117130959357,-0.46344209363781336,0.16760629076483294,0.2763144144164325,6.503060719785176,-1.1156016125732868,2
242,2024-09-19 21:19:48.017668096,TASK_BEGIN,011,1.3043147566348328,-0.258235474500787,0.5304453107970272,-0.48860049144312595,0.23070474971300076,0.2452924489552084,6.648796841545446,-1.124581187569926,2
243,2024-09-19 21:19:48.085219072,TASK_BEGIN,011,1.2598943231480084,-0.24924743245764913,0.5429519265903753,-0.5132157140138002,0.2831177888889617,0.2140726838359219,6.773309468485118,-1.1235487762297998,2
244,2024-09-19 21:19:48.153019904,TASK_BEGIN,011,1.2071317482047377,-0.23991740271259124,0.5626273361812741,-0.5377905251022215,0.3228592068082041,0.1837793744270216,6.8702480018583865,-1.11368343753637,2
245,2024-09-19 21:19:49.067493888,TASK_BEGIN,011,1.1478929968326548,-0.2300472323106711,0.5943160480314711,-0.5629476885044509,0.34902131530544905,0.15532748312391112,6.936217896708085,-1.0966910598192783,2
246,2024-09-19 21:19:49.129552896,TASK_BEGIN,011,1.084259076975249,-0.21949714247141716,0.6419940797810341,-0.5892951223960493,0.3619008444573188,0.12938476653098466,6.97026347263415,-1.0746090100682175,2
247,2024-09-19 21:19:49.206437120,TASK_BEGIN,011,1.0183435243970276,-0.20819719867599715,0.7083234962489077,-0.617335674311328,0.36291962440823206,0.10636512771129539,6.973388049132364,-1.0496461760803377,2
248,2024-09-19 21:19:49.269699328,TASK_BEGIN,011,0.9521681824034581,-0.1961502029494863,0.7946609622979838,-0.6474231056797202,0.35436556720256623,0.0864524366763758,6.947937713116257,-1.0240060006746097,2
249,2024-09-19 21:19:49.341854976,TASK_BEGIN,011,0.8876249894210984,-0.18344161115427654,0.9012911498120113,-0.6797406004402621,0.3390139911200215,0.0696473583664567,6.8968070811189035,-0.999661631484225,2
250,2024-09-19 21:19:49.408613120,TASK_BEGIN,011,0.8264778245788021,-0.17025569061580823,1.0275747417477632,-0.7142818834247477,0.3197241168552884,0.05582261486538604,6.822660591817426,-0.9781024546005217,2
251,2024-09-19 21:19:49.471101184,TASK_BEGIN,011,0.7703340421324198,-0.1568813213595283,1.17186519376078,-0.7508157427465688,0.29912195923139223,0.044769021632716316,6.727484438309729,-0.9601319140998031,2
252,2024-09-19 21:19:50.421325056,TASK_BEGIN,011,0.7205680319820181,-0.14369611717285663,1.331236227633072,-0.7888183321172203,0.27942014155499706,0.03622908255868362,6.612719031005987,-0.9458076008846052,2
253,2024-09-19 21:19:50.489054976,TASK_BEGIN,011,0.6782391937579146,-0.13113260950861022,1.5011384897479632,-0.8273900848604677,0.26232639387360307,0.02993100458441336,6.480008780197872,-0.9345460627793654,2
254,2024-09-19 21:19:50.556731904,TASK_BEGIN,011,0.6440338424858252,-0.11963353738118995,1.6751576857058175,-0.8652114764449654,0.2489517581613043,0.025632076596787283,6.332281188896057,-0.9253290650296964,2
255,2024-09-19 21:19:50.612523264,TASK_BEGIN,011,0.6182089484284106,-0.10959798467621046,1.8451155579374066,-0.9005916762391531,0.2396783670776619,0.02316825321791758,6.174590176999945,-0.9169203707257091,2
256,2024-09-19 21:19:50.690187008,TASK_BEGIN,011,0.6005183728978696,-0.10132197315486938,2.001663992617388,-0.9316193733767313,0.2340500403609792,0.022496792812771987,6.0142179655898635,-0.908045483379927,2
257,2024-09-19 21:19:50.752749056,TASK_BEGIN,011,0.5901539544521651,-0.09494459845910735,2.1352670193401684,-0.9563725492562649,0.23081793049517424,0.023709289968997585,5.859934150362195,-0.8975492913539541,2
258,2024-09-19 21:19:50.814784000,TASK_BEGIN,011,0.5857536111321805,-0.09041252760819946,2.23730847154654,-0.9731332248420834,0.22821258223844396,0.026998568112051227,5.7207504597400956,-0.8845664931461374,2
259,2024-09-19 21:19:51.768441856,TASK_BEGIN,011,0.5854900225213264,-0.08746929546979018,2.3010896264546608,-0.9805829831981894,0.22435178481845053,0.03259028366067971,5.604702514790015,-0.8686992396132608,2
260,2024-09-19 21:19:51.830468096,TASK_BEGIN,011,0.5872085671490043,-0.08566679867226498,2.3225488783184542,-0.9779698379240785,0.217592080614737,0.04067232446098009,5.51802905160416,-0.8501359138570196,2
261,2024-09-19 21:19:51.892535808,TASK_BEGIN,011,0.5885833749638762,-0.08439200360060894,2.300583587220247,-0.9652164705986599,0.20669443998934997,0.05135215604127085,5.46476138640629,-0.829631461809351,2
262,2024-09-19 21:19:51.974221056,TASK_BEGIN,011,0.5872841521124198,-0.08290562680786616,2.236932140241074,-0.9429310817238273,0.19082036019863854,0.06465066166410405,5.446503330138074,-0.8083225911658724,2
263,2024-09-19 21:19:52.032284928,TASK_BEGIN,011,0.581146860093957,-0.08039747239899984,2.1357059603782136,-0.9123132242344412,0.1694603620440104,0.08051646656484245,5.462232630491955,-0.7874279730683124,2
264,2024-09-19 21:19:52.109530880,TASK_BEGIN,011,0.5683336674702366,-0.0760678062208415,2.0027871752870645,-0.8749889101871657,0.1423748173255882,0.09883491745386182,5.508192085808603,-0.7679438873082279,2
265,2024-09-19 21:19:52.177225984,TASK_BEGIN,011,0.5474834692822027,-0.06923868966533958,1.8452941856130536,-0.8328305683859096,0.10955380185379227,0.11941848589777979,5.578078347085789,-0.750457145235429,2
266,2024-09-19 21:19:53.121851136,TASK_BEGIN,011,0.5178650016591526,-0.059481874513890025,1.6711174508273452,-0.7878017520795488,0.07116839757750044,0.14198594422040503,5.663598827158883,-0.7351361913405203,2
267,2024-09-19 21:19:53.185760000,TASK_BEGIN,011,0.4795174444340685,-0.04673191921242023,1.4883731554596018,-0.741824501775082,0.02752014446411127,0.1661454978134361,5.755322410392666,-0.7218765306871839,2
268,2024-09-19 21:19:53.247844864,TASK_BEGIN,011,0.4333265668959784,-0.03135217882037053,1.3047447530961978,-0.6966522553402948,-0.02095907437222623,0.19138535733821618,5.843807589331374,-0.7105325612190262,2
269,2024-09-19 21:19:53.309850112,TASK_BEGIN,011,0.38098366955205515,-0.014139320814966126,1.126890217981205,-0.6537602948241233,-0.07362308528794442,0.21706175887116466,5.920942912748921,-0.7011531534295637,2
270,2024-09-19 21:19:53.388476928,TASK_BEGIN,011,0.32481594708534134,0.0037272976883745623,0.9601089108124057,-0.6142883458658911,-0.12950366148163472,0.24238435872288908,5.981175830108385,-0.6941396887295808,2
271,2024-09-19 21:19:53.450474240,TASK_BEGIN,011,0.26752878151726806,0.020775136008855766,0.8083437342788,-0.5790543651230244,-0.18730565905277746,0.26642046829536425,6.022253589404646,-0.6902859909425471,2
272,2024-09-19 21:19:53.517612032,TASK_BEGIN,011,0.2119316977491927,0.03534995226092464,0.6744363841045362,-0.5486178618092705,-0.24556080823766,0.28813486159869256,6.0454060167476475,-0.6907219667118702,2
273,2024-09-19 21:19:54.434706176,TASK_BEGIN,011,0.16071666010128965,0.04573441677461395,0.5603908358462864,-0.5233393144991381,-0.30285698016808926,0.30645239738855207,6.05516807796513,-0.6968130461472922,2
274,2024-09-19 21:19:54.513175040,TASK_BEGIN,011,0.11631555142886657,0.05026384109640639,0.46742735070776126,-0.5034004329060008,-0.35802424546921,0.320317863642494,6.05899553638157,-0.710054168515938,2
275,2024-09-19 21:19:54.577751040,TASK_BEGIN,011,0.08080929990320643,0.04743705672516721,0.3958866795825006,-0.48880736940321967,-0.4102397547653108,0.3287445747458729,6.066695949736974,-0.7319791952793997,2
276,2024-09-19 21:19:54.640530944,TASK_BEGIN,011,0.055841771569470205,0.03602566978500416,0.345248872222288,-0.47942490905908175,-0.4590782548943516,0.33086074388601827,6.089630167482924,-0.764089312374032,2
277,2024-09-19 21:19:54.717065216,TASK_BEGIN,011,0.04251193355782586,0.015183244464161005,0.3144044006691152,-0.4750561568177867,-0.5045252172720163,0.32595936498127503,6.139518089993786,-0.8077619186458526,2
278,2024-09-19 21:19:54.784733184,TASK_BEGIN,011,0.041251332809448545,-0.015452260339653722,0.3020388754640872,-0.47553867713808745,-0.5469336183843868,0.31354512179779326,6.226752240942573,-0.8640935008738908,2
279,2024-09-19 21:19:54.852387840,TASK_BEGIN,011,0.051726762099631736,-0.055680534109104216,0.30687702597286187,-0.48081331980077074,-0.586900896391155,0.29337041467378777,6.358542890214894,-0.9336994602652066,2
280,2024-09-19 21:19:55.796344064,TASK_BEGIN,011,0.07281185089048826,-0.10470429074148085,0.32763820076573236,-0.49093127083464816,-0.6250807519145598,0.26546117706327166,6.537411922250204,-1.0165400356410048,2
281,2024-09-19 21:19:55.864064000,TASK_BEGIN,011,0.10262831830824354,-0.1611414335753647,0.36275920081789426,-0.505993009029527,-0.6619852729622204,0.23013761341576985,6.760337498538496,-1.1118166592088414,2
282,2024-09-19 21:19:55.931757056,TASK_BEGIN,011,0.13862574565649438,-0.22307179797744817,0.41008433189120447,-0.5260461332021523,-0.6978376745962867,0.1880323987581185,7.018714352051713,-1.2179480152310116,2
283,2024-09-19 21:19:55.986712832,TASK_BEGIN,011,0.1776950187539932,-0.2881081549450184,0.4667246638482037,-0.5509814811358672,-0.7325030868073171,0.1401032656561576,7.2991255052080675,-1.3325878057689102,2
284,2024-09-19 21:19:56.064368896,TASK_BEGIN,011,0.21633831326555844,-0.3534965291985161,0.5291934046630953,-0.580458606927578,-0.7654771052470561,0.08762812185898793,7.584558251543224,-1.4526146875558008,2
285,2024-09-19 21:19:56.125936896,TASK_BEGIN,011,0.2508988916023651,-0.41626213070295254,0.5937688563425959,-0.613869624680208,-0.7958990535094742,0.03216549500029433,7.85575258429293,-1.5741068408392929,2
286,2024-09-19 21:19:56.187555840,TASK_BEGIN,011,0.2778251760082552,-0.47341078852957114,0.6568704474452026,-0.6503237562724197,-0.8226039437829383,-0.024526970819471583,8.09281876625954,-1.6924326963037815,2
287,2024-09-19 21:19:57.131680000,TASK_BEGIN,011,0.29393915533063736,-0.522172597379892,0.7152301754746094,-0.6886364328397157,-0.8442599663536068,-0.08060132569970238,8.277162414841845,-1.8025447675600823,2
288,2024-09-19 21:19:57.214158080,TASK_BEGIN,011,0.2966915141623239,-0.5602508773219822,0.765830632120607,-0.7273321335731264,-0.8595855328213384,-0.134228316037444,8.393194670034747,-1.8993882256858319,2
289,2024-09-19 21:19:57.270468096,TASK_BEGIN,011,0.2843934288445626,-0.5860304386053007,0.80574157501628,-0.764675065502251,-0.8675654478934398,-0.18369061066284606,8.429319377339091,-1.9782765706464203,2
290,2024-09-19 21:19:57.349553152,TASK_BEGIN,011,0.2563906616040818,-0.5987036393718934,0.8319975104675936,-0.7987302056260968,-0.8675961084727062,-0.227461363421418,8.378332734187659,-2.03521466636332,2
291,2024-09-19 21:19:57.409364992,TASK_BEGIN,011,0.21311512021706286,-0.5982876489281999,0.841598803679298,-0.8274582495766045,-0.8595709969884758,-0.26426744457965146,8.237793701064016,-2.0672647962927533,2
292,2024-09-19 21:19:57.471438848,TASK_BEGIN,011,0.15597776259692392,-0.5855346731612725,0.8316692915300168,-0.8488495723718794,-0.8439515724316131,-0.2931294585558082,8.010676859209621,-2.0729826611480346,2
293,2024-09-19 21:19:57.552550912,TASK_BEGIN,011,0.08714098343358209,-0.5617700025139909,0.7997587344229617,-0.8610852732751128,-0.8218071951733232,-0.3133817383082803,7.705971021151282,-2.0527815481138636,2
294,2024-09-19 21:19:58.493294848,TASK_BEGIN,011,0.009251152100352416,-0.528708617651414,0.7442141408375632,-0.8626946423577355,-0.7947535908686857,-0.32468681088289,7.338545100370447,-2.0090285203262694,2
295,2024-09-19 21:19:58.558843136,TASK_BEGIN,011,-0.07480643615005171,-0.4882899873300515,0.6644763758619998,-0.8526810733361376,-0.7647579316952742,-0.3270475682855467,6.927959558248265,-1.9457923969426374,2
296,2024-09-19 21:19:58.631970048,TASK_BEGIN,011,-0.16210801919993403,-0.44254663430198155,0.5611270512741534,-0.8306013175561643,-0.7338527294420235,-0.3208056297811767,6.496509658528341,-1.8683190683401774,2
297,2024-09-19 21:19:58.699488000,TASK_BEGIN,011,-0.2498416477881189,-0.39350424193850614,0.4355811597935175,-0.7965889170095249,-0.703828333962805,-0.30661833839426356,6.06707982513818,-1.7824035133708522,2
298,2024-09-19 21:19:58.767312128,TASK_BEGIN,011,-0.33540727007054194,-0.34310529844883675,0.2895280840249242,-0.751325166751905,-0.6759634172142177,-0.2854191702867183,5.661305828490228,-1.6938444049492947,2
299,2024-09-19 21:19:58.834974208,TASK_BEGIN,011,-0.4164860968138002,-0.29315076756693387,0.12443530280441262,-0.6959808990792745,-0.6508548492581233,-0.2583673143991085,5.298267568303169,-1.6080931039933277,2
300,2024-09-19 21:19:58.900285952,TASK_BEGIN,011,-0.4911007002514133,-0.24525920932089257,-0.05858541730344334,-0.6321481250247754,-0.6284129142910408,-0.22678144984145823,4.993719102489504,-1.5300811749860879,2
301,2024-09-19 21:19:59.821462016,TASK_BEGIN,011,-0.5576597018710561,-0.20084299858968369,-0.2585234899434429,-0.5617549591343376,-0.6080342993977192,-0.19205155236495322,4.759781706152377,-1.4641322280350348,2
302,2024-09-19 21:19:59.878493952,TASK_BEGIN,011,-0.61497153667604,-0.1610958618852767,-0.47404621861141333,-0.48695709551759747,-0.5888697659303224,-0.15554008825095442,4.604846217430644,-1.413859456592709,2
303,2024-09-19 21:19:59.956176128,TASK_BEGIN,011,-0.6622307537037919,-0.12698352389399278,-0.703114740476216,-0.4100247079575659,-0.5700655901492242,-0.118495975855483,4.533312081354826,-1.381986686733519,2
304,2024-09-19 21:20:00.018662144,TASK_BEGIN,011,-0.6989878281648495,-0.09923512953429783,-0.9427328089504092,-0.33324021686033867,-0.550914273341656,-0.0819941331848954,4.5451915434979,-1.3701258273998402,2
305,2024-09-19 21:20:00.081548032,TASK_BEGIN,011,-0.7250993112586237,-0.07834077687123056,-1.188887148506745,-0.2587912295046473,-0.5309387807459637,-0.046897670782450745,4.636109616951138,-1.3786449509831575,2
306,2024-09-19 21:20:00.160002048,TASK_BEGIN,011,-0.740648030583525,-0.06456071994835472,-1.4367004467365667,-0.18864485813917617,-0.5099730070362569,-0.013838293091783537,4.79803400268896,-1.4067275476619086,2
307,2024-09-19 21:20:00.227683072,TASK_BEGIN,011,-0.7458430880800876,-0.05794474985672024,-1.68072250368334,-0.1244240989710166,-0.48824613662889266,0.016779918789847015,5.02041856147925,-1.4525749467731794,2
308,2024-09-19 21:20:01.158600192,TASK_BEGIN,011,-0.7409341994646284,-0.05835563996361089,-1.9152623099652493,-0.06731613370852152,-0.4663965428635958,0.04474397940467661,5.291157699925685,-1.5136200067797139,2
309,2024-09-19 21:20:01.235840000,TASK_BEGIN,011,-0.7261698845920196,-0.06549408803609821,-2.134748012626729,-0.01802249807004181,-0.4453564081908802,0.06996574490688148,5.597003898725746,-1.5866618658852938,2
310,2024-09-19 21:20:01.298470912,TASK_BEGIN,011,-0.7018093529125896,-0.07892679256419202,-2.334120932739577,0.023248190530967976,-0.42615063720665597,0.09240942422341161,5.923505811750064,-1.6679116249574928,2
311,2024-09-19 21:20:01.360462848,TASK_BEGIN,011,-0.6681968855308609,-0.09811504230547845,-2.5091899683019894,0.05674595679912388,-0.4097053606314212,0.11204356191648843,6.254793022067456,-1.7529983874012318,2
312,2024-09-19 21:20:01.438085888,TASK_BEGIN,011,-0.6259027800455688,-0.1224334766994675,-2.65688168993071,0.08311529084345956,-0.3967152966874383,0.12883196192956026,6.573653825779668,-1.8370269363014642,2
313,2024-09-19 21:20:01.500083968,TASK_BEGIN,011,-0.5758923657888403,-0.15117175189100723,-2.77541704522413,0.10330878813752054,-0.38755805212742006,0.1427506215554536,6.862296949418912,-1.914776335365286,2
314,2024-09-19 21:20:01.571782144,TASK_BEGIN,011,-0.5196394162568295,-0.18352839856412154,-2.864432682621758,0.11846458393446811,-0.38223254230181525,0.15380255981237162,7.103785208079816,-1.9810328980870497,2
315,2024-09-19 21:20:02.521642752,TASK_BEGIN,011,-0.45911220129744484,-0.2186189901427398,-2.924956035058629,0.12973510439514924,-0.3803320130381338,0.16201338376443927,7.283559300091014,-2.0309406114688837,2
316,2024-09-19 21:20:02.586676992,TASK_BEGIN,011,-0.3966256527700304,-0.25551303129843433,-2.9591100751989985,0.1380852761383354,-0.38109430567010544,0.16741542051210084,7.390424002684719,-2.060284368261632,2
317,2024-09-19 21:20:02.649161984,TASK_BEGIN,011,-0.33461804874551143,-0.29329107951472533,-2.9695477507446513,0.14410630421967674,-0.38355028839094363,0.17003941222140767,7.416980633346519,-2.065736947760554,2
318,2024-09-19 21:20:02.724740864,TASK_BEGIN,011,-0.2754291923044298,-0.3310973099895728,-2.958833829469857,0.14790123038321204,-0.38672371389173826,0.169922736819093,7.359918302102023,-2.045117737264952,2
319,2024-09-19 21:20:02.788379904,TASK_BEGIN,011,-0.2211219519036732,-0.3681685362912281,-2.9290498631213415,0.14907726438599903,-0.3898002434280922,0.16713024649012986,7.22034759534642,-1.997647205193968,2
320,2024-09-19 21:20:02.850866944,TASK_BEGIN,011,-0.17334779725318294,-0.40384120251926064,-2.88165845581195,0.14683189351291967,-0.3922217674522962,0.16177942001208445,7.003999119592108,-1.9241359228169514,2
321,2024-09-19 21:20:02.922526976,TASK_BEGIN,011,-0.1332561090354868,-0.4375504105163712,-2.8174491002908137,0.14009036942117853,-0.39372163933221604,0.15406129032240826,6.721151682601032,-1.8270430757671139,2
322,2024-09-19 21:20:03.869694208,TASK_BEGIN,011,-0.10145878163041581,-0.4688300857954945,-2.736477921790211,0.12765873065001254,-0.394328673444074,0.14425066692510366,6.386461759085944,-1.7104008165300486,2
323,2024-09-19 21:20:03.932251904,TASK_BEGIN,011,-0.07804562117051746,-0.49731380120919183,-2.6380826413030785,0.10836719774207898,-0.3943371604933546,0.1327041653691804,6.018873505358903,-1.57967058902792,2
324,2024-09-19 21:20:04.003266048,TASK_BEGIN,011,-0.0626289834141293,-0.5227344062675084,-2.5210468622073177,0.0811781061270486,-0.39421631164783194,0.11984634729620078,5.64130192690221,-1.4415469818379762,2
325,2024-09-19 21:20:04.073246208,TASK_BEGIN,011,-0.054411758829937804,-0.5449239962923306,-2.383866943030493,0.045240663129930477,-0.3944481336142554,0.10614104664654263,5.279475291763103,-1.3036148850042284,2
326,2024-09-19 21:20:04.142618880,TASK_BEGIN,011,-0.05229696155655185,-0.5638142671156899,-2.2250000897353273,-9.737107863214818e-05,-0.39533879424142315,0.09204852442444378,4.9597562566444395,-1.1737865543664638,2
327,2024-09-19 21:20:04.197792000,TASK_BEGIN,011,-0.05504940049498544,-0.5794325681478866,-2.0430647218823887,-0.05528063442013741,-0.39689218434183987,0.07798235800724206,4.706423457636461,-1.059588277638932,2
328,2024-09-19 21:20:04.275019008,TASK_BEGIN,011,-0.06147747824781543,-0.5918923726606762,-1.8371712398693312,-0.1204840521989558,-0.39879955406956086,0.06428314256005455,4.539112411551654,-0.9674530902626427,2
329,2024-09-19 21:20:05.196398848,TASK_BEGIN,011,-0.07056376499710638,-0.6013886935925276,-1.6075673308924519,-0.1954605853005295,-0.4005190149426369,0.0512097966252148,4.470952782155807,-0.9021560405959519,2
330,2024-09-19 21:20:05.264689920,TASK_BEGIN,011,-0.0814824150583162,-0.6082138081228042,-1.3564724594071877,-0.2793270322718335,-0.401382936445382,0.03893541518439804,4.507713071292327,-0.8665007512668625,2
331,2024-09-19 21:20:05.320952832,TASK_BEGIN,011,-0.09350163102703729,-0.6127985813278177,-1.0887378769101366,-0.3703806901544091,-0.40068732653408795,0.027540606360987315,4.648008071785652,-0.8613297926272387,2
332,2024-09-19 21:20:05.398117120,TASK_BEGIN,011,-0.10583116929381046,-0.6157687215770776,-0.8120641834136986,-0.46603424359709816,-0.39774211203934434,0.01700943935771353,4.884260733430653,-0.8858038828053246,2
333,2024-09-19 21:20:05.460144896,TASK_BEGIN,011,-0.1174926910306141,-0.6179945484093574,-0.536695532708478,-0.5628942884158126,-0.39189402005067053,0.007236038638323269,5.203817494973065,-0.9377613382201263,2
334,2024-09-19 21:20:05.535433984,TASK_BEGIN,011,-0.12725803863155197,-0.6206130436326809,-0.2745884801317988,-0.6569626923449479,-0.3825763498608821,-0.0019514451024658236,5.589794006222496,-1.014002208631001,2
335,2024-09-19 21:20:05.603169024,TASK_BEGIN,011,-0.1336497396986285,-0.625012723965659,-0.03814015451306748,-0.7439310758129409,-0.36944062849577014,-0.010746995918318467,6.021835120221596,-1.1105011953352695,2
336,2024-09-19 21:20:06.536392192,TASK_BEGIN,011,-0.13497663508857555,-0.6327868421399653,0.1612782328085278,-0.819527351673515,-0.35254672488424,-0.019315744511850405,6.47724318662587,-1.2226198675750275,2
337,2024-09-19 21:20:06.613084928,TASK_BEGIN,011,-0.12939757918787942,-0.6456665871274315,0.3146258488325462,-0.8798483228085668,-0.3325022128986041,-0.027761798843128443,6.932446413055749,-1.3453071126297613,2
338,2024-09-19 21:20:06.678037760,TASK_BEGIN,011,-0.11502713948570731,-0.6654418082916903,0.4160358016014567,-0.9216167146030544,-0.3104544904472354,-0.036129187017784725,7.364294774156887,-1.473234060913327,2
339,2024-09-19 21:20:06.740523264,TASK_BEGIN,011,-0.09008526029940887,-0.6938703148282335,0.4630990224359599,-0.9423480689374036,-0.2879355264164825,-0.044422612726397345,7.7509380606212535,-1.6008938229460954,2
340,2024-09-19 21:20:06.803209984,TASK_BEGIN,011,-0.053066909050795856,-0.7325740096828909,0.4566856980212666,-0.9404532210209863,-0.26663414114096357,-0.05262317641305605,8.072628781414508,-1.722765051720524,2
341,2024-09-19 21:20:06.883891968,TASK_BEGIN,011,-0.002891595840031828,-0.7829245056928745,0.4004700423715855,-0.9153015344680332,-0.24817515288487732,-0.06068785575602703,8.312875498710293,-1.8335896336352893,2
342,2024-09-19 21:20:06.942456064,TASK_BEGIN,011,0.06100932701661174,-0.8459297003009983,0.30032253458334807,-0.8672538494849882,-0.2339543878346843,-0.0685387720301833,8.459944691501994,-1.928729094638152,2
343,2024-09-19 21:20:07.891264768,TASK_BEGIN,011,0.13868259114312131,-0.9221342458161563,0.16377422931700672,-0.7976695997211452,-0.22504640610927087,-0.07605292970189756,8.508344444119631,-2.0045426083959432,2
344,2024-09-19 21:20:07.953293056,TASK_BEGIN,011,0.22968621372497788,-1.011537771187679,-0.00028000823571611773,-0.708884941710009,-0.22217068215823135,-0.08305958342260032,8.459817472214256,-2.0587404026523592,2
345,2024-09-19 21:20:08.015778048,TASK_BEGIN,011,0.3331077960521335,-1.113526419918709,-0.18172870089180385,-0.604135963062464,-0.2256933493877939,-0.08934645558677459,8.323368196299244,-2.0906293839102847,2
346,2024-09-19 21:20:08.098608896,TASK_BEGIN,011,0.4475398832188242,-1.2268165868479193,-0.3695522935745604,-0.4873974109850684,-0.2356556202443167,-0.09467231716281031,8.114064208939334,-2.1011369151312334,2
347,2024-09-19 21:20:08.155152128,TASK_BEGIN,011,0.5710437649242435,-1.3494252249426233,-0.5524646833272118,-0.3631464990018912,-0.2518205198047026,-0.09878640991205581,7.850930636479507,-2.0925911801769743,2
348,2024-09-19 21:20:08.232455168,TASK_BEGIN,011,0.7011560182907219,-1.4786943195198614,-0.7197169807358157,-0.2361006512621236,-0.2737224410010838,-0.10145800547710923,7.554773819293737,-2.0683800121871467,2
349,2024-09-19 21:20:08.293975040,TASK_BEGIN,011,0.8349530882116785,-1.611391917648058,-0.8617519947046228,-0.11097521609399004,-0.30070625461389777,-0.10251584236247625,7.246613803559632,-2.0326111141400744,2
350,2024-09-19 21:20:09.232507136,TASK_BEGIN,011,0.9691518072092349,-1.7438924420432274,-0.9705521815960435,0.0077204817163600906,-0.3319423586176295,-0.10189104813307773,6.9466980008062675,-1.9897716942033719,2
351,2024-09-19 21:20:09.313889792,TASK_BEGIN,011,1.100239708887022,-1.8724172438904614,-1.0397916204364481,0.11585963550618086,-0.3664068713381244,-0.09965155600260632,6.673665801759651,-1.9443450040783226,2
352,2024-09-19 21:20:09.381575168,TASK_BEGIN,011,1.2246556999850617,-1.9932981367901428,-1.0650619921801965,0.20987654153250732,-0.40283268726718574,-0.09601630840155094,6.443698727411695,-1.9004334998488612,2
353,2024-09-19 21:20:09.449259008,TASK_BEGIN,011,1.3390240197465968,-2.103222410591359,-1.0442868871809328,0.28695061961541213,-0.4396625500070142,-0.09134735462447376,6.269794114948523,-1.8614852665077977,2
354,2024-09-19 21:20:09.516992256,TASK_BEGIN,011,1.4404039088143834,-2.1994333556488868,-0.9780928475756292,0.3451452506190794,-0.4750590959135735,-0.08612607123238335,6.1612285078630995,-1.8301409321076552,2
355,2024-09-19 21:20:09.579880960,TASK_BEGIN,011,1.5265036657951347,-2.2798784443590763,-0.8698032024782686,0.38344993765061974,-0.5070201048958706,-0.08091661421387582,6.123228722697998,-1.808157168064835,2
356,2024-09-19 21:20:09.642365952,TASK_BEGIN,011,1.5958175437273674,-2.3433003908658665,-0.7249441911699832,0.401728636517037,-0.533593826687883,-0.07631616707406318,6.1569849927010765,-1.7964039629618935,2
357,2024-09-19 21:20:10.596169984,TASK_BEGIN,011,1.6476587200875694,-2.389262235466587,-0.5504155856132614,0.4006193157253943,-0.553125196668667,-0.07290066323950425,6.260024692502197,-1.7949510827577837,2
358,2024-09-19 21:20:10.657239040,TASK_BEGIN,011,1.6820991224953663,-2.4181048972119377,-0.3536198246605545,0.38143692265460927,-0.5644470445858999,-0.07118358316930778,6.4266666590608805,-1.8031974302731328,2
359,2024-09-19 21:20:10.731633152,TASK_BEGIN,011,1.6998711274132934,-2.430853858649965,-0.14182246080885025,0.3461075889608746,-0.5669759016545893,-0.07159286767810676,6.648254306626546,-1.8199693162239525,2
360,2024-09-19 21:20:10.796183040,TASK_BEGIN,011,1.702275069687785,-2.429100273048744,0.07815331783010138,0.2971198571990234,-0.5607270925248129,-0.07445095244322532,6.9131258668050375,-1.843558681715996,2
361,2024-09-19 21:20:10.858669824,TASK_BEGIN,011,1.6910834699532966,-2.4148722104377853,0.2999652857484893,0.2374559875445685,-0.5462766139473924,-0.07994583497777231,7.2064858457869825,-1.8717212090711923,2
362,2024-09-19 21:20:10.920672768,TASK_BEGIN,011,1.6684209908814205,-2.3905008175932294,0.5176587498447164,0.17047838283966998,-0.524684890097968,-0.08810111604068908,7.510457036359254,-1.9016838725237817,2
363,2024-09-19 21:20:10.998344960,TASK_BEGIN,011,1.6366369213263383,-2.3584862886272107,0.7255816794229741,0.09977058029161891,-0.49739804483841743,-0.0987619052064283,7.804709915994519,-1.9302371917007597,2
364,2024-09-19 21:20:11.922827008,TASK_BEGIN,011,1.5982029024648097,-2.3213712741702985,0.9184049738228648,0.028946429702317863,-0.46614317793404086,-0.11160723399719041,8.06795346245397,-1.9539808859948407,2
365,2024-09-19 21:20:11.987315968,TASK_BEGIN,011,1.5556342680175932,-2.2816259838764,1.09122247626543,-0.038550146293292425,-0.4328145697046542,-0.12619166011735866,8.280067253844612,-1.969705794749378,2
366,2024-09-19 21:20:12.049346816,TASK_BEGIN,011,1.5113974244573474,-2.2415440601432035,1.239608169864954,-0.09961801242879223,-0.3993379127002614,-0.14200837072880876,8.42414929300467,-1.9747793145618653,2
367,2024-09-19 21:20:12.110532864,TASK_BEGIN,011,1.467777623086661,-2.2031482157118036,1.3595852290086698,-0.15161010906701575,-0.36752333447530294,-0.15855139411986788,8.487756137816802,-1.9673882456003997,2
368,2024-09-19 21:20:12.193691904,TASK_BEGIN,011,1.4267293593338999,-2.1681086146824056,1.4476166252678553,-0.1923837083319747,-0.33894050543254084,-0.17535416548574217,8.46316188194986,-1.9466088332490905,2
369,2024-09-19 21:20:12.261412096,TASK_BEGIN,011,1.3897646122774052,-2.1376813723608925,1.5007320769191295,-0.22031906837664977,-0.31483984576710855,-0.19200301569494385,8.347109941388686,-1.9123804698274554,2
370,2024-09-19 21:20:12.329133056,TASK_BEGIN,011,1.3579196923557935,-2.112676906683514,1.516784575496652,-0.23433759200693344,-0.29612865811334643,-0.20814000586119785,8.140699868999064,-1.8654540287399415,2
371,2024-09-19 21:20:13.256810752,TASK_BEGIN,011,1.331789852984219,-2.093461631966658,1.4947365494974998,-0.23393954417108606,-0.2834111790140703,-0.2234610461061719,7.849611723532327,-1.8073342446298015,2
372,2024-09-19 21:20:13.334008064,TASK_BEGIN,011,1.3115814266035386,-2.0799821067429356,1.4348344175893006,-0.21925042687889612,-0.2770898903819646,-0.23770095752944667,7.484351455265793,-1.740213271435458,2
373,2024-09-19 21:20:13.396017152,TASK_BEGIN,011,1.2971438823795223,-2.0717942774686864,1.3385913541873264,-0.19103844075992027,-0.2774881218457273,-0.2505999617498774,7.060107051772783,-1.6668757114609392,2
374,2024-09-19 21:20:13.474566912,TASK_BEGIN,011,1.287980587526615,-2.068090425992097,1.208677318686646,-0.1506913216053707,-0.2849248090133255,-0.26186343165984305,6.596028702941946,-1.5905423030874668,2
375,2024-09-19 21:20:13.542290944,TASK_BEGIN,011,1.2832485132081008,-2.067730468184152,1.04886643632345,-0.10016767933738416,-0.2996918965255952,-0.2711387959599248,6.113969522872359,-1.5146444061550057,2
376,2024-09-19 21:20:13.608413184,TASK_BEGIN,011,1.2817551365704418,-2.0692880761047254,0.8640092866363177,-0.04190596979041595,-0.32195073303615934,-0.27802558906653385,5.636889738657801,-1.4425653741990958,2
377,2024-09-19 21:20:13.670901248,TASK_BEGIN,011,1.2819728372949881,-2.071114795204338,0.6598899304307354,0.021344848842882194,-0.35162365853648714,-0.2821122400290904,5.18722564975068,-1.3774105541144461,2
378,2024-09-19 21:20:14.607634944,TASK_BEGIN,011,1.2820940998748036,-2.0714149721034034,0.4429524570690322,0.08675960632389146,-0.38836017447020876,-0.2830167347003611,4.7854194038358155,-1.3218485755588525,2
379,2024-09-19 21:20:14.689172224,TASK_BEGIN,011,1.280124756254854,-2.0683199702245663,0.21997519779996183,0.15167320024289685,-0.43159094178008317,-0.28041438426829335,4.4485627229599345,-1.2779973960246263,2
380,2024-09-19 21:20:14.747508992,TASK_BEGIN,011,1.273988814791468,-2.059956559541602,-0.0023194798980352136,0.21375921678399026,-0.4805946682661595,-0.27405837462689653,4.189069623360517,-1.2472860143107012,2
381,2024-09-19 21:20:14.809164032,TASK_BEGIN,011,1.2616212061919643,-2.0445143208120595,-0.2177870737881972,0.27112439451265163,-0.5344912033294291,-0.26380862634669433,4.013543636707389,-1.2302866141495354,2
382,2024-09-19 21:20:14.886295040,TASK_BEGIN,011,1.2410347914021698,-2.0203163927950283,-0.4214451649643852,0.32232168497582475,-0.5921648483147987,-0.2496680281955196,3.922157377353828,-1.2266045193998698,2
383,2024-09-19 21:20:14.959955200,TASK_BEGIN,011,1.2103567782635496,-1.9858887549332607,-0.6099109372096347,0.36629941665104837,-0.6522072942348343,-0.2318076498368569,3.908758537404233,-1.2349042007463855,2
384,2024-09-19 21:20:15.027249920,TASK_BEGIN,011,1.167856459098633,-1.9400230315557387,-0.7815361261421275,0.4023157561505076,-0.7129567873047634,-0.21056754241783981,3.9619150018126383,-1.2530896084004293,2
385,2024-09-19 21:20:15.931974144,TASK_BEGIN,011,1.112008613487591,-1.8818386517596637,-0.9362142509541928,0.42985004368134966,-0.7726284161484329,-0.1864359220894079,4.067124682501937,-1.2786385380301561,2
386,2024-09-19 21:20:16.010646016,TASK_BEGIN,011,1.0416105789361303,-1.8108550009915276,-1.0748925012675576,0.44852527373056117,-0.8294611274604156,-0.1600188853711545,4.209878835908361,-1.30903871936485,2
387,2024-09-19 21:20:16.071600896,TASK_BEGIN,011,0.9559310583257054,-1.7270761829961723,-1.1988702118227716,0.4580488820904003,-0.8818073981620672,-0.13201195943912836,4.378493816103097,-1.3421786486630207,2
388,2024-09-19 21:20:16.149230080,TASK_BEGIN,011,0.8548666771829823,-1.631077421575218,-1.3090608679699605,0.45818832582355734,-0.9281561979244164,-0.10317700705011054,4.565547035246471,-1.376544905496515,2
389,2024-09-19 21:20:16.217313024,TASK_BEGIN,011,0.7390879623800818,-1.524070108926325,-1.4054487130425706,0.4487922192827308,-0.9671360624482599,-0.07432028446846739,4.767528423403474,-1.4111861328972986,2
390,2024-09-19 21:20:16.272962048,TASK_BEGIN,011,0.6101486034235981,-1.4079219167692916,-1.4868801282941921,0.4298468391184979,-0.9975388745955646,-0.04626658839058288,4.983287540964462,-1.4455263661807791,2
391,2024-09-19 21:20:16.350599168,TASK_BEGIN,011,0.47053741698985735,-1.2851222256498227,-1.5511310263236462,0.4015431058880763,-1.0183649963676489,-0.019828806285152226,5.21220298232461,-1.4791606678227056,2
392,2024-09-19 21:20:17.297216768,TASK_BEGIN,011,0.32365793865660875,-1.158692963243028,-1.595123539615237,0.3643378970256842,-1.0288722517930655,0.00422629715474544,5.4525948283212555,-1.511707738691397,2
393,2024-09-19 21:20:17.351623168,TASK_BEGIN,011,0.1737016956161963,-1.0320366705175603,-1.615297628172901,0.3190151795548712,-1.028625860217617,0.02521695343915375,5.700569123439905,-1.542720396706402,2
394,2024-09-19 21:20:17.429889792,TASK_BEGIN,011,0.02537532549014649,-0.9087046392652343,-1.6081947381245498,0.2667416133958315,-1.017556080831719,0.04258640418478566,5.949552761764859,-1.5716391591394807,2
395,2024-09-19 21:20:17.500272896,TASK_BEGIN,011,-0.11651279775260827,-0.7920886789927823,-1.571173115570799,0.20907420337742172,-0.996008712935,0.05593286692063825,6.190579264453983,-1.5977593804333678,2
396,2024-09-19 21:20:17.568001024,TASK_BEGIN,011,-0.24753483614684382,-0.6850915973717534,-1.5030585927343951,0.14788349584765978,-0.9647612375403717,0.06502223907330633,6.412963363885338,-1.6201873843146426,2
397,2024-09-19 21:20:17.621934848,TASK_BEGIN,011,-0.36409109659422,-0.5898666801976347,-1.4045468857969912,0.08521398857032987,-0.9250094956387166,0.06978790787971635,6.605094640063778,-1.6378295228509758,2
398,2024-09-19 21:20:17.700040960,TASK_BEGIN,011,-0.46373087570327787,-0.5076915931342328,-1.2782676210214354,0.023141360073776974,-0.8783478831805177,0.07032304739799398,6.755458146373429,-1.6494871412429781,2
399,2024-09-19 21:20:18.636274176,TASK_BEGIN,011,-0.5452930987274364,-0.4389800928945004,-1.1285454798149275,-0.03633794943581789,-0.8267312942901004,0.06686628584461607,6.853953206944268,-1.65406895920276,2
400,2024-09-19 21:20:18.714379776,TASK_BEGIN,011,-0.6088679670434357,-0.38339102553340154,-0.9609933895297057,-0.09139225029935072,-0.7723835733638317,0.05978505952885227,6.893260702090056,-1.65086233186509,2
401,2024-09-19 21:20:18.783035904,TASK_BEGIN,011,-0.6556256377594286,-0.33998689942132854,-0.782124434766455,-0.14042588856128504,-0.7176441301123091,0.04955976762326175,6.869927102334155,-1.639781069606378,2
402,2024-09-19 21:20:18.838219008,TASK_BEGIN,011,-0.6875704181320828,-0.30740699995546805,-0.5991227570654892,-0.1821220903936189,-0.6647934337221182,0.03676302273673965,6.785045917537928,-1.6215324894354977,2
403,2024-09-19 21:20:18.916155904,TASK_BEGIN,011,-0.707270188050137,-0.2840342858075621,-0.41971693657490744,-0.21544554338834662,-0.6159313897755503,0.02203362715562785,6.644523774363373,-1.5976766762517616,2
404,2024-09-19 21:20:18.986103040,TASK_BEGIN,011,-0.7175962045657426,-0.26814393004393233,-0.2519343211394532,-0.23962341034928444,-0.5729481580972561,0.006056522806386956,6.4587624000897295,-1.5705406925511944,2
405,2024-09-19 21:20:19.053817088,TASK_BEGIN,011,-0.7214916224382419,-0.2580254328241951,-0.10360392082855087,-0.25413618927305665,-0.5375346424129875,-0.010449017200975888,6.241568339380955,-1.5429513975136138,2
406,2024-09-19 21:20:19.995022848,TASK_BEGIN,011,-0.7217726478404305,-0.2520744205333459,0.018308390151596028,-0.2587413243073949,-0.5111422765513639,-0.026749543049958916,6.008456094857595,-1.5178248784229773,2
407,2024-09-19 21:20:20.065406976,TASK_BEGIN,011,-0.7209558433205164,-0.24885808790389677,0.10836655712240129,-0.25354503731857714,-0.49486642405558706,-0.04214196535003129,5.774866305391745,-1.4977463504371875,2
408,2024-09-19 21:20:20.133099008,TASK_BEGIN,011,-0.7211046924012049,-0.24716429358229636,0.16320652921931564,-0.23911178604298802,-0.4893138035192375,-0.056016450993077754,5.554747053671523,-1.4846845814089955,2
409,2024-09-19 21:20:20.200814848,TASK_BEGIN,011,-0.7237099921904958,-0.24603843824348454,0.18181638221533658,-0.21654264287694125,-0.49454008137420474,-0.0679128221510101,5.35953397599279,-1.4798715186727343,2
410,2024-09-19 21:20:20.257968128,TASK_BEGIN,011,-0.7296440609802897,-0.24479968988064799,0.16540729954968844,-0.18742871684879778,-0.5100889484301258,-0.0775506016530583,5.197327452604696,-1.4837604612852757,2
411,2024-09-19 21:20:20.335172096,TASK_BEGIN,011,-0.7392160034825295,-0.24302629260064437,0.11691285252942221,-0.15365566086935067,-0.5350800014706997,-0.0848342291942796,5.072246940684159,-1.4960049323310518,2
412,2024-09-19 21:20:20.396804864,TASK_BEGIN,011,-0.7523036982530151,-0.24051227833130853,0.0403755720011552,-0.11713773559254406,-0.5682704168915906,-0.0898494503555783,4.984162534848082,-1.5154948129312904,2
413,2024-09-19 21:20:21.346877184,TASK_BEGIN,011,-0.7685039616350137,-0.23721105819755106,-0.05957958264982205,-0.0795928049505649,-0.6080740851504485,-0.09286232398482551,4.928947929903844,-1.540476049409875,2
414,2024-09-19 21:20:21.414586112,TASK_BEGIN,011,-0.7872631813961256,-0.23318170431782267,-0.17815008822293424,-0.04243884549568195,-0.6525902960016436,-0.0943161189697246,4.899301842156509,-1.5687291088335198,2
415,2024-09-19 21:20:21.482274048,TASK_BEGIN,011,-0.8079909535418941,-0.2285422200622988,-0.3105777616809316,-0.006838778593285077,-0.699705270408553,-0.09480920757055024,4.886121620433713,-1.5978039055345639,2
416,2024-09-19 21:20:21.549940224,TASK_BEGIN,011,-0.8301661363309685,-0.2234252209439208,-0.4521282887916,0.02616075330543547,-0.7472768603827107,-0.09503908071331656,4.8801288549458475,-1.625320120897287,2
417,2024-09-19 21:20:21.617665024,TASK_BEGIN,011,-0.8534228002976006,-0.21793565323060865,-0.5979721274074649,0.055515018539457874,-0.7933423855532267,-0.09571636451732561,4.873209983039135,-1.6492911792843008,2
418,2024-09-19 21:20:21.679784960,TASK_BEGIN,011,-0.8775941670527344,-0.2121202049323644,-0.7432031438239495,0.08017722475632137,-0.8362624832196103,-0.09747606179568719,4.8591736898155915,-1.6684064936440988,2
419,2024-09-19 21:20:21.741404160,TASK_BEGIN,011,-0.9027133221699956,-0.2059590516856535,-0.8830433092497105,0.09919294148866287,-0.8747557431970969,-0.10081541335505902,4.833978694985697,-1.6822091453112613,2
420,2024-09-19 21:20:22.671910912,TASK_BEGIN,011,-0.9289965023767147,-0.19937920857880237,-1.0130750577665093,0.11182444806534102,-0.9078599046392811,-0.10606369005293305,4.795531959910328,-1.691084725346574,2
421,2024-09-19 21:20:22.738120192,TASK_BEGIN,011,-0.956827073118037,-0.19227855502243987,-1.1293276599150306,0.11764607123255182,-0.9348933372182477,-0.11336873643142335,4.7431867467054625,-1.6960076162006612,2
422,2024-09-19 21:20:22.803742976,TASK_BEGIN,011,-0.9867158586924998,-0.18455295719207448,-1.2281635339720445,0.11657515002771665,-0.9554408833120676,-0.12269201023214694,4.677243297031483,-1.6981294270336733,2
423,2024-09-19 21:20:22.865741056,TASK_BEGIN,011,-1.0192001706787124,-0.17612813928238383,-1.3060922311108063,0.10883198740678694,-0.9693354508944813,-0.13382173678559656,4.59874177108238,-1.6984102233280407,2
424,2024-09-19 21:20:22.927337984,TASK_BEGIN,011,-1.0546868776309708,-0.16699947374927496,-1.3597827845470274,0.09486791243335922,-0.9766272803452902,-0.14641247452900505,4.509569736992928,-1.6974537686219864,2
425,2024-09-19 21:20:23.010430208,TASK_BEGIN,011,-1.093279863112581,-0.15727715848038545,-1.3864356723746494,0.07532010964656452,-0.977565317490436,-0.160041993672847,4.412694237587076,-1.6955654388798436,2
426,2024-09-19 21:20:23.078129920,TASK_BEGIN,011,-1.134627271617335,-0.147227588189986,-1.3843558710868964,0.05101160514760725,-0.972596309683233,-0.17426974072044468,4.312319795617837,-1.6929307351085656,2
427,2024-09-19 21:20:24.012131840,TASK_BEGIN,011,-1.1778196520266644,-0.13729878450677782,-1.353388139502952,0.022958579682572724,-0.9623472676419743,-0.1886897977987989,4.213801748137426,-1.689780094955511,2
428,2024-09-19 21:20:24.074204160,TASK_BEGIN,011,-1.2213682954378486,-0.12812328157924133,-1.294984361203777,-0.007667870683976912,-0.9475472599270098,-0.20297878834288433,4.123128566475716,-1.6864549161654292,2
429,2024-09-19 21:20:24.151837952,TASK_BEGIN,011,-1.2632721999204986,-0.12050129724281543,-1.2119009494423283,-0.03964806845710792,-0.92888662255238,-0.21693891996284645,4.046004359257712,-1.6833678739367757,2
430,2024-09-19 21:20:24.214381824,TASK_BEGIN,011,-1.30116633946391,-0.1153686434553161,-1.1077092551751822,-0.07185487841919902,-0.9068747146167313,-0.23053062457830495,3.9869599623707725,-1.6809165246704876,2
431,2024-09-19 21:20:24.276448000,TASK_BEGIN,011,-1.3325405451583896,-0.11374884020702197,-0.9863979710353167,-0.10334559683203139,-0.8817777206631159,-0.2438815006279685,3.9488641905220443,-1.679423227807679,2
432,2024-09-19 21:20:24.359520000,TASK_BEGIN,011,-1.3550016099021334,-0.11668907478729876,-0.8522637942873854,-0.13333840768417424,-0.8536809687911546,-0.25725614467812064,3.932729583788791,-1.679117570013378,2
433,2024-09-19 21:20:24.424711936,TASK_BEGIN,011,-1.3665230816529297,-0.12518731038944475,-0.7099966474756694,-0.16110404150210336,-0.8226530187732669,-0.27098452537607853,3.937597454926648,-1.6801264255273316,2
434,2024-09-19 21:20:25.361392128,TASK_BEGIN,011,-1.3656132914142232,-0.14012411350970919,-0.5646742028650167,-0.1858700663387878,-0.7889175044155458,-0.2853734428546399,3.9605612845459293,-1.6824595867421155,2
435,2024-09-19 21:20:25.438964224,TASK_BEGIN,011,-1.3513599046619906,-0.16221014229893782,-0.4215426696708365,-0.20679576345860276,-0.7529300701811462,-0.30064032909928284,3.9970422686309015,-1.6860156255407792,2
436,2024-09-19 21:20:25.505808128,TASK_BEGIN,011,-1.3233708136235451,-0.19195117636632258,-0.28571146440303286,-0.2229991502578641,-0.7153398374639394,-0.3168890479759581,4.041301990397937,-1.6906191597971778,2
437,2024-09-19 21:20:25.575808000,TASK_BEGIN,011,-1.2816679909398028,-0.22962538981373767,-0.16190817859441722,-0.23359242165462407,-0.6768822733512537,-0.33411574040704883,4.087133919592517,-1.6960669603221503,2
438,2024-09-19 21:20:25.630808064,TASK_BEGIN,011,-1.2265766993023564,-0.2752665865743287,-0.05431236899961261,-0.2377152142004616,-0.6382444230387754,-0.3522224236459987,4.128624528738869,-1.7021532605127128,2
439,2024-09-19 21:20:25.707938048,TASK_BEGIN,011,-1.1586241847279943,-0.3286521200910177,0.03358615443351241,-0.23459742554209048,-0.5999402768759329,-0.3710256477303869,4.160834447406471,-1.7086734579844873,2
440,2024-09-19 21:20:25.769525248,TASK_BEGIN,011,-1.0784551616508844,-0.38930099225691495,0.09912519181116101,-0.2236719559612282,-0.5622543755491333,-0.3902598016782375,4.180318420894979,-1.715436601014213,2
441,2024-09-19 21:20:26.711807232,TASK_BEGIN,011,-0.9867878508612181,-0.45648713917157757,0.14057267636517903,-0.20470446807880777,-0.5252908193254293,-0.4095803901824165,4.185500174038798,-1.722307539736903,2
442,2024-09-19 21:20:26.789403136,TASK_BEGIN,011,-0.8844418788286723,-0.529263874068729,0.157192920072991,-0.1778903100687389,-0.48910188116998465,-0.42857028157023364,4.176942385987801,-1.7292658824198195,2
443,2024-09-19 21:20:26.851137024,TASK_BEGIN,011,-0.7724379139379245,-0.606490307144582,0.14930910487008844,-0.14389362632767597,-0.4538317320715362,-0.4467477884876331,4.157448022303098,-1.7364601320168687,2
444,2024-09-19 21:20:26.912336128,TASK_BEGIN,011,-0.652127318240119,-0.6868559990939107,0.11832047552355832,-0.10381915398018439,-0.41982344111775194,-0.4635764742447965,4.131795647898964,-1.7442434139881853,2
445,2024-09-19 21:20:26.990443776,TASK_BEGIN,011,-0.52530675631285,-0.768907888931326,0.06657464522446596,-0.059118714032123376,-0.3876670955444576,-0.47848193020500857,4.105930929454731,-1.7531597730892203,2
446,2024-09-19 21:20:27.052035072,TASK_BEGIN,011,-0.39429196782029424,-0.8510879414564787,-0.0029387346671917516,-0.011455850611192328,-0.3581719357664582,-0.4908859872590403,4.085707288992888,-1.7638397096987477,2
447,2024-09-19 21:20:27.127870208,TASK_BEGIN,011,-0.2619203725356411,-0.931791700793883,-0.08702325339401516,0.03744671456807527,-0.33223662845521656,-0.5002663575041074,4.075668422451742,-1.7768209450140688,2
448,2024-09-19 21:20:28.041937920,TASK_BEGIN,011,-0.13144327145221169,-1.009450805268125,-0.1827301196706803,0.08596451370495665,-0.31062630472926017,-0.5062331643927885,4.0784503532039675,-1.792380374069024,2
449,2024-09-19 21:20:28.102818048,TASK_BEGIN,011,-0.006306034544683293,-1.0826252078835696,-0.2876573500932665,0.13270886295489662,-0.29373731866940034,-0.508596618723261,4.094961328665192,-1.810453804437098,2
450,2024-09-19 21:20:28.181614080,TASK_BEGIN,011,0.11012866241626372,-1.1500827630564887,-0.39995066490207176,0.17660121575084542,-0.2814585799739741,-0.5074024998300799,4.125031607855952,-1.8306493718845325,2
451,2024-09-19 21:20:28.249300992,TASK_BEGIN,011,0.2148480135199704,-1.2108562039119135,-0.5180379711907624,0.2168583932738351,-0.27319539545632676,-0.502928645510772,4.168161284391863,-1.8523151841230914,2
452,2024-09-19 21:20:28.317028096,TASK_BEGIN,011,0.3054056677475061,-1.2642794332439964,-0.64030864196741,0.25290953336246197,-0.2680538299466633,-0.4956469621037938,4.22418795203633,-1.8746420678100941,2
453,2024-09-19 21:20:28.384804864,TASK_BEGIN,011,0.3800634255676426,-1.3099994932049772,-0.7649384996130408,0.2843018459053461,-0.2651219680237514,-0.48615686348842996,4.293690083938215,-1.8967991523231191,2
454,2024-09-19 21:20:28.452428288,TASK_BEGIN,011,0.43784475166271386,-1.3479559421254974,-0.8898453444791659,0.31064329571571375,-0.26375259399731255,-0.4750962735200965,4.377737345452907,-1.918042709295007,2
455,2024-09-19 21:20:29.395678976,TASK_BEGIN,011,0.4785133951126875,-1.3783331929517024,-1.0126198631361978,0.33158530471926456,-0.2637715696048231,-0.4630443011645744,4.476734640365219,-1.937701848619896,2
456,2024-09-19 21:20:29.451728896,TASK_BEGIN,011,0.5025053422169369,-1.401504674144253,-1.1304360276658714,0.3468289753659945,-0.2655704732887936,-0.45044368950763536,4.58874639036841,-1.9550465736858085,2
457,2024-09-19 21:20:29.529711872,TASK_BEGIN,011,0.5108239067449367,-1.4179804940309066,-1.240183608415327,0.3561707313937984,-0.2700466498935494,-0.4375728820218645,4.708204399524835,-1.96916836593838,2
458,2024-09-19 21:20:29.598862848,TASK_BEGIN,011,0.5049001024443514,-1.4283566361420876,-1.3389823592384678,0.35961090367433884,-0.27837157164364223,-0.42457197835166643,4.82571649656444,-1.9789733082892955,2
459,2024-09-19 21:20:29.658386944,TASK_BEGIN,011,0.48644816533231516,-1.433263310842395,-1.4248377368904719,0.35747654824827513,-0.2916396409806725,-0.4114937517638163,4.929069120761341,-1.9832748252603423,2
460,2024-09-19 21:20:29.734267136,TASK_BEGIN,011,0.4573565648370812,-1.4333197248885532,-1.496973803487062,0.35045701811864793,-0.31051336162000565,-0.3983475854872687,5.005050488058748,-1.980933837465194,2
461,2024-09-19 21:20:29.797625088,TASK_BEGIN,011,0.4196171017253571,-1.429106757009274,-1.5556380969990762,0.3395194976640341,-0.3349773504644075,-0.3851299432014289,5.041552118464432,-1.9710166466452521,2
462,2024-09-19 21:20:30.737714176,TASK_BEGIN,011,0.37526326100825164,-1.4211609488125427,-1.6015711505044998,0.32576809891849084,-0.3642592736597394,-0.37185285749837604,5.029418797774039,-1.9529570504568143,2
463,2024-09-19 21:20:30.799781120,TASK_BEGIN,011,0.32630762450199974,-1.4099815122252488,-1.63543898389671,0.31030523369116236,-0.3969024158936308,-0.3585756397731976,4.963652522253174,-1.9267054219666646,2
464,2024-09-19 21:20:30.876928000,TASK_BEGIN,011,0.27469538534112525,-1.396037496482627,-1.6574422643078306,0.2941094496885859,-0.43091710138251765,-0.3454326002691998,4.843786111840244,-1.8928368988370878,2
465,2024-09-19 21:20:30.939415040,TASK_BEGIN,011,0.22228680652773494,-1.3797668936495637,-1.6672545629365334,0.2779506870204581,-0.46394197099866635,-0.332647687673341,4.6735007239623645,-1.8525944876096518,2
466,2024-09-19 21:20:31.001447936,TASK_BEGIN,011,0.17086678772914515,-1.361570624369066,-1.6643216045690417,0.2623747753451524,-0.4934077554845902,-0.32053254348681626,4.459805487423175,-1.8078502487301997,2
467,2024-09-19 21:20:31.084323072,TASK_BEGIN,011,0.12216580388672756,-1.3418117107293668,-1.6483906726968711,0.2477663095017957,-0.5167398484180324,-0.30946929569104364,4.21219669232067,-1.7609738780017472,2
468,2024-09-19 21:20:31.151993856,TASK_BEGIN,011,0.07786068483103437,-1.3208226226872561,-1.6200813742136997,0.23447217513399107,-0.5316040475986775,-0.29988339423554455,3.9421084665196355,-1.7146448252967967,2
469,2024-09-19 21:20:32.096481280,TASK_BEGIN,011,0.039536689061955246,-1.2989126822868082,-1.581286925904148,0.22293659070354294,-0.5361474659459068,-0.2922137142200422,3.662693114409571,-1.6716871465154113,2
470,2024-09-19 21:20:32.164239872,TASK_BEGIN,011,0.008630178649341593,-1.2763706579153844,-1.535176532492046,0.21376756394688332,-0.5291943895071218,-0.2868823864521339,3.3886342334239523,-1.6349429512916245,2
471,2024-09-19 21:20:32.231956992,TASK_BEGIN,011,-0.013628126827269446,-1.2534687640069808,-1.4857277145076724,0.20768022708520437,-0.5103888977258006,-0.28426302793985103,3.135545296086419,-1.6071101216185657,2
472,2024-09-19 21:20:32.295602176,TASK_BEGIN,011,-0.026285446716541358,-1.230476778047885,-1.4370157151144587,0.2053527952494277,-0.4802690066502514,-0.2846527065208795,2.9187654408655597,-1.59050351691548,2
473,2024-09-19 21:20:32.357615872,TASK_BEGIN,011,-0.028769564972239876,-1.2076893692833397,-1.3926046003156243,0.20729076286593176,-0.4402519106260227,-0.2882560616844472,2.7518536044958233,-1.5868013638920817,2
474,2024-09-19 21:20:32.434799104,TASK_BEGIN,011,-0.02098837816619937,-1.1854623456038336,-1.355217114039518,0.21376111011567916,-0.3925403206563436,-0.29517646224929694,2.6453188790956537,-1.596869004065378,2
475,2024-09-19 21:20:32.495933184,TASK_BEGIN,011,-0.003371495779980982,-1.164244603869072,-1.326662078393684,0.22479282027734226,-0.3399695001244511,-0.30539867214964883,2.605910032262228,-1.6206974431381556,2
476,2024-09-19 21:20:33.421564160,TASK_BEGIN,011,0.023168006625969666,-1.144588633041129,-1.3079095633034628,0.24020583524391353,-0.28579103830983366,-0.3187581602446941,2.636411834703413,-1.6574304853805537,2
477,2024-09-19 21:20:33.489316864,TASK_BEGIN,011,0.057334303994624074,-1.1271313982847244,-1.2991437022344672,0.25961942579807634,-0.2333871746670867,-0.33491107641156587,2.735732252954145,-1.7054406185526605,2
478,2024-09-19 21:20:33.557017088,TASK_BEGIN,011,0.0975791195924129,-1.1125493229448422,-1.299648454206768,0.28240845051081626,-0.18593392561216196,-0.3533279303742952,2.8991599335922604,-1.7624500320668464,2
479,2024-09-19 21:20:33.623542016,TASK_BEGIN,011,0.1422325109771207,-1.1014952491600114,-1.3075659135964575,0.3076283044285853,-0.14606039156620398,-0.3733240259821736,3.118788892161628,-1.8257168686016558,2
480,2024-09-19 21:20:33.685601024,TASK_BEGIN,011,0.18962216914460728,-1.0945278958617521,-1.3197549729523688,0.3339701945257579,-0.1155799287757146,-0.3941163155897045,3.3840147181212017,-1.8922568794712846,2
481,2024-09-19 21:20:33.747597824,TASK_BEGIN,011,0.23817552540031686,-1.0920474316820103,-1.3320113398437181,0.35980926376616734,-0.095366128987184,-0.41488469529823147,3.681842287898154,-1.9590043573254434,2
482,2024-09-19 21:20:33.826574080,TASK_BEGIN,011,0.28648568472163516,-1.0942499749654453,-1.3397461216173516,0.38337444425399114,-0.08539438874318003,-0.43482645934629094,3.9969613207477077,-2.022856416916144,2
483,2024-09-19 21:20:34.771521024,TASK_BEGIN,011,0.3333242993766622,-1.1011109944898403,-1.3389243414431715,0.4029994423906607,-0.08491156667487375,-0.45320451930390343,4.3120512335547145,-2.0806728202755203,2
484,2024-09-19 21:20:34.839266048,TASK_BEGIN,011,0.37761151322306175,-1.1124000750918024,-1.3268786884108557,0.4173554926235344,-0.09267176591523925,-0.4693871772694793,4.6088243563007865,-2.129371641464489,2
485,2024-09-19 21:20:34.896061952,TASK_BEGIN,011,0.4183751159734808,-1.1277154875269844,-1.302728279827648,0.42558877975378706,-0.10717707100465299,-0.48287017910453267,4.8697172134776405,-2.1661879811228215,2
486,2024-09-19 21:20:34.974691840,TASK_BEGIN,011,0.45473253910695277,-1.146520504859388,-1.2673950223979704,0.42735856695672614,-0.1268717742460451,-0.49327691567715376,5.079612719605812,-2.1890162843779657,2
487,2024-09-19 21:20:35.035662080,TASK_BEGIN,011,0.4859100453527655,-1.1681740510590475,-1.2233437053351486,0.4228127977827749,-0.1502585855342366,-0.500347463540809,5.2270497328786805,-2.1966790147165627,2
488,2024-09-19 21:20:35.110102016,TASK_BEGIN,011,0.5112821760708123,-1.1919609984904669,-1.1741627495591427,0.41253829532334,-0.17594241789213289,-0.5039317755620955,5.304778549796252,-2.189012061889907,2
489,2024-09-19 21:20:35.177854976,TASK_BEGIN,011,0.530399812687599,-1.2171250451176974,-1.124090459327228,0.3975126960445808,-0.20264588499840963,-0.5039902807699235,5.309823049581434,-2.166753269663295,2
490,2024-09-19 21:20:36.116858880,TASK_BEGIN,011,0.5429925167970964,-1.242896909700178,-1.0775641078717821,0.3790592694882706,-0.22924135426561001,-0.5005933881846862,5.243294254757711,-2.131286663332634,2
491,2024-09-19 21:20:36.189351168,TASK_BEGIN,011,0.5489577253269935,-1.268511605941664,-1.0388013215945262,0.35877111577007453,-0.2548036311048744,-0.4939133251732394,5.110016971975307,-2.0843222600824127,2
492,2024-09-19 21:20:36.255203072,TASK_BEGIN,011,0.5483574313958437,-1.29322099478468,-1.011417407504085,0.33837824928246113,-0.27865596509371754,-0.48421169386220747,4.917791028443659,-2.027605705320587,2
493,2024-09-19 21:20:36.317689088,TASK_BEGIN,011,0.5414238304856905,-1.3163109207721542,-0.9981216824804259,0.3195827939071168,-0.3003929975938917,-0.4718295143163547,4.676341604797247,-1.9627684165244972,2
494,2024-09-19 21:20:36.379702016,TASK_BEGIN,011,0.5285492742545613,-1.3371185048427876,-1.0004965747083872,0.3039083415591583,-0.3198893316842475,-0.45717818927635306,4.396517284193934,-1.8913921514039094,2
495,2024-09-19 21:20:36.460165888,TASK_BEGIN,011,0.5102405864576179,-1.355035606951357,-1.0188059439366632,0.29257588234831844,-0.3373036818795345,-0.44072147907911763,4.090181955704845,-1.8152291336437603,2
496,2024-09-19 21:20:36.527884032,TASK_BEGIN,011,0.4870541337515779,-1.3694950402603963,-1.0518347872348233,0.28640192788893776,-0.35307197379528765,-0.42294357664890764,3.7705887016494293,-1.736412142465692,2
497,2024-09-19 21:20:37.471852032,TASK_BEGIN,011,0.45954997505072853,-1.3799549469815824,-1.0968614869206008,0.28573657015676673,-0.36787815180765604,-0.4043124413206371,3.4526721373725597,-1.6575313022851335,2
498,2024-09-19 21:20:37.539549952,TASK_BEGIN,011,0.4282813925033913,-1.3859019775253354,-1.1498639658127043,0.29046173792034224,-0.38259837488479476,-0.3852531798769661,3.1528110877398645,-1.5815616750149433,2
499,2024-09-19 21:20:37.604302080,TASK_BEGIN,011,0.393789436801498,-1.3868770983435459,-1.2059597468876846,0.30004165171078606,-0.3982163134071293,-0.3661361509403947,2.887937121545433,-1.5116908490387029,2
500,2024-09-19 21:20:37.673167872,TASK_BEGIN,011,0.3565527256684275,-1.3825044733274223,-1.2599867245490337,0.3136061283402415,-0.4157188350575432,-0.3472694200907768,2.674253303445478,-1.451116394336726,2
501,2024-09-19 21:20:37.729100032,TASK_BEGIN,011,0.3168824686375186,-1.3724989615337928,-1.3071264159720755,0.3300617596219222,-0.4359956540260569,-0.3288816075603427,2.5259557759569264,-1.4028502566984722,2
502,2024-09-19 21:20:37.806243840,TASK_BEGIN,011,0.27480896523677734,-1.3566463429988924,-1.3434981678580795,0.3482287556158618,-0.4597554737525259,-0.31109414710522876,2.4541093874433986,-1.3695077342735076,2
503,2024-09-19 21:20:37.868730880,TASK_BEGIN,011,0.23001460741818602,-1.3347730742928554,-1.3666233858045003,0.3669794681447329,-0.4874638403421262,-0.2938962151828359,2.465631336432002,-1.353060773210334,2
504,2024-09-19 21:20:38.786840832,TASK_BEGIN,011,0.18183537782156864,-1.3067280310955476,-1.3756317007537562,0.38534178222060134,-0.519319074608153,-0.2771351010216386,2.5624549978094295,-1.354598215562025,2
505,2024-09-19 21:20:38.864475136,TASK_BEGIN,011,0.1293238018554921,-1.2723858446613079,-1.371170868702194,0.4025486692177432,-0.5552742903441037,-0.26052487661144047,2.741130145371557,-1.3741604692510807,2
506,2024-09-19 21:20:38.926486016,TASK_BEGIN,011,0.07135623722252575,-1.2316676252175254,-1.3551240249234795,0.41803167852996403,-0.5950886738939544,-0.2436689426569432,2.993034422653972,-1.4106652359078067,2
507,2024-09-19 21:20:38.988478976,TASK_BEGIN,011,0.006768572015551803,-1.1845732313723707,-1.3302557121773628,0.4313510571830521,-0.6383821720686383,-0.2260898183809269,3.305142741475034,-1.461909589609701,2
508,2024-09-19 21:20:39.066585088,TASK_BEGIN,011,-0.06549121409786207,-1.1312244852764644,-1.299809284088974,0.44206519058615545,-0.6846833633541016,-0.20726229675262867,3.661238963185055,-1.5246890185701567,2
509,2024-09-19 21:20:39.129070080,TASK_BEGIN,011,-0.14621144141259315,-1.071917377511762,-1.2670412128786506,0.44958589277268235,-0.7334840194937083,-0.18665131813517002,4.043444956815994,-1.595100942601789,2
510,2024-09-19 21:20:39.203039744,TASK_BEGIN,011,-0.23579732585853216,-1.007170720268819,-1.2347794260091143,0.4531082496625139,-0.7843068548226251,-0.16375618126863586,4.433769986937871,-1.6689962554783975,2
511,2024-09-19 21:20:40.142606080,TASK_BEGIN,011,-0.3342046652094571,-0.9377526022020075,-1.2051737888047767,0.45168650836052754,-0.8367495293744106,-0.138158679392875,4.8152775787968976,-1.742427848283272,2
512,2024-09-19 21:20:40.204165888,TASK_BEGIN,011,-0.4409108443422554,-0.8646747938899843,-1.179686741499049,0.444434091475246,-0.8904526350165565,-0.1095713863642166,5.1726646550412605,-1.8119647221489523,2
513,2024-09-19 21:20:40.281789184,TASK_BEGIN,011,-0.5548915764216654,-0.7891609406763768,-1.1591912612812334,0.4307449638824601,-0.9450031705542368,-0.07788053635954233,5.492384178610829,-1.8748476283719353,2
514,2024-09-19 21:20:40.349450240,TASK_BEGIN,011,-0.6746032796327411,-0.7126016200083257,-1.1440530902070283,0.4104544032363068,-0.9998660946632105,-0.043171542210760125,5.762664781973483,-1.9290404563258914,2
515,2024-09-19 21:20:40.417166080,TASK_BEGIN,011,-0.7980096775241493,-0.636502555517498,-1.1341983109202884,0.3839221892205354,-1.0544191428920233,-0.005723709606763926,5.973760835103901,-1.973243333282137,2
516,2024-09-19 21:20:40.483675904,TASK_BEGIN,011,-0.9226866876725924,-0.562421848305679,-1.1292275149910986,0.35204211682268055,-1.1080582608075211,0.03402689970801045,6.11847447489946,-2.006893537235362,2
517,2024-09-19 21:20:40.552588800,TASK_BEGIN,011,-1.0459938788358973,-0.4918932225059332,-1.1286517964350646,0.31618540979166543,-1.1602752262979565,0.07553967639575505,6.1926257336107176,-2.030127757110941,2
518,2024-09-19 21:20:41.490957056,TASK_BEGIN,011,-1.165260225365337,-0.4263449725188723,-1.1322777310889423,0.27810611926044465,-1.2106473642719255,0.11821365363667463,6.195072094349275,-2.043666274153703,2
519,2024-09-19 21:20:41.563156992,TASK_BEGIN,011,-1.2779396349836214,-0.3670323430846883,-1.1406125359370123,0.23984049111004757,-1.2587666775366302,0.16141304196785797,6.127197863653347,-2.048611130845109,2
520,2024-09-19 21:20:41.616879872,TASK_BEGIN,011,-1.3817303859341605,-0.3149947631194131,-1.1550602289566223,0.20361082752608878,-1.304188946779914,0.20448154990842993,5.992191281346499,-2.0461882751116387,2
521,2024-09-19 21:20:41.692946944,TASK_BEGIN,011,-1.4746647206179344,-0.2710369722156674,-1.1777608904973078,0.1717206827280029,-1.3464458285791125,0.24675470084632797,5.79451301689018,-2.037481072670814,2
522,2024-09-19 21:20:41.766253824,TASK_BEGIN,011,-1.5551577436303645,-0.2357259093861814,-1.2110824833046607,0.1464118413425113,-1.3850820903137155,0.28756709455762264,5.539716440704527,-2.0231964803842155,2
523,2024-09-19 21:20:41.832685056,TASK_BEGIN,011,-1.6220032386462908,-0.20939600054666646,-1.2569320948647584,0.12966560962743004,-1.4196596186740766,0.3262481349180666,5.234567434781472,-2.0035092638346104,2
524,2024-09-19 21:20:41.895628800,TASK_BEGIN,011,-1.6743264126342932,-0.19216168288582505,-1.3161616127229427,0.1229836746072059,-1.4497110887035822,0.3621095337280918,4.8873715771162916,-1.9780570448697061,2
525,2024-09-19 21:20:42.846068992,TASK_BEGIN,011,-1.7115226317689551,-0.1839415107439713,-1.3882562905367268,0.1272214237881753,-1.474672862126059,0.3944383117740073,4.5083368212647335,-1.9461452114868558,2
526,2024-09-19 21:20:42.900492800,TASK_BEGIN,011,-1.7332111669099024,-0.18449605958764553,-1.47128607994761,0.142517833858174,-1.4938602858260464,0.42251288665781184,4.1097265085518595,-1.9071401053632,2
527,2024-09-19 21:20:42.977657088,TASK_BEGIN,011,-1.739219437585493,-0.19347255551968473,-1.5620618036479463,0.16832318758575848,-1.5065390223874466,0.44565246370718276,3.7056896377248787,-1.8609432861603774,2
528,2024-09-19 21:20:43.049191936,TASK_BEGIN,011,-1.7295926184605497,-0.21044262836443323,-1.656515034583737,0.20351548323237745,-1.51207800279767,0.46329208748748074,3.3118276632979615,-1.8083925229530917,2
529,2024-09-19 21:20:43.116876032,TASK_BEGIN,011,-1.7046060786226693,-0.23492404112798962,-1.7502156750843874,0.24657185653490443,-1.5101095273353569,0.4750607096123459,2.9445865704399825,-1.751445761124149,2
530,2024-09-19 21:20:43.179632896,TASK_BEGIN,011,-1.6647746160917194,-0.26638614723758985,-1.8387868302221262,0.2957271485983031,-1.5006352491994737,0.48083921437425203,2.620481786961113,-1.693084895952229,2
531,2024-09-19 21:20:43.241625856,TASK_BEGIN,011,-1.6108889111177145,-0.3042415609445314,-1.918094487701591,0.34908149063019966,-1.4840750939984584,0.4807876481248324,2.355016324902686,-1.6369798042364312,2
532,2024-09-19 21:20:44.171687936,TASK_BEGIN,011,-1.5440941041113432,-0.3478265734873575,-1.9843262886230977,0.40468585658255635,-1.4612813106863454,0.4753437410951517,2.1611432354126765,-1.5870082236480891,2
533,2024-09-19 21:20:44.228649984,TASK_BEGIN,011,-1.4659649733767637,-0.3963764816974846,-2.0341056210075346,0.46064643994016147,-1.433510635370349,0.4651980862034376,2.047474802078783,-1.5467307206596927,2
534,2024-09-19 21:20:44.306756096,TASK_BEGIN,011,-1.3785144563715028,-0.4490056144614538,-2.064699407983104,0.5152507345485217,-1.4023312593408304,0.45125016774904275,2.016912816249725,-1.5189174672219463,2
535,2024-09-19 21:20:44.370206976,TASK_BEGIN,011,-1.2841208928533228,-0.504700363498533,-2.0743458679904645,0.5670931311273636,-1.3694808180271032,0.43455122994110407,2.066401667496715,-1.505212227857401,2
536,2024-09-19 21:20:44.431166976,TASK_BEGIN,011,-1.1854219184751678,-0.5623271455057783,-2.0626585016508416,0.6151729340740547,-1.3367241792307922,0.4162396935363661,2.1879142982098077,-1.5059729675496785,2
537,2024-09-19 21:20:44.509761024,TASK_BEGIN,011,-1.085232714597749,-0.6206533693184977,-2.030934827525331,0.6589401374452261,-1.3057343636588232,0.397471192328759,2.370129174945851,-1.5202848630343182,2
538,2024-09-19 21:20:44.566818816,TASK_BEGIN,011,-0.9864814739159177,-0.6783836486635515,-1.9821917814058516,0.6982819067358337,-1.2779897271834961,0.3793436734562836,2.600157018058711,-1.5461389675690302,2
539,2024-09-19 21:20:45.521004800,TASK_BEGIN,011,-0.8920986804209111,-0.7342169938555498,-1.9208946842558388,0.7334661216529478,-1.254692322468398,0.36281911302012737,2.8649839920509748,-1.5807626552316913,2
540,2024-09-19 21:20:45.582304000,TASK_BEGIN,011,-0.8048405738751232,-0.7869233850790184,-1.8524720862639665,0.7650637937297807,-1.236725698058172,0.34864824906150627,3.152461466212024,-1.6210330937181918,2
541,2024-09-19 21:20:45.656622848,TASK_BEGIN,011,-0.7271125203263297,-0.835424580123538,-1.7827467645837198,0.7938633292638488,-1.224645027422606,0.33731135784846805,3.4516537115807204,-1.663857794986352,2
542,2024-09-19 21:20:45.721616896,TASK_BEGIN,011,-0.6608604600320144,-0.8788575130920162,-1.7174231343286457,0.8207834064218559,-1.2186635520241047,0.32898826151061195,3.7525509750522006,-1.7064312640938613,2
543,2024-09-19 21:20:45.783633920,TASK_BEGIN,011,-0.6075256684368903,-0.9166060839395697,-1.6617068197468585,0.8467801318120456,-1.2186158372480016,0.323562378699971,4.045544340964919,-1.7463471933108967,2
544,2024-09-19 21:20:45.859781888,TASK_BEGIN,011,-0.5680153290990538,-0.9483024021150278,-1.6199924396975147,0.8727321467594165,-1.2239187565792526,0.32065327745485067,4.321199390461348,-1.781607335245951,2
545,2024-09-19 21:20:45.927443200,TASK_BEGIN,011,-0.542664742837316,-0.9738098221285392,-1.5955266222998679,0.8993048073270744,-1.2335672885076263,0.3196681397305322,4.570591402461845,-1.8105986350775845,2
546,2024-09-19 21:20:46.866449920,TASK_BEGIN,011,-0.5312112983514036,-0.9931998594794422,-1.5900753676456392,0.9268253772072927,-1.2461916461689095,0.3198677526896043,4.786010914015975,-1.8320888503880703,2
547,2024-09-19 21:20:46.928935168,TASK_BEGIN,011,-0.5328242535879963,-1.006725320966813,-1.6036985343978296,0.9551992142483158,-1.2601793933822254,0.3204465320751811,4.961574717513184,-1.8452285644280924,2
548,2024-09-19 21:20:47.006593024,TASK_BEGIN,011,-0.5462159876756608,-1.0147840943568776,-1.6346767072074426,0.9838758146045923,-1.2738403977334802,0.3206187360668414,5.093393765588494,-1.8495143330419659,2
549,2024-09-19 21:20:47.074403072,TASK_BEGIN,011,-0.5698034306973666,-1.017870090359083,-1.6795841135930991,1.0118704371642824,-1.2855765990909318,0.31969545212403927,5.179296009945261,-1.8447013897918332,2
550,2024-09-19 21:20:47.142123008,TASK_BEGIN,011,-0.6018511394745415,-1.0165150471883806,-1.7334966771869893,1.0378442053476926,-1.2940183969937136,0.31714194333966544,5.218337729099484,-1.83070555932971,2
551,2024-09-19 21:20:47.209840128,TASK_BEGIN,011,-0.6405579237497455,-1.0112295653156895,-1.7902883148204995,1.0602239057808651,-1.2981117572431577,0.3126145919169187,5.210317145222977,-1.807535779123476,2
552,2024-09-19 21:20:47.270207744,TASK_BEGIN,011,-0.6841031211489391,-1.002450600227454,-1.8429644337671247,1.0773336681906178,-1.2971687297665082,0.30597800681881565,5.155365833019727,-1.7752535316099238,2
553,2024-09-19 21:20:48.208013056,TASK_BEGIN,011,-0.7306855318029688,-0.9904954466451007,-1.884054920325512,1.0875234625588026,-1.2908889019315328,0.29729999006004804,5.053678989788134,-1.7339453909437894,2
554,2024-09-19 21:20:48.289051136,TASK_BEGIN,011,-0.7785724983679883,-0.97551590058948,-1.9061145697828026,1.0892819076078712,-1.2793338556794533,0.28682756048173746,4.905578964962901,-1.6837504779965093,2
555,2024-09-19 21:20:48.347808000,TASK_BEGIN,011,-0.8261522745417001,-0.9574505473701522,-1.9023171082597314,1.0813164423239658,-1.262834950663629,0.27495407940104327,4.712098943775477,-1.6250050949744668,2
556,2024-09-19 21:20:48.424398848,TASK_BEGIN,011,-0.8719633234888436,-0.9359865273628742,-1.867101993831826,1.0626009769168492,-1.2418396469359874,0.26218071725106706,4.475962386519283,-1.5584880362316105,2
557,2024-09-19 21:20:48.487521024,TASK_BEGIN,011,-0.9146768073279987,-0.9105518498054718,-1.7969163464567934,1.0324231160135815,-1.2167354626363927,0.24906722191894937,4.202494180321161,-1.4856596811741163,2
558,2024-09-19 21:20:48.559837952,TASK_BEGIN,011,-0.953035914996898,-0.880352941139284,-1.6911171271494947,0.9904691268055617,-1.187708379848843,0.23617383506987696,3.8999940794851904,-1.408781676052063,2
559,2024-09-19 21:20:48.627522048,TASK_BEGIN,011,-0.9857910079011593,-0.8444512326549621,-1.5528502983721608,0.9369403730462379,-1.154682901151675,0.22400893080695664,3.5794141083431357,-1.3308703498669607,2
560,2024-09-19 21:20:49.546441216,TASK_BEGIN,011,-1.0116844053128182,-0.8018572170092432,-1.3894626552033194,0.8726452279590052,-1.1173659752779557,0.2129995565647635,3.253487264740986,-1.255502270551481,2
561,2024-09-19 21:20:49.614159104,TASK_BEGIN,011,-1.0295118009541357,-0.7516269566771046,-1.2121333085867743,0.7990141710340133,-1.075369140683573,0.20348735685053163,2.9355944112175565,-1.186509061577434,2
562,2024-09-19 21:20:49.673447936,TASK_BEGIN,011,-1.0382398592193494,-0.6929649183789937,-1.034779449824293,0.7180262488138971,-1.028341890103408,0.19573081838391582,2.638709108409189,-1.1276030554515344,2
563,2024-09-19 21:20:49.737452032,TASK_BEGIN,011,-1.0371348281126793,-0.6253445643053185,-0.8725201448617,0.6320711083241453,-0.976075375510241,0.18989285475176473,2.374646152625124,-1.0819960840028646,2
564,2024-09-19 21:20:49.813442816,TASK_BEGIN,011,-1.0258695727275708,-0.5486435551067268,-0.7400252424221222,0.5437859879685718,-0.918590424741576,0.18601607784318888,2.153505116090337,-1.0520817306071348,2
565,2024-09-19 21:20:49.875088896,TASK_BEGIN,011,-1.0046038717043593,-0.46326793627954355,-0.6500447183379355,0.4558971206604314,-0.8562261706226452,0.18400816541967036,1.9830668150349469,-1.0392420674639158,2
566,2024-09-19 21:20:49.937088000,TASK_BEGIN,011,-0.9740366291504435,-0.3702344451656743,-0.6123376811238801,0.37107927833703347,-0.7897006556817403,0.18365154545762147,1.8682114403322567,-1.0438219847276913,2
567,2024-09-19 21:20:50.895834112,TASK_BEGIN,011,-0.9354047954569341,-0.27119612672663906,-0.6330654701929693,0.2918397420859143,-0.7201001234868585,0.1846295527806031,1.8107192723287098,-1.0652679132505678,2
568,2024-09-19 21:20:50.963644160,TASK_BEGIN,011,-0.8904071204165853,-0.1684104085023568,-0.7145519829668425,0.22042710895128026,-0.6488143575099017,0.186557625037305,1.809652814907627,-1.1023686705305473,2
569,2024-09-19 21:20:51.021641984,TASK_BEGIN,011,-0.8410760536630586,-0.06464467364223682,-0.8553233877466477,0.15876572532969274,-0.5774817565179994,0.1890197899523034,1.8620686464962324,-1.153501618752564,2
570,2024-09-19 21:20:51.083775232,TASK_BEGIN,011,-0.7896322603574,0.03699255988442858,-1.050441242979944,0.10840962363839059,-0.5079489099141606,0.1916110647271098,1.963586104306904,-1.216804999482176,2
571,2024-09-19 21:20:51.161427968,TASK_BEGIN,011,-0.7383076412846801,0.13328886623318636,-1.2921061195530859,0.07048542475036025,-0.4421827969476339,0.19397704548344474,2.1085997789436495,-1.2902696049907416,2
572,2024-09-19 21:20:51.223458048,TASK_BEGIN,011,-0.6891045364077623,0.2211872725786207,-1.5704262963558964,0.04560743254116934,-0.3821156149970617,0.1958404890051835,2.2903402601316594,-1.3718000337857317,2
573,2024-09-19 21:20:51.301121024,TASK_BEGIN,011,-0.643524163019638,0.2980034171122845,-1.874271697493849,0.03380859686278342,-0.329482700430495,0.19701205436171518,2.5010805827133784,-1.4592780259511435,2
574,2024-09-19 21:20:52.236548096,TASK_BEGIN,011,-0.6023641008842574,0.36156636219789007,-2.19212310333976,0.03454265892509423,-0.28571826481560886,0.19739182091612884,2.732483125951848,-1.5506136765706477,2
575,2024-09-19 21:20:52.313761024,TASK_BEGIN,011,-0.5656625111167656,0.4102922899094594,-2.512729483629523,0.046753156851162075,-0.2519111578507056,0.19697129162871735,2.975880902657123,-1.643764564540058,2
576,2024-09-19 21:20:52.381413120,TASK_BEGIN,011,-0.5327860797815606,0.443216295562344,-2.825425433642207,0.06896429386884756,-0.2287797646179492,0.195835155585491,3.2225294019830537,-1.7367245447368245,2
