,time,MARKER,pid,L_O_DSI,L_D_DSI,L_O_DSphi,L_D_DSphi,R_O_DSI,R_D_DSI,R_O_DSphi,R_D_DSphi,trial_id
0,2024-09-19 21:19:02.046258056,TASK_BEGIN,011,-0.03721888764153737,0.5566923357915672,1.3836437348617896,-0.14914972264425533,-1.0174898499623177,0.5396991520346799,0.44849944801376196,-1.0167603421772375,2
1,2024-09-19 21:19:02.099724121,0,011,-0.02477112649403553,0.5508075754424863,1.3856692031601128,-0.13882384940013834,-0.9474865954632464,0.5326031657722773,0.5215563564948746,-1.037163326354088,2
2,2024-09-19 21:19:02.177383057,0,011,-0.01088388890553438,0.5429859559660074,1.3984130237156622,-0.138082745583113,-0.8803874729472934,0.5251897213753147,0.610704345025835,-1.0612017160690395,2
3,2024-09-19 21:19:02.239383057,0,011,0.003121511499920616,0.5335921051845408,1.4254373803162388,-0.14713924203296116,-0.8170615253014651,0.5171646127730894,0.7101623993684906,-1.08706622400996,2
4,2024-09-19 21:19:02.317049072,0,011,0.016087808343812172,0.5230298308729682,1.4681404556798747,-0.16571429256240233,-0.7584669629785487,0.5082060653228204,0.8136465257435797,-1.1133469855478728,2
5,2024-09-19 21:19:02.384751953,0,011,0.027152452398495844,0.5116866544105713,1.525724532838754,-0.19307547143752818,-0.7056312999452516,0.4979884884040277,0.915111390682942,-1.1390355875056581,2
6,2024-09-19 21:19:02.441123047,0,011,0.035831699618920125,0.49987806325113693,1.5953562139153616,-0.2281020944735118,-0.6596355744512534,0.48620754938789446,1.00953256792521,-1.1634770746064962,2
7,2024-09-19 21:19:03.397916016,0,011,0.04203923535595333,0.487805424437765,1.6724876791049947,-0.26937402070476096,-0.6215877306663423,0.4726004349961887,1.0936723008653593,-1.1863628574043494,2
8,2024-09-19 21:19:03.465502930,0,011,0.04605221490637178,0.4755358109536256,1.7513499296424968,-0.31527832146531215,-0.5925701311512335,0.45696099578586985,1.166433105205114,-1.207736479173548,2
9,2024-09-19 21:19:03.533205078,0,011,0.048452076431822984,0.4630030086158412,1.825575453016126,-0.3641137197520905,-0.5735593180925737,0.4391461991921722,1.2284817065914162,-1.2279284287011731,2
10,2024-09-19 21:19:03.588758057,0,011,0.050046958860675735,0.4500256457805581,1.888862366038804,-0.41417620267972693,-0.5653311030011734,0.4190681877167786,1.2813586929392289,-1.2474098379837897,2
11,2024-09-19 21:19:03.666379883,0,011,0.0517617262823283,0.4363400195031044,1.9356352938243646,-0.46383700253064186,-0.5683670933919446,0.39667520536672884,1.3266398183765034,-1.2666359731572017,2
12,2024-09-19 21:19:03.728723145,0,011,0.05450012028867022,0.42164397127067066,1.9616656568228803,-0.5116307008177714,-0.5827791419588334,0.37193498308589135,1.3655190086093547,-1.2859384674344942,2
13,2024-09-19 21:19:03.790288086,0,011,0.05901345667259836,0.4056439571052733,1.9645324921703415,-0.5563364181605366,-0.6082713037340051,0.34483201244383344,1.3987941365086642,-1.305468389345304,2
14,2024-09-19 21:19:04.716103027,0,011,0.06579826508745665,0.3880984617544647,1.9437951266862443,-0.5970166326027235,-0.6441472481238711,0.31537920718237095,1.4271576610254912,-1.3251969018329584,2
15,2024-09-19 21:19:04.790531006,0,011,0.07501412324154531,0.3688569890519327,1.900859971481496,-0.6330080081325191,-0.6893541921530604,0.28363917451666215,1.451791680250953,-1.3450131879861724,2
16,2024-09-19 21:19:04.858247070,0,011,0.08642166047779568,0.3478957319253361,1.8385880602013103,-0.6638810053804559,-0.7425574089463743,0.2497528488183965,1.4751405444034291,-1.3649131691754814,2
17,2024-09-19 21:19:04.918768799,0,011,0.09936995890598417,0.32534765946677735,1.7606666936442685,-0.6893746463281772,-0.8022463500256714,0.2139730156902432,1.501508582008168,-1.3851829888002445,2
18,2024-09-19 21:19:04.993626953,0,011,0.11285881010537877,0.30152195987648867,1.6708122301501225,-0.7093139833019282,-0.8668578480960087,0.17669365813724203,1.5371282128382122,-1.406463281826304,2
19,2024-09-19 21:19:05.058460938,0,011,0.12567065369061747,0.27690669538627655,1.5720236182848535,-0.7235412266066553,-0.9348835247198938,0.13846179367809255,1.5895773759583827,-1.4296509105710438,2
20,2024-09-19 21:19:05.120289062,0,011,0.1365355063891718,0.25215022202906767,1.4661739961980265,-0.731896698081244,-1.004936718304242,0.0999630411043958,1.6667147468082797,-1.4556747760164763,2
21,2024-09-19 21:19:06.070816895,0,011,0.14427311915305976,0.22802219870653634,1.3540639279510922,-0.7342534570274486,-1.0757719716248306,0.06198141958220389,1.7754261053395557,-1.4852096125201903,2
22,2024-09-19 21:19:06.137872070,0,011,0.1478694075929414,0.20535922421169406,1.2358218056216794,-0.7305714975540248,-1.1462579768493202,0.02534112523170052,1.9204326911978356,-1.518399787593344,2
23,2024-09-19 21:19:06.199928955,0,011,0.14648514545542152,0.18500101080327844,1.1114458543128976,-0.7209356911265237,-1.2153124160306825,-0.009159351482508918,2.1034208588427172,-1.5546956230426427,2
24,2024-09-19 21:19:06.262414062,0,011,0.1394287448382527,0.16772304172085042,0.9813330749801356,-0.7055714571745152,-1.2818188547591938,-0.040811418323542445,2.322723098919714,-1.592887479743029,2
25,2024-09-19 21:19:06.340520020,0,011,0.12612858208896743,0.15417206011198223,0.8466974505635768,-0.6848510713842406,-1.3445578865700283,-0.06905195747759092,2.5735136746856537,-1.6313050842123613,2
26,2024-09-19 21:19:06.402975098,0,011,0.10612521845077748,0.14481059088408765,0.7097717684612352,-0.6592945783761078,-1.4021849517929796,-0.0935066558310627,2.848267230933101,-1.6680486044980352,2
27,2024-09-19 21:19:06.472774902,0,011,0.07909265131697205,0.1398746185972163,0.573699674423664,-0.6295597514245908,-1.4532702651094336,-0.11401931490454648,3.137297298660449,-1.7011477859721704,2
28,2024-09-19 21:19:07.387254883,0,011,0.04489219062643727,0.13934519169160176,0.4421466433819378,-0.5964215544916158,-1.496402333133384,-0.13066267834402912,3.4292818978898456,-1.728644439867587,2
29,2024-09-19 21:19:07.465827881,0,011,0.003651697701954775,0.14293291441381623,0.3187889388809903,-0.5607454833927508,-1.530346521669473,-0.14372514021160557,3.711717909542211,-1.7486543856824022,2
30,2024-09-19 21:19:07.533520996,0,011,-0.04415401181484335,0.15007550895068464,0.20684834044809697,-0.523452789521305,-1.5542279166863826,-0.15367520859020348,3.971383663808921,-1.7594574726677772,2
31,2024-09-19 21:19:07.601256104,0,011,-0.09765539212400846,0.1599518784358194,0.10876280705664836,-0.485472795553735,-1.5676844218143386,-0.16111603874307123,4.19497490879245,-1.7596120567333469,2
32,2024-09-19 21:19:07.662875000,0,011,-0.15559731452392064,0.17151836741925416,0.026013954956247407,-0.44768557491047417,-1.5709275716222397,-0.1667450563416951,4.369952984815213,-1.7480585601270549,2
33,2024-09-19 21:19:07.724906006,0,011,-0.21641252515006926,0.183571181396986,-0.04090653877445465,-0.41086465282892853,-1.564671633885383,-0.1713242667337093,4.485544048049443,-1.7242154602780546,2
34,2024-09-19 21:19:07.802154053,0,011,-0.27835242480473826,0.1948325315815739,-0.09243627981513251,-0.3756237951498127,-1.5499556644379107,-0.17565272462882303,4.53384613431907,-1.6881084423594717,2
35,2024-09-19 21:19:08.732527100,0,011,-0.3396457846976388,0.2040493459579881,-0.1298324536612444,-0.3423693635126122,-1.5279382576227105,-0.18052859376582894,4.510855804023308,-1.6405200998729077,2
36,2024-09-19 21:19:08.815732910,0,011,-0.39863734287766545,0.21008858666480862,-0.15500957393575207,-0.31127674959081947,-1.499737412030342,-0.18669594927891284,4.417013885422684,-1.5830860638880961,2
37,2024-09-19 21:19:08.876714844,0,011,-0.45387103638351367,0.2120179752564897,-0.17028956906615536,-0.2823208202034873,-1.4663371488264225,-0.1947823283229016,4.257006811606124,-1.5182919906405254,2
38,2024-09-19 21:19:08.950708984,0,011,-0.5041186146133294,0.20917067267147432,-0.17810745939785766,-0.2553571265749859,-1.428535740958884,-0.2052425057826656,4.038932592167994,-1.4493643298609657,2
39,2024-09-19 21:19:09.018774902,0,011,-0.5483818175168843,0.2011965872138988,-0.1808061109970012,-0.23020383381963339,-1.386907426001915,-0.21832278280418255,3.7730949653072665,-1.380031350809783,2
40,2024-09-19 21:19:09.074338867,0,011,-0.5858983081604036,0.18809958774745372,-0.18059256864938222,-0.2066808648516728,-1.3417893572779043,-0.2340461194048513,3.4706073101312587,-1.3141368711522803,2
41,2024-09-19 21:19:09.151976074,0,011,-0.6161601149306616,0.17025442880575392,-0.17959940393113719,-0.18461196182039927,-1.293319965081386,-0.2522119275822879,3.1420136964056526,-1.2551611421858095,2
42,2024-09-19 21:19:10.091665039,0,011,-0.6389300089980934,0.1483944016687981,-0.17994613623780067,-0.16382397118437772,-1.2415196183541355,-0.2724112405896079,2.796265620289362,-1.205771175330911,2
43,2024-09-19 21:19:10.165966064,0,011,-0.6542441192676883,0.12356582182276026,-0.18370552599515935,-0.14416328750480714,-1.186391774692441,-0.2940573084183453,2.44030121694336,-1.1675178156404993,2
44,2024-09-19 21:19:10.230803955,0,011,-0.6624081438664399,0.09705635587585805,-0.19273751106714052,-0.12551992192356867,-1.1280463591585947,-0.31642259292193,2.0791991128831953,-1.1407360727970008,2
45,2024-09-19 21:19:10.301270996,0,011,-0.6639965805443249,0.07030829965975174,-0.2084759132536213,-0.10784071161318286,-1.0668336535620315,-0.33867705732163206,1.7167199889507663,-1.1246455711003636,2
46,2024-09-19 21:19:10.368971191,0,011,-0.6598534463587827,0.0448225694463513,-0.23180974246826122,-0.09112730515670561,-1.0034306332047431,-0.35993677826746023,1.356058756075724,-1.1176162034429404,2
47,2024-09-19 21:19:10.431966064,0,011,-0.6510875010285615,0.022056089695116375,-0.2631026252716689,-0.07542778803748171,-0.9388218638464393,-0.37933422815670703,1.0006734075737032,-1.117542575539156,2
48,2024-09-19 21:19:10.494452881,0,011,-0.6390525842843977,0.0033193325005512592,-0.302270661893431,-0.06083012147068951,-0.874175891284735,-0.39610942737097643,0.6550435117660894,-1.1222433264542198,2
49,2024-09-19 21:19:11.436764893,0,011,-0.6253051703282776,-0.010314854190294575,-0.34883901146886737,-0.04745322841103389,-0.8106777606702047,-0.40970822931463885,0.3252276962956485,-1.1298020146428291,2
50,2024-09-19 21:19:11.505487061,0,011,-0.6115401956310615,-0.018080498280652092,-0.402001864327178,-0.0354224014586094,-0.7493965151224169,-0.4198652916555416,0.01913718113695586,-1.138801561572614,2
51,2024-09-19 21:19:11.567805908,0,011,-0.5995141014625515,-0.019559377475215866,-0.4607657241189626,-0.02482863244817021,-0.6912308977753606,-0.42664654478537944,-0.2536631937951131,-1.1484180663896733,2
52,2024-09-19 21:19:11.645611084,0,011,-0.5909599314823438,-0.014692491543157696,-0.5241722999004328,-0.01569283321569507,-0.6369158844532402,-0.4304360361499386,-0.4828528090873472,-1.158352248766958,2
53,2024-09-19 21:19:11.706770996,0,011,-0.5874829670705013,-0.003767219055638227,-0.5914974797449455,-0.007954047733920545,-0.5870544851246577,-0.43187076011640035,-0.6587523906855416,-1.168648936750061,2
54,2024-09-19 21:19:11.784879883,0,011,-0.5904223201923856,0.012610838505253153,-0.6623469955586831,-0.001478471554537368,-0.5421626612636256,-0.431741684722576,-0.7735523837643187,-1.1795192242183865,2
55,2024-09-19 21:19:11.846905029,0,011,-0.6006968162025874,0.033555915430579134,-0.7366454145393666,0.003927662326184454,-0.5027110017746987,-0.43088516643099506,-0.8218885977616587,-1.1912447180647783,2
56,2024-09-19 21:19:12.788969971,0,011,-0.6186865485814577,0.057952634174100966,-0.8144923293029369,0.008507474983079613,-0.46912033932660097,-0.43008697593094763,-0.8008415538925255,-1.2041577234906475,2
57,2024-09-19 21:19:12.851030029,0,011,-0.6441838417813015,0.08452214723362833,-0.8958022821130772,0.012533066104097589,-0.4416937953470502,-0.4300111228441223,-0.7096756154229836,-1.2186451852582154,2
58,2024-09-19 21:19:12.928251952,0,011,-0.67640234246199,0.11189716046772183,-0.979767127202225,0.016268728771169055,-0.4205428803908394,-0.43115185336817713,-0.5495855284626827,-1.235126657071324,2
59,2024-09-19 21:19:12.990275879,0,011,-0.714019816537474,0.13869134957593005,-1.0644150557424168,0.01993335326140497,-0.40558333129141344,-0.4338009636314135,-0.32369741674227936,-1.2539834587415544,2
60,2024-09-19 21:19:13.067430908,0,011,-0.7552458145219545,0.1635524332817584,-1.1465479911198315,0.023679488875657517,-0.3965999347543732,-0.43802751884738855,-0.03740185713506356,-1.2754642627544779,2
61,2024-09-19 21:19:13.135279785,0,011,-0.7979086834295385,0.18519777050074201,-1.2220649690325034,0.027583187818804807,-0.39332192499303753,-0.44367261530712704,0.30128302927465783,-1.2996295153157407,2
62,2024-09-19 21:19:13.192013916,0,011,-0.8395531192411675,0.20243794681455055,-1.2864847805081376,0.03162938181689647,-0.39547328081428806,-0.45036424468249747,0.6817193989207052,-1.3263636550237377,2
63,2024-09-19 21:19:14.145906006,0,011,-0.8775532884977825,0.21419570888330644,-1.3355737401804746,0.03570461069897487,-0.4027951661158233,-0.4575588903683682,1.0911494178282888,-1.355415473972609,2
64,2024-09-19 21:19:14.209882080,0,011,-0.9092543538746681,0.21952479013237872,-1.3660940297478794,0.039632072500336894,-0.4150407347700145,-0.4646100409468718,1.5156081437367934,-1.386419051936709,2
65,2024-09-19 21:19:14.272829102,0,011,-0.9321364948013723,0.2176284215167489,-1.3765452647531728,0.04325614124833792,-0.4319421401856289,-0.4708494023720157,1.9410554869172403,-1.418875978283657,2
66,2024-09-19 21:19:14.349028076,0,011,-0.943977624636784,0.20787637708746487,-1.3675979304704826,0.04653176190701027,-0.45315986360709837,-0.475657961173133,2.354316132973068,-1.4520778558477054,2
67,2024-09-19 21:19:14.416724854,0,011,-0.9429908118125948,0.18982050367303083,-1.342040553354794,0.04956660500508042,-0.47823733842254545,-0.4785088922620878,2.7434605114552806,-1.4849713364598485,2
68,2024-09-19 21:19:14.475906982,0,011,-0.9279181125287324,0.16320884632675095,-1.3043467653378746,0.05261106682704932,-0.5065887061920684,-0.47897903607145886,3.097737714364103,-1.5160470542911253,2
69,2024-09-19 21:19:14.552118896,0,011,-0.8980742428412378,0.12800141969482542,-1.26006514522589,0.056026041352599844,-0.5375323778980949,-0.4767398071659552,3.407510759483282,-1.5433623850244211,2
70,2024-09-19 21:19:15.461173096,0,011,-0.8533502187064361,0.08439343286556998,-1.21511248259985,0.0602369401996582,-0.5703482545975751,-0.47154243024527537,3.6644018691915137,-1.5647214217358059,2
71,2024-09-19 21:19:15.538768066,0,011,-0.7941920852827017,0.03284577578183024,-1.1749651400435597,0.06565636563322268,-0.6043162078842546,-0.4632087978663949,3.8614289083780022,-1.577923367886549,2
72,2024-09-19 21:19:15.594429932,0,011,-0.7215629568649474,-0.025888380716319683,-1.143840963405215,0.07258033035394953,-0.6387166132973987,-0.45163523647935677,3.9929528255886853,-1.5809720097057007,2
73,2024-09-19 21:19:15.672144043,0,011,-0.6368943958327132,-0.09075505496830413,-1.1240960966274687,0.08109933011600709,-0.6728106903665433,-0.4368114709782461,4.0546377234174305,-1.5722096646097543,2
74,2024-09-19 21:19:15.734629883,0,011,-0.5420327776681444,-0.1604156744492976,-1.116044639365814,0.09106687176557529,-0.7058218048287533,-0.418849829010461,4.04370664606298,-1.5504019096118502,2
75,2024-09-19 21:19:15.798487793,0,011,-0.43917396065935793,-0.2332874289648464,-1.118255809666362,0.10213883524237014,-0.7369146366151846,-0.3980147819834725,3.9594768361772714,-1.5148078321133658,2
76,2024-09-19 21:19:15.874506835,0,011,-0.3307689078835805,-0.30760733749361674,-1.1281677866903221,0.11386034086619073,-0.7651623892669763,-0.37474233695476383,3.8038681476984646,-1.4652338519843813,2
77,2024-09-19 21:19:16.820489014,0,011,-0.21939464706574224,-0.3815208853098499,-1.142707607059323,0.1257532607923567,-0.7895193734622077,-0.34963906222766744,3.581527985777394,-1.4020234112180756,2
78,2024-09-19 21:19:16.888217041,0,011,-0.10760557977200734,-0.45318978903588786,-1.1586709274621882,0.13736389748585098,-0.8088446601038349,-0.323451380976149,3.299502119403792,-1.3259539569387777,2
79,2024-09-19 21:19:16.942903076,0,011,0.0022152379250776075,-0.5209039257699909,-1.1728207339771708,0.14825772645556973,-0.8220074866941134,-0.29700531472376285,2.9667649700788683,-1.2380878114643226,2
80,2024-09-19 21:19:17.021011963,0,011,0.10799264217636782,-0.5831808456437697,-1.1818208274457978,0.1579759456960796,-0.8280475566458565,-0.27113428585999455,2.5939079186254252,-1.139650928875365,2
81,2024-09-19 21:19:17.083143066,0,011,0.20807095076835416,-0.6388428976941805,-1.1821710591629875,0.165987303957306,-0.8263302288671448,-0.24661664712421827,2.1929581709960484,-1.0319857525332807,2
82,2024-09-19 21:19:17.148746094,0,011,0.30128165996877315,-0.6870686996809315,-1.1702707030439958,0.17166971515922022,-0.8166662070878462,-0.2241274310855582,1.7771330852085698,-0.9166000489180187,2
83,2024-09-19 21:19:17.222385986,0,011,0.386955947926681,-0.7274191193865058,-1.1426244030655361,0.17433687036337145,-0.799397728157038,-0.20419483531773144,1.3603658713287594,-0.7952951970314976,2
84,2024-09-19 21:19:18.135415039,0,011,0.4648872269015038,-0.7598389578436627,-1.09611265841113,0.1733006546498879,-0.7754387449142033,-0.1871584684834531,0.9565841548643158,-0.6703015600123499,2
85,2024-09-19 21:19:18.213089844,0,011,0.53525128102913,-0.7846346719783748,-1.0282628148506288,0.1679490408735297,-0.7462394464457458,-0.17313925942306005,0.5789552382260619,-0.5443419530606298,2
86,2024-09-19 21:19:18.275574951,0,011,0.5984822484047677,-0.8024275262345901,-0.9374983304699822,0.15781866729220842,-0.7136713005774972,-0.1620307264433862,0.2393678060576416,-0.4206047434419126,2
87,2024-09-19 21:19:18.337579102,0,011,0.65510763435724,-0.8140824982076595,-0.8233218562991079,0.14264135854788265,-0.679863600188598,-0.15350975101401426,-0.051783210035604745,-0.3026647935156109,2
88,2024-09-19 21:19:18.415262939,0,011,0.7055694168773816,-0.8206159173832793,-0.6864155936653507,0.122362628838114,-0.6470215674500134,-0.14705809316842253,-0.28562605727810125,-0.19437513956903985,2
89,2024-09-19 21:19:18.477750000,0,011,0.7500741865803967,-0.8230900315246729,-0.5287595086529109,0.09716806164394888,-0.6172434786319637,-0.14199071496681206,-0.4547836670768274,-0.09969814066593356,2
90,2024-09-19 21:19:18.552215088,0,011,0.7885017092772798,-0.8225105628060488,-0.3538527173112346,0.06755072123782226,-0.5923603834290329,-0.13749533037165906,-0.5533197437576484,-0.022451248809068663,2
91,2024-09-19 21:19:19.483895020,0,011,0.8203740797969005,-0.8197464589425808,-0.16691375323585253,0.034390503760631,-0.5738184522724469,-0.13268813222333978,-0.5766578378758676,0.033992301734263354,2
92,2024-09-19 21:19:19.563958984,0,011,0.8448808356638005,-0.815483113662796,0.02518847427266826,-0.001028403055310597,-0.5625994098508433,-0.12668192679866433,-0.5216230692077033,0.06699174106114011,2
93,2024-09-19 21:19:19.622297119,0,011,0.8609695775792079,-0.8102074267383611,0.21437978135044855,-0.037103041590844266,-0.5591649529208012,-0.11865571885858375,-0.38687626349476817,0.07490123627522315,2
94,2024-09-19 21:19:19.684330078,0,011,0.8675107150715545,-0.8042164120986918,0.3920953729184218,-0.07207084845212221,-0.5634221547899876,-0.10791779476872591,-0.1738137015311874,0.05729822933760163,2
95,2024-09-19 21:19:19.761538086,0,011,0.8635135571265421,-0.7976433854981952,0.5500894647961594,-0.10417914175007684,-0.5747183463654868,-0.0939601287662626,0.11235707509301254,0.015139322016585865,2
96,2024-09-19 21:19:19.823549072,0,011,0.8483363529746266,-0.7904977955244825,0.6811878173122322,-0.13181918764046535,-0.591877635504178,-0.0765003346630185,0.461882259889774,-0.04920259119309005,2
97,2024-09-19 21:19:19.900752930,0,011,0.8218320296030571,-0.7827106280368022,0.7798603839642472,-0.1536111644540518,-0.6132767177402331,-0.05550534697971305,0.8605171956517603,-0.1320473879043443,2
98,2024-09-19 21:19:20.846262939,0,011,0.7844131025782345,-0.7741761551116383,0.8425516297665269,-0.16844759880733404,-0.636936458363625,-0.0311959917212019,1.2904307700335869,-0.22865218494309777,2
99,2024-09-19 21:19:20.913983154,0,011,0.7370619371656998,-0.7647870826189168,0.8677926007217347,-0.1755162548647661,-0.6606143405991011,-0.004033978287124542,1.7315895938070374,-0.3335405472486205,2
100,2024-09-19 21:19:20.968298828,0,011,0.6813068595795532,-0.7544640363208752,0.85618915296009,-0.17432780444512877,-0.6819186109203791,0.02531022066317195,2.1631436250870033,-0.4408661338481545,2
101,2024-09-19 21:19:21.049325928,0,011,0.6191517445851946,-0.7431783324389323,0.8103646711534344,-0.16475806608873972,-0.6984794217286326,0.056008791361980156,2.5645430682748356,-0.5447856206613846,2
102,2024-09-19 21:19:21.108136963,0,011,0.5529457874238171,-0.7309651880911409,0.7348280440592948,-0.14708932263185795,-0.7081786814102768,0.08714407523957175,2.916403093118263,-0.6398110004399103,2
103,2024-09-19 21:19:21.184714111,0,011,0.48520834127464396,-0.7179249185472801,0.6356958297462928,-0.12202408465944617,-0.7093923277193747,0.11778841203835216,3.20125349298981,-0.7210938332713841,2
104,2024-09-19 21:19:21.252440918,0,011,0.4184383014272034,-0.7042123493660704,0.5202838203467872,-0.09065386164140712,-0.7011843966862074,0.14708797029735607,3.4042267261603816,-0.7846193069077146,2
105,2024-09-19 21:19:22.186980957,0,011,0.35493613296903204,-0.6900209386536237,0.39664044623424255,-0.05438487185879756,-0.6834146458261662,0.1743352179720893,3.513683498392438,-0.8273410446649188,2
106,2024-09-19 21:19:22.259794922,0,011,0.29666448649690697,-0.6755728023807417,0.27305707587181915,-0.014836440228590977,-0.6567601018351382,0.19901778775544401,3.5218914539843316,-0.8473165598618863,2
107,2024-09-19 21:19:22.327788086,0,011,0.24516300972835464,-0.661121185287258,0.1575640722711424,0.02627315205295129,-0.6226857526402096,0.2208418250102251,3.425936166508358,-0.8438855875834803,2
108,2024-09-19 21:19:22.399477051,0,011,0.2015120298902916,-0.6469608796278865,0.057444696596509,0.06724436220489503,-0.5833904552839922,0.23973184258993055,3.2287693511530446,-0.817851503467477,2
109,2024-09-19 21:19:22.452285156,0,011,0.16632745225876797,-0.6334359475283107,-0.021179415478218437,0.10650765188950911,-0.541695059055809,0.2558070418053688,2.93987327434064,-0.7715268004421292,2
110,2024-09-19 21:19:22.534889893,0,011,0.1397796765953989,-0.6209380377220128,-0.07365721246412912,0.14271512876753495,-0.5008139367762099,0.26933519672541156,2.574975255316409,-0.7085255026844113,2
111,2024-09-19 21:19:22.588478027,0,011,0.12164597488836437,-0.6098966204761954,-0.0970408220452914,0.17479999178733377,-0.4640170108592983,0.2806708357494934,2.154715061419433,-0.633343237989829,2
112,2024-09-19 21:19:23.546524902,0,011,0.11139767713249457,-0.6007650767847057,-0.09029408676913153,0.20199700722453262,-0.43427789296243036,0.29019186993526036,1.7026989514405684,-0.5508821939684216,2
113,2024-09-19 21:19:23.614242188,0,011,0.10829661868842809,-0.5940019070232423,-0.05444647718568383,0.2238289642099027,-0.4140070684614537,0.29825190158447995,1.2434933127996226,-0.46604102760650856,2
114,2024-09-19 21:19:23.681956055,0,011,0.11147162793338994,-0.5900428785688492,0.007411383727058789,0.24007774725436004,-0.4048801866821972,0.30515484055451564,0.80086060480103,-0.3833886577047961,2
115,2024-09-19 21:19:23.742178955,0,011,0.11997385514995483,-0.5892650263341055,0.09034158914277422,0.25076364955178393,-0.4077026985698426,0.3111420225555675,0.3963299469519428,-0.30690393583390474,2
116,2024-09-19 21:19:23.804666016,0,011,0.13282908540146093,-0.5919520867506527,0.18795455474662756,0.25614017685350965,-0.42228482218551144,0.3163803934755511,0.048105979970004174,-0.23978160412645644,2
117,2024-09-19 21:19:23.882319824,0,011,0.1490958797456731,-0.5982721578584345,0.2929606767794644,0.2566816211242687,-0.44737180608607663,0.3209530973680254,-0.22979064033398755,-0.1843019634635068,2
118,2024-09-19 21:19:23.944323975,0,011,0.16792488315072077,-0.6082698604982856,0.397861829038204,0.25303263973339274,-0.48069246170149854,0.3248618860895685,-0.42817924523588835,-0.14175535047260399,2
119,2024-09-19 21:19:24.883688965,0,011,0.18861457024722902,-0.6218664283218653,0.4957130879993005,0.24592362788337013,-0.5191501067497029,0.3280460557901382,-0.542922619224302,-0.1124477691804862,2
120,2024-09-19 21:19:24.960886963,0,011,0.21066068852840153,-0.6388606098153674,0.5808021527328036,0.23610104007436397,-0.5591205555025089,0.33041226296958587,-0.5744966569987433,-0.09583026600384509,2
121,2024-09-19 21:19:25.022449951,0,011,0.23378634838156145,-0.6589284864337172,0.6490644926285549,0.2243197731873645,-0.5967811192921494,0.3318625500283979,-0.5272285129963036,-0.0907332121762181,2
122,2024-09-19 21:19:25.099649902,0,011,0.25792357088404155,-0.6816233311689764,0.6981618589102737,0.2113886470360217,-0.6284101603682289,0.33231103602826473,-0.40876143470745013,-0.09560983740463366,2
123,2024-09-19 21:19:25.167370117,0,011,0.28312251737906124,-0.7063751458792192,0.7272960333627219,0.19822120268445473,-0.6506563959034356,0.3316933183607077,-0.2299780000213191,-0.10869539615955466,2
124,2024-09-19 21:19:25.235053955,0,011,0.30940590336680285,-0.7324884529908946,0.7368240827914763,0.18586762467958726,-0.6608135813044689,0.32998286937508514,-0.005040819007635194,-0.12806838696108383,2
125,2024-09-19 21:19:25.302729980,0,011,0.3366310057771572,-0.7591408382763764,0.7277220174815693,0.17553064603341617,-0.6571049056823233,0.3272218034354501,0.24899090464186796,-0.1516673660393424,2
126,2024-09-19 21:19:26.214120117,0,011,0.36441768739882635,-0.7853898571741771,0.7010600868922446,0.1685482778873917,-0.6389206864818044,0.3235562425365995,0.5131611471819331,-0.1773218023931451,2
127,2024-09-19 21:19:26.289290039,0,011,0.392147012293715,-0.8101946003661148,0.6576856485320606,0.1663087483047018,-0.6069356582580832,0.31925735990586973,0.7680308154244672,-0.2028337468191381,2
128,2024-09-19 21:19:26.353596924,0,011,0.418992948107172,-0.8324503431402318,0.5981714152088848,0.1700866291970985,-0.5630665069856406,0.31471428308124577,0.9952234740324098,-0.22611435929040094,2
129,2024-09-19 21:19:26.416083984,0,011,0.44395495245906497,-0.8510277329556051,0.522995234173935,0.18082508071941106,-0.510263809115542,0.31039565413358267,1.1788815661252092,-0.2453341548855296,2
130,2024-09-19 21:19:26.478569092,0,011,0.4658851043866294,-0.8648090019296923,0.43289497015593587,0.19892210617310285,-0.45215414082218086,0.3067864287953197,1.3068701322476572,-0.25902999170633906,2
131,2024-09-19 21:19:26.560104004,0,011,0.48352397746583575,-0.872722387505744,0.32926901294061695,0.22409777042838333,-0.3925896289294207,0.30431692829859874,1.3716381764820345,-0.26614731448070206,2
132,2024-09-19 21:19:26.627778076,0,011,0.49556530021919504,-0.8737829406194068,0.2144406337726598,0.2553939518219891,-0.3352023770878761,0.30330518646438165,1.3707108148709497,-0.2660463300846941,2
133,2024-09-19 21:19:27.570815918,0,011,0.5007526109900294,-0.8671449560440491,0.09168097281101167,0.2912968111298808,-0.28304847644051984,0.3039225474848454,1.3067992588338697,-0.2585092665383435,2
134,2024-09-19 21:19:27.632870117,0,011,0.49798901179780314,-0.8521614777762914,-0.0349632282307273,0.3299226284853281,-0.23837571020728887,0.3061803589647463,1.1874618888007769,-0.24373171907855254,2
135,2024-09-19 21:19:27.707075195,0,011,0.4864401617089122,-0.8284398133120157,-0.16090543744016084,0.3692022683408832,-0.20251623370922373,0.30993755910363685,1.024255609297564,-0.22223468685965778,2
136,2024-09-19 21:19:27.774795166,0,011,0.46562491213152457,-0.7958855415452386,-0.2812472825700516,0.407031851115923,-0.17589704768599537,0.314931177550626,0.8314998572027995,-0.19468260229496745,2
137,2024-09-19 21:19:27.835197998,0,011,0.4354933578586791,-0.7547371375890173,-0.39105447071053606,0.44139464365630443,-0.15814665554570442,0.3208219863536956,0.6249138993084602,-0.1616950767873261,2
138,2024-09-19 21:19:27.897682861,0,011,0.39647998093262016,-0.7055954217106976,-0.4857706733845153,0.47047599542927926,-0.14826010645363485,0.3272403119772905,0.420269173694825,-0.12376353646951763,2
139,2024-09-19 21:19:27.975790039,0,011,0.3495075618781543,-0.6494416039032648,-0.5617453697475371,0.4927826852459336,-0.1447894220365438,0.3338229572760036,0.23200413733238578,-0.08128407149847225,2
140,2024-09-19 21:19:28.883753174,0,011,0.29593173525186667,-0.5876289533321444,-0.6166812107173831,0.5072468454389094,-0.14603732893064927,0.3402395905150147,0.07180427862583726,-0.03461558235948499,2
141,2024-09-19 21:19:28.962204102,0,011,0.23745165891152412,-0.5218387578508172,-0.6497499623445335,0.5132715704925209,-0.15022773896918923,0.34620569175556987,-0.052529168071164686,0.01589879026040081,2
142,2024-09-19 21:19:29.032206055,0,011,0.1760269534430961,-0.45400395522725373,-0.6613039939521054,0.510693472783099,-0.155632194520452,0.35147888426553864,-0.13750250735539932,0.06990858879519918,2
143,2024-09-19 21:19:29.086344971,0,011,0.1138116401350956,-0.3862089861841878,-0.6524046691445443,0.4996862824098722,-0.1606711431476073,0.35584684530904614,-0.1836591872738856,0.12698421729247944,2
144,2024-09-19 21:19:29.164453125,0,011,0.053079498243969014,-0.3205716402833633,-0.6244952605480844,0.48065898612805064,-0.16402978352190586,0.3591239332232965,-0.1950496765789386,0.18653403404276783,2
145,2024-09-19 21:19:29.226458984,0,011,-0.0038788227132657317,-0.25911346755105885,-0.5793490817667857,0.45418500185127675,-0.16478401377074567,0.3611635865819471,-0.1787124366028583,0.24777929559657708,2
146,2024-09-19 21:19:29.288505127,0,011,-0.05487246848768466,-0.20363179083480618,-0.5191730719775568,0.4209664009789873,-0.1624902900472113,0.3618776033386038,-0.1439914238108161,0.3097847954582531,2
147,2024-09-19 21:19:30.243747070,0,011,-0.09792073244229396,-0.15558882414528427,-0.4467049608897794,0.3818278860261063,-0.15721578632671274,0.3612502574066634,-0.101455781416017,0.3714883736942434,2
148,2024-09-19 21:19:30.305312012,0,011,-0.1313647863177395,-0.11602883237136351,-0.3652491305956241,0.33773638013015217,-0.1495095640916612,0.3593403239922025,-0.0615734907157392,0.4317152836808912,2
149,2024-09-19 21:19:30.382572998,0,011,-0.15399577717042384,-0.0855281338289547,-0.2786405103734048,0.28982314773399576,-0.1403001724091368,0.3562694754330856,-0.03351771641555666,0.48921689911249766,2
150,2024-09-19 21:19:30.450506835,0,011,-0.16518109753138968,-0.06417787176956619,-0.1910607327396175,0.23936159489076791,-0.13071790962529006,0.3522035306435417,-0.024227466025148324,0.5427417597932868,2
151,2024-09-19 21:19:30.506582031,0,011,-0.16494083248324654,-0.05159621455890766,-0.10662241149966671,0.18766719489571912,-0.1218888598175156,0.3473369718035581,-0.03756432007089943,0.5910881866502099,2
152,2024-09-19 21:19:30.582345947,0,011,-0.15394331068167288,-0.04696546376591578,-0.02879332617804869,0.13593800675818954,-0.11475595114402451,0.34188161752876517,-0.07362176903041578,0.6331136658407834,2
153,2024-09-19 21:19:30.644833008,0,011,-0.1334361225424543,-0.0490897089257622,0.04011187198874877,0.08509910340068004,-0.1099558297794659,0.3360512271355994,-0.1286443030626007,0.6677536340960961,2
154,2024-09-19 21:19:31.581864990,0,011,-0.10515167838141048,-0.05646928969424679,0.09916705991435265,0.03571409108377955,-0.10776411767609931,0.33003828724449435,-0.19586395957065636,0.6941000825190905,2
155,2024-09-19 21:19:31.659571045,0,011,-0.07120492942227846,-0.06738841931986501,0.1487213947952514,-0.012011739862840726,-0.10810271172566756,0.3239871799369557,-0.2669139398894011,0.7115051654456045,2
156,2024-09-19 21:19:31.731398193,0,011,-0.033966852699925124,-0.08001230007929921,0.18998511759219766,-0.05815401875897976,-0.11058814187212924,0.3179720745105596,-0.33312219706122176,0.7196259720766954,2
157,2024-09-19 21:19:31.784097900,0,011,0.004112885598938095,-0.09249217891166964,0.2244661608692529,-0.10295079524426037,-0.11460204608160815,0.3119865398308824,-0.38623587041334345,0.7183716272914955,2
158,2024-09-19 21:19:31.861257079,0,011,0.04073313554728435,-0.10307770764695129,0.25344301390701673,-0.14666695260290893,-0.1193567384521837,0.3059411089438872,-0.41855634071311426,0.7077884823332742,2
159,2024-09-19 21:19:31.932878906,0,011,0.07397137831595582,-0.11022908679523084,0.27757895246771075,-0.18945698030580205,-0.12392697721410505,0.29965752264118267,-0.4227213822109709,0.6879361896115894,2
160,2024-09-19 21:19:32.001168945,0,011,0.1024515574397455,-0.11271273600794583,0.29668305100295145,-0.231245741679459,-0.127256130493485,0.29285793465469995,-0.3914689986007802,0.6587763844235902,2
161,2024-09-19 21:19:32.935322021,0,011,0.1254187003132155,-0.10966774247851296,0.30961403054945996,-0.2716528885895677,-0.12816996840728867,0.2851596663313142,-0.3176623841999099,0.6200846790096834,2
162,2024-09-19 21:19:33.013001953,0,011,0.14274120069710589,-0.10064433886542618,0.31436842257132236,-0.3099822606511611,-0.12539848792380057,0.27608406860564955,-0.19466485844085588,0.5714207531626404,2
163,2024-09-19 21:19:33.075486816,0,011,0.15487949986130659,-0.0856236352225825,0.3083847591307023,-0.3452787947278368,-0.1175856312133331,0.265080024582429,-0.017037206645114808,0.5122075950477741,2
164,2024-09-19 21:19:33.149744873,0,011,0.1628367103560069,-0.06502225663389173,0.28900510591312795,-0.3764337773042684,-0.10330993944235282,0.25156044997170324,0.21846540714364218,0.4419435113233003,2
165,2024-09-19 21:19:33.215224121,0,011,0.16807445954312436,-0.03967450618540433,0.2539605206812157,-0.4023150070947368,-0.08116588554518739,0.23494983725623458,0.5117130766348629,0.36051138301297997,2
166,2024-09-19 21:19:33.277708984,0,011,0.17237397571780147,-0.010780856431985047,0.20178848496627877,-0.4219085388556849,-0.04991326806956372,0.21473812859460728,0.8581678365224406,0.2684922943963192,2
167,2024-09-19 21:19:33.339965088,0,011,0.17765615370220753,0.0201792553186975,0.13217898198292638,-0.4344589170622259,-0.008653654190951559,0.19053409610546634,1.2484113409610464,0.1673691460927702,2
168,2024-09-19 21:19:34.291893066,0,011,0.18580386173291139,0.05155790825637208,0.04623251542971229,-0.43958138119679224,0.04301242243433283,0.16211187390235537,1.6685187798739696,0.059547773760730976,2
169,2024-09-19 21:19:34.354562988,0,011,0.19852020115209495,0.08165298960980916,-0.05344157777352575,-0.43731633505489637,0.1048724519662062,0.129447816479485,2.101380014697309,-0.05180333779062354,2
170,2024-09-19 21:19:34.417048096,0,011,0.21722933016802248,0.10881014002756406,-0.1628114433026641,-0.42811435362867317,0.17604191264969554,0.09274841689296062,2.528808182125441,-0.16304636433592282,2
171,2024-09-19 21:19:34.495156006,0,011,0.24301361048931674,0.13150545567946648,-0.2766533396654562,-0.4127647832312449,0.2549694008364651,0.052466371154467,2.933868639308718,-0.27042909903976076,2
172,2024-09-19 21:19:34.566965088,0,011,0.2765811575975291,0.1484118097982557,-0.3889109830940525,-0.39229936423202666,0.33952283481123646,0.009294176668860408,3.302612067617552,-0.3704123008061047,2
173,2024-09-19 21:19:34.634682861,0,011,0.31825911522194483,0.15845548072592022,-0.4931901038253088,-0.3679048434268081,0.42715361051362183,-0.03587290133309807,3.6246380095834976,-0.4598895062027838,2
174,2024-09-19 21:19:34.700752930,0,011,0.36800633680086636,0.16086751037974387,-0.5833671281302427,-0.3408550788561705,0.5151026873276803,-0.08199730159440032,3.8925290982814658,-0.5362713778793124,2
175,2024-09-19 21:19:35.640990967,0,011,0.4254389897994743,0.15523129327672364,-0.6542806707890552,-0.312441083873326,0.6005944113563472,-0.12796443582975453,4.100784722903286,-0.5974765536633304,2
176,2024-09-19 21:19:35.714000000,0,011,0.4898680206092525,0.14152391674172451,-0.7024189668340087,-0.2838812009763816,0.6809797642247436,-0.17263998361439828,4.245098688009966,-0.6419224687173495,2
177,2024-09-19 21:19:35.780729980,0,011,0.5603466462350966,0.12014374320584083,-0.7263860486178002,-0.2562323641859339,0.7538269355352543,-0.21491955743837177,4.322502993148464,-0.6685991042211373,2
178,2024-09-19 21:19:35.843739990,0,011,0.6357051188925495,0.09191821065866568,-0.7269448387409476,-0.23033875822111502,0.8169838805487941,-0.2537756545752562,4.332242241855397,-0.6772300631293775,2
179,2024-09-19 21:19:35.906861084,0,011,0.7145331394866095,0.05809338373013822,-0.70665645125235,-0.206829939068449,0.8686433671858874,-0.28830303138203084,4.2767814805406825,-0.6684585786019628,2
180,2024-09-19 21:19:35.971299805,0,011,0.7950983913771549,0.02030837768709166,-0.669275382568021,-0.18615741293408586,0.9074278766779251,-0.31775902767061337,4.162391987408598,-0.6439881090197984,2
181,2024-09-19 21:19:36.052553955,0,011,0.8752462604675205,-0.019449808066176983,-0.6190171306459136,-0.1686533412031539,0.9324894951981749,-0.3415955213538583,3.9991136713878035,-0.6066141834940922,2
182,2024-09-19 21:19:36.982804932,0,011,0.952349462558589,-0.058922135276520134,-0.5598003095914514,-0.15459971884940002,0.9436066788059531,-0.35948541691336783,3.8001623912137217,-0.5600907989332733,2
183,2024-09-19 21:19:37.060026855,0,011,1.0233495711226361,-0.0956915178192562,-0.49464402719798756,-0.14429649694418142,0.9412554779994509,-0.3713490150944975,3.5808223318317607,-0.5088088557101239,2
184,2024-09-19 21:19:37.122117920,0,011,1.0848936289434112,-0.1273278526529382,-0.42543024583785694,-0.13809471363089285,0.9266244062731316,-0.3773758127082307,3.3567679027674333,-0.4573284498911475,2
185,2024-09-19 21:19:37.184114990,0,011,1.1335478839848583,-0.15154211097635586,-0.35313331585397323,-0.13635164720733944,0.9015479953932664,-0.3780282370466994,3.141951445308218,-0.4098640444077203,2
186,2024-09-19 21:19:37.261332031,0,011,1.1660650469239942,-0.16632815686792107,-0.278396634471699,-0.13931817783027134,0.8683680446671447,-0.3740202267325747,2.946549269448142,-0.3698177685872775,2
187,2024-09-19 21:19:37.334030029,0,011,1.1796766178621276,-0.17008615049661824,-0.20213739382922105,-0.14703327559019927,0.8297518387848208,-0.366275102323369,2.7755602684039773,-0.3394140196597419,2
188,2024-09-19 21:19:37.401416016,0,011,1.1723687033014758,-0.16172987195124502,-0.1258526788477549,-0.1592956118748465,0.7884856318881027,-0.355870386700707,2.6284152471872075,-0.3194876306403347,2
189,2024-09-19 21:19:38.321281982,0,011,1.1430908617226179,-0.1407718356057299,-0.05149104262990007,-0.1757223542863244,0.7472613355728235,-0.34397666182568404,2.499620324497703,-0.30948302229620217,2
190,2024-09-19 21:19:38.382543945,0,011,1.091862355668475,-0.10736993223472993,0.018983517578727505,-0.1958535164150254,0.7084898158796563,-0.33179611688876853,2.380194061355496,-0.3076526397140009,2
191,2024-09-19 21:19:38.443913818,0,011,1.0197743665302548,-0.06232460084850047,0.08405803919183003,-0.2192465350604337,0.6741647113268837,-0.3205007931352453,2.2595051515334745,-0.3113646372732363,2
192,2024-09-19 21:19:38.524221924,0,011,0.9289133745398842,-0.0070325537522387205,0.14298267804380077,-0.24553001673079863,0.6457651039045854,-0.3111678842589017,2.1270974036163435,-0.3174351748494712,2
193,2024-09-19 21:19:38.591331055,0,011,0.8222238615086472,0.056589411872505324,0.1959291984020175,-0.274423403179228,0.6241723058848001,-0.3047161433745206,1.974218343506648,-0.3224573512917207,2
194,2024-09-19 21:19:38.653601807,0,011,0.7033007057863265,0.12620776834074776,0.24402612819942548,-0.3057413182484686,0.6096045933895297,-0.3018527323222471,1.7949474613959369,-0.32313794933366885,2
195,2024-09-19 21:19:38.715868896,0,011,0.5761042845441575,0.1992088899681333,0.2892128165048592,-0.339379879854776,0.6016023542282855,-0.3030354990408422,1.5868851302168896,-0.31665041827985396,2
196,2024-09-19 21:19:39.636425049,0,011,0.4446350374916228,0.27286585640789995,0.3338654091703283,-0.3752643373458631,0.5990987444417458,-0.308451764918539,1.3513383808517732,-0.3009734201035409,2
197,2024-09-19 21:19:39.699059082,0,011,0.3126373140372099,0.34451662390272214,0.38028184153101174,-0.41325155152823023,0.6005956982740865,-0.3180165417022465,1.0929543077587107,-0.27513782940738235,2
198,2024-09-19 21:19:39.776270020,0,011,0.18338829723339103,0.4117299850239423,0.43018302464078406,-0.4530095427602763,0.6044210607274387,-0.3313893226216363,0.8188742714233541,-0.2393021540254515,2
199,2024-09-19 21:19:39.849576904,0,011,0.059583183665699,0.4724442434323863,0.4842955572000791,-0.4939048826287647,0.6089831514450039,-0.3479991072860677,0.5376981989323001,-0.19464396535929604,2
200,2024-09-19 21:19:39.916112793,0,011,-0.056708521657633425,0.5250738703968464,0.5419696441882039,-0.5349120698172617,0.6129302273880581,-0.3670677195395448,0.2586276579464977,-0.1431355104757027,2
201,2024-09-19 21:19:39.978176025,0,011,-0.16404343978267155,0.56858134910655,0.6008512358234418,-0.5745567449362823,0.6151893913687938,-0.3876329119383542,-0.009077453125189624,-0.08728594646190739,2
202,2024-09-19 21:19:40.052660889,0,011,-0.26156770380001765,0.6025079572634158,0.6568129140802821,-0.6109331263916633,0.6149395162832048,-0.40858196048463624,-0.256449229462413,-0.02989659920574743,2
203,2024-09-19 21:19:40.982119141,0,011,-0.34893628805189475,0.6269568318260902,0.7043406731492595,-0.6418340624969304,0.6115828403762728,-0.42870563411711854,-0.47503044941097244,0.02614837662087656,2
204,2024-09-19 21:19:41.064177979,0,011,-0.42619644835328147,0.6425280187857694,0.7372954973502295,-0.6649733536686633,0.6047175654225266,-0.44676989462687894,-0.6568824096043083,0.07805139770498357,2
205,2024-09-19 21:19:41.131907959,0,011,-0.49367098768331413,0.6502165343282678,0.7497667009376389,-0.6782375973963194,0.5940742997327655,-0.4615878980846373,-0.7944385452023295,0.1232569706639409,2
206,2024-09-19 21:19:41.199446045,0,011,-0.5518789805554536,0.6512936069846956,0.7368116029109928,-0.679914770246024,0.5794203596766895,-0.4720767605867291,-0.8804700186919407,0.15961839976631753,2
207,2024-09-19 21:19:41.267268799,0,011,-0.6014950322747654,0.6471902775963865,0.6950152240268266,-0.6688656841581436,0.560487992276049,-0.4773009799575576,-0.9083908768377766,0.18556281346892092,2
208,2024-09-19 21:19:41.325014160,0,011,-0.6433093134115864,0.6393919612686162,0.6228299613690159,-0.6446149575096882,0.5369727338806098,-0.47651482845345117,-0.8729379586121077,0.20023423104401367,2
209,2024-09-19 21:19:41.401046875,0,011,-0.6781524951662872,0.6293426582178163,0.5206810511403204,-0.6073570292663436,0.508594588400092,-0.46920825722446907,-0.7711083082757572,0.20362178869025865,2
210,2024-09-19 21:19:42.346559082,0,011,-0.7067873839017279,0.6183557572568932,0.39092518432353845,-0.5578948441264626,0.4751728592593341,-0.4551451421495405,-0.6031332636488461,0.19667070232401446,2
211,2024-09-19 21:19:42.401972168,0,011,-0.7297966397186906,0.6075319172370849,0.23777599551869813,-0.4975370685746762,0.43667740225889384,-0.4343761385262942,-0.37318405266346255,0.18132165717021007,2
212,2024-09-19 21:19:42.481995117,0,011,-0.7474857564419245,0.5976875176528307,0.0671720394486579,-0.4279704961294723,0.3932621983527074,-0.40721669652864073,-0.08956383458934421,0.16041960995714044,2
213,2024-09-19 21:19:42.549649902,0,011,-0.7598007204810255,0.5892982580122783,-0.11356202607092919,-0.3511112898100677,0.3452980334307946,-0.3741954695058212,0.23558379484319367,0.13750059861772518,2
214,2024-09-19 21:19:42.602864014,0,011,-0.7662722192438698,0.5824646451306998,-0.29634836376448476,-0.268945037635851,0.29340582892344347,-0.3359901896588736,0.5868396166954252,0.11650982317650196,2
215,2024-09-19 21:19:42.680499023,0,011,-0.7660269895998808,0.5769111904038186,-0.47318668540287045,-0.1833908694468668,0.23848746086591108,-0.29336927763272547,0.9462611829230428,0.10148692705014264,2
216,2024-09-19 21:19:42.742584961,0,011,-0.7579011119445881,0.572033470941049,-0.6369534405516603,-0.09623395524297605,0.181736595973436,-0.24714395020978194,1.2943222040893945,0.09624196458879977,2
217,2024-09-19 21:19:43.681277100,0,011,-0.7406430397414403,0.5669972894870167,-0.7819539360315647,-0.009137682631201413,0.12458720956559952,-0.19812158952775208,1.610914669698383,0.10405033943927271,2
218,2024-09-19 21:19:43.764398193,0,011,-0.7131454380226044,0.5608731236415361,-0.904151889394696,0.07630705116784,0.06857421385184038,-0.14705571821695546,1.876311424837098,0.12738068345962691,2
219,2024-09-19 21:19:43.832113037,0,011,-0.6746367313187565,0.5527747511545433,-1.0011568430519133,0.1585585341197691,0.015139594370521479,-0.09460360847604818,2.0721828778140843,0.16766443463688924,2
220,2024-09-19 21:19:43.896596924,0,011,-0.6248063276525869,0.5419780503476213,-1.0720889843863708,0.23615104404407025,-0.03454187509346998,-0.041307479464497296,2.1827174489278267,0.22514360596134206,2
221,2024-09-19 21:19:43.967447021,0,011,-0.5638850856746522,0.5280139891052712,-1.11736124034156,0.30774159384447825,-0.07964826432153993,0.012393665347982592,2.1956402467182805,0.2988467049511218,2
222,2024-09-19 21:19:44.035129883,0,011,-0.4926997403433361,0.5107372951959434,-1.1383838599572615,0.3721409007655291,-0.11967516672514594,0.06612621332966007,2.10296013833225,0.3867018905668899,2
223,2024-09-19 21:19:44.097822021,0,011,-0.41268393644116724,0.4903661023824276,-1.1372619513063618,0.42833326299424024,-0.15430494863224126,0.11953157570817882,1.9016219594360226,0.48572678284580045,2
224,2024-09-19 21:19:45.044881104,0,011,-0.3258180496235842,0.4674825369018854,-1.1165634547495982,0.475512495707771,-0.18325571830145104,0.1722192293999763,1.5943089555979875,0.5922065642803646,2
225,2024-09-19 21:19:45.110510009,0,011,-0.2344966552896304,0.4429897960434259,-1.079147041463701,0.5131380215464936,-0.20618040294920326,0.22373227379982755,1.1902606571577812,0.7018292620438386,2
226,2024-09-19 21:19:45.168392822,0,011,-0.14134551034403975,0.41803179886110764,-1.028013681376952,0.5409877398365792,-0.2226392922034173,0.27352719351912386,0.7056408141693263,0.809838602743357,2
227,2024-09-19 21:19:45.249252197,0,011,-0.049006706216355334,0.3938854208327045,-0.966193079516301,0.5591824976785934,-0.23212712388161666,0.3209696033605458,0.16302618213600312,0.9112935509165727,2
228,2024-09-19 21:19:45.317477051,0,011,0.040091660007253,0.3718332618676458,-0.8966646841252651,0.5681680424400161,-0.2341114153338734,0.365345573504228,-0.41012576615677226,1.0014588251397938,2
229,2024-09-19 21:19:45.385208984,0,011,0.12394633944412245,0.3530261592545802,-0.8222630663955033,0.5686555620399828,-0.2280515945179007,0.40588151607828876,-0.983819033206396,1.0762531707149796,2
230,2024-09-19 21:19:45.448456055,0,011,0.20112018844245055,0.33835139131354214,-0.7455561184743993,0.561542022501292,-0.21341772148009425,0.44176901363637366,-1.528235682760556,1.1326436165878946,2
231,2024-09-19 21:19:46.396858887,0,011,0.2707722562102819,0.3283305650927381,-0.6687802524764815,0.547841919146712,-0.1897436509767097,0.4722013453649722,-2.016415055109172,1.1689233571691988,2
232,2024-09-19 21:19:46.464538086,0,011,0.3325614609455315,0.3230737274450701,-0.5938993171440314,0.5286432782194829,-0.1567109689335846,0.49642763087164876,-2.4266147163322302,1.1848703758527945,2
233,2024-09-19 21:19:46.532131836,0,011,0.386450307419518,0.3223030816167585,-0.522709349878499,0.5050660422390277,-0.1142320490533946,0.5138187543588395,-2.7441161815849733,1.1817806572955163,2
234,2024-09-19 21:19:46.586179932,0,011,0.43247537744092335,0.32543415880607873,-0.45683646963173624,0.4781954112545185,-0.06251880046094437,0.5239325584927232,-2.9622027157826527,1.1623395371492506,2
235,2024-09-19 21:19:46.663812012,0,011,0.4705537285969364,0.331687136002516,-0.39757788601728433,0.4489977317999916,-0.002157190940905355,0.5265705626193078,-3.082092120402856,1.1303093274422684,2
236,2024-09-19 21:19:46.725426025,0,011,0.5003638518389414,0.34020649805019687,-0.3457052600110351,0.41826139977683524,0.06579672570151213,0.5218236622419706,-3.1118760356823953,1.0900782950230252,2
237,2024-09-19 21:19:46.802946045,0,011,0.5213189544992245,0.3501774008190612,-0.3014079731471916,0.38660132765672905,0.13973285023039753,0.5100992983965394,-3.0648351073438582,1.0461737969778568,2
238,2024-09-19 21:19:47.746917969,0,011,0.5326476310444552,0.36092621840681144,-0.2644132090691211,0.35451930533714643,0.2174759427197545,0.49211632793415394,-2.9575780897765505,1.002834761438178,2
239,2024-09-19 21:19:47.805480957,0,011,0.5335798271881241,0.37198465405726483,-0.23409830949674504,0.32246140790506095,0.2963727366733894,0.46886006777386674,-2.8082690826791263,0.9636852544879401,2
240,2024-09-19 21:19:47.867538818,0,011,0.5235880302110242,0.38310005308617945,-0.20937143770572275,0.2908101610108214,0.37345531302981094,0.4415051896745589,-2.6349973452680606,0.9315077890389332,2
241,2024-09-19 21:19:47.945165039,0,011,0.5025934476532088,0.39419797639199733,-0.18833005379111295,0.2598044265407046,0.44565120425140076,0.4113251483966954,-2.454320468921316,0.9081066420396336,2
242,2024-09-19 21:19:48.017667969,0,011,0.4710674744809482,0.4053251169996486,-0.16796867359837123,0.22944598683380496,0.5100308063780622,0.3796054012465175,-2.280153510607063,0.8942715156362898,2
243,2024-09-19 21:19:48.085218994,0,011,0.430026588977942,0.41659631701836475,-0.14422129985372512,0.19946699165189447,0.5640928861382849,0.34756679916403954,-2.1232305335629285,0.8898618563256283,2
244,2024-09-19 21:19:48.153020020,0,011,0.3809603529688397,0.42814986780054004,-0.11241695784494286,0.1693860402601094,0.6060631482983185,0.31629811397110724,-1.991143284334161,0.8939903205104238,2
245,2024-09-19 21:19:49.067493896,0,011,0.32571655342439887,0.44010894926737326,-0.06799872655627776,0.13862240978037274,0.6351344835660278,0.28670014601562327,-1.8886743241808481,0.9052319475169642,2
246,2024-09-19 21:19:49.129552979,0,011,0.2663492379054029,0.45255430878603736,-0.007220665363825239,0.10661407649694685,0.6515686169756225,0.25945014029800073,-1.8181547248949819,0.9218033247828262,2
247,2024-09-19 21:19:49.206437012,0,011,0.20495832165229486,0.4655123769293984,0.07244640877355492,0.07290169203372197,0.6566267169522009,0.23499336769902499,-1.7798335042114832,0.9417200419187235,2
248,2024-09-19 21:19:49.269699219,0,011,0.1435722901330923,0.4789509992263411,0.17226878488434727,0.03717594310488046,0.6523493609414048,0.21356127106785486,-1.7723819998564385,0.9629692154997344,2
249,2024-09-19 21:19:49.341854980,0,011,0.08409650865804995,0.49277112194957046,0.2923910598781673,-0.0006946193793939296,0.6412347065771612,0.19521011921473236,-1.7935546626884316,0.9837174200690775,2
250,2024-09-19 21:19:49.408613037,0,011,0.028293004148029884,0.5067951877131132,0.43192830769414253,-0.04064075303119886,0.6258916028481728,0.1798684141199267,-1.8408479027051534,1.0025359848748614,2
251,2024-09-19 21:19:49.471101074,0,011,-0.02226131100948485,0.5207649642371258,0.5888979785738516,-0.08236063715419488,0.6087571528090071,0.1673788287063336,-1.9119071848016405,1.0185796062650112,2
252,2024-09-19 21:19:50.421324951,0,011,-0.06625078403710531,0.5343573642958478,0.7600248227123597,-0.12526771932629943,0.591921351874707,0.15753145913781108,-2.004486238806577,1.0316466651432743,2
253,2024-09-19 21:19:50.489054932,0,011,-0.10269837467411651,0.5472151159502957,0.9405119704994618,-0.16843193092182956,0.5770250936793216,0.15009746926261303,-2.1159307341194014,1.0421033535121638,2
254,2024-09-19 21:19:50.556731934,0,011,-0.13102070159240536,0.5589863869014697,1.123912584670739,-0.21055627035369134,0.5651658697982666,0.14486925397172118,-2.2424120502804246,1.0507206890670586,2
255,2024-09-19 21:19:50.612523193,0,011,-0.151076563419289,0.5693713091862561,1.3022871127621485,-0.250030040985485,0.5567822383721486,0.14170401778469996,-2.378350387778872,1.0584958137330553,2
256,2024-09-19 21:19:50.690187012,0,011,-0.16322268342580046,0.5781718157511088,1.466757851117356,-0.28506499820341513,0.5515665461040241,0.14056008225701946,-2.516418861448621,1.0664964781549857,2
257,2024-09-19 21:19:50.752749023,0,011,-0.16835121396272226,0.5853354903546718,1.6083731863619866,-0.31387966713719545,0.5485070423343493,0.1415081866414054,-2.648205787258458,1.0757200399739442,2
258,2024-09-19 21:19:50.814783936,0,011,-0.1678688251985712,0.5909829211470945,1.7190703439171762,-0.3348882051216125,0.5461124830907225,0.14470508947085994,-2.7652697831070516,1.0869430050043136,2
259,2024-09-19 21:19:51.768441895,0,011,-0.16360727269242129,0.5954131420769966,1.792543931707457,-0.34687259647495394,0.5427470567679132,0.15033808551576572,-2.8601704907004204,1.100567829050737,2
260,2024-09-19 21:19:51.830468018,0,011,-0.15769033089138085,0.5990889434841108,1.8248801654675462,-0.34912838010136893,0.536925036133102,0.15856632895265632,-2.927179666135348,1.1165194402223615,2
261,2024-09-19 21:19:51.892535889,0,011,-0.15238253780524563,0.6026074923666571,1.8148566120653447,-0.34155899270737466,0.5274625522441193,0.1694827114871334,-2.96265267202878,1.1342533407364113,2
262,2024-09-19 21:19:51.974220947,0,011,-0.14992752429754047,0.6066591453781246,1.7638713283622516,-0.32468797731108046,0.5134962905760303,0.1831034151276239,-2.9652214814367492,1.1528954010034402,2
263,2024-09-19 21:19:52.032284912,0,011,-0.15238357745768316,0.6119715774980315,1.6755705295260443,-0.2995831062708619,0.4944458068553176,0.1993732902023004,-2.9359347031520717,1.171473341680964,2
264,2024-09-19 21:19:52.109531006,0,011,-0.16146996128135593,0.6192330771064071,1.5553437567711108,-0.2677195158433196,0.4699804354851411,0.21816756010796182,-2.8782919023614437,1.1891529015244247,2
265,2024-09-19 21:19:52.177226074,0,011,-0.17842539402689678,0.6289933519307104,1.4098473117420882,-0.23082597474036406,0.4399963954828311,0.23927994873976324,-2.798015540740904,1.2053830317546417,2
266,2024-09-19 21:19:53.121851074,0,011,-0.20387182231706988,0.6415536702536693,1.2465650933133354,-0.19074680348615022,0.40458368155920066,0.26240310722726184,-2.7025120281269475,1.219901966396131,2
267,2024-09-19 21:19:53.185760010,0,011,-0.23769708987180602,0.6568719173031531,1.07329837869607,-0.14931995365367887,0.3639884183906721,0.2871132738574732,-2.600087674460131,1.2326222908200961,2
268,2024-09-19 21:19:53.247844971,0,011,-0.2789976700084263,0.6745086972927283,0.8975694766854662,-0.10826012087504115,0.3186108903882272,0.31286220798187936,-2.4989454247714673,1.2434483797080433,2
269,2024-09-19 21:19:53.309850098,0,011,-0.3261223216175211,0.6936263792328906,0.726082398443865,-0.06905763042223421,0.2690648139260935,0.3389691540965343,-2.4060284966520276,1.2520918196545008,2
270,2024-09-19 21:19:53.388477051,0,011,-0.3768247036063684,0.7130365272015817,0.5643947757538621,-0.032920639917824124,0.21625152424777663,0.36461309464589486,-2.3259748912669957,1.2579494650029655,2
271,2024-09-19 21:19:53.450474121,0,011,-0.4284920822359349,0.7312828923136426,0.41686245718822834,-0.0007757104664884173,0.16135228240400626,0.38884182413456175,-2.260484444860638,1.260077039778732,2
272,2024-09-19 21:19:53.517612061,0,011,-0.4783924846091066,0.7467460743887401,0.28679453097722385,0.026689897875685292,0.10569678983786104,0.4106105356156189,-2.2081620100325465,1.257242558272263,2
273,2024-09-19 21:19:54.434706055,0,011,-0.5238846667420087,0.7577571516236717,0.17663023781679418,0.048985546203223894,0.05057289547158827,0.428839856885988,-2.1646899977269842,1.248019677593688,2
274,2024-09-19 21:19:54.513175049,0,011,-0.5625674499592063,0.7627110505488174,0.08796938158507366,0.06580176593570468,-0.002929803639612085,0.442473257643211,-2.1232116477976306,1.2308904985215072,2
275,2024-09-19 21:19:54.577750977,0,011,-0.5923869999419316,0.7601764750061414,0.021499782297658917,0.07700588095289447,-0.05401132623372139,0.4505266776113965,-2.074901712106999,1.2043406023220822,2
276,2024-09-19 21:19:54.640531006,0,011,-0.6117358763256933,0.749003146674126,-0.022978283490154124,0.08261276361207119,-0.10220650801849256,0.452136540106709,-2.0097485648745828,1.1669422253553758,2
277,2024-09-19 21:19:54.717065185,0,011,-0.6195623741658597,0.7284258425827758,-0.0463278221732261,0.0827204591665325,-0.14739624773588086,0.44660982640216285,-1.9176597858926074,1.1174533371207702,2
278,2024-09-19 21:19:54.784733154,0,011,-0.6154831374730177,0.6981585033325406,-0.049760032575698596,0.07743382917660135,-0.18977042615890616,0.4334705888725451,-1.7899451344948203,1.0549660673696517,2
279,2024-09-19 21:19:54.852387939,0,011,-0.5998671289149299,0.6584634439522876,-0.034625938508187994,0.06681061219602799,-0.22972550733800026,0.41249622131866576,-1.620907182936291,0.9790845534207473,2
280,2024-09-19 21:19:55.796343994,0,011,-0.5738565257747951,0.610180204651271,-0.002429855301609409,0.050856844793174955,-0.2677097033858794,0.3837434112763127,-1.4091218820695322,0.8900768177028153,2
281,2024-09-19 21:19:55.864063964,0,011,-0.5393235512193286,0.554710812512733,0.04497772191561401,0.029576470995069534,-0.3040602563063635,0.34756719134881925,-1.1581587439457763,0.7889643473558371,2
282,2024-09-19 21:19:55.931757080,0,011,-0.4987873044608949,0.4939707201105582,0.10518212272281802,0.003053891375669393,-0.3388811455064871,0.3046346189689556,-0.8766028808991685,0.6775404487097548,2
283,2024-09-19 21:19:55.986712891,0,011,-0.45529537905388723,0.4303137730591215,0.17511790091632493,-0.028461797647712055,-0.3719840494033944,0.25593042030442126,-0.5773800056798037,0.558345234296544,2
284,2024-09-19 21:19:56.064368896,0,011,-0.4122546345614616,0.36642833826802285,0.25119640723538395,-0.06449590168516642,-0.4028783080010235,0.20274539232541772,-0.2766709372083606,0.4346495937156385,2
285,2024-09-19 21:19:56.125937012,0,011,-0.3732110759268847,0.30519367210275716,0.32960965039431084,-0.10431860900585069,-0.4307851760771174,0.14663456032435426,0.007332915902204992,0.31043841211708945,2
286,2024-09-19 21:19:56.187555908,0,011,-0.34160134251426655,0.24949107229226453,0.4066444988688141,-0.14693429275060751,-0.45468677044319994,0.08934004311430843,0.25591769554897886,0.19029338481144045,2
287,2024-09-19 21:19:57.131679932,0,011,-0.3205020753214726,0.20198258250094106,0.4788388009594766,-0.1910779427741322,-0.47344433992807095,0.03269067620248217,0.45158500799514734,0.07911110198868365,2
288,2024-09-19 21:19:57.214157959,0,011,-0.3123941440915759,0.16488837288164415,0.5429562093047919,-0.23522607206914645,-0.4859794563014027,-0.021499775240838306,0.5796177644303604,-0.01827278339590702,2
289,2024-09-19 21:19:57.270468018,0,011,-0.31895277813211187,0.13980083280434577,0.5958808404535361,-0.27763292442864007,-0.49145444915254294,-0.07152238641777119,0.6290653507003818,-0.0974361212806321,2
290,2024-09-19 21:19:57.349553223,0,011,-0.34089262205414456,0.12756945291862182,0.63454206683944,-0.31639363948607313,-0.48939620011035484,-0.11585048937125017,0.5932346140047565,-0.15467928626890712,2
291,2024-09-19 21:19:57.409364990,0,011,-0.3779189166747625,0.1282782055818288,0.6559339170521817,-0.3495363490115257,-0.4797697763679561,-0.15320323819616774,0.47010018013412513,-0.18735813950325467,2
292,2024-09-19 21:19:57.471438965,0,011,-0.42881267803595025,0.14131429130888576,0.6572545687824829,-0.3751458646140072,-0.46303474328051347,-0.1825885750413602,0.26286232483326655,-0.1942559951129644,2
293,2024-09-19 21:19:57.552551025,0,011,-0.49161958008596324,0.165500706636717,0.6361557139162977,-0.3915082064851022,-0.440170837061499,-0.20332751736536794,-0.019611791845808357,-0.17588148010530366,2
294,2024-09-19 21:19:58.493294922,0,011,-0.5638785391071677,0.19925213576007003,0.5910411565903178,-0.39725069400649404,-0.4126192772978178,-0.21507049491228875,-0.3629843166063627,-0.13453916137973002,2
295,2024-09-19 21:19:58.558843018,0,011,-0.6428393526621534,0.24072174185843112,0.5213020161169858,-0.3914543737238236,-0.3821164879960241,-0.2178080501426892,-0.7485216409749258,-0.0741108935415394,2
296,2024-09-19 21:19:58.631969971,0,011,-0.7256492850269463,0.287924814691936,0.4273530327060555,-0.373725676390671,-0.35045470057884187,-0.2118671259201636,-1.154816407333137,0.0003919819492488924,2
297,2024-09-19 21:19:58.699488037,0,011,-0.8095015962167499,0.33883911009263445,0.3103906968553891,-0.344219286146077,-0.3192259176420313,-0.19788734304113362,-1.5596934210113171,0.08337102301367755,2
298,2024-09-19 21:19:58.767312012,0,011,-0.8917439067067101,0.39148651210246305,0.17195467775073045,-0.30361439066496315,-0.2895981020016999,-0.17678126684143372,-1.9418958969036002,0.1691291727216463,2
299,2024-09-19 21:19:58.834974121,0,011,-0.9699597310688197,0.4439991212010672,0.013536918733249559,-0.2530622516173938,-0.2621734637162682,-0.14968361405345396,-2.282358964518648,0.25221371464941494,2
300,2024-09-19 21:19:58.900285889,0,011,-1.0420385021139444,0.494669443541786,-0.163529110022721,-0.1941202436416428,-0.23698083646196788,-0.11788637889342644,-2.5650471243339843,0.3276208316361892,2
301,2024-09-19 21:19:59.821461914,0,011,-1.1062287927844854,0.5419844814769048,-0.3578780318364758,-0.12866835101388488,-0.21361156522643113,-0.08275613808614042,-2.7774002208718995,0.39093025468099474,2
302,2024-09-19 21:19:59.878493896,0,011,-1.1611626666975012,0.5846479106869639,-0.5677903909334144,-0.05880425023584068,-0.1914338696788679,-0.045643284051590634,-2.910574147031452,0.4384429117678154,2
303,2024-09-19 21:19:59.956176025,0,011,-1.205853891945771,0.6215965673178947,-0.7909014352137665,0.013267224004366454,-0.1697908146326809,-0.007802115915508163,-2.959755285746516,0.46736684998541034,2
304,2024-09-19 21:20:00.018662109,0,011,-1.239678831537355,0.6520131185009987,-1.0240167634509914,0.08533694773395314,-0.14812989116687908,0.02966745855950747,-2.924523187285045,0.4760240318806263,2
305,2024-09-19 21:20:00.081548096,0,011,-1.2623383685848908,0.6753310372999687,-1.2630827722290714,0.1552970879077367,-0.1260803537061076,0.06585812385713515,-2.80885537052356,0.4639736027583749,2
306,2024-09-19 21:20:00.160001953,0,011,-1.2737940873918971,0.6912279226847168,-1.5033289707290458,0.22125830436430935,-0.10352433772850712,0.10007623341163654,-2.6205217091726474,0.431973863165836,2
307,2024-09-19 21:20:00.227683105,0,011,-1.2741873927150082,0.6996086702462401,-1.7395243405785712,0.2816612605699937,-0.08066632662089068,0.1318417485928046,-2.3701165083472486,0.3818198145049923,2
308,2024-09-19 21:20:01.158600098,0,011,-1.2637691569786098,0.7005835952267924,-1.9662709239725618,0.3353582965411426,-0.05804361895744098,0.16086018943611463,-2.070197819101238,0.31615833714167485,2
309,2024-09-19 21:20:01.235840088,0,011,-1.2428634082813448,0.6944439446225296,-2.178320829920523,0.38165664930472376,-0.036433152266650136,0.186969531286105,-1.7348087880167218,0.2383517627851414,2
310,2024-09-19 21:20:01.298470947,0,011,-1.2118730672821778,0.681634030225672,-2.3709169730546575,0.4203222163569953,-0.01668906872851476,0.21008082548866547,-1.3793432578296965,0.15239920209439195,2
311,2024-09-19 21:20:01.360462891,0,011,-1.1713341853102714,0.6627224145093011,-2.540097156737303,0.4515447802897333,0.00041438984264933874,0.23013684659438322,-1.0205091274798364,0.0628789744442858,2
312,2024-09-19 21:20:01.438085938,0,011,-1.1220206982717496,0.638380361050106,-2.682908472814027,0.4758742722147138,0.014294914557242605,0.24710048483788713,-0.6760503814817638,-0.025156548912776196,2
313,2024-09-19 21:20:01.500083984,0,011,-1.065068676191093,0.6093732564363961,-2.7975526588454636,0.49413515156450316,0.024636273625165135,0.26096339636130444,-0.36393436287768915,-0.10640016519901496,2
314,2024-09-19 21:20:01.571782227,0,011,-1.0020545362558844,0.5765579408199617,-2.883474413296768,0.5073099087996538,0.03144058319492615,0.2717535934453724,-0.10102380723285308,-0.17561539290681355,2
315,2024-09-19 21:20:02.521642822,0,011,-0.9349713651601876,0.5408690430859016,-2.941323328322826,0.5163843555386954,0.035049904298077854,0.27952891610052927,0.09830794100374625,-0.22797553009995433,2
316,2024-09-19 21:20:02.586677002,0,011,-0.8660983551553386,0.5032833705613758,-2.972696992833494,0.5221711017242706,0.03610455676889534,0.2843623895173895,0.2231241189383208,-0.25934748377680605,2
317,2024-09-19 21:20:02.649162109,0,011,-0.7978090857878144,0.4647690155506802,-2.979670018310384,0.5251490855626492,0.035422953763616274,0.28633400617752314,0.26640823933058777,-0.2665397317234936,2
318,2024-09-19 21:20:02.724740967,0,011,-0.7323793775969466,0.42623837650475266,-2.9642815789136923,0.5253643850871459,0.03384012440864071,0.285535760694033,0.22538900712660737,-0.2475470942064261,2
319,2024-09-19 21:20:02.788379883,0,011,-0.6718289361093152,0.3885198346935573,-2.928198448553649,0.5224205186284125,0.03206957842257365,0.28208681123498774,0.10184014939073978,-0.20177655346542173,2
320,2024-09-19 21:20:02.850866943,0,011,-0.6177993415191569,0.3523470421108714,-2.872586665435721,0.515548742532031,0.03062378362400723,0.2761521463689011,-0.09778424379335393,-0.13020434424112365,2
321,2024-09-19 21:20:02.922527100,0,011,-0.5714697533440529,0.31835503038819274,-2.7980598835602954,0.5037253375753271,0.029782642860881538,0.2679578962530042,-0.36248418400327864,-0.03541256126438814,2
322,2024-09-19 21:20:03.869694092,0,011,-0.5335200163206153,0.28707601421943746,-2.7046391334957782,0.48580704559743,0.029589337503520267,0.25779803364840953,-0.6769876725827728,0.07849830683665979,2
323,2024-09-19 21:20:03.932251952,0,011,-0.504138051773548,0.2589350440006873,-2.5917859822056126,0.46066354716849994,0.029875572222843035,0.246031122091041,-1.0220259901403062,0.20606994465944237,2
324,2024-09-19 21:20:04.003266113,0,011,-0.4830548872220412,0.23424674567235154,-2.458564229438056,0.4272853499753659,0.030335787900523645,0.23306728695024517,-1.3748402576026082,0.34070606151854477,2
325,2024-09-19 21:20:04.073246094,0,011,-0.4696021406441316,0.21321186488112542,-2.3038916886856784,0.384851915646327,0.030657345974760043,0.2193433113886384,-1.71037718655669,0.4750197979770575,2
326,2024-09-19 21:20:04.142618896,0,011,-0.4628047438705771,0.19591352409740423,-2.126785539112587,0.332766425517676,0.0306704465707719,0.205286654421549,-2.003293627296739,0.601359261396826,2
327,2024-09-19 21:20:04.197791992,0,011,-0.4615153424436479,0.18231675283981047,-1.9265744366287765,0.2706869695323656,0.030448260102300815,0.19127939845515415,-2.230376275909382,0.7124508715764268,2
328,2024-09-19 21:20:04.275019043,0,011,-0.46456418438276625,0.1722723016343771,-1.7032073682898718,0.198595454539365,0.030314867561108943,0.17763554485869884,-2.3728121438292726,0.8020327998932631,2
329,2024-09-19 21:20:05.196398926,0,011,-0.47086839338231956,0.16551683694342217,-1.457792122142657,0.11693080959487726,0.030780595595271253,0.16459257318385953,-2.417869717334919,0.865365997326322,2
330,2024-09-19 21:20:05.264689941,0,011,-0.4794523733998571,0.1616580933124327,-1.1932587176943192,0.02676268116244772,0.03245253272184976,0.15230750133264165,-2.359730426561237,0.8995331605292547,2
331,2024-09-19 21:20:05.320952881,0,011,-0.48937801622452115,0.1601414766453809,-0.9148611136263479,-0.07006768689657056,0.03595631209932433,0.1408521489354538,-2.1994162512804016,0.9034666309808829,2
332,2024-09-19 21:20:05.398117188,0,011,-0.4996315656991199,0.16020702313006424,-0.630305427853844,-0.17090810096795783,0.04188635775216855,0.13021153561471605,-1.9440479079032023,0.877746738647527,2
333,2024-09-19 21:20:05.460145020,0,011,-0.5090281920458033,0.16085394390641192,-0.3494402394460264,-0.2723779060837903,0.050776617346799995,0.12029149647894408,-1.6058992811109614,0.8243165486646891,2
334,2024-09-19 21:20:05.535434082,0,011,-0.5161703664515935,0.16082975840949867,-0.08351121083265733,-0.3705558024184752,0.06305134224550746,0.11094046850523172,-1.2015821888434004,0.7462352242606957,2
335,2024-09-19 21:20:05.603168945,0,011,-0.519456931201556,0.15865176055421104,0.15594519216667807,-0.4612480663346085,0.07891528731373398,0.10198697659587606,-0.7512345477518442,0.6474708422253155,2
336,2024-09-19 21:20:06.536392090,0,011,-0.5171227836778438,0.1526567448747254,0.35836632047376826,-0.5403023858900802,0.09820292665138586,0.09328260891557223,-0.2773805007968678,0.532682560174689,2
337,2024-09-19 21:20:06.613084961,0,011,-0.5073037321377104,0.1410698011554263,0.5152974065803838,-0.6039129131164481,0.12027175368470616,0.08473017390692057,0.19649965253861756,0.4070037131140007,2
338,2024-09-19 21:20:06.678037842,0,011,-0.48813648530579956,0.12208578390509557,0.6211517124500049,-0.6488655226802134,0.1440144331426278,0.07628578487764173,0.6472816001797675,0.2758695416998807,2
339,2024-09-19 21:20:06.740523193,0,011,-0.45789407718118563,0.09396170361276462,0.6735102594147527,-0.672708687370246,0.1679898854007653,0.06794487700842163,1.0531869145037955,0.14486890901184937,2
340,2024-09-19 21:20:06.803209961,0,011,-0.4151367828155034,0.05512015936214454,0.673029793577679,-0.6738669180115983,0.19061480676977255,0.05973113943575057,1.3946958548996562,0.019547017106465104,2
341,2024-09-19 21:20:06.883892090,0,011,-0.35884605771063083,0.0042603665371380136,0.6230854241189104,-0.6517141199125345,0.2103528168244753,0.05169699382516378,1.6556919876613359,-0.09487633772786007,2
342,2024-09-19 21:20:06.942456055,0,011,-0.2885077010928265,-0.0595335405781103,0.5292771173720286,-0.6066125005397269,0.22586135975078256,0.043931050488946743,1.8248207376753267,-0.19384235628521007,2
343,2024-09-19 21:20:07.891264893,0,011,-0.2041316062607625,-0.13669839946913503,0.39896179726283504,-0.5399197097657811,0.23608141357419424,0.03656434509558413,1.896764760090972,-0.2737948082797318,2
344,2024-09-19 21:20:07.953292969,0,011,-0.10623334817082372,-0.2271165733651403,0.24094371828341657,-0.45396154458020743,0.24027944208969612,0.029769852084645113,1.8730601062101924,-0.3324878338155654,2
345,2024-09-19 21:20:08.015778076,0,011,0.004178329699223332,-0.3300571621828647,0.06525954727860012,-0.35195078299861565,0.238058265409959,0.02375436318397707,1.7620819029779695,-0.369192759353679,2
346,2024-09-19 21:20:08.098608887,0,011,0.1255870213031934,-0.4441341831101624,-0.11717444098861271,-0.2378307253990163,0.22934340316528415,0.01874474914334126,1.578003850504355,-0.38471488975808565,2
347,2024-09-19 21:20:08.155152100,0,011,0.25595144168076,-0.5672935324730548,-0.2951784019118173,-0.11605267373198529,0.21435139884212553,0.014968477270466652,1.3389883996591447,-0.38120403131608044,2
348,2024-09-19 21:20:08.232455078,0,011,0.39272719530655964,-0.6968501318525574,-0.458050772511937,0.008672762548594158,0.19355226939289014,0.01262622603977369,1.0652674868682503,-0.3618540358651718,2
349,2024-09-19 21:20:08.293975098,0,011,0.532939195931668,-0.8295919725633539,-0.5961902617067434,0.13161243093142086,0.1676365995718739,0.011857255030185275,0.7776564570217261,-0.33058909900761674,2
350,2024-09-19 21:20:09.232507080,0,011,0.6732873825728076,-0.9619518897508125,-0.7014707625365385,0.24821849871277124,0.1374979562989989,0.012702943291513677,0.496502342988198,-0.291740279449071,2
351,2024-09-19 21:20:09.313889893,0,011,0.8102799178022162,-1.0902303886015192,-0.7674481942041683,0.3543130226641931,0.10423889618005334,0.015078173353234322,0.24075638367456054,-0.24968514012897075,2
352,2024-09-19 21:20:09.381575195,0,011,0.9404077999189476,-1.210838277242097,-0.7896013102187003,0.4462692964751489,0.0691959656566641,0.018759904804829287,0.027058592059646454,-0.20849359564571746,2
353,2024-09-19 21:20:09.449259033,0,011,1.060360822600081,-1.320524326466708,-0.7656902524710268,0.5211902776944579,0.033959558646185405,0.02339459824719537,-0.13104884370316355,-0.1716583317759409,2
354,2024-09-19 21:20:09.516992188,0,011,1.1672535237913926,-1.4165651194448416,-0.6960532504093162,0.577043616743357,0.00034658591910309225,0.02851971911678054,-0.22371882228630383,-0.1419267676819881,2
355,2024-09-19 21:20:09.579880859,0,011,1.2588191754781934,-1.4969084991097903,-0.5835853006914428,0.6127127586774057,-0.02971027328464498,0.03359668739819461,-0.24518599368257263,-0.12120370600531732,2
356,2024-09-19 21:20:09.642365967,0,011,1.3335376938302577,-1.5602650251605314,-0.4333162437579486,0.6279658701305393,-0.05435132394277979,0.03805513757599509,-0.19383662412085054,-0.11052373568042091,2
357,2024-09-19 21:20:10.596169922,0,011,1.3906754866837792,-1.6061395346098,-0.2517101742106993,0.6233774190427346,-0.07200155895545993,0.04134128780760343,-0.07194762272386306,-0.11010513243287594,2
358,2024-09-19 21:20:10.657239014,0,011,1.4302449331475067,-1.6348012902499034,-0.045919338598723845,0.6002432294079945,-0.08153725176916708,0.042956409852553466,0.11468903458556215,-0.11944912690326241,2
359,2024-09-19 21:20:10.731633057,0,011,1.45292579380922,-1.6472058625714037,0.17678995402990239,0.5605114081777823,-0.08237443880355376,0.0424810346272359,0.35702246501436724,-0.13742681120006733,2
360,2024-09-19 21:20:10.796183105,0,011,1.4599829897512473,-1.644889090771139,0.4093533780540111,0.5067193830160089,-0.07448910746344084,0.03959588995789279,0.6428445404684102,-0.16233022943324718,2
361,2024-09-19 21:20:10.858669922,0,011,1.4531750873677785,-1.6298465938324878,0.6450133302121646,0.4419098926817103,-0.05838962685271245,0.03410841975645144,0.9568603382074714,-0.19190177240671236,2
362,2024-09-19 21:20:10.920672852,0,011,1.4346388967368484,-1.6044041834726084,0.8773137995578432,0.36950803220599304,-0.03505329245623393,0.025978507098161182,1.2809386463961312,-0.223378782472519,2
363,2024-09-19 21:20:10.998344971,0,011,1.406764437563665,-1.5710846902386413,1.100093082788192,0.293160404056911,-0.005839794985322492,0.015330269528392407,1.5948400686787048,-0.25360952979976087,2
364,2024-09-19 21:20:11.922826904,0,011,1.3720866302828572,-1.532478766449514,1.3075489942371914,0.21654864233148255,0.027604618285040437,0.0024417250509441253,1.8776277702276576,-0.2792907007814856,2
365,2024-09-19 21:20:11.987315918,0,011,1.3331937973794852,-1.4911245620514582,1.494358006502171,0.14319654655632613,0.06345320449631256,-0.012289522251674406,2.1095743607302615,-0.2973098260091926,2
366,2024-09-19 21:20:12.049346924,0,011,1.2926255897427046,-1.4493970771224052,1.6557554959164251,0.07630100667309621,0.09982323776575593,-0.028398226327259964,2.2739887234049245,-0.30508710694972246,2
367,2024-09-19 21:20:12.110532959,0,011,1.2527421036918642,-1.4094077549318174,1.7875431739278553,0.018614548202309074,0.13490908222408066,-0.04540335675899735,2.358389371234749,-0.3008010386396425,2
368,2024-09-19 21:20:12.193691895,0,011,1.2155825819473995,-1.3729177275414788,1.8861079367190534,-0.027619711751134295,0.16709682512804028,-0.06284190001173004,2.3548765267864575,-0.2834716294798241,2
369,2024-09-19 21:20:12.261412109,0,011,1.1827571899815748,-1.3412712502405977,1.94853984834845,-0.06070251887179064,0.19504081402362525,-0.0802830509996794,2.2600566139507277,-0.25295785743147914,2
370,2024-09-19 21:20:12.329133057,0,011,1.1554039640472167,-1.3153573628853248,1.9728433457138652,-0.07950585145163723,0.21769454873877084,-0.09733355009437156,2.0750066912589618,-0.20992318251097974,2
371,2024-09-19 21:20:13.256810791,0,011,1.1342030654364221,-1.295602712869471,1.9581636412607972,-0.0835083899096722,0.23428898929652453,-0.1136386685603626,1.8054331284039427,-0.15578445342110553,2
372,2024-09-19 21:20:13.334008057,0,011,1.119409886768723,-1.2819871925992274,1.904918591090781,-0.0728306565892517,0.2442609742186405,-0.12887264072722843,1.4617831849520644,-0.09264293680447369,2
373,2024-09-19 21:20:13.396017090,0,011,1.1108779009920717,-1.274068881722471,1.8147736703366129,-0.04824114349402843,0.24716340518225374,-0.14271465360463081,1.0589976800986105,-0.023183713319601756,2
374,2024-09-19 21:20:13.474566895,0,011,1.108069899435364,-1.2710122606036705,1.6905353452346468,-0.011124627713388829,0.2426111474211221,-0.1548198465933397,0.6157670720415399,0.04947976867529604,2
375,2024-09-19 21:20:13.542291016,0,011,1.1100652124742778,-1.2716243129941462,1.536077755782998,0.036575367136720265,0.2303011599502655,-0.1648039635829522,0.15332939063742165,0.12201952744406805,2
376,2024-09-19 21:20:13.608413086,0,011,1.1155691716962752,-1.274405994106325,1.3562789825456885,0.09245188987259802,0.2100943807310928,-0.1722541083300504,-0.3060189835077236,0.19113474119485338,2
377,2024-09-19 21:20:13.670901123,0,011,1.1229402387318868,-1.2776208668293387,1.1568614539043989,0.15379351894253973,0.18210062493044968,-0.17676070697947474,-0.7404501638325409,0.2537709998846896,2
378,2024-09-19 21:20:14.607635010,0,011,1.1302523114954628,-1.2793746862407152,0.9441268230584722,0.21779465346526,0.1467052171768756,-0.1779529932580899,-1.1299989166473703,0.30728162589506436,2
379,2024-09-19 21:20:14.689172119,0,011,1.1353895313868478,-1.2776963181732022,0.7246477198469374,0.2817666485830622,0.10452689073481317,-0.1755248621117426,-1.4578396861559209,0.34954880467870736,2
380,2024-09-19 21:20:14.747509032,0,011,1.136152552050289,-1.2706152352867863,0.5049111665427719,0.34330186908163096,0.0563641173046096,-0.1692550200392981,-1.7114928411870638,0.37911507835337654,2
381,2024-09-19 21:20:14.809164062,0,011,1.1303571759155857,-1.2562384237951536,0.29086739859474914,0.40036858370139095,0.0031960119748344444,-0.15903286978301984,-1.883818480003498,0.3953273645650341,2
382,2024-09-19 21:20:14.886295166,0,011,1.1159139461532503,-1.2328291491882106,0.0874424803731278,0.4513378523114356,-0.05376548979276883,-0.1448890077705477,-1.9735444012926744,0.39842548582266146,2
383,2024-09-19 21:20:14.959955078,0,011,1.0908841998509284,-1.1988830686121064,-0.10182089833342396,0.49495579298730635,-0.11304087644504807,-0.127015923692558,-1.9851605071808014,0.38951496052769374,2
384,2024-09-19 21:20:15.027250000,0,011,1.0535286264985722,-1.1531970163182856,-0.27487229316560546,0.5302843015138939,-0.17292450705796136,-0.10576840190613312,-1.9280227140727424,0.3704109032207169,2
385,2024-09-19 21:20:15.931974121,0,011,1.0023813683449785,-1.0949340384316175,-0.4309926374274576,0.5566355647490452,-0.23159813603521479,-0.08164565208671076,-1.8145117764539924,0.34335588429165614,2
386,2024-09-19 21:20:16.010645996,0,011,0.936362304921139,-1.0236918677233198,-0.5703919308677781,0.5735126794077183,-0.28725892047708446,-0.05526453282126277,-1.657512434674345,0.31065581539820314,2
387,2024-09-19 21:20:16.071600830,0,011,0.854909292881826,-0.9395758387165793,-0.693634978733107,0.5805631472139372,-0.3382043296192796,-0.02733271768521924,-1.4680730811208909,0.2743506646536448,2
388,2024-09-19 21:20:16.149229980,0,011,0.7581101670357806,-0.8432668267151263,-0.8010390745641088,0.5775587709579775,-0.3828659286620803,0.0013752378669919267,-1.254162468478995,0.23603713756471867,2
389,2024-09-19 21:20:16.217312988,0,011,0.6468184947207862,-0.7360657132342464,-0.8922287171035785,0.5644106329662342,-0.41982723678269523,0.030041857166501578,-1.020836073504292,0.19687604663255684,2
390,2024-09-19 21:20:16.272962158,0,011,0.5227313473024467,-0.6198957356488841,-0.9659611069087982,0.5412113454934856,-0.4478563640384274,0.057834312785023656,-0.7713698426717033,0.1577215418925584,2
391,2024-09-19 21:20:16.350599121,0,011,0.3884120835153127,-0.49725514056328946,-1.020181365957027,0.5082851108420698,-0.46595365662166954,0.0839358224897434,-0.5086414499759239,0.11926940408387936,2
392,2024-09-19 21:20:17.297216797,0,011,0.24724611237068875,-0.3711207274375387,-1.0522111970208186,0.46623250873496846,-0.4734005727241569,0.10757987352788867,-0.23634152394985505,0.08216529344382552,2
393,2024-09-19 21:20:17.351623047,0,011,0.10330436543632987,-0.24479735603141065,-1.0590723203060044,0.415973260819075,-0.4698069538288524,0.12808753029157693,0.040149637382739425,0.0470701981412348,2
394,2024-09-19 21:20:17.429889893,0,011,-0.03891380958847556,-0.12170253403402236,-1.0379825504156075,0.3587819818928315,-0.45516110774668317,0.14490468236724546,0.3134316465772185,0.014692830867583943,2
395,2024-09-19 21:20:17.500272949,0,011,-0.17485035846934102,-0.005091857051713569,-0.9869554935295227,0.2962839580634487,-0.42987066696827797,0.1576302793529192,0.574353480868475,-0.014189554571840278,2
396,2024-09-19 21:20:17.568000977,0,011,-0.30031126912090345,0.10222907319536823,-0.905345507874688,0.23038304116787198,-0.3947729191279497,0.16602972433510552,0.8126074068691677,-0.03870398226935375,2
397,2024-09-19 21:20:17.621934814,0,011,-0.41185780275221395,0.1981338178174162,-0.7941894881738555,0.16313873757791175,-0.35111797995049815,0.17003656052239718,1.017436240596923,-0.05788204182483762,2
398,2024-09-19 21:20:17.700041016,0,011,-0.5070907976697601,0.2812926301447067,-0.656271254881285,0.09663901682071907,-0.3005422098323567,0.16974651245085448,1.1785259320135497,-0.0707429079261629,2
399,2024-09-19 21:20:18.636274170,0,011,-0.5847835145725683,0.35117423441736956,-0.49593318208899534,0.03289724148063825,-0.24502312085173025,0.1654046416571985,1.287124275200021,-0.07646652547363775,2
400,2024-09-19 21:20:18.714379883,0,011,-0.644862154257499,0.4079627199316875,-0.31873883609229986,-0.026231218906520613,-0.18678953612159463,0.1573890566785947,1.3371800667200275,-0.07460997304942517,2
401,2024-09-19 21:20:18.783035889,0,011,-0.6882694080841384,0.452427155018049,-0.13113183574159462,-0.0791198545251239,-0.12818175762094497,0.14619374248621575,1.326234296021656,-0.06530130709777426,2
402,2024-09-19 21:20:18.838218994,0,011,-0.7167576234046303,0.48577264974669837,0.05979882933582164,-0.12441787652590351,-0.07149433847162198,0.13240640625929934,1.2559590108089536,-0.04936438490010259,2
403,2024-09-19 21:20:18.916156006,0,011,-0.7326526049769517,0.5094910555742346,0.24648708782030465,-0.16106372342578262,-0.01885947733454604,0.11668133093112909,1.132325301766225,-0.028352123629713465,2
404,2024-09-19 21:20:18.986103027,0,011,-0.7386184799808938,0.5252229225916625,0.4211574182290998,-0.18827939123582352,0.02779760317853544,0.09971607422645092,0.9652696954762229,-0.004459346989102852,2
405,2024-09-19 21:20:19.053817139,0,011,-0.7374412609935623,0.5346390225565788,0.5762885566638444,-0.20556961536322793,0.06677080453348525,0.08223399833762725,0.7677213379105647,0.01971103428241032,2
406,2024-09-19 21:20:19.995022949,0,011,-0.7318374743993363,0.5393462034653687,0.7052035484975575,-0.21274336164624688,0.09662123147209753,0.06496027391408335,0.5541297325460243,0.041496269800190985,2
407,2024-09-19 21:20:20.065406982,0,011,-0.724285881269694,0.5408159620829718,0.8026523305440668,-0.20996904917919784,0.1162801215611747,0.048579521944405055,0.3389095650544692,0.058529963451349115,2
408,2024-09-19 21:20:20.133099121,0,011,-0.7168795517498974,0.5403291204441685,0.865282837866425,-0.19785463820205906,0.12515958186534887,0.03368021890311429,0.13516488680650873,0.06899188186123052,2
409,2024-09-19 21:20:20.200814941,0,011,-0.7112113573780947,0.5389341209522236,0.8918898240975095,-0.17749935178290535,0.12320447257477897,0.02070543472778931,-0.046261102629287024,0.07172437309357856,2
410,2024-09-19 21:20:20.257968018,0,011,-0.7083245430275233,0.5374256825865492,0.8833267561957614,-0.15044516362027677,0.11086107060005426,0.009925605647179508,-0.19754896358222038,0.0662791372728431,2
411,2024-09-19 21:20:20.335172119,0,011,-0.7087493177827037,0.5363515836719599,0.8421107164034373,-0.11851053131707193,0.08900286100353728,0.0014325523516653938,-0.31448254919378943,0.05293741490707165,2
412,2024-09-19 21:20:20.396804932,0,011,-0.7126060281341019,0.5360453634041566,0.7719223076834362,-0.08356804645244066,0.05887129536244617,-0.004857308255460254,-0.3966857955588625,0.03267574611568312,2
413,2024-09-19 21:20:21.346877197,0,011,-0.7197285509991564,0.5366723776232106,0.677159154846419,-0.04735336999042851,0.022044725924907728,-0.009199300455338977,-0.4474050885769879,0.007058058294166185,2
414,2024-09-19 21:20:21.414586182,0,011,-0.7297769651301983,0.5382761899537175,0.5625760068523833,-0.011369026954235273,-0.019603468588514847,-0.012012894195783209,-0.4728060730020723,-0.02192536514545874,2
415,2024-09-19 21:20:21.482274170,0,011,-0.7423391503836236,0.5408209956189065,0.4330629287644216,0.02309551156548122,-0.06400489432557943,-0.01385755484347252,-0.4808092216298883,-0.052067695170268144,2
416,2024-09-19 21:20:21.549940186,0,011,-0.7570263772596506,0.5442325796873866,0.2936092846360487,0.0548692168366169,-0.1090607212283755,-0.015381190346663583,-0.47971018301364987,-0.08120752511943499,2
417,2024-09-19 21:20:21.617665039,0,011,-0.773551530336339,0.5484372037089265,0.14934459634365999,0.08282163077757239,-0.15282312394099745,-0.017244936971560754,-0.47701310885247866,-0.10750731063446622,2
418,2024-09-19 21:20:21.679784912,0,011,-0.7917718685697259,0.5533903250962235,0.005476018691071175,0.10586827762850198,-0.1936251723133239,-0.02004602291946122,-0.4787212004955178,-0.12969451077553293,2
419,2024-09-19 21:20:21.741404053,0,011,-0.8116945095379546,0.5590865269805239,-0.13291425243268692,0.12305053142384959,-0.2301232444444868,-0.024262106523709526,-0.48905550230434025,-0.14721422106378193,2
420,2024-09-19 21:20:22.671910889,0,011,-0.8334639224553604,0.56555098627191,-0.2610899955147157,0.13363724377061983,-0.2612786282541032,-0.030221936894957658,-0.5105309184354035,-0.16022732824139274,2
421,2024-09-19 21:20:22.738120117,0,011,-0.8573452934059647,0.5728208699360914,-0.3747669687089659,0.13720225413775244,-0.28633460586558723,-0.038091275332502506,-0.5442903699170508,-0.16941376767053667,2
422,2024-09-19 21:20:22.803742920,0,011,-0.8836857120088398,0.5809227300268932,-0.4700625850457114,0.1336500423367277,-0.30480786611044647,-0.04786799450555044,-0.5904627583995681,-0.17564815627645264,2
423,2024-09-19 21:20:22.865740967,0,011,-0.9128255063087658,0.5898451131049771,-0.5433876812584467,0.12318424005964812,-0.3164730385833804,-0.059393623024616995,-0.648319753320162,-0.17970468945014448,2
424,2024-09-19 21:20:22.927337891,0,011,-0.9449654036041963,0.5995045739864745,-0.5914875963164354,0.10624913283512513,-0.32133474087527464,-0.07238733659074424,-0.7162114348115899,-0.1821179442965128,2
425,2024-09-19 21:20:23.010430176,0,011,-0.9800224018522554,0.6097077343383106,-0.6117545712994514,0.08348940420002404,-0.3196062575503818,-0.08649489638634389,-0.791424575856018,-0.18321605359299617,2
426,2024-09-19 21:20:23.078129883,0,011,-1.0175037226348143,0.620117150623844,-0.602687409778638,0.05574260003443794,-0.31169960799658447,-0.10133979131749193,-0.8701150500015725,-0.1832487541372621,2
427,2024-09-19 21:20:24.012131836,0,011,-1.0564247222865037,0.6302309392470723,-0.5642355551591177,0.024035738578383616,-0.29820133109464575,-0.1165703365959324,-0.9474434968524117,-0.18250693706013085,2
428,2024-09-19 21:20:24.074204102,0,011,-1.0952945935900056,0.6393817206919584,-0.4978484661632588,-0.010454001078049545,-0.279801178405653,-0.13190225379830922,-1.0180521094066146,-0.1813676019240482,2
429,2024-09-19 21:20:24.151837891,0,011,-1.132176863679725,0.6467530148368317,-0.40622799365683315,-0.04649114388829571,-0.2571734189200015,-0.14715614601624083,-1.0768507494717297,-0.18025830651382113,2
430,2024-09-19 21:20:24.214381836,0,011,-1.1648186075465068,0.6514097124436317,-0.292925657764435,-0.08289999068583577,-0.23085879268135248,-0.1622850497928031,-1.1197757153744958,-0.1795862269582366,2
431,2024-09-19 21:20:24.276447998,0,011,-1.1908386580973482,0.6523427838106549,-0.16200154888642238,-0.11864385078182947,-0.20121048677590445,-0.17738156162497232,-1.144227992150294,-0.17968806866015247,2
432,2024-09-19 21:20:24.359520020,0,011,-1.2079515333499966,0.6485280090531764,-0.01789793324214519,-0.15281449244854275,-0.16843848222338187,-0.1926527781434151,-1.149263615426848,-0.18081375558803936,2
433,2024-09-19 21:20:24.424711914,0,011,-1.2141819522493469,0.6389924815001465,0.13454196525808199,-0.18455545767649806,-0.13273425766793923,-0.20836168640072678,-1.1356956143672063,-0.18311769612252304,2
434,2024-09-19 21:20:25.361392090,0,011,-1.2080144173934146,0.6228777525012416,0.2901266657099959,-0.21299439385528549,-0.09440270003571112,-0.22475450307792183,-1.106061363374428,-0.18664851320205506,2
435,2024-09-19 21:20:25.438964111,0,011,-1.1884442967920352,0.59949049410885,0.4435336664937777,-0.23722956875037152,-0.05392141329445546,-0.2420048130188857,-1.0643701057906112,-0.19135588668944092,2
436,2024-09-19 21:20:25.505808105,0,011,-1.1549448404068272,0.568338567187923,0.5895923414314772,-0.25635713522890985,-0.01191078092525139,-0.26019029690404183,-1.0156463917972591,-0.19712268694870957,2
437,2024-09-19 21:20:25.575808105,0,011,-1.1073936527179296,0.5291560024587886,0.7235184123994484,-0.2695059219506886,0.030949506078387378,-0.27929344589277894,-0.9653212227257902,-0.2038046829240952,2
438,2024-09-19 21:20:25.630808105,0,011,-1.0459919761009078,0.4819212841667458,0.8410833003134921,-0.275871393945884,0.07402536653436134,-0.29920947715979834,-0.9185636668043745,-0.21125464497442417,2
439,2024-09-19 21:20:25.707937988,0,011,-0.971188828270626,0.42686961616110003,0.9387576847839214,-0.27477236785924025,0.11682466888618646,-0.31975180021274285,-0.8796772118991277,-0.2193296959314783,2
440,2024-09-19 21:20:25.769525146,0,011,-0.8836167307907423,0.3644947924621398,1.0138434953846476,-0.265745063221322,0.15903973194001797,-0.34065470523631086,-0.8516324734633286,-0.2279046174341996,2
441,2024-09-19 21:20:26.711807129,0,011,-0.784057929336089,0.29553679233502456,1.064569252628159,-0.24864817657030552,0.20050737956737238,-0.36157731157960904,-0.8357321482941547,-0.23690655717139927,2
442,2024-09-19 21:20:26.789403076,0,011,-0.6734651397787769,0.22095824100423042,1.0901472319850944,-0.22373963135348712,0.2411068027458811,-0.38211103560875437,-0.8313837283713327,-0.24636077996597713,2
443,2024-09-19 21:20:26.851136963,0,011,-0.5530361572597322,0.14191691517519303,1.0908166838684201,-0.19170485237106177,0.2806456825036567,-0.4017896475906978,-0.8360322293793868,-0.25643034280645,2
444,2024-09-19 21:20:26.912336182,0,011,-0.4243093059356876,0.05973740159151054,1.0678414594785086,-0.15362882590360777,0.3187756385063792,-0.42010171942269675,-0.8454035025777051,-0.26743877948787315,2
445,2024-09-19 21:20:26.990443848,0,011,-0.2892437878240469,-0.02412087148450019,1.0233871006091497,-0.11091375139374586,0.35495516850355735,-0.4365092657998442,-0.8541888778974895,-0.2798520153644193,2
446,2024-09-19 21:20:27.052035156,0,011,-0.1502637286249837,-0.10810529656553484,0.96025393520561,-0.06516111889391459,0.38847367370154934,-0.45048022180315433,-0.8570902306291014,-0.29418862586584554,2
447,2024-09-19 21:20:27.127870117,0,011,-0.010241823459512923,-0.19062868334782396,0.8815078614558186,-0.018038497341467973,0.4185558281021674,-0.4615403154054086,-0.8498367099465192,-0.31087202776228534,2
448,2024-09-19 21:20:28.041937988,0,011,0.12760731240906426,-0.27014638072470804,0.7900974026123255,0.02885780724812167,0.4445382141428862,-0.46933709138749036,-0.8297204798467576,-0.3300920104422125,2
449,2024-09-19 21:20:28.102818115,0,011,0.2599241337327555,-0.34524014540478914,0.6885943652123121,0.07412357912815871,0.4660543607074339,-0.4736956555561039,-0.7955231049802579,-0.3517358275574192,2
450,2024-09-19 21:20:28.181614014,0,011,0.3834472865043177,-0.41469076043585423,0.5791697832579072,0.11661666135542655,0.483143108296496,-0.47464765454736646,-0.7470659419234527,-0.37539457881268185,2
451,2024-09-19 21:20:28.249301025,0,011,0.4952492264000607,-0.47753091786994756,0.46378079705675535,0.1554556173998319,0.4962288590320346,-0.47242792933637534,-0.6846719314254378,-0.4004151921760547,2
452,2024-09-19 21:20:28.317028076,0,011,0.5929300745829544,-0.5330791690053076,0.34440520720102025,0.189963105836461,0.5059755983281174,-0.4674423333406844,-0.6086810912188193,-0.42598297262602164,2
453,2024-09-19 21:20:28.384804932,0,011,0.674748682758241,-0.5809518282927101,0.22316741600082476,0.2195982310933427,0.5130651094957681,-0.460211713486337,-0.519165508813416,-0.4512319484924227,2
454,2024-09-19 21:20:28.452428223,0,011,0.7396791255276645,-0.6210465414974449,0.10236441041273127,0.24391550792440217,0.5179750436409719,-0.45129759319870344,-0.41614102371100214,-0.47533649961112673,2
455,2024-09-19 21:20:29.395678955,0,011,0.7874020389220613,-0.6535020994649807,-0.015492189116397808,0.2625536031259546,0.5208175393653022,-0.4412214012351436,-0.30046247861029257,-0.49751021138079454,2
456,2024-09-19 21:20:29.451729004,0,011,0.8182524657662111,-0.6786494820452867,-0.12762254768669246,0.2752417084521817,0.521272181901846,-0.4303997518488661,-0.17509532110741943,-0.516916328215883,2
457,2024-09-19 21:20:29.529711914,0,011,0.8331325609816729,-0.6969638025158532,-0.23109836724990512,0.28183555372119123,0.5186420896535079,-0.41911933042844846,-0.04605995920174238,-0.5325897310328499,2
458,2024-09-19 21:20:29.598862793,0,011,0.8333921955109155,-0.7090164631751416,-0.32325526004142907,0.2824003215077429,0.5120465113846382,-0.4075549767515564,0.07750878539078132,-0.5434473459793143,2
459,2024-09-19 21:20:29.658386963,0,011,0.820701865497038,-0.7154264953062369,-0.40221032242500493,0.2773023531580733,0.5007072988081118,-0.39580884919204506,0.18425916393467445,-0.5483771150910107,2
460,2024-09-19 21:20:29.734267090,0,011,0.7969502597502812,-0.7168173201838068,-0.46712630575804565,0.267231479054811,0.4842368980702188,-0.38394569771180076,0.2621811690215048,-0.5463646823050284,2
461,2024-09-19 21:20:29.797625000,0,011,0.7641698468963307,-0.71378824643946,-0.5180634434881196,0.2531287498668365,0.46283806252195364,-0.37201877966665825,0.3003923610936668,-0.5366333037845151,2
462,2024-09-19 21:20:30.737714111,0,011,0.7244695717590514,-0.7069036555395243,-0.5555669952356033,0.23606862211858134,0.4373679644924376,-0.36009458669709526,0.29072224030822863,-0.5187844441788074,2
463,2024-09-19 21:20:30.799781006,0,011,0.6799676453696644,-0.6966936778684336,-0.5802224184396926,0.21714163862319819,0.4092769677639719,-0.34827981471492747,0.22877177747056704,-0.49292360238698085,2
464,2024-09-19 21:20:30.876927979,0,011,0.6327379294210741,-0.6836565161561193,-0.5923465249849047,0.19734996268413021,0.38047776314050813,-0.3367445892015896,0.11429146488017392,-0.45974808655835886,2
465,2024-09-19 21:20:30.939415039,0,011,0.5847799821354314,-0.6682560330638986,-0.5919344474696577,0.17753301528548399,0.35319885035664256,-0.32573459835303104,-0.04907292390724092,-0.4205767798227055,2
466,2024-09-19 21:20:31.001447998,0,011,0.5380113429558394,-0.6509167160446832,-0.5788870643256183,0.1583481876652506,0.3298300813416808,-0.31556918798220973,-0.2544235703275768,-0.377308383247475,2
467,2024-09-19 21:20:31.084322998,0,011,0.4942697743189213,-0.6320237306124461,-0.5534161046452346,0.1403135951906129,0.3127351734174212,-0.3066263523142292,-0.4923185978265556,-0.332300380480849,2
468,2024-09-19 21:20:31.151993896,0,011,0.4553011022004762,-0.6119301575589697,-0.5164775330576103,0.12389857255025663,0.30403080865315674,-0.2993187805513414,-0.751299342098948,-0.28819759801216965,2
469,2024-09-19 21:20:32.096481201,0,011,0.42271836737864316,-0.5909650072226139,-0.47006670660213257,0.10962315095042281,0.30537208075048694,-0.2940667295484672,-1.0182011512642732,-0.2477725768624567,2
470,2024-09-19 21:20:32.164239990,0,011,0.39794710245704096,-0.5694380482981986,-0.41719693387010715,0.09810424805010846,0.31777811586574156,-0.2912699597908646,-1.2784685188029923,-0.21379196082558236,2
471,2024-09-19 21:20:32.231957031,0,011,0.3821723376117143,-0.5476459183372118,-0.3615076809999763,0.0900064964435019,0.3415068840766552,-0.29127814419261183,-1.516808892721743,-0.18885459142809824,2
472,2024-09-19 21:20:32.295602051,0,011,0.37627569981196185,-0.5258858569773939,-0.30667991671500144,0.08592539792989584,0.3759927933423553,-0.294364236056772,-1.718318347006612,-0.1751728345153371,2
473,2024-09-19 21:20:32.357615967,0,011,0.38075222271295717,-0.504479048783425,-0.2559279562829707,0.08627684449688693,0.41986359637748,-0.3007075878916068,-1.8698349662001514,-0.17434704442138768,2
474,2024-09-19 21:20:32.434799072,0,011,0.39563328961714234,-0.4837998416617598,-0.21170942595868084,0.09124142943841693,0.4710289060101109,-0.31038324498921666,-1.9610931386102923,-0.1872062639304415,2
475,2024-09-19 21:20:32.495933105,0,011,0.4204583280921249,-0.46430028773795423,-0.17564178619354306,0.10076169271849554,0.5268242275414069,-0.32334589068643016,-1.9854172552622993,-0.2137459266680572,2
476,2024-09-19 21:20:33.421564209,0,011,0.45431226669363356,-0.4465165683782287,-0.1485437239900404,0.11456383624238439,0.5842113390677255,-0.3394050756220744,-1.9399838372738638,-0.2531437674032321,2
477,2024-09-19 21:20:33.489316895,0,011,0.49591511785064,-0.4310509498153517,-0.13047217528343102,0.13216666847630532,0.6400366432600461,-0.35820278155045815,-1.8258111865176134,-0.3038236942598196,2
478,2024-09-19 21:20:33.557017090,0,011,0.5437375687267557,-0.4185322990459246,-0.12064500068717711,0.15285397995225217,0.6913297368618014,-0.3792111532439614,-1.6475675430163381,-0.3635640555275643,2
479,2024-09-19 21:20:33.623541992,0,011,0.596118969694464,-0.40956168753133937,-0.11728035610328698,0.17562667159487463,0.7356018098263157,-0.4017603778396478,-1.4132024780728318,-0.4296640215445622,2
480,2024-09-19 21:20:33.685601074,0,011,0.6513770467055421,-0.4046518513409018,-0.11752726950164749,0.19918212714118902,0.7710821097137378,-0.42508854959008996,-1.133478681368988,-0.49914322136297745,2
481,2024-09-19 21:20:33.747597900,0,011,0.7079035617951882,-0.40417172631190273,-0.1176855420133736,0.2219685479513973,0.7968337631601456,-0.4483962165888652,-0.8216067367515382,-0.5688992090787782,2
482,2024-09-19 21:20:33.826573975,0,011,0.7642303564503511,-0.4083065989309553,-0.11378475807446033,0.2423353510701157,0.8127315655259514,-0.4708963155809107,-0.49302014750128903,-0.6357784115556229,2
483,2024-09-19 21:20:34.771520996,0,011,0.8190522714687655,-0.417042032517035,-0.1023629905574391,0.25874669971425673,0.8193305640131601,-0.49185925346182235,-0.16494380105095424,-0.696614409929138,2
484,2024-09-19 21:20:34.839266113,0,011,0.8712145281311641,-0.43017368890937335,-0.08114207030982142,0.26997981130844256,0.8176744578934565,-0.510650838051864,0.14462379970170572,-0.7483393927711598,2
485,2024-09-19 21:20:34.896062012,0,011,0.9196893329455293,-0.44733416994961317,-0.049384441996926036,0.2752467201915031,0.8090931772517307,-0.5267555299102615,0.4184321939163044,-0.7882182489254367,2
486,2024-09-19 21:20:34.974691895,0,011,0.9635677443766422,-0.4680228352739993,-0.007920259533204736,0.27423460890756646,0.795031819224215,-0.5397815944695984,0.6415161418863412,-0.8141420140353581,2
487,2024-09-19 21:20:35.035662109,0,011,1.0020780028322103,-0.4916325585662919,0.04106046816802827,0.2670918525190786,0.7769375185266932,-0.5494562082428979,0.8023152238094831,-0.8248576338673272,2
488,2024-09-19 21:20:35.110102051,0,011,1.034617431787265,-0.5174770643513384,0.09435905489361127,0.2543880206593126,0.75620185091019,-0.555622208295322,0.8932529834430183,-0.820047941349751,2
489,2024-09-19 21:20:35.177854980,0,011,1.060773649677341,-0.544820690055323,0.14817779851443388,0.237068929975815,0.7341263299388735,-0.5582390280447311,0.9108892446014847,-0.800250567720577,2
490,2024-09-19 21:20:36.116858887,0,011,1.0803240349768932,-0.572904695080446,0.19852307587102433,0.2164082696991781,0.7118776168884212,-0.55738139171371,0.8558290984608589,-0.7666569630376451,2
491,2024-09-19 21:20:36.189351074,0,011,1.0932230210985143,-0.6009650838642185,0.24158813939102536,0.19393117800719634,0.6904299888005825,-0.5532308213452974,0.732437115197953,-0.7208551087374298,2
492,2024-09-19 21:20:36.255203125,0,011,1.099593037324773,-0.6282464605676104,0.2741065584838258,0.1712908800522914,0.6705164902117775,-0.5460626276778092,0.5482264694402867,-0.6645911246638392,2
493,2024-09-19 21:20:36.317688965,0,011,1.0997203538914009,-0.6540188615754308,0.29363791427120717,0.15011930518843186,0.6526017748904094,-0.536233670238476,0.3129733229996588,-0.5996369792328852,2
494,2024-09-19 21:20:36.379701904,0,011,1.0940372413318709,-0.6775941054752405,0.2987781197512176,0.13188873942883528,0.6368703526328575,-0.5241698503485628,0.037991539889414734,-0.5278219515655527,2
495,2024-09-19 21:20:36.460166016,0,011,1.0830756177238112,-0.6983309999280628,0.2893312723281428,0.11779596985141502,0.6232227463549719,-0.5103459891500133,-0.264085168579451,-0.45118248786724163,2
496,2024-09-19 21:20:36.527884033,0,011,1.0674052605942208,-0.7156269170426567,0.2664385017469437,0.10866733855091384,0.6112844809074869,-0.4952546356438105,-0.579172140071473,-0.3721025061580888,2
497,2024-09-19 21:20:37.471852051,0,011,1.0475864810575197,-0.7289076975148406,0.23258521771846002,0.1048995124072309,0.6004361245758467,-0.4793711524782863,-0.8916836862142006,-0.29334827649274575,2
498,2024-09-19 21:20:37.539550049,0,011,1.0241503070019222,-0.7376318264773217,0.1914099766892384,0.10645212551933479,0.5898670672259864,-0.4631267420485382,-1.1849057666314435,-0.21798475233842665,2
499,2024-09-19 21:20:37.604302002,0,011,0.997583546451116,-0.7413118920291988,0.1473179510759284,0.1128862963593138,0.5786538408284497,-0.4468933164881289,-1.4418820494169136,-0.14921127105177384,2
500,2024-09-19 21:20:37.673167969,0,011,0.9682813945656301,-0.7395383928478241,0.10497550603316823,0.12343374661115045,0.5658546912838193,-0.43097256815541535,-1.6466020995366395,-0.09017145746008012,2
501,2024-09-19 21:20:37.729100098,0,011,0.9364608034343982,-0.7319872079107055,0.06876808161972855,0.1370916579199475,0.5506010979921099,-0.41557883447818045,-1.7851786386292827,-0.04376784181363653,2
502,2024-09-19 21:20:37.806243896,0,011,0.9020709905908504,-0.7184063105067767,0.04228397188194925,0.152740124147085,0.5321753682602629,-0.4008152678324771,-1.8468831419118488,-0.01246679650282816,2
503,2024-09-19 21:20:37.868730957,0,011,0.8647441591385243,-0.6985947555872761,0.027908385003326677,0.16926228948122762,0.5100692139602763,-0.38665370127027077,-1.8250599681823279,0.0019187860714410805,2
504,2024-09-19 21:20:38.786840820,0,011,0.8238039152993784,-0.6723913358619874,0.026630918335555444,0.18563756982910473,0.4840101224149286,-0.37292818838651653,-1.7178514211321407,-0.0015663111687063299,2
505,2024-09-19 21:20:38.864475098,0,011,0.7783260273812017,-0.6396804081455016,0.03809827438393649,0.2009924985098827,0.4539491815092503,-0.3593445053539895,-1.5285296014914456,-0.02288259588125421,2
506,2024-09-19 21:20:38.926486084,0,011,0.7272377309420921,-0.6004116490209115,0.06083299115558028,0.2146068899298503,0.4200234048298478,-0.34550216132773953,-1.2652980940314134,-0.06094064724346599,2
507,2024-09-19 21:20:38.988479004,0,011,0.6694420649929035,-0.5546290089470265,0.09252288073157353,0.22586989374917438,0.38251283186108365,-0.3309236078772888,-0.9406067805008789,-0.11361747780954165,2
508,2024-09-19 21:20:39.066584961,0,011,0.6039566253430404,-0.5025079126387142,0.13035942537358708,0.23418886434887926,0.3418009483174122,-0.3150873121529623,-0.5700773127146175,-0.17787499289712336,2
509,2024-09-19 21:20:39.129070068,0,011,0.5300511344902685,-0.44439856420528007,0.17143064931250968,0.23888782415037585,0.2983289732074065,-0.2974652539462514,-0.17114940139597373,-0.2500298595653581,2
510,2024-09-19 21:20:39.203039795,0,011,0.447358068136147,-0.3808650884925423,0.21309641720722844,0.23916430609825132,0.25253992813495285,-0.2775655383564059,0.23830793644345932,-0.32614323419195196,2
511,2024-09-19 21:20:40.142605957,0,011,0.35593880503822584,-0.31270566327585386,0.25321326695290425,0.23415940218444684,0.20484134997519216,-0.25497768653893504,0.641095958055887,-0.4024103964480541,2
512,2024-09-19 21:20:40.204166016,0,011,0.2563161342129913,-0.24094571673158097,0.29016909834157734,0.22312343609850585,0.1556267665081691,-0.2294170891333854,1.0213266385688207,-0.4754452535866146,2
513,2024-09-19 21:20:40.281789062,0,011,0.149496397701956,-0.16680852147134512,0.32282776990946344,0.20559703208042537,0.10534690097439761,-0.20076376519393388,1.3646957217542643,-0.5424374892358255,2
514,2024-09-19 21:20:40.349450195,0,011,0.03698088818885239,-0.09167332704268885,0.3504777854535117,0.18154279133938608,0.05455948140275042,-0.1690858120269548,1.6586540043369211,-0.6012213347852153,2
515,2024-09-19 21:20:40.417166016,0,011,-0.07926297904310566,-0.017026231072106074,0.3727854637565296,0.15141259983005426,0.0038999738929390826,-0.13463703250422712,1.8927290121041431,-0.6503052454268282,2
516,2024-09-19 21:20:40.483676025,0,011,-0.19689618863472447,0.05559878585785937,0.38970750171564744,0.11615234427701562,-0.04600175856194976,-0.09782798064803588,2.0590262168590607,-0.688882282825176,2
517,2024-09-19 21:20:40.552588867,0,011,-0.3133582243357333,0.12469022657611117,0.4013079144080188,0.07714953821992897,-0.09458335217535672,-0.059183533645036514,2.1526598318950625,-0.7168015944258995,2
518,2024-09-19 21:20:41.490957031,0,011,-0.42603115441545675,0.18883264217284804,0.407462120024189,0.03614573335303947,-0.14134420004746712,-0.019305057720811817,2.1718074563732337,-0.7344721745738518,2
519,2024-09-19 21:20:41.563156982,0,011,-0.532381787137015,0.2467690613819504,0.4075504763499452,-0.004860917722267681,-0.18579301420337888,0.021154267042983052,2.11732935507131,-0.742694898355783,2
520,2024-09-19 21:20:41.616879883,0,011,-0.6300755726236366,0.297442886884632,0.40031946847143024,-0.04371363864977658,-0.22741059814686862,0.06150628352980712,1.99219979365465,-0.7424485140218938,2
521,2024-09-19 21:20:41.692947021,0,011,-0.7170655524300582,0.340019528790624,0.3840245635129409,-0.07820411730537284,-0.2656611447336435,0.10104365305318752,1.8010649305835709,-0.7346690405177992,2
522,2024-09-19 21:20:41.766253906,0,011,-0.7916471502134838,0.37389376608150177,0.3568452851979914,-0.10620950520577614,-0.30002348217151165,0.13905216949208854,1.5500552928737645,-0.7200573747520622,2
523,2024-09-19 21:20:41.832685059,0,011,-0.8524689822691164,0.3986884518351182,0.3174397158325021,-0.1258705158709175,-0.3299978663997289,0.17481462370874634,1.2468155371261667,-0.6989524111871344,2
524,2024-09-19 21:20:41.895628906,0,011,-0.8985074702597415,0.41424560327606896,0.26542161343842197,-0.13578131075555241,-0.35507544051509116,0.20760877823660687,0.9006799919101219,-0.6713265013752447,2
525,2024-09-19 21:20:42.846069092,0,011,-0.9290279797046139,0.42060684660459674,0.20160986228156721,-0.135133223478479,-0.3746933014563563,0.23670996411376344,0.5228594134415473,-0.6369476265471345,2
526,2024-09-19 21:20:42.900492920,0,011,-0.9435553398561831,0.41798192676280155,0.12806110839431326,-0.12377683484943997,-0.38822368407681307,0.2614116484445443,0.12644840130373303,-0.59568900461876,2
527,2024-09-19 21:20:42.977656982,0,011,-0.941866168608291,0.40671115963690135,0.047928389277448843,-0.10220055850629368,-0.3950379802533397,0.2810714489378581,-0.2738347634128917,-0.5478997580193642,2
528,2024-09-19 21:20:43.049191895,0,011,-0.9239994215206434,0.38723269126780513,-0.03486669396180015,-0.07143305106807958,-0.3946336736452804,0.2951761552824825,-0.6621298350010371,-0.4947136331173101,2
529,2024-09-19 21:20:43.116875977,0,011,-0.8902680650894244,0.3600619445610051,-0.11607848173085328,-0.03289649167633039,-0.38676585132429286,0.30340765867466624,-1.0220661325237224,-0.43818172993310534,2
530,2024-09-19 21:20:43.179632812,0,011,-0.8412671207642473,0.32578367746921794,-0.19151007217168922,0.011735632153622562,-0.37153482025586876,0.30569133870996024,-1.3375310437357648,-0.38117887616143914,2
531,2024-09-19 21:20:43.241625977,0,011,-0.7779008340027942,0.2850547749191216,-0.25721620339878704,0.06064514836929998,-0.34942607685667987,0.3022180061344811,-1.5936715313674543,-0.32711518256190975,2
532,2024-09-19 21:20:44.171687988,0,011,-0.7014396008383247,0.23861566021139483,-0.3096194219151496,0.11196040924267527,-0.3213185974063988,0.2934405986661329,-1.7782277902665717,-0.27952911270159275,2
533,2024-09-19 21:20:44.228649902,0,011,-0.6135710669779183,0.18730530537260007,-0.34564815397048476,0.16386151516453998,-0.288455822763256,0.280049682089284,-1.8830272078338204,-0.24164310476326414,2
534,2024-09-19 21:20:44.306756104,0,011,-0.5163964311362298,0.13207201284515696,-0.36293847472667795,0.2147000874732034,-0.25236197905302843,0.2629312439782611,-1.9051073347311078,-0.21596155401661427,2
535,2024-09-19 21:20:44.370207031,0,011,-0.41236053105184906,0.0739733180230526,-0.36011605015051096,0.2631149754738442,-0.21471709880614312,0.243111895226114,-1.8469213244597997,-0.20398182933604012,2
536,2024-09-19 21:20:44.431166992,0,011,-0.30415254805323527,0.014163355937862384,-0.33712051453217023,0.3081216606721561,-0.17722936416684212,0.2216965750983559,-1.7155403789565706,-0.206052543974417,2
537,2024-09-19 21:20:44.509760986,0,011,-0.1946219870834768,-0.04613084483784359,-0.2954373484726893,0.3491553949109519,-0.14152421868408563,0.19980122409625456,-1.5212756273117891,-0.22137808673456782,2
538,2024-09-19 21:20:44.566818848,0,011,-0.08670534023497853,-0.10564563436164272,-0.23809879373492318,0.38606216024304685,-0.10904662195550582,0.1784817387970495,-1.2762256382362969,-0.24816426643136263,2
539,2024-09-19 21:20:45.521004883,0,011,0.016683832162617433,-0.1631334913732761,-0.16942856345361065,0.41905006409645534,-0.08098153821025723,0.15866142036620495,-0.9930237644513691,-0.2838923783098604,2
540,2024-09-19 21:20:45.582303955,0,011,0.1128150012060701,-0.21743033913920895,-0.094603949956267,0.4486185462547771,-0.058207561904254766,0.14106282043583676,-0.6839324306441085,-0.3256655750881845,2
541,2024-09-19 21:20:45.656622803,0,011,0.1992992365200398,-0.2675250215409841,-0.019140579033628164,0.47547645569928765,-0.04127891664298776,0.12615482797753144,-0.3604397242109232,-0.37053468543438134,2
542,2024-09-19 21:20:45.721616943,0,011,0.2741926576660339,-0.3126135664488949,0.051586077450071516,0.5004555569512897,-0.030408796484477026,0.11412572847373585,-0.03335716666576271,-0.41572987749910567,2
543,2024-09-19 21:20:45.783634033,0,011,0.3360471105018161,-0.35212670513783284,0.11271752772493437,0.5244177171860948,-0.025439499643682847,0.10488623483128082,0.2868846216473312,-0.45877932425374535,2
544,2024-09-19 21:20:45.859781982,0,011,0.3839434697366138,-0.38573105305307537,0.16022955872114816,0.5481450672776474,-0.02581557638827095,0.09809820248186933,0.5901553100315692,-0.4975444763774257,2
545,2024-09-19 21:20:45.927443115,0,011,0.4175255504942452,-0.4133132793125883,0.19125491652606577,0.5722158879945475,-0.030588410936159615,0.0932212849827306,0.8669618490710322,-0.5302259197677338,2
546,2024-09-19 21:20:46.866449951,0,011,0.4370190565589147,-0.43495666677008515,0.20438384913750862,0.5968924797309169,-0.03847221188990593,0.08957344671639494,1.1090561722789294,-0.55537816557194,2
547,2024-09-19 21:20:46.928935059,0,011,0.44320207499285186,-0.45091221546654864,0.19985962783894515,0.6220456019251296,-0.04795333463745252,0.08640398142432054,1.3099556009830609,-0.5719245103166275,2
548,2024-09-19 21:20:47.006593018,0,011,0.43730820372144136,-0.46156057456755484,0.17963124904984884,0.6471235309655001,-0.05743456171779753,0.08297194945404192,1.4651071113011358,-0.5791380372155354,2
549,2024-09-19 21:20:47.074403076,0,011,0.42088740968817495,-0.4673627915220666,0.14726675141563486,0.6711707015224889,-0.0653834640286164,0.07861715038373572,1.571693798823352,-0.5765807785375026,2
550,2024-09-19 21:20:47.142123047,0,011,0.3956784376736781,-0.4688035116666271,0.10773628195489203,0.6928979706921041,-0.0704538094381747,0.07281466001004254,1.628265080976536,-0.5640323575827334,2
551,2024-09-19 21:20:47.209840088,0,011,0.3635233353860949,-0.4663339163683513,0.06710336500321427,0.7107893397448286,-0.07156629572281642,0.06521152516230865,1.6343595518168654,-0.5414408249828337,2
552,2024-09-19 21:20:47.270207764,0,011,0.32631298123403796,-0.46032084793884354,0.032167531909694035,0.7232225522066208,-0.06795716444018486,0.05564550742350373,1.5901844939535343,-0.5088938664991476,2
553,2024-09-19 21:20:48.208012939,0,011,0.28593917606751196,-0.45100305159452536,0.01004697846904687,0.728590385281159,-0.05919988315890827,0.044143889053102646,1.4964036952794006,-0.4666004831738085,2
554,2024-09-19 21:20:48.289051025,0,011,0.2442404410406069,-0.43845056836628077,0.0076716498288231915,0.7254113516201778,-0.045186294049418985,0.030904834533490112,1.3541836969375463,-0.4149149528618431,2
555,2024-09-19 21:20:48.347808105,0,011,0.20294712416973745,-0.4225264888903787,0.031205442491519998,0.7124153128872894,-0.02605295345767715,0.016269251787362004,1.1656383332397686,-0.3544495646585802,2
556,2024-09-19 21:20:48.424398926,0,011,0.16364615051375633,-0.4028603668968638,0.0854378792194616,0.6886027663776045,-0.00205804978366455,0.0006861040565692535,0.9345694719054569,-0.28626158710041777,2
557,2024-09-19 21:20:48.487520996,0,011,0.12778346820127912,-0.3788497410837735,0.17312341021676236,0.6533011097714848,0.026559358520382544,-0.015332033491520472,0.667140167444106,-0.21203037069636185,2
558,2024-09-19 21:20:48.559837891,0,011,0.09670098186314019,-0.34970093018845144,0.29423023028540846,0.60624579705168,0.059692417229024936,-0.03126103104485375,0.37211311921037504,-0.1341358085845115,2
559,2024-09-19 21:20:48.627521973,0,011,0.0716775678597296,-0.31450384358575445,0.4452496832539212,0.5476802842080266,0.09741424581964375,-0.04661300900915649,0.060528999029801335,-0.055601005998165275,2
560,2024-09-19 21:20:49.546441162,0,011,0.05393254152399216,-0.27232336299946613,0.6189136526122203,0.4784307717878547,0.1399427538075361,-0.0609661366255031,-0.25506115189056167,0.020086571087086787,2
561,2024-09-19 21:20:49.614159180,0,011,0.04457087367840643,-0.2222945015313752,0.8045617215041871,0.39991489896566423,0.18754240115384832,-0.07397407604839541,-0.561582840760288,0.08924515201712996,2
562,2024-09-19 21:20:49.673447998,0,011,0.04448628485809671,-0.1637227163099485,0.9891118507604454,0.3140751267242074,0.24041510611727135,-0.08536933697284042,-0.8463742979421647,0.14832479193025203,2
563,2024-09-19 21:20:49.737451904,0,011,0.054257746539675765,-0.0961963344000291,1.1584056678406196,0.223255918210294,0.2986130129246182,-0.09497636967603142,-1.0978886666148522,0.19423787849907578,2
564,2024-09-19 21:20:49.813442871,0,011,0.07406558824213721,-0.019706803839335835,1.2986607658652172,0.13005614243392286,0.3619641065523922,-0.10273245847309989,-1.306235202902328,0.22463614515895067,2
565,2024-09-19 21:20:49.875088867,0,011,0.103632420172045,0.06524466971602422,1.397784660435482,0.0371809873481336,0.4299997528242391,-0.10869920842766886,-1.463735597742427,0.23808414188914107,2
566,2024-09-19 21:20:49.937087891,0,011,0.14219085092662717,0.15757931588014357,1.4463646557828902,-0.05269422515941936,0.5019072056035359,-0.11305376253169644,-1.5654362308531127,0.23409422162034674,2
567,2024-09-19 21:20:50.895833984,0,011,0.18849761126876802,0.2556243266671332,1.4382698601503519,-0.13704175250927236,0.5765408250837754,-0.11606588289808194,-1.6092968444845703,0.21302519712283616,2
568,2024-09-19 21:20:50.963644043,0,011,0.24091046089054974,0.3571488868363312,1.3709294927519053,-0.21357883154161442,0.652479009455883,-0.11806996441797037,-1.5959034205361604,0.1758935224712416,2
569,2024-09-19 21:20:51.021642090,0,011,0.29750912200529567,0.4594561720906713,1.245349819028041,-0.2803429466773053,0.7280781119691777,-0.11943229706912245,-1.5279006659476502,0.12417323798266931,2
570,2024-09-19 21:20:51.083775146,0,011,0.35623235810083936,0.5595391450749679,1.065859092420828,-0.33574869691107245,0.8015191684522875,-0.12051368204253528,-1.409510747286509,0.05964763925619269,2
571,2024-09-19 21:20:51.161427979,0,011,0.4150397601059172,0.6542934691824793,0.8396019261915163,-0.378648695726931,0.8708936979421384,-0.12163462848147713,-1.24630690838021,-0.01567991636475046,2
572,2024-09-19 21:20:51.223458008,0,011,0.4721201673949995,0.7407495207924344,0.5758706466854548,-0.4084104301809822,0.9343425439804397,-0.12305141730041182,-1.0450908631571802,-0.09965283120610992,2
573,2024-09-19 21:20:51.301121094,0,011,0.5261185224034163,0.8162715227387622,0.28534419515935355,-0.42497502339059323,0.9902000557299666,-0.12494556444555543,-0.8136506531800276,-0.19002953452582588,2
574,2024-09-19 21:20:52.236548096,0,011,0.5763022295832325,0.8786951401832701,-0.020685975004688516,-0.4288552713063902,1.0370925621791212,-0.12742184502731846,-0.56040597438422,-0.2845418144363126,2
575,2024-09-19 21:20:52.313760986,0,011,0.6226057717987608,0.9264085973607168,-0.3309501670502625,-0.4210762689791709,1.0739879996610926,-0.13050754607554305,-0.29410122564199204,-0.3809277301089847,2
576,2024-09-19 21:20:52.381413086,0,011,0.6655552436806107,0.9583953161571906,-0.6345740439723017,-0.40309350303289376,1.100226845713662,-0.13415345799786724,-0.023522529569537598,-0.4769404954255351,2
577,2024-09-19 21:20:52.436945801,0,011,0.7061158669408129,0.974249556455688,-0.9212655116045658,-0.37670942665596524,1.1155481855648117,-0.13824615630517512,0.24292903154745102,-0.5703336012284816,2
578,2024-09-19 21:20:52.516011963,0,011,0.7455000095442298,0.9741668387428908,-1.1815290262943787,-0.3439844037124491,1.1200983047846518,-0.14263913386423602,0.4977784030180967,-0.6588202612008098,2
579,2024-09-19 21:20:52.576902100,0,011,0.7849520162011436,0.9589076612806059,-1.4070264698286317,-0.30713045334814676,1.114421863844223,-0.1472008063501033,0.7349147751766226,-0.7400365709020997,2
580,2024-09-19 21:20:52.639033936,0,011,0.8255285491927797,0.9297363087942822,-1.5910201070721497,-0.26838569591035294,1.0994598943927614,-0.15186920623939953,0.9497998627642039,-0.8115655003549962,2
581,2024-09-19 21:20:53.592187988,0,011,0.867909439449774,0.888341195825705,-1.7287664405698921,-0.229884353140553,1.076567930359269,-0.1567020704455272,1.1394694988967444,-0.8710533641170376,2
582,2024-09-19 21:20:53.656806885,0,011,0.9122711595701588,0.8367433166473905,-1.81774639141515,-0.19355112227573168,1.0475304645253283,-0.16191469483673468,1.3023968913764603,-0.9164014031488729,2
583,2024-09-19 21:20:53.717395020,0,011,0.9582327208646166,0.7771953446542729,-1.8576469822600077,-0.16104426540028446,1.0145115442798163,-0.16789466579316753,1.4382914344129525,-0.945990998827377,2
584,2024-09-19 21:20:53.795743896,0,011,1.0048641903711077,0.7120735680190317,-1.8500982716380723,-0.13374626068772508,0.9798771219029342,-0.17517706396538033,1.547859260232303,-0.9588913763107828,2
585,2024-09-19 21:20:53.866928223,0,011,1.0507416183371312,0.6437711455277882,-1.7982774133185588,-0.11278174943557369,0.9458911248480916,-0.1843753122579368,1.6324444910951514,-0.9549908943390416,2
586,2024-09-19 21:20:53.934478027,0,011,1.094032908460105,0.5746058963822176,-1.706496337687182,-0.09904810429235997,0.9143925590873155,-0.19608739475737888,1.6935084388620547,-0.9350141802656353,2
587,2024-09-19 21:20:53.996964844,0,011,1.1326028409911573,0.5067505237884907,-1.5798418469795972,-0.0932452672714445,0.88658995406817,-0.21081035329640674,1.7320902792146893,-0.9004344369319054,2
588,2024-09-19 21:20:54.916672852,0,011,1.1641334792537332,0.4421815139520475,-1.4239420440270854,-0.09587060394150003,0.8630145577730548,-0.22888724633037422,1.7484298987966087,-0.8533238390398237,2
589,2024-09-19 21:20:54.979234863,0,011,1.186259875219349,0.3826379274101615,-1.2448967855185962,-0.10714810901296724,0.8435707424137076,-0.25049117668131504,1.7418351857523624,-0.7961935513795536,2
590,2024-09-19 21:20:55.056868164,0,011,1.1967157084616713,0.3295878096198319,-1.0492703667073533,-0.1269192952829114,0.8276244057945175,-0.2756350752706787,1.710860211841094,-0.73185896530943,2
591,2024-09-19 21:20:55.119353027,0,011,1.1934819030403476,0.284207582950694,-0.8439678400547742,-0.15456968764147042,0.8141229817951476,-0.3041894985589406,1.6538272192676273,-0.6633300798054008,2
592,2024-09-19 21:20:55.192547119,0,011,1.17493383073039,0.24737707679489557,-0.6359260842583441,-0.18903040077577085,0.8017441874975029,-0.33589387254364717,1.5695744393417783,-0.5937082619056838,2
593,2024-09-19 21:20:55.260260986,0,011,1.1399730976709612,0.21968267056623675,-0.43173671181486156,-0.22882439926234804,0.789034161745696,-0.37035444941127094,1.4582179611560089,-0.526075619190065,2
594,2024-09-19 21:20:55.327923096,0,011,1.0881143263960404,0.20141746721813306,-0.23739198925602778,-0.27211274731523516,0.7744874398327692,-0.40703038840842803,1.3217191280464549,-0.46335814314959123,2
595,2024-09-19 21:20:56.271894043,0,011,1.0195024464070614,0.19257641349538945,-0.05823997466000754,-0.3167390053293595,0.7565735904238723,-0.44521917950183487,1.1640692127951495,-0.4081499784842848,2
596,2024-09-19 21:20:56.336451904,0,011,0.9348615541258346,0.19285547697873895,0.10093758970481789,-0.3603040591004045,0.7337828029608037,-0.48405817599170925,0.9910479372368545,-0.36252917328604334,2
597,2024-09-19 21:20:56.398454834,0,011,0.8353994569579618,0.20166545891900334,0.23588406658094474,-0.40029717929636344,0.7047621319336529,-0.5225518403871456,0.8097312702161998,-0.327911295416916,2
