,time,MARKER,pid,L_O_DSI,L_D_DSI,L_O_DSphi,L_D_DSphi,R_O_DSI,R_D_DSI,R_O_DSphi,R_D_DSphi,trial_id
0,2024-09-19 22:34:37.832001024,TASK_BEGIN,012,0.13573963119588428,0.6572687027602824,-0.8760947127936254,-0.10594883668213842,1.132993057937709,0.005211249113509915,6.128724987065738,-1.377821329685296,1
1,2024-09-19 22:34:37.909662720,TASK_BEGIN,012,0.35782480348630735,0.5329261855236803,0.2597493682006732,-0.03489688163581193,0.6928944192531685,0.09226734201482593,7.6420641222198595,-1.6047484986800142,1
2,2024-09-19 22:34:37.971464192,TASK_BEGIN,012,0.5786025904793585,0.4101531306272863,1.3723382693963928,0.03579727789527141,0.2707886878643295,0.17532697618218923,9.108323898072868,-1.8233687175746687,1
3,2024-09-19 22:34:38.049827072,TASK_BEGIN,012,0.7959779754898508,0.2910571637839518,2.4385201280302775,0.10338457245755935,-0.11784411942224048,0.251138593774532,10.49043667132848,-2.028304608668852,1
4,2024-09-19 22:34:38.117558016,TASK_BEGIN,012,1.0082023322909361,0.1775499725238868,3.4384140129964527,0.1653924982207304,-0.46060797234464396,0.31710823683819095,11.755270736924123,-2.214214956503112,1
5,2024-09-19 22:34:38.185358080,TASK_BEGIN,012,1.213904697166518,0.07125925361482366,4.356736669673063,0.21966846840211282,-0.7490608405841891,0.37149015856447776,12.876081711302238,-2.376059669458782,1
6,2024-09-19 22:34:38.253146880,TASK_BEGIN,012,1.412009112390431,-0.02652685564405054,5.183741486501487,0.264337060227572,-0.9790154451766623,0.4134575928611097,13.834809371980512,-2.5094933319380384,1
7,2024-09-19 22:34:39.181357056,TASK_BEGIN,012,1.6015935469353666,-0.11487216188435494,5.915535049398999,0.29776026801635513,-1.1503326024006886,0.44306810307257116,14.623489977542604,-2.6112541568099408,1
8,2024-09-19 22:34:39.259068928,TASK_BEGIN,012,1.7817502496917728,-0.1931658059405623,6.55372464051281,0.3185832729757287,-1.266340078305994,0.4611533783570199,15.244320195020041,-2.6794873330012106,1
9,2024-09-19 22:34:39.321553920,TASK_BEGIN,012,1.9514925593981742,-0.26108216148845187,7.104658323021412,0.3258692053363533,-1.3329979154814684,0.4691608088431944,15.7082182089625,-2.7139543423021153,1
10,2024-09-19 22:34:39.384258048,TASK_BEGIN,012,2.109729749732781,-0.31855235240338525,7.578493778987913,0.3192465093587896,-1.3579318443448136,0.46897146866587003,16.032297739308678,-2.7160940650447105,1
11,2024-09-19 22:34:39.461134080,TASK_BEGIN,012,2.255302022624601,-0.3657486010290074,7.988115975227748,0.2989737226602572,-1.3494878123520835,0.46271913159789263,16.237259342291868,-2.688988539267574,1
12,2024-09-19 22:34:39.522757120,TASK_BEGIN,012,2.387050196287584,-0.4030650400074055,8.347906831850569,0.2658748268855301,-1.3159642568918168,0.4526304169931578,16.345501656844192,-2.637290047211688,1
13,2024-09-19 22:34:39.603191040,TASK_BEGIN,012,2.503907493766981,-0.43108424166238224,8.672417944104994,0.22119036372694337,-1.2650972059302161,0.4408945412078389,16.3800785401999,-2.5670832385218314,1
14,2024-09-19 22:34:40.546511872,TASK_BEGIN,012,2.6050132711821496,-0.45053178850166736,8.975000991024977,0.16644917714723526,-1.2037436305490203,0.4295570028665431,16.364189448564435,-2.4856262124880635,1
15,2024-09-19 22:34:40.614405120,TASK_BEGIN,012,2.6898319919129268,-0.4622245920956406,9.266565181055935,0.10341117396982141,-1.137662065470743,0.4204233678148977,16.320770395944713,-2.4009357336172603,1
16,2024-09-19 22:34:40.682087936,TASK_BEGIN,012,2.7582381305284507,-0.4670155500876289,9.554681217243742,0.03401322164414064,-1.0713640976599434,0.4149658162240382,16.271958104083797,-2.3212242644191754,1
17,2024-09-19 22:34:40.749852160,TASK_BEGIN,012,2.8105264683499573,-0.46573518810706477,9.843069929096256,-0.039775288274702655,-1.0080879602116513,0.41424580835594393,16.238484090029228,-2.2542628832864393,1
18,2024-09-19 22:34:40.808002048,TASK_BEGIN,012,2.8473466785245836,-0.45913512126645256,10.131433996905239,-0.11617799078317005,-0.9499233528727923,0.41887956320592057,16.239047038696718,-2.2067858894923704,1
19,2024-09-19 22:34:40.871889152,TASK_BEGIN,012,2.869620760567015,-0.4478492829543108,10.415674302759266,-0.19380102510750752,-0.8980329553009683,0.4290591439201079,16.28953597709566,-2.184020273068509,1
20,2024-09-19 22:34:40.948457984,TASK_BEGIN,012,2.878503455662059,-0.43239232967609853,10.688453771786296,-0.2716467999726729,-0.852882557348471,0.4446149574146519,16.40193030091332,-2.1893408186357344,1
21,2024-09-19 22:34:41.856910848,TASK_BEGIN,012,2.8753814536586284,-0.4131983803041921,10.940022713050897,-0.3488954572575107,-0.8144440700652299,0.46509299485318145,16.582905202122593,-2.2240076641310007,1
22,2024-09-19 22:34:41.934103040,TASK_BEGIN,012,2.861866413580873,-0.3906808928428317,11.159379092450862,-0.4245496312745724,-0.7823989972610144,0.4898263346429364,16.832472447882875,-2.2869742511433744,1
23,2024-09-19 22:34:41.996591104,TASK_BEGIN,012,2.839754106027278,-0.36528749972413443,11.335751936380104,-0.49713468792659,-0.7563587655971582,0.5179919034123673,17.143141042168217,-2.374797435340565,1
24,2024-09-19 22:34:42.075087104,TASK_BEGIN,012,2.810959296532517,-0.33753705267406614,11.460077738417706,-0.5646122368521562,-0.7360394914085154,0.5486518877297095,17.500078166723306,-2.481707923903353,1
25,2024-09-19 22:34:42.136611072,TASK_BEGIN,012,2.7774644318316715,-0.3080448678142898,11.526145734262379,-0.6245520996078734,-0.72129711401393,0.5807868549015044,17.882569234512786,-2.599944502911395,1
26,2024-09-19 22:34:42.198631168,TASK_BEGIN,012,2.7413094401282625,-0.2775435643364992,11.53134467526191,-0.6744902249811068,-0.7120200513353971,0.6133367405228851,18.266686426908784,-2.7204577040907574,1
27,2024-09-19 22:34:42.275853056,TASK_BEGIN,012,2.704589093565509,-0.24688924931985365,11.477045876908667,-0.7123379110454632,-0.7079791332235037,0.6452648501070897,18.628660012691952,-2.833924883036142,1
28,2024-09-19 22:34:43.217809920,TASK_BEGIN,012,2.6693875538467227,-0.21703420633252876,11.368594570285845,-0.7367305636391224,-0.7087166518726705,0.6756407995922846,18.948102192300368,-2.9318034605085144,1
29,2024-09-19 22:34:43.279352064,TASK_BEGIN,012,2.637632189407235,-0.18896619493784156,11.214777101578957,-0.7472559729405076,-0.7134863677503661,0.7037194771188154,19.210194750507497,-3.0071559027089387,1
30,2024-09-19 22:34:43.342308096,TASK_BEGIN,012,2.6109179029155842,-0.1636385819555873,11.026654776861779,-0.7445168640944418,-0.7212519241020652,0.7289935702939003,19.406604228077136,-3.0551900272974035,1
31,2024-09-19 22:34:43.419975168,TASK_BEGIN,012,2.5903449455504743,-0.14191339714916276,10.815984716503474,-0.7299957333274428,-0.7307576420160815,0.7512073936487648,19.535676324155272,-3.073585345563739,1
32,2024-09-19 22:34:43.482115840,TASK_BEGIN,012,2.5763740635296903,-0.12451544729639734,10.593827797376022,-0.7057691438132915,-0.7406153226591701,0.7703251593428078,19.602422152596436,-3.0626281784794958,1
33,2024-09-19 22:34:43.559789056,TASK_BEGIN,012,2.5687252196207537,-0.11198226370105667,10.369866300675417,-0.6742051678961596,-0.7493161464507501,0.7864553160259705,19.61815400270428,-3.0251086823348854,1
34,2024-09-19 22:34:43.628423936,TASK_BEGIN,012,2.566390653103461,-0.10460677385309523,10.15240586007342,-0.6377452333417433,-0.7552113619028773,0.7997551810400019,19.59918078825809,-2.9659382742239537,1
35,2024-09-19 22:34:44.557110016,TASK_BEGIN,012,2.5677898422178487,-0.1023867847706751,9.948560658928637,-0.5987464974081794,-0.756638104783104,0.8103579403226886,19.564127832616588,-2.8915067077904832,1
36,2024-09-19 22:34:44.634085888,TASK_BEGIN,012,2.5710049756225564,-0.10500006139364022,9.764157878468977,-0.5593063815471963,-0.7522451277878865,0.8183480788749696,19.530186306018177,-2.8088704312875716,1
37,2024-09-19 22:34:44.707662080,TASK_BEGIN,012,2.5740385314993577,-0.11182137575971582,9.60333686317688,-0.5210607043024025,-0.7413318371809485,0.8237738624771506,19.509355399578585,-2.724882409405925,1
38,2024-09-19 22:34:44.773494784,TASK_BEGIN,012,2.5750919775452363,-0.12198723975689255,9.46821222137372,-0.4850319695185293,-0.7239869892302134,0.8266667405047357,19.505755136161,-2.645338754881213,1
39,2024-09-19 22:34:44.835983104,TASK_BEGIN,012,2.572845316619452,-0.13449277208852523,9.358988709112493,-0.451614260891051,-0.7009958865268565,0.8270476244684312,19.514528318278543,-2.5742530606118756,1
40,2024-09-19 22:34:44.898468096,TASK_BEGIN,012,2.566653714020513,-0.1482938289491981,9.274533378806293,-0.4207122216665112,-0.6736219890164619,0.8249211738598488,19.52254448732981,-2.513480304929281,1
41,2024-09-19 22:34:44.976133120,TASK_BEGIN,012,2.5565766644639765,-0.16239565017646557,9.21300515039056,-0.3919603049746525,-0.6433712834105378,0.8202743414547281,19.510992826399477,-2.4628775665680664,1
42,2024-09-19 22:34:45.915134976,TASK_BEGIN,012,2.5432280467171466,-0.17591820003400727,9.172239345396141,-0.36493217018770935,-0.6117901271031949,0.8130911505848885,19.45927042818996,-2.420924201884421,1
43,2024-09-19 22:34:45.981967104,TASK_BEGIN,012,2.5275269515338508,-0.18813236389668184,9.150004424352105,-0.3393078343627151,-0.5803122561280255,0.8033800393424193,19.348806041640813,-2.385480993319028,1
44,2024-09-19 22:34:46.041090048,TASK_BEGIN,012,2.510460541139118,-0.1984690629931122,9.14432478596246,-0.31499545965059866,-0.5501792446552889,0.7912065820997654,19.16575449245599,-2.3543867794383586,1
45,2024-09-19 22:34:46.117584896,TASK_BEGIN,012,2.492912218140108,-0.20651134080024006,9.153819165322938,-0.29219825974835417,-0.5224508194327975,0.7767301345957874,18.9024640040749,-2.3258072181606106,1
46,2024-09-19 22:34:46.179104000,TASK_BEGIN,012,2.4755471845110018,-0.2119819218308342,9.177831946625664,-0.27141047115003575,-0.49808225392957356,0.7602414694067091,18.558034590506168,-2.2984373369176456,1
47,2024-09-19 22:34:46.256843008,TASK_BEGIN,012,2.458743478053368,-0.21473549876653317,9.216110577384475,-0.2533111170605431,-0.4780179523263684,0.7421897990182535,18.13818232602354,-2.2716735566754425,1
48,2024-09-19 22:34:46.318838016,TASK_BEGIN,012,2.4425679055688176,-0.21475625342542673,9.267998980968526,-0.23854811465876816,-0.46323939645148277,0.7231789198637674,17.654692670299365,-2.2457597471693167,1
49,2024-09-19 22:34:47.238092032,TASK_BEGIN,012,2.4268009077861037,-0.21215411514203292,9.33147929977968,-0.2274766019839503,-0.4547268170203403,0.7039145893470362,17.12492352955292,-2.2218507540713675,1
50,2024-09-19 22:34:47.311083008,TASK_BEGIN,012,2.4110134579050744,-0.20715426833690648,9.402556156933487,-0.21995903709646764,-0.4533486361573053,0.6851071986824007,16.571512312439697,-2.201954513542364,1
51,2024-09-19 22:34:47.383153920,TASK_BEGIN,012,2.394681010476841,-0.2000795963747963,9.47540568249501,-0.21533203291171987,-0.4597372321026805,0.6673636418771431,16.021601110411567,-2.188687171912809,1
52,2024-09-19 22:34:47.450712832,TASK_BEGIN,012,2.377299239983841,-0.19132804090467492,9.543411915990571,-0.21256966706004282,-0.4742229047762108,0.6511143529601,15.504614904172143,-2.1847766222014324,1
53,2024-09-19 22:34:47.513198080,TASK_BEGIN,012,2.358447156042744,-0.1813412786630801,9.600649522083172,-0.21052731238218025,-0.49685823041297617,0.6366025801282127,15.048647799234628,-2.1924041450271523,1
54,2024-09-19 22:34:47.574724096,TASK_BEGIN,012,2.33774297283758,-0.17055712685862115,9.643006812736104,-0.20810281137124284,-0.5274762926339395,0.6239280400942311,14.67669369753113,-2.2126142197799705,1
55,2024-09-19 22:34:47.646411008,TASK_BEGIN,012,2.3147140802614263,-0.15935235874820206,9.66848002278656,-0.20428910885349938,-0.5656940900406949,0.6131120200728056,14.404059416576905,-2.244981389967011,1
56,2024-09-19 22:34:48.597088000,TASK_BEGIN,012,2.288703047563203,-0.1480025152913456,9.67687508794569,-0.19822497490083768,-0.6108500003294884,0.6041474373594815,14.237508812440996,-2.2875701128115864,1
57,2024-09-19 22:34:48.664868096,TASK_BEGIN,012,2.258928695038477,-0.1366816303520618,9.669459545840462,-0.18931944790155222,-0.6619328022539668,0.5970120092618821,14.175764864091036,-2.337092608078321,1
58,2024-09-19 22:34:48.720357888,TASK_BEGIN,012,2.2247107853847794,-0.12549792617619995,9.648877934286828,-0.17743249034389225,-0.7175414649131151,0.5916462211701051,14.210741950350597,-2.3891807588326017,1
59,2024-09-19 22:34:48.798005248,TASK_BEGIN,012,2.1857527400145793,-0.11453695648397294,9.619286058797984,-0.1630520232137062,-0.7758996232886255,0.5879187403322045,14.329341180748036,-2.4387932184420285,1
60,2024-09-19 22:34:48.862009088,TASK_BEGIN,012,2.1423478193326377,-0.10388322459436827,9.586391312651513,-0.14737910676128413,-0.8349695628239748,0.585606714559185,14.515755451013808,-2.48076281450985,1
61,2024-09-19 22:34:48.922398208,TASK_BEGIN,012,2.095442425673813,-0.09361686389651383,9.557045897242121,-0.13224686116099613,-0.8926668427008944,0.5844011240901447,14.753763463123002,-2.5103708809220797,1
62,2024-09-19 22:34:48.999589888,TASK_BEGIN,012,2.046582664530194,-0.08380723322035917,9.53838352333438,-0.11991446003337122,-0.9470809987959924,0.5839272785488899,15.028465797235066,-2.5238457671115904,1
63,2024-09-19 22:34:49.947139840,TASK_BEGIN,012,1.9978033923890723,-0.07452064307995002,9.536838406465874,-0.11284794460093339,-0.9965976580948307,0.5837701774482437,15.327450149160288,-2.5187944056445,1
64,2024-09-19 22:34:50.001521920,TASK_BEGIN,012,1.9514837085911636,-0.06583404158195605,9.557246854599772,-0.11350706466317453,-1.0399034200798,0.5835037073808864,15.641571488544463,-2.4945625624571806,1
65,2024-09-19 22:34:50.078710016,TASK_BEGIN,012,1.9101532305105944,-0.05783634324226911,9.60199885567089,-0.12407044185388662,-1.0759312050513752,0.582723301486431,15.965256353428906,-2.452402766501518,1
66,2024-09-19 22:34:50.150477056,TASK_BEGIN,012,1.876236309368247,-0.05061231566699258,9.670352616968461,-0.1460882222320129,-1.1038179361570275,0.581078081453685,16.296071923674596,-2.3953064340633348,1
67,2024-09-19 22:34:50.218337280,TASK_BEGIN,012,1.8517519548705952,-0.04421736852976448,9.758177545364079,-0.18015323594264643,-1.1229073312594922,0.5782977135048231,16.6334991274598,-2.327478641042182,1
68,2024-09-19 22:34:50.280333056,TASK_BEGIN,012,1.838024988076798,-0.03865332287836127,9.858263778609915,-0.22571776172965113,-1.1327695754273814,0.5742082420302418,16.977285906634982,-2.253611301036365,1
69,2024-09-19 22:34:50.342369024,TASK_BEGIN,012,1.8354879033808578,-0.033850727570448914,9.961168905161252,-0.2811335956749849,-1.1331813808261273,0.5687310764608953,17.32601405804573,-2.178198277342515,1
70,2024-09-19 22:34:51.286948096,TASK_BEGIN,012,1.843633195631852,-0.02965946640704394,10.056558225301968,-0.34390434157650596,-1.1240604365237277,0.5618663819482643,17.67620609498713,-2.1050466825699163,1
71,2024-09-19 22:34:51.352418048,TASK_BEGIN,012,1.8611151802084913,-0.02584973116924294,10.135040506739454,-0.41108088167357365,-1.1054325240246314,0.5536724893618807,18.021819018458974,-2.036992009542471,1
72,2024-09-19 22:34:51.427424000,TASK_BEGIN,012,1.8859424199630923,-0.022125547963221543,10.19023132443775,-0.4796895484641979,-1.0775036331620214,0.5442532015079242,18.353886388128043,-1.9757730611751307,1
73,2024-09-19 22:34:51.500624896,TASK_BEGIN,012,1.9157069830097455,-0.018152826995259934,10.220215354360024,-0.547051647070639,-1.0407968974941644,0.5337546819756398,18.660330448628148,-1.9220462250996804,1
74,2024-09-19 22:34:51.567069184,TASK_BEGIN,012,1.94784665780835,-0.013605911802181707,10.227537814800812,-0.610903825153742,-0.9962460495545814,0.5223684167985041,18.926364542622448,-1.8755378425713232,1
75,2024-09-19 22:34:51.628154112,TASK_BEGIN,012,1.9799271849412543,-0.008226966962946475,10.217685385493231,-0.6693345513161878,-0.945205216584816,0.5103415902328883,19.135924465951256,-1.8353043914112395,1
76,2024-09-19 22:34:51.690163968,TASK_BEGIN,012,2.00987061685279,-0.0018729478444801163,10.196936274084921,-0.72062489617013,-0.8894242015993623,0.497995373844689,19.273804468788533,-1.8000092506807168,1
77,2024-09-19 22:34:52.622220032,TASK_BEGIN,012,2.036057201833854,0.005472388447933988,10.170627361183275,-0.7631063885183429,-0.83102254671405,0.485736637672027,19.3275478000437,-1.768121842752963,1
78,2024-09-19 22:34:52.689714944,TASK_BEGIN,012,2.0573053577198555,0.013717193184477894,10.142278685443378,-0.7951156254577645,-0.772440845330453,0.4740426701675352,19.28849492466463,-1.738020020200646,1
79,2024-09-19 22:34:52.750668032,TASK_BEGIN,012,2.0728072995221436,0.022691662936797405,10.11331889130677,-0.8150499672436491,-0.7163495236907454,0.4634187505672503,19.15211349485591,-1.7080505549980467,1
80,2024-09-19 22:34:52.825593088,TASK_BEGIN,012,2.082107165663819,0.032176517354992586,10.083053347502725,-0.8214916286376923,-0.6655051392178527,0.4543480709005527,18.91809497846715,-1.6766249018231645,1
81,2024-09-19 22:34:52.891459840,TASK_BEGIN,012,2.085144682248674,0.04192517105628012,10.048859021154685,-0.8133860445460062,-0.6225327590584381,0.44724998847351266,18.59060807527142,-1.642390129249428,1
82,2024-09-19 22:34:52.961146880,TASK_BEGIN,012,2.0823021161617463,0.051679008043896996,10.006687052624562,-0.7902520564917335,-0.5896482800731341,0.4424524510767211,18.1787331083127,-1.6044622455674098,1
83,2024-09-19 22:34:53.028819200,TASK_BEGIN,012,2.074368601276452,0.06117846099603047,9.951692036829014,-0.7523403638578963,-0.568400600785183,0.4401789349386757,17.696761955880103,-1.5626699092854346,1
84,2024-09-19 22:34:53.966584064,TASK_BEGIN,012,2.062397696186457,0.07017460470803835,9.87869489529074,-0.7006420549304999,-0.5595097200586682,0.4405434740203784,17.16389768544529,-1.5177080056169603,1
85,2024-09-19 22:34:54.034353152,TASK_BEGIN,012,2.047510597306506,0.07844596617491417,9.782436624276372,-0.6367478927021675,-0.5628171137716024,0.44354763295839167,16.60297268560186,-1.4711043189076773,1
86,2024-09-19 22:34:54.106831104,TASK_BEGIN,012,2.0307208990296224,0.08582096826250522,9.657845785166929,-0.5626679152598506,-0.577341915876945,0.4490861038862625,16.038172984131922,-1.4249943201965696,1
87,2024-09-19 22:34:54.167941888,TASK_BEGIN,012,2.0128332728621876,0.09219814870344467,9.500518426758456,-0.48070475034496263,-0.6014411561153391,0.4569709409983297,15.492386958805094,-1.3817916772384964,1
88,2024-09-19 22:34:54.242402048,TASK_BEGIN,012,1.9944276412541775,0.09755378727075628,9.307413289132707,-0.3933737975491303,-0.6330544303575958,0.4669657020428052,14.9852161907861,-1.3438674436935982,1
89,2024-09-19 22:34:54.306157312,TASK_BEGIN,012,1.975904334684642,0.10193449801183886,9.077581048430886,-0.3033101864027315,-0.6699911117776722,0.4788058253866284,14.532233041402076,-1.3132855928599219,1
90,2024-09-19 22:34:54.373352960,TASK_BEGIN,012,1.9575489812549633,0.1054429143687918,8.812626892770053,-0.21313861818938845,-0.7102070561918686,0.49219268856896337,14.14523019723009,-1.2915657382262093,1
91,2024-09-19 22:34:55.320856832,TASK_BEGIN,012,1.9395801875718781,0.10822810330021448,8.516725262947025,-0.12536202987388323,-0.752006906221899,0.5067708762031642,13.83293088867678,-1.2794659995157505,1
92,2024-09-19 22:34:55.388658944,TASK_BEGIN,012,1.9221715893276594,0.11048371434801948,8.196353956514978,-0.04234195703321531,-0.7941132099314611,0.522108375945334,13.601620199324868,-1.2768349111892572,1
93,2024-09-19 22:34:55.455823104,TASK_BEGIN,012,1.9054751805575172,0.11244531655191652,7.860010462604268,0.03366245714972614,-0.8355833301803628,0.5376936237645463,13.455132972657722,-1.2825899496460482,1
94,2024-09-19 22:34:55.518309120,TASK_BEGIN,012,1.8896703876010323,0.1143797095315537,7.5178665843956765,0.10052025867068928,-0.8756262133166888,0.552951960598816,13.39415020109015,-1.2948691932474696,1
95,2024-09-19 22:34:55.591993088,TASK_BEGIN,012,1.8750210458698735,0.11656862610787255,7.181162851964617,0.15637673797598906,-0.9134417078387752,0.567279175216527,13.415488819764189,-1.3113629149621318,1
96,2024-09-19 22:34:55.659745792,TASK_BEGIN,012,1.8618932552327216,0.11929295958201155,6.86136010818717,0.1998680103944166,-0.9481971003821434,0.5800884981576874,13.511949884735362,-1.3297345043374076,1
97,2024-09-19 22:34:55.717432832,TASK_BEGIN,012,1.8507089550815379,0.12282078241571895,6.5692276719323015,0.23032207691579634,-0.979142438132759,0.5908633338948716,13.672496041516117,-1.3479492101221489,1
98,2024-09-19 22:34:56.670923008,TASK_BEGIN,012,1.8418686191949025,0.12739557389151893,6.314048241215439,0.24787256299862437,-1.0057550213020174,0.5992065095863949,13.88235076969623,-1.3643830018084528,1
99,2024-09-19 22:34:56.738724864,TASK_BEGIN,012,1.8357161834558549,0.13321538244129255,6.10316264538256,0.2534080512140381,-1.0278058679913127,0.6048786499521499,14.12334055567913,-1.3777925470557777,1
100,2024-09-19 22:34:56.797641984,TASK_BEGIN,012,1.8325904332450587,0.1404001595074951,5.9420484357982915,0.24833991343839787,-1.0453435019154471,0.6078215280242009,14.375164891718256,-1.3873446100792908,1
101,2024-09-19 22:34:56.871149056,TASK_BEGIN,012,1.8329240729520153,0.14896082575723357,5.834866895775204,0.23427517923227517,-1.0586689436844543,0.6081663618996245,14.617548022286307,-1.3927545942690276,1
102,2024-09-19 22:34:56.941991936,TASK_BEGIN,012,1.837286174907028,0.1587936007654187,5.78505613352466,0.21272666012251817,-1.0683361341978366,0.6062249927275548,14.832458196860353,-1.3943907282418517,1
103,2024-09-19 22:34:57.009562880,TASK_BEGIN,012,1.8462845509519132,0.16971421153733388,5.795425975815943,0.18496069795884787,-1.0751236694085726,0.6024577413005718,15.005739902596927,-1.3932335858662137,1
104,2024-09-19 22:34:57.073726720,TASK_BEGIN,012,1.8603503258575205,0.1815208955363216,5.867592802338164,0.1520050821447404,-1.0799131071978836,0.5974157207593613,15.128113482761732,-1.390743226326923,1
105,2024-09-19 22:34:58.021588992,TASK_BEGIN,012,1.8795180614227855,0.19405591706042635,6.001178800860267,0.11475466761474158,-1.0834937978843666,0.591663647235817,15.195928810099968,-1.3887527103278727,1
106,2024-09-19 22:34:58.074956032,TASK_BEGIN,012,1.9033019471734234,0.20724373531010648,6.193322598141936,0.07408159818603671,-1.0864081414410316,0.5856992512898516,15.212044623537853,-1.389433815801296,1
107,2024-09-19 22:34:58.157699328,TASK_BEGIN,012,1.9306875313564236,0.22110690745382042,6.438688499466598,0.03088815933060138,-1.0889476787161065,0.5798949078533182,15.186467977407208,-1.39525587453076,1
108,2024-09-19 22:34:58.225445120,TASK_BEGIN,012,1.960204787556814,0.23576903099327853,6.729894712633186,-0.013917838930367885,-1.091310572989804,0.5744831597004948,15.135718478905916,-1.4088223477465949,1
109,2024-09-19 22:34:58.291572992,TASK_BEGIN,012,1.9900555848168549,0.25144359461792326,7.05823007616556,-0.05950561622577502,-1.093838290805235,0.5695867521633987,15.080524468562862,-1.4325757036888767,1
110,2024-09-19 22:34:58.353622016,TASK_BEGIN,012,2.018275703792453,0.26840338187034046,7.4144132663152735,-0.10519744224178644,-1.0972032972046009,0.5652681042712563,15.042669499103546,-1.4684645080948626,1
111,2024-09-19 22:34:58.416110080,TASK_BEGIN,012,2.042873046254405,0.2869398118368702,7.7890402799327525,-0.1504642242062636,-1.102434411705651,0.5615643739684851,15.04194593766598,-1.517636359240401,1
112,2024-09-19 22:34:59.338331136,TASK_BEGIN,012,2.0618782297820166,0.30733233474740174,8.172541027775987,-0.19483818900343877,-1.1107733990937454,0.5584948251138846,15.093533936477666,-1.5801431130660246,1
113,2024-09-19 22:34:59.400356864,TASK_BEGIN,012,2.0733188414021386,0.3298352560306462,8.554819085891335,-0.23782347271793466,-1.123457126199576,0.5560520956753064,15.20595003343168,-1.654667734993783,1
114,2024-09-19 22:34:59.482234880,TASK_BEGIN,012,2.075186834067858,0.35466868097923215,8.924903369549094,-0.2788594979033632,-1.1415045445099483,0.5541891269594449,15.379912997285663,-1.7383644953957464,1
115,2024-09-19 22:34:59.540968960,TASK_BEGIN,012,2.065454177572355,0.3819959307907523,9.270809816691619,-0.31730347775975665,-1.1655345832018942,0.552804465012056,15.608365366994006,-1.8269146897718762,1
116,2024-09-19 22:34:59.617753856,TASK_BEGIN,012,2.042158882883111,0.41188520744478196,9.579626260875262,-0.35238766791001536,-1.195641647350712,0.5517326734082874,15.877575653488309,-1.914845385018418,1
117,2024-09-19 22:34:59.685550080,TASK_BEGIN,012,2.0035673370453426,0.44426938134279087,9.837793397505763,-0.3831667954808176,-1.2313620886212977,0.5507517491862693,16.1690394949003,-1.9960978481956184,1
118,2024-09-19 22:34:59.746036992,TASK_BEGIN,012,1.9484038777317623,0.4789172732325602,10.031693141423622,-0.4085047316557418,-1.2717326749346964,0.5496119505216951,16.461695443491177,-2.0647540491933105,1
119,2024-09-19 22:35:00.683731968,TASK_BEGIN,012,1.876102662593535,0.515420384852487,10.148763744125102,-0.42713796242950663,-1.3154112612408737,0.5480771418835394,16.733906089607586,-2.1157582078533856,1
120,2024-09-19 22:35:00.761564928,TASK_BEGIN,012,1.7870063129383689,0.5531945729481996,10.179178666083233,-0.43783598230428383,-1.3608262175306205,0.5459618558697289,16.965039295340162,-2.1454781214272476,1
121,2024-09-19 22:35:00.823572992,TASK_BEGIN,012,1.6824641478262168,0.5914960396521136,10.117705200186865,-0.43964631220663514,-1.406328392701007,0.5431534561659742,17.136910299896908,-2.152021804459262,1
122,2024-09-19 22:35:00.899802880,TASK_BEGIN,012,1.564839177682651,0.6294524103785782,9.965048807522109,-0.4321406751321801,-1.4503266957096803,0.5396221752416724,17.235239486092492,-2.135296227795358,1
123,2024-09-19 22:35:00.967663104,TASK_BEGIN,012,1.4374395003098521,0.6661106825150332,9.728174501558684,-0.41555503159216073,-1.491380019722459,0.5354206033229406,17.251020041423356,-2.0968735708015767,1
124,2024-09-19 22:35:01.026224128,TASK_BEGIN,012,1.3043609980192425,0.7004984981304352,9.419682512235735,-0.39079881761668867,-1.5282097571632471,0.5306651982407098,17.181660654824007,-2.0397687724897184,1
125,2024-09-19 22:35:01.103328768,TASK_BEGIN,012,1.1702318330425125,0.7316871684842493,9.056663602222537,-0.35937807925035203,-1.5596409548516856,0.5255023491403001,17.031523889459255,-1.9681337549936184,1
126,2024-09-19 22:35:02.033487104,TASK_BEGIN,012,1.0398817507071496,0.7588468946804231,8.659326077052404,-0.32326641518252924,-1.5845510381819123,0.5200791180174992,16.811187663339087,-1.8867690426389152,1
127,2024-09-19 22:35:02.114576128,TASK_BEGIN,012,0.9179678350410511,0.7812954652939154,8.249485927418773,-0.2847515457517995,-1.60191525845189,0.5145347157179462,16.535213753526488,-1.8004489488847455,1
128,2024-09-19 22:35:02.182327040,TASK_BEGIN,012,0.8085849901811979,0.798545283985525,7.8490169045047065,-0.2463023106645215,-1.6109552704137053,0.5090087362752664,16.219112406992977,-1.7132429152620408,1
129,2024-09-19 22:35:02.235138816,TASK_BEGIN,012,0.7149257278058981,0.8103426027141541,7.4784153873875665,-0.21047641249257024,-1.6112761131849813,0.5036494689183529,15.876648413953241,-1.628060956951653,1
130,2024-09-19 22:35:02.317851136,TASK_BEGIN,012,0.6390804412786614,0.8166825351309404,7.155558294393806,-0.1798276619306843,-1.602846664254308,0.4986064233952024,15.51837253748646,-1.5465480364722195,1
131,2024-09-19 22:35:02.385259008,TASK_BEGIN,012,0.5820073537002908,0.8177930843859579,6.894656448753076,-0.15677036244298367,-1.5858176344355837,0.49400230533392014,15.151521970110313,-1.469300571705673,1
132,2024-09-19 22:35:02.453425664,TASK_BEGIN,012,0.5436158163206324,0.8141007525628396,6.705482693549528,-0.14344021458409661,-1.5603441868568546,0.48989861175232574,14.780807590800457,-1.3962548910389068,1
133,2024-09-19 22:35:03.360811008,TASK_BEGIN,012,0.5228979658708062,0.8061914197029048,6.593000400125897,-0.14161754134408827,-1.526568517762546,0.4862786945602006,14.40952043755564,-1.3270860037418464,1
134,2024-09-19 22:35:03.438872064,TASK_BEGIN,012,0.518091241671834,0.7947651807090783,6.557496955756385,-0.15271003336864086,-1.4847372642721914,0.48305590702009926,14.04054199917332,-1.2615280694087896,1
135,2024-09-19 22:35:03.500947968,TASK_BEGIN,012,0.5268883560356291,0.7805800301421416,6.595296861553903,-0.17775214590253177,-1.4353258630022367,0.4800940267565111,13.676938579892179,-1.1995649904995218,1
136,2024-09-19 22:35:03.562962176,TASK_BEGIN,012,0.5466975071981204,0.7643906041695677,6.699897367661127,-0.21738815383269253,-1.379101421439221,0.47722774726189005,13.322053986501217,-1.1414530861971586,1
137,2024-09-19 22:35:03.632528128,TASK_BEGIN,012,0.5749091829731129,0.7468950886911432,6.863109554718987,-0.27181333416708797,-1.3171129736472285,0.4742781349085223,12.979362708730376,-1.0876035231990526,1
138,2024-09-19 22:35:03.710459904,TASK_BEGIN,012,0.6091054859817098,0.7287017650635492,7.075882846291495,-0.3406633319512007,-1.2506128903118674,0.4710623156244163,12.652423769911257,-1.0384112092782976,1
139,2024-09-19 22:35:03.778624000,TASK_BEGIN,012,0.6471777328117303,0.7103246105136951,7.328763934700348,-0.4228692147888573,-1.1809682949407572,0.4674093517125291,12.345051116712037,-0.9941025487190626,1
140,2024-09-19 22:35:04.711934208,TASK_BEGIN,012,0.6873551633586565,0.6922102406752972,7.612103069205138,-0.5165219616276675,-1.109638662000267,0.46319898778079455,12.061633514320983,-0.954659968394758,1
141,2024-09-19 22:35:04.789079808,TASK_BEGIN,012,0.7281688127767934,0.6747805496677086,7.916189003040218,-0.6188172913118807,-1.0382147030005833,0.45841662106370906,11.80738234096049,-0.9198907572036831,1
142,2024-09-19 22:35:04.851158016,TASK_BEGIN,012,0.7683971337161047,0.6584616154413394,8.23145968276435,-0.7261550661334712,-0.9684528719783709,0.45319255602465647,11.58807541342569,-0.8896227694253239,1
143,2024-09-19 22:35:04.913225728,TASK_BEGIN,012,0.8070474812278189,0.6436797240970878,8.548762498289976,-0.8344002704724008,-0.9022522664317506,0.447800137992696,11.40908924564022,-0.863858926138525,1
144,2024-09-19 22:35:04.990917120,TASK_BEGIN,012,0.8433880360278104,0.6308320542112805,8.859466587524254,-0.9392087741136078,-0.8415626484576865,0.4426180631211349,11.274146978851357,-0.8427134322210575,1
145,2024-09-19 22:35:05.053486080,TASK_BEGIN,012,0.8769879913063267,0.6202544071496203,9.155218843585034,-1.036294914491072,-0.788268773685237,0.43808450884181344,11.184360459012233,-0.8261258507554374,1
146,2024-09-19 22:35:05.115478016,TASK_BEGIN,012,0.9077102964597389,0.6121993922430436,9.427306747180644,-1.1215909190848297,-0.744108731113033,0.43466391119665226,11.137736862155323,-0.8135489900051691,1
147,2024-09-19 22:35:06.071523072,TASK_BEGIN,012,0.9356328878782172,0.6068224418346005,9.665948818294412,-1.1913435263507384,-0.7106209603548819,0.43282238021406566,11.129087308833315,-0.803854855225245,1
148,2024-09-19 22:35:06.139322112,TASK_BEGIN,012,0.9609092143122374,0.604172157934188,9.860150003733883,-1.2422519773271792,-0.6890657745708355,0.4329923878126762,11.150287545654459,-0.7955198913611197,1
149,2024-09-19 22:35:06.197947904,TASK_BEGIN,012,0.9836041193888413,0.6041924093335509,9.99855689396702,-1.2717156083087597,-0.680298482904939,0.4355155258256917,11.19079432411863,-0.7869204747831144,1
150,2024-09-19 22:35:06.274894080,TASK_BEGIN,012,1.0035599100233925,0.6067425359417417,10.07114914697231,-1.278143572519446,-0.6846415158298393,0.44057808840218166,11.238359685433831,-0.7765628848571338,1
151,2024-09-19 22:35:06.339320832,TASK_BEGIN,012,1.0203432786521889,0.6116247904850028,10.0712202899885,-1.2612163882396366,-0.7018152096057455,0.44817018535460773,11.280048751806092,-0.7632416879207531,1
152,2024-09-19 22:35:06.402477056,TASK_BEGIN,012,1.0332905593799007,0.6185997205127358,9.997009178453196,-1.2220280338065816,-0.7309251314936879,0.4580834960138183,11.303523432082189,-0.7461779376594017,1
153,2024-09-19 22:35:06.477484800,TASK_BEGIN,012,1.0416221789362876,0.6273860716295189,9.852450121216426,-1.1630939808039056,-0.7704865217446971,0.4699396558674766,11.29819479594861,-0.7250869318420952,1
154,2024-09-19 22:35:07.421425920,TASK_BEGIN,012,1.0445707759779244,0.6376619656593494,9.646947467331707,-1.0882213364843898,-0.8185178779391838,0.4832397350447398,11.25600550589258,-0.700139253419616,1
155,2024-09-19 22:35:07.483315968,TASK_BEGIN,012,1.041498926192225,0.6490807637597069,9.394482901952882,-1.0022200605369413,-0.8727367244001947,0.4974323467097425,11.172162648360906,-0.671948956536141,1
156,2024-09-19 22:35:07.556972800,TASK_BEGIN,012,1.0320238427944888,0.6612955408389432,9.112270384269552,-0.9104586014557761,-0.9308258780052642,0.511990740626965,11.04621164263422,-0.6417273961597263,1
157,2024-09-19 22:35:07.624979968,TASK_BEGIN,012,1.0161357489550356,0.6739797370471629,8.818956608301331,-0.8183448337331125,-0.9907032092191097,0.5264755791739469,10.883257320205535,-0.6114998430296866,1
158,2024-09-19 22:35:07.692744960,TASK_BEGIN,012,0.9942558276910667,0.6868407986342263,8.532506949779881,-0.7308501753824969,-1.0507572221234849,0.5405646740086955,10.694506985648607,-0.5841148481570549,1
159,2024-09-19 22:35:07.760504832,TASK_BEGIN,012,0.9672222894233427,0.6996289846553373,8.268173185446493,-0.6521448998893034,-1.110044124223874,0.5540520462633668,10.496349503839706,-0.5629199046890871,1
160,2024-09-19 22:35:07.816129792,TASK_BEGIN,012,0.9362537103135827,0.7121394616311004,8.036931404309213,-0.5853446572554926,-1.1684130219193387,0.5668295891155065,10.30805178633661,-0.5512529980989841,1
161,2024-09-19 22:35:08.769892864,TASK_BEGIN,012,0.9029260909584316,0.7242023345162861,7.844565567156033,-0.5323387255697974,-1.226496373176294,0.578860551566304,10.148921434441508,-0.5519553042330484,1
162,2024-09-19 22:35:08.832686080,TASK_BEGIN,012,0.8691400819432661,0.735662452440788,7.691389600762349,-0.4936794449644059,-1.285571540608063,0.5901534763001068,10.035602743071886,-0.56694349281542,1
163,2024-09-19 22:35:08.894556928,TASK_BEGIN,012,0.8370259113695396,0.7463619432715507,7.572570833373181,-0.46855360997559653,-1.3473792743526227,0.6007482304199104,9.979683562059439,-0.5968147066230131,1
164,2024-09-19 22:35:08.975533824,TASK_BEGIN,012,0.8087734911966321,0.7561353297277567,7.4790254333917785,-0.45489381626577535,-1.4139393620807157,0.6107149059326231,9.985971279351006,-0.6405808415806118,1
165,2024-09-19 22:35:09.043318016,TASK_BEGIN,012,0.7864342326432171,0.764815456354648,7.398775698465885,-0.4496631716865352,-1.4872990979897307,0.6201478680224498,10.052128304317185,-0.6956898663526883,1
166,2024-09-19 22:35:09.111077888,TASK_BEGIN,012,0.7717420696388115,0.7722481704905964,7.3186521387039285,-0.4492772493680022,-1.5691501338171672,0.6291395206415545,10.169831304475228,-0.758363156138012,1
167,2024-09-19 22:35:09.178880768,TASK_BEGIN,012,0.7659585281931572,0.7783174431279496,7.226298421222972,-0.4500848810669044,-1.6603817411623605,0.6377429461777988,10.326823688340287,-0.8241291692485554,1
168,2024-09-19 22:35:10.097443072,TASK_BEGIN,012,0.7697323664771573,0.7829746704143908,7.112286437801088,-0.4488294178158281,-1.7607587478685995,0.6459493582712003,10.509289193485355,-0.8884295442376952,1
169,2024-09-19 22:35:10.164332032,TASK_BEGIN,012,0.7829899572082537,0.7862567379039518,6.971851820572538,-0.4430268327099731,-1.8688727827190401,0.6536975645405132,10.704353019221118,-0.9472500265751079,1
170,2024-09-19 22:35:10.233037056,TASK_BEGIN,012,0.804897712510191,0.7882816698076627,6.805753067906073,-0.4312230115132797,-1.9823625932994275,0.6609085618505197,10.902331202532787,-0.997738957250624,1
171,2024-09-19 22:35:10.300235008,TASK_BEGIN,012,0.8339331239191966,0.7892237056166833,6.620048473541332,-0.4131018851179374,-2.0982954457447534,0.6675219325235667,11.098117047293247,-1.0387168113361644,1
172,2024-09-19 22:35:10.355329024,TASK_BEGIN,012,0.8680600927358807,0.7892807965340731,6.424828689914043,-0.38938103541653774,-2.2135948346824827,0.6735151384140508,11.29131343411812,-1.070934645178558,1
173,2024-09-19 22:35:10.433012992,TASK_BEGIN,012,0.9049538196355935,0.7886500950453634,6.232100142843171,-0.3614418269460027,-2.325427501366172,0.6789021358856719,11.485130669276597,-1.0969706707602573,1
174,2024-09-19 22:35:10.494618880,TASK_BEGIN,012,0.942208141908015,0.7875196009599955,6.053251277255933,-0.33077163976983204,-2.4314800670256136,0.6837179696780818,11.684607038605733,-1.1207983876195116,1
175,2024-09-19 22:35:11.444783872,TASK_BEGIN,012,0.9774915194210563,0.7860732058433217,5.896743098200435,-0.2984255097698974,-2.530067462052934,0.6879970492778457,11.895083638544888,-1.1471901849403456,1
176,2024-09-19 22:35:11.507036928,TASK_BEGIN,012,1.0086577918660529,0.7844998012465029,5.766645384132401,-0.26470840128834566,-2.6200644389735896,0.6917505170159683,12.12149303007195,-1.181074638952102,1
177,2024-09-19 22:35:11.569513984,TASK_BEGIN,012,1.033832432957168,0.7829975849386064,5.662385130157287,-0.22917169602441317,-2.700735595265695,0.694948213413142,12.368242551599653,-1.2268766311611647,1
178,2024-09-19 22:35:11.648862976,TASK_BEGIN,012,1.051481876524356,0.781770340482288,5.579653918909589,-0.19089841103180846,-2.771561772134135,0.6975094444199095,12.639118314872512,-1.2879018833351046,1
179,2024-09-19 22:35:11.703790080,TASK_BEGIN,012,1.0604505011270873,0.7810192793559481,5.512009309492452,-0.1489606267151169,-2.832095910383185,0.6993024551917636,12.936782023908467,-1.3658558237023013,1
180,2024-09-19 22:35:11.781000960,TASK_BEGIN,012,1.0599406051872795,0.7809385246470193,5.452562770974873,-0.10287026444791965,-2.8818469817731622,0.7001528625748188,13.261771834654805,-1.4605381424364554,1
181,2024-09-19 22:35:11.848967168,TASK_BEGIN,012,1.0494354904086982,0.7817185934210985,5.39530755149971,-0.05283958413999416,-2.9202179286092678,0.6998613517130745,13.611299835176224,-1.569753178755499,1
182,2024-09-19 22:35:12.791030016,TASK_BEGIN,012,1.0286179269221498,0.7835483091188045,5.335937981300387,0.00021716791711542515,-2.9465150352434315,0.6982203194714864,13.978330455677416,-1.6894949463748807,1
183,2024-09-19 22:35:12.864313088,TASK_BEGIN,012,0.9973560854516156,0.7865977656825881,5.272255652027679,0.054844119446507675,-2.9599991142824544,0.6950146317104063,14.35132941298882,-1.8143847628570018,1
184,2024-09-19 22:35:12.932083968,TASK_BEGIN,012,0.9557777628801074,0.790978264668806,5.204303972913091,0.10922239483761238,-2.959935507116799,0.69001099173607,14.714903971031614,-1.9382424561939415,1
185,2024-09-19 22:35:12.991077888,TASK_BEGIN,012,0.9043875161187993,0.7966957055213197,5.13431163448941,0.16129475023219295,-2.945618537373309,0.6829596411420846,15.051316332606147,-2.0546700808534832,1
186,2024-09-19 22:35:13.053123072,TASK_BEGIN,012,0.8441621930879538,0.8036203698403175,5.066510889690756,0.2088402445487313,-2.916380347793093,0.6736242451203818,15.3424446826064,-2.1575740460518067,1
187,2024-09-19 22:35:13.135371776,TASK_BEGIN,012,0.7765776070074847,0.811487547425129,5.006878479128359,0.24955515455061855,-2.8716509858555557,0.6618366988622338,15.571590392152526,-2.241613799419715,1
188,2024-09-19 22:35:13.193276928,TASK_BEGIN,012,0.7035518477157877,0.8199293184464507,4.9628000320609695,0.2811910969110917,-2.811146614894959,0.6475625367029396,15.72491020018545,-2.302624432380588,1
189,2024-09-19 22:35:14.146503936,TASK_BEGIN,012,0.6273350828827033,0.8285244553552384,4.942626390918008,0.301715320637676,-2.7351519552802093,0.6309537480319467,15.792713888759176,-2.3380343472609098,1
190,2024-09-19 22:35:14.207312128,TASK_BEGIN,012,0.5503965640215841,0.8368483823058585,4.955032537957454,0.3094255084264924,-2.6447522630975975,0.6123678695200836,15.770815994389265,-2.3472090746699408,1
191,2024-09-19 22:35:14.269787136,TASK_BEGIN,012,0.47532923805455535,0.8445111018292587,5.008088227402721,0.30304652692106826,-2.5419181156712334,0.5923565149904658,15.661620351023528,-2.3316104897620686,1
192,2024-09-19 22:35:14.347897088,TASK_BEGIN,012,0.40475379110804444,0.8511780833039752,5.1081588337645165,0.28188960935294577,-2.4294616733550662,0.5716414144108275,15.47430312759561,-2.294694793227517,1
193,2024-09-19 22:35:14.418003200,TASK_BEGIN,012,0.3411996221101655,0.8565723559965239,5.259010056973368,0.2460535812156766,-2.3109073520525585,0.551079715210014,15.223876091457637,-2.241556971484898,1
194,2024-09-19 22:35:14.484860928,TASK_BEGIN,012,0.28695379175243696,0.8604634945630707,5.461453798372037,0.19653306951883787,-2.1902846099724975,0.5316042527414673,14.929631394904748,-2.178411859692697,1
195,2024-09-19 22:35:14.551549184,TASK_BEGIN,012,0.24388871400136203,0.862659728124422,5.71352405305378,0.13512513872162255,-2.0718464743433573,0.5141344717170399,14.613712558254287,-2.1120320176833296,1
196,2024-09-19 22:35:15.471885056,TASK_BEGIN,012,0.21330611033116206,0.8630182486067977,6.010839963776766,0.06416059678592725,-1.9597611340871346,0.49947752320144356,14.300214614045489,-2.0492485441828387,1
197,2024-09-19 22:35:15.528704000,TASK_BEGIN,012,0.19583806125143438,0.8614728688701331,6.346805589264604,-0.013816089937026575,-1.8578740291946667,0.4882542921298994,14.014509815984443,-1.9965480240677453,1
198,2024-09-19 22:35:15.607491840,TASK_BEGIN,012,0.19141156141380994,0.8580649205925525,6.712596692390225,-0.09631211771017135,-1.7696114439851935,0.4808768055540403,13.781876609944353,-1.959690003072674,1
199,2024-09-19 22:35:15.675308800,TASK_BEGIN,012,0.199253239797632,0.8529640749037584,7.097172467078681,-0.18106352932945183,-1.697984615523656,0.47757370101249785,13.62483458154644,-1.943273619401578,1
200,2024-09-19 22:35:15.743042048,TASK_BEGIN,012,0.21792206044658846,0.846471357364968,7.487534120415743,-0.2661202007131537,-1.645578810337717,0.4784322033338935,13.559833547250461,-1.9503197810213713,1
201,2024-09-19 22:35:15.809899776,TASK_BEGIN,012,0.24538624592585753,0.839000384170451,7.869259776326511,-0.34982390181621265,-1.614449700659357,0.483422617464416,13.594717079786081,-1.9819893552296557,1
202,2024-09-19 22:35:15.872980992,TASK_BEGIN,012,0.2791633935348641,0.8310389442447016,8.227318298972401,-0.43069073871748853,-1.6059439995804412,0.49239531164462413,13.727833394015464,-2.0374378895343637,1
203,2024-09-19 22:35:16.811824896,TASK_BEGIN,012,0.3165136108227827,0.8230991760660208,8.547216641916826,-0.5072712609906515,-1.6205446465565758,0.5050688615695086,13.948602250974812,-2.113743990355737,1
204,2024-09-19 22:35:16.888991232,TASK_BEGIN,012,0.3546451048725356,0.8156659995997362,8.816339628815133,-0.5780758217494704,-1.6578599295894232,0.5210382642570137,14.238864299802726,-2.2059798357704463,1
205,2024-09-19 22:35:16.956960000,TASK_BEGIN,012,0.39089910565830327,0.8091521109545698,9.025091621477436,-0.6415951178058605,-1.716791618780806,0.5398173885679127,14.574553843331104,-2.3075689223671674,1
206,2024-09-19 22:35:17.024713984,TASK_BEGIN,012,0.4229245790296823,0.803865830316732,9.167571160335191,-0.6963931540146927,-1.7957897339108144,0.5609016375039043,14.927693667563124,-2.410924690182764,1
207,2024-09-19 22:35:17.092493824,TASK_BEGIN,012,0.4488649297597861,0.7999967984812584,9.241831440254787,-0.7412454739557922,-1.8930487790149102,0.5838134988477953,15.269030553161166,-2.5082127744578604,1
208,2024-09-19 22:35:17.160306944,TASK_BEGIN,012,0.46752562304268735,0.7976222443210726,9.249843416498594,-0.7752916723114051,-2.006548053549886,0.6080953509511698,15.571390463237861,-2.592087704124812,1
209,2024-09-19 22:35:17.228076032,TASK_BEGIN,012,0.4784547851449253,0.7967290186045167,9.197149348096069,-0.7981596188428366,-2.1339349188046706,0.6332480060682033,15.813049242671992,-2.6562947388249873,1
210,2024-09-19 22:35:18.171208960,TASK_BEGIN,012,0.48190820868413425,0.7972399088725749,9.092171644336712,-0.8100270876724391,-2.2723395898211347,0.6586533657550981,15.979985477393267,-2.6960640867518064,1
211,2024-09-19 22:35:18.238870016,TASK_BEGIN,012,0.4787231177875044,0.7990360491080087,8.945185111704983,-0.811594609091823,-2.4182279506366102,0.683528290355038,16.06638919769879,-2.708305836725231,1
212,2024-09-19 22:35:18.292844032,TASK_BEGIN,012,0.47013589950580437,0.8019764987446968,8.76707887491549,-0.8039791414398957,-2.5673422388390246,0.7069320320699657,16.07372854097249,-2.6916705077147873,1
213,2024-09-19 22:35:18.374528768,TASK_BEGIN,012,0.45757570056367336,0.8059207288498945,8.56828549277794,-0.7886229640677808,-2.7147499710227168,0.7278195392837031,16.00920069523631,-2.6465295955194517,1
214,2024-09-19 22:35:18.431540992,TASK_BEGIN,012,0.442466792253473,0.8107542478299908,8.358261260209364,-0.767314911938656,-2.855052717064773,0.7451218057831174,15.884183080925336,-2.5748751879460996,1
215,2024-09-19 22:35:18.509208064,TASK_BEGIN,012,0.4260605820279927,0.8164090305960753,8.14553487632752,-0.7422828795928754,-2.982786345148608,0.7578426282787605,15.712795508152743,-2.4800884354693555,1
216,2024-09-19 22:35:18.577458944,TASK_BEGIN,012,0.4093047465741072,0.8228715831486909,7.938017490696396,-0.7162039405450534,-3.0929379859140593,0.7651694893772727,15.510484178839707,-2.366563690230296,1
217,2024-09-19 22:35:19.520945920,TASK_BEGIN,012,0.39276695101021375,0.8301771752535257,7.743112448464463,-0.6920079564019892,-3.1814318313415035,0.7665891892917691,15.292642414010444,-2.239256598088088,1
218,2024-09-19 22:35:19.589360128,TASK_BEGIN,012,0.3766478007685832,0.838386258644017,7.567229350522287,-0.6724655549513107,-3.2454645280620307,0.761982640942216,15.073432032951317,-2.1032441719770256,1
219,2024-09-19 22:35:19.657396992,TASK_BEGIN,012,0.36089815030989675,0.8475396800400186,7.414787417827853,-0.6596742989441016,-3.283660581623128,0.7516679008010189,14.865068282664943,-1.9633600845390775,1
220,2024-09-19 22:35:19.713807104,TASK_BEGIN,012,0.34538969229050653,0.8576057505445575,7.287308590446837,-0.6546345010105781,-3.2960837097647744,0.7363737034531436,14.677749764615495,-1.8239538156326662,1
221,2024-09-19 22:35:19.792921088,TASK_BEGIN,012,0.3300462726193251,0.868445101691953,7.183177892056252,-0.657084371161681,-3.284131840271082,0.7171489533287501,14.520012271177183,-1.688800677302751,1
222,2024-09-19 22:35:19.853053952,TASK_BEGIN,012,0.314892955395349,0.8798079635034101,7.098215585203703,-0.6656426804233687,-3.2503332277973094,0.6952372486286,14.398882381506125,-1.5611375807948225,1
223,2024-09-19 22:35:19.915304960,TASK_BEGIN,012,0.3000527733990245,0.8913559927702397,7.026905391083269,-0.6781859296012211,-3.198097082241274,0.6719563010088233,14.319389070448397,-1.443753985952201,1
224,2024-09-19 22:35:20.846919936,TASK_BEGIN,012,0.2857132515591642,0.9026932126315701,6.964098544665071,-0.6923469111427741,-3.131475306403194,0.6486089211327077,14.283617622049723,-1.3390582973793035,1
225,2024-09-19 22:35:20.903780096,TASK_BEGIN,012,0.27203949506794595,0.9134017301964082,6.90692995926962,-0.706019307157176,-3.0549409698426566,0.6264272206511653,14.289887808223286,-1.249051513124955,1
226,2024-09-19 22:35:20.981768960,TASK_BEGIN,012,0.2590343640493716,0.9230867643357373,6.85641148525089,-0.7177448084007183,-2.973174231669865,0.6065391389861435,14.332586884202108,-1.1751859404839053,1
227,2024-09-19 22:35:21.043955200,TASK_BEGIN,012,0.2464106714960249,0.931428569554598,6.818020838517051,-0.7268788148551811,-2.8908635844654746,0.5899475574775337,14.402847928373761,-1.118182171794229,1
228,2024-09-19 22:35:21.105957120,TASK_BEGIN,012,0.23355155140963535,0.9382255998951571,6.800876621840429,-0.7335062202467661,-2.8124908401973503,0.5775077767384124,14.489879350664761,-1.077954996128441,1
229,2024-09-19 22:35:21.185780992,TASK_BEGIN,012,0.21959660795051555,0.9434091166609775,6.815684531406621,-0.7381712552635274,-2.742053264205068,0.5698846961614923,14.582494501448984,-1.0537386325051141,1
230,2024-09-19 22:35:21.253524224,TASK_BEGIN,012,0.20364518648393587,0.9470206698438284,6.87209240029501,-0.7415202272543512,-2.6827801580743635,0.5674880874244251,14.670301336796939,-1.0443230466911815,1
231,2024-09-19 22:35:22.197033984,TASK_BEGIN,012,0.1850141411315308,0.9491631687460107,6.976132271522022,-0.7439413480650131,-2.6369608555052615,0.57040675494204,14.7442371249796,-1.0482312660533801,1
232,2024-09-19 22:35:22.264795904,TASK_BEGIN,012,0.16344776116691678,0.9499482576749498,7.1282793452193305,-0.7452857109701999,-2.6059138764818868,0.5783663111736861,14.796546844330267,-1.0637674321236519,1
233,2024-09-19 22:35:22.327428864,TASK_BEGIN,012,0.13920727672019,0.9494587396309346,7.322470741887657,-0.7447364950876212,-2.590040178798323,0.5907295441810937,14.82046977895647,-1.0889938602051155,1
234,2024-09-19 22:35:22.400300032,TASK_BEGIN,012,0.11305167789356975,0.9477300083112432,7.546193002609149,-0.7408343811679692,-2.5888940620605583,0.6065460338485552,14.809819661894815,-1.1217201036403976,1
235,2024-09-19 22:35:22.466110208,TASK_BEGIN,012,0.08616951024464112,0.9447416477821513,7.781573790712823,-0.7316346495732104,-2.601238193157404,0.6246364903020571,14.758600270525626,-1.1595103701281673,1
236,2024-09-19 22:35:22.528365056,TASK_BEGIN,012,0.06010021713481338,0.9404090818581743,8.007239545155302,-0.7149630121148113,-2.6251239610189887,0.6436903433507096,14.660850902911532,-1.1996711276345282,1
237,2024-09-19 22:35:22.603571712,TASK_BEGIN,012,0.03664270521508253,0.9345758677975008,8.200504937188612,-0.6887192650562861,-2.6580737325233392,0.662367399052246,14.510986051413516,-1.2392679901135286,1
238,2024-09-19 22:35:23.534665984,TASK_BEGIN,012,0.0177312517336468,0.9270169496042235,8.339521855142285,-0.651195440337147,-2.6973477548924603,0.679395709535617,14.30480757535056,-1.275287474759771,1
239,2024-09-19 22:35:23.614576128,TASK_BEGIN,012,0.005277777297638056,0.9174581785581143,8.405291401781104,-0.6013983790258893,-2.74019772812257,0.693649965188881,14.040970345415776,-1.3049466306909638,1
240,2024-09-19 22:35:23.680252928,TASK_BEGIN,012,0.0010017761152442332,0.9056101528970112,8.383558734344376,-0.5393266810423673,-2.7840760749925018,0.7042061374383444,13.722271354696531,-1.3260253550329477,1
241,2024-09-19 22:35:23.743090944,TASK_BEGIN,012,0.006254977020898122,0.8912195072326691,8.26652217274942,-0.4661318026603734,-2.8268345769307106,0.7103828127114628,13.356273019037912,-1.3371358508006173,1
242,2024-09-19 22:35:23.805576192,TASK_BEGIN,012,0.021836057433458147,0.8741408518618761,8.054165562742028,-0.3841599548715084,-2.866896896829956,0.7117716604195261,12.95524524953121,-1.337911826842709,1
243,2024-09-19 22:35:23.882988032,TASK_BEGIN,012,0.047814882724527746,0.8544201374697106,7.754908479628797,-0.29690724572187527,-2.9033536007526686,0.7082489758816555,12.535477860938766,-1.3290647050874107,1
244,2024-09-19 22:35:23.953659136,TASK_BEGIN,012,0.08340290747738349,0.8323765634647257,7.385209032775928,-0.20884870935812236,-2.935966154623058,0.699962438683746,12.115818990155683,-1.3122390664488952,1
245,2024-09-19 22:35:24.897139968,TASK_BEGIN,012,0.12690320828855245,0.8086740965282796,6.967933686553497,-0.125063116928099,-2.9650958135113714,0.6872892416900717,11.715446371152575,-1.289669584236768,1
246,2024-09-19 22:35:24.964616960,TASK_BEGIN,012,0.17577066587679108,0.7843672763308064,6.529779574062642,-0.050696123307052164,-2.991568335334661,0.6707671342607004,11.351329843451149,-1.2637102667975042,1
247,2024-09-19 22:35:25.032679936,TASK_BEGIN,012,0.22679381154702602,0.760898957312465,6.098412163491221,0.00955740024004717,-3.016467042856742,0.6510140017938212,11.036138687524186,-1.236354220278728,1
248,2024-09-19 22:35:25.100434176,TASK_BEGIN,012,0.2763761619347939,0.7400338597590825,5.6998545731722015,0.05182278668335979,-3.040839217275952,0.6286566861490739,10.777152366585515,-1.208894031413624,1
249,2024-09-19 22:35:25.167403008,TASK_BEGIN,012,0.32087825778354034,0.723723729063097,5.356249930866395,0.07330615354489152,-3.065364488518042,0.6042807954033059,10.576224026727328,-1.1818244843848953,1
250,2024-09-19 22:35:25.235981056,TASK_BEGIN,012,0.35697121149874306,0.7139167620219207,5.083994766173653,0.07253041204759189,-3.090123565123743,0.5784027585284259,10.43053711041746,-1.1549622275614961,1
251,2024-09-19 22:35:25.303738112,TASK_BEGIN,012,0.38193210095985625,0.7123485396720549,4.8925019777491325,0.04951633765774119,-3.114568021740533,0.5514572756464814,10.333840830037303,-1.127677384174544,1
252,2024-09-19 22:35:26.222295808,TASK_BEGIN,012,0.3938222124076475,0.7203618184016645,4.783989225295825,0.005796671549123146,-3.1376573542891975,0.5237927763880103,10.277787155935117,-1.0991568406740464,1
253,2024-09-19 22:35:26.275537152,TASK_BEGIN,012,0.39154968734641704,0.7387825250057511,4.754382952314827,-0.055784247405160754,-3.1580677228445717,0.49567557466600215,10.253016999713154,-1.0686632137183765,1
254,2024-09-19 22:35:26.353199872,TASK_BEGIN,012,0.37486798623559614,0.7678524087669356,4.7949728518310755,-0.1314184346376163,-3.1744068927129088,0.46730508220701794,10.249991621800897,-1.0357751930857797,1
255,2024-09-19 22:35:26.425550080,TASK_BEGIN,012,0.34434963355839293,0.8072113444590611,4.894298461342796,-0.21672369531096616,-3.185404879986315,0.4388355849614548,10.259953190390707,-1.000617862136652,1
256,2024-09-19 22:35:26.493360128,TASK_BEGIN,012,0.3013286598237074,0.8559284828489441,5.039948115364586,-0.3071128361060697,-3.1900471641917783,0.4103960863444504,10.27629261493683,-0.9640833913327829,1
257,2024-09-19 22:35:26.561131008,TASK_BEGIN,012,0.24778996623359362,0.9125793226892854,5.220138031004254,-0.3981329784846716,-3.1876032664748015,0.3821003190306549,10.296139672049303,-0.9279837874853414,1
258,2024-09-19 22:35:26.628880896,TASK_BEGIN,012,0.1862158102710279,0.9753534879170921,5.424890356683882,-0.48576247627150904,-3.177543388024354,0.35404462237642365,10.32166101434419,-0.8950347772940755,1
259,2024-09-19 22:35:27.558706176,TASK_BEGIN,012,0.1194227381506839,1.0421766362196005,5.64658055467636,-0.5666293873315155,-3.159416996103559,0.3262997292745746,10.360403547073236,-0.8685935509243901,1
260,2024-09-19 22:35:27.639486976,TASK_BEGIN,012,0.05039889238722747,1.1108441182501894,5.879773803541285,-0.6381376081469506,-3.132794684325311,0.29890397968909493,10.42416535791294,-0.8521642525645668,1
261,2024-09-19 22:35:27.706039040,TASK_BEGIN,012,-0.017876052014473898,1.1791721156178385,6.120460507038066,-0.6985209264882943,-3.097330525188444,0.27186118062658066,10.526639654909314,-0.8488359528683898,1
262,2024-09-19 22:35:27.774161152,TASK_BEGIN,012,-0.08263438348378746,1.2451614621086553,6.364961067250224,-0.7468299152400796,-3.0529405391363005,0.24514521609406392,10.680879325256567,-0.8608981454394924,1
263,2024-09-19 22:35:27.842785792,TASK_BEGIN,012,-0.14152229592850551,1.3071497724537309,6.608897697058362,-0.7828313723991217,-3.000035730919509,0.21871553534582955,10.897392709355143,-0.8897259475780172,1
264,2024-09-19 22:35:27.908292864,TASK_BEGIN,012,-0.19275585435693846,1.3639171723112316,6.846561206589849,-0.8068331462244446,-2.939724273012058,0.19254831003776593,11.182783339512913,-0.9358043086376706,1
265,2024-09-19 22:35:27.978292992,TASK_BEGIN,012,-0.23518516483642565,1.4147230928588261,7.070799993681505,-0.8195138710084038,-2.8739304153796237,0.16668469633636995,11.538588892354747,-0.9987538076571667,1
266,2024-09-19 22:35:28.910704128,TASK_BEGIN,012,-0.26825378819175705,1.4592783714937256,7.273435841390681,-0.8218472335527964,-2.805409198114425,0.14128925954027716,11.960415870015437,-1.0773582924038394,1
267,2024-09-19 22:35:28.987457024,TASK_BEGIN,012,-0.29190658834651445,1.497675958572931,7.446073789935179,-0.8151353358392598,-2.7376320003127526,0.11670206858240326,12.437775313010953,-1.1696477441069892,1
268,2024-09-19 22:35:29.050064896,TASK_BEGIN,012,-0.30652965841510244,1.530305875224027,7.5809840571481635,-0.801067261391565,-2.674531882405943,0.09346139218924893,12.954834513873042,-1.2730197484193744,1
269,2024-09-19 22:35:29.124134912,TASK_BEGIN,012,-0.3129537523982841,1.5577722485611645,7.671747940677841,-0.7816787334980284,-2.620143858873566,0.07227556318084027,13.491763901812641,-1.3842910662460872,1
270,2024-09-19 22:35:29.191912192,TASK_BEGIN,012,-0.31247790828627364,1.5808182843144902,7.713628410000224,-0.7591571466292174,-2.578214529162658,0.05394305172183713,14.02606897397573,-1.49960961005342,1
271,2024-09-19 22:35:29.259668224,TASK_BEGIN,012,-0.3068419724756207,1.600254122652442,7.70383714681084,-0.7355563116268315,-2.5518627758850516,0.03924802196530463,14.533711333710722,-1.6143426360454076,1
272,2024-09-19 22:35:29.312203008,TASK_BEGIN,012,-0.2980969763334776,1.6168809607186756,7.641838606594919,-0.7125331557263282,-2.5433317740770702,0.02886259348085391,14.990478281228768,-1.7231728342660932,1
273,2024-09-19 22:35:30.271753984,TASK_BEGIN,012,-0.28837435222860525,1.6314145564945806,7.529704267097704,-0.6911810721361993,-2.5538034493146657,0.02326794269385437,15.374237481541247,-1.8205558434707771,1
274,2024-09-19 22:35:30.338585088,TASK_BEGIN,012,-0.27961379043112977,1.6444217369548002,7.372427361361761,-0.67198610925376,-2.5832316680763032,0.02269519487523103,15.668115235873028,-1.9014878930918298,1
275,2024-09-19 22:35:30.406040064,TASK_BEGIN,012,-0.2733300848276509,1.6562834441285335,7.17806293678578,-0.6549135909401929,-2.630234097184344,0.027091791268615793,15.863587546047155,-1.9623156616595332,1
276,2024-09-19 22:35:30.468357120,TASK_BEGIN,012,-0.27046690428730913,1.6671878097185142,6.957623575490442,-0.6396279773981863,-2.692164555710008,0.03612362111197217,15.962086015934448,-2.001288922548668,1
277,2024-09-19 22:35:30.530412800,TASK_BEGIN,012,-0.27133395323660986,1.6771471970704521,6.724699544365532,-0.6257894574106913,-2.7654262176471645,0.04921584564565118,15.974468853599674,-2.018740254048943,1
278,2024-09-19 22:35:30.610884096,TASK_BEGIN,012,-0.2756009480068984,1.686032295361031,6.494661564700917,-0.6132756917144702,-2.8459310688202533,0.06562043800921884,15.918618523316708,-2.0169199496464048,1
279,2024-09-19 22:35:30.673973248,TASK_BEGIN,012,-0.2823465738999611,1.6936211716150815,6.2833018930263105,-0.6021938154258019,-2.9295543047786725,0.08449158392056066,15.81585569296355,-1.9995366011303897,1
280,2024-09-19 22:35:31.596414976,TASK_BEGIN,012,-0.2901900587761171,1.6996619058470133,6.105083259622141,-0.5927004752979157,-3.0124953887817,0.10495530058964908,15.687030507138335,-1.9710802485641992,1
281,2024-09-19 22:35:31.664289024,TASK_BEGIN,012,-0.29751691576067646,1.703941895185195,5.971529090059564,-0.5847833254475013,-3.091501881125068,0.12616651991221395,15.549003358200947,-1.9360376219371558,1
282,2024-09-19 22:35:31.718445056,TASK_BEGIN,012,-0.3027705557507004,1.7063513694440222,5.890305732096955,-0.5781638446237717,-3.163934667980509,0.14735403642483136,15.411778493398451,-1.8981279042101284,1
283,2024-09-19 22:35:31.796464128,TASK_BEGIN,012,-0.3047537325961659,1.7069270084498327,5.865161879896816,-0.5723718054510643,-3.2277278460590435,0.16785921360315434,15.27645949256006,-1.8597254148445024,1
284,2024-09-19 22:35:31.859180800,TASK_BEGIN,012,-0.302867755548382,1.7058664995371209,5.896420208360794,-0.5669132227156292,-3.2813631598851,0.18716725551577892,15.134483115068669,-1.8216169633458188,1
285,2024-09-19 22:35:31.921192960,TASK_BEGIN,012,-0.2972271965641441,1.7035155202213328,5.9815347876563285,-0.5614158608065086,-3.323946535635885,0.20492009870774458,14.968548313917347,-1.7831117119062205,1
286,2024-09-19 22:35:32.003010048,TASK_BEGIN,012,-0.28862900309960315,1.7003341800845149,6.1153906673815355,-0.5556979240369417,-3.355356882681286,0.2209048972494846,14.755307347202793,-1.7424155607670715,1
287,2024-09-19 22:35:32.946510080,TASK_BEGIN,012,-0.2783897366971506,1.6968469168951879,6.290324907831921,-0.5497736909878762,-3.376339549444622,0.23502322436578435,14.469525360437165,-1.6971774215083029,1
288,2024-09-19 22:35:33.013427968,TASK_BEGIN,012,-0.2680848542580221,1.6935807337287463,6.496142272454694,-0.5438291812428808,-3.3884404050365924,0.24725184769678948,14.088975733189288,-1.6451131311590779,1
289,2024-09-19 22:35:33.069036800,TASK_BEGIN,012,-0.2592580507138674,1.6910053799015796,6.720495907097933,-0.5381921613556174,-3.3937954427623276,0.2576084590544547,13.59914636374093,-1.584594075777957,1
290,2024-09-19 22:35:33.149816832,TASK_BEGIN,012,-0.25318993493732794,1.689491006925277,6.949749033908266,-0.5333078751112273,-3.3948796357185698,0.2661342243111565,12.996977596573013,-1.5150903149796369,1
291,2024-09-19 22:35:33.217575936,TASK_BEGIN,012,-0.2507712056281965,1.689287015858837,7.170114383064897,-0.5297203858991081,-3.3942921582957295,0.27289225874104706,12.292897674340285,-1.4373570128226258,1
292,2024-09-19 22:35:33.271532032,TASK_BEGIN,012,-0.25245436634030294,1.69051463197805,7.368784451275645,-0.5280404620062765,-3.394564213660958,0.27796299246825434,11.510687039004791,-1.3533020643422562,1
293,2024-09-19 22:35:33.353063936,TASK_BEGIN,012,-0.25824525203894727,1.6931667766731324,7.534766194661468,-0.5288587015517695,-3.397956017420918,0.28141767701349424,10.685451037878163,-1.2656190770560827,1
294,2024-09-19 22:35:34.296345088,TASK_BEGIN,012,-0.26773317384308,1.6971138576449512,7.659192814973291,-0.5325810190355392,-3.4062577878927627,0.283272563178126,9.860384833712383,-1.1773708081311767,1
295,2024-09-19 22:35:34.352044288,TASK_BEGIN,012,-0.2801642460948016,1.7021138792268902,7.7351718705337795,-0.5392292573790387,-3.4206101864194296,0.28344022764209437,9.082790583460152,-1.0916578592421362,1
296,2024-09-19 22:35:34.429557248,TASK_BEGIN,012,-0.294529840756887,1.707825065284553,7.757552549348871,-0.5483091322226865,-3.441342205075916,0.281692183108347,8.399660240466405,-1.0113993674430162,1
297,2024-09-19 22:35:34.491561984,TASK_BEGIN,012,-0.30964631604780546,1.7138233980432898,7.723025725271255,-0.5588447936212161,-3.467872553819861,0.27764424904573254,7.85329792777049,-0.9391788379743424,1
298,2024-09-19 22:35:34.554050048,TASK_BEGIN,012,-0.32424331602395984,1.7196294244737074,7.630618203091734,-0.56957171370728,-3.4987644401004956,0.2707763280789817,7.4775896430305195,-0.8770888578257415,1
299,2024-09-19 22:35:34.635512320,TASK_BEGIN,012,-0.33707476664123287,1.7247458444386308,7.482188773946298,-0.5791458449112945,-3.531959448680303,0.26048940482527094,7.295381596687119,-0.826555443151665,1
300,2024-09-19 22:35:34.700629760,TASK_BEGIN,012,-0.3470210026949161,1.7287031587423796,7.282466852442521,-0.5862404533624535,-3.565092507482695,0.24618386227997152,7.317045053960433,-0.7881834168124476,1
301,2024-09-19 22:35:35.646629888,TASK_BEGIN,012,-0.35315334292409123,1.7311066514629263,7.03850189651113,-0.5895447862810959,-3.5957701686431918,0.22733623511143622,7.540157955640446,-0.7616799783200573,1
302,2024-09-19 22:35:35.712468992,TASK_BEGIN,012,-0.3547891296769054,1.7316780681040846,6.758711559005644,-0.5877586984325153,-3.621804402478542,0.20356626593865385,7.950401322417864,-0.7459051323229822,1
303,2024-09-19 22:35:35.781831168,TASK_BEGIN,012,-0.3515742929362212,1.730287324676481,6.45186619656413,-0.5796402203308035,-3.6414476976558965,0.17469577914964085,8.52352426015834,-0.7390573289925397,1
304,2024-09-19 22:35:35.843643136,TASK_BEGIN,012,-0.34358139847156854,1.7269685840710012,6.126365422343244,-0.5641143854470967,-3.6535918994238354,0.14078928169903218,9.227655108205859,-0.7389288000083505,1
305,2024-09-19 22:35:35.904186112,TASK_BEGIN,012,-0.331398511547773,1.721919178689985,5.79006491028939,-0.5404359876098941,-3.6578340829998575,0.10215742801426433,10.025311250516287,-0.7431362794081989,1
306,2024-09-19 22:35:35.982126080,TASK_BEGIN,012,-0.3162009359486766,1.715488347873001,5.450622498666261,-0.508368688244934,-3.6543964808208287,0.059319761643676215,10.875064749602872,-0.7492549808214378,1
307,2024-09-19 22:35:36.043943936,TASK_BEGIN,012,-0.2997725772174623,1.7081603368456952,5.11594587194332,-0.46831366989734113,-3.64400356625459,0.01294747530804388,11.733113453852958,-0.7548016545871735,1
308,2024-09-19 22:35:36.969714176,TASK_BEGIN,012,-0.28441892663234924,1.700528011338475,4.794279380223848,-0.4213447046927613,-3.6278018351535235,-0.03618975128812662,12.555006583754496,-0.7570784213696953,1
309,2024-09-19 22:35:37.031502080,TASK_BEGIN,012,-0.27275105573509884,1.6932540040071742,4.493859026186099,-0.3691467196779735,-3.6072891357124472,-0.0872677741925862,13.297815996460221,-0.753038793546007,1
310,2024-09-19 22:35:37.107800064,TASK_BEGIN,012,-0.26737599170040394,1.68702089042638,4.222421672238968,-0.3138774041537837,-3.58417479897846,-0.13945085031762516,13.922941296092072,-0.7394053775245231,1
311,2024-09-19 22:35:37.170663168,TASK_BEGIN,012,-0.2705588845359147,1.6824724805182623,3.9868595261292508,-0.257995049595158,-3.5601696770416287,-0.19193507733198978,14.399234437765942,-0.7131077494479687,1
312,2024-09-19 22:35:37.243344896,TASK_BEGIN,012,-0.28393671675811566,1.680152588780554,3.793074744156376,-0.20408885583452208,-3.5367907874290605,-0.24398357984285335,14.705609596848326,-0.6718736796549233,1
313,2024-09-19 22:35:37.309923840,TASK_BEGIN,012,-0.30836214884681007,1.6804570911428447,3.6459056893186363,-0.15469513440894567,-3.5152477552948547,-0.2949466929882976,14.832372129665718,-0.6147156234660208,1
314,2024-09-19 22:35:37.371917056,TASK_BEGIN,012,-0.3439247305253955,1.6836168211934854,3.5490318461944073,-0.11207256114923589,-3.4963811840388495,-0.34427179603284636,14.78100231401791,-0.5420908129060642,1
315,2024-09-19 22:35:38.321862912,TASK_BEGIN,012,-0.3901259486190643,1.6897142215664147,3.504879802189993,-0.07797107543982783,-3.4805922278322954,-0.39150907483258707,14.562570255953199,-0.45564158195262505,1
316,2024-09-19 22:35:38.389694720,TASK_BEGIN,012,-0.4461035506278113,1.698717836762301,3.514574258448792,-0.0534750212901087,-3.4678077134592225,-0.4363072371828144,14.195297413905852,-0.35766615366939425,1
317,2024-09-19 22:35:38.456931072,TASK_BEGIN,012,-0.5107885530471722,1.710514608017288,3.577957005943763,-0.03899177824347736,-3.457603039489391,-0.4783893709451054,13.702046694189402,-0.2506528807962628,1
318,2024-09-19 22:35:38.522582016,TASK_BEGIN,012,-0.5829526628357549,1.7249264972183407,3.6936982416948347,-0.034412159698871715,-3.449497655113895,-0.5175163791470582,13.10853629987255,-0.13713133828013688,1
319,2024-09-19 22:35:38.586313984,TASK_BEGIN,012,-0.6611791697333121,1.7417028849149525,3.8594832635924083,-0.039395750153993714,-3.4432792307683604,-0.5534618197714347,12.442672662001192,-0.01984702685464426,1
320,2024-09-19 22:35:38.660847872,TASK_BEGIN,012,-0.7438100643049865,1.7604877023616268,4.0721864768561735,-0.053668844876278377,-3.4392055113180695,-0.5860154959963934,11.734665473388565,0.09793132799857644,1
321,2024-09-19 22:35:38.714284800,TASK_BEGIN,012,-0.8289036556673721,1.780770399866263,4.327972625344978,-0.07722410320404857,-3.4380430395020105,-0.6150130588901446,11.017038260841492,0.21221630291701754,1
322,2024-09-19 22:35:39.672988160,TASK_BEGIN,012,-0.9142014299663489,1.8018321140223927,4.622352351779192,-0.11037097085391323,-3.440988191700307,-0.640374253531915,10.323800110717185,0.3183783293299617,1
323,2024-09-19 22:35:39.740763904,TASK_BEGIN,012,-0.9970801437961533,1.8226985536834899,4.950185045527675,-0.1536311182304031,-3.4495258607923414,-0.6621302130392683,9.688678362449858,0.4115027660469197,1
324,2024-09-19 22:35:39.804056832,TASK_BEGIN,012,-1.0745017435930457,1.8421197696844347,5.30554534689972,-0.20749172900360902,-3.465246634934706,-0.6804283224754076,9.142735229567156,0.4869297896315141,1
325,2024-09-19 22:35:39.868871168,TASK_BEGIN,012,-1.143035293944879,1.858597935219602,5.681475625071083,-0.27207654051837743,-3.489617793955792,-0.6955168790326087,8.711693753632511,0.5408704380850274,1
326,2024-09-19 22:35:39.929243136,TASK_BEGIN,012,-1.1990080976675672,1.8704622240278914,6.069811589592676,-0.34684268750887515,-3.523713698606758,-0.7077231298491234,8.413298940140898,0.5710018840213568,1
327,2024-09-19 22:35:40.011418112,TASK_BEGIN,012,-1.2387501385443342,1.875967159822736,6.461201980042182,-0.4303802380457135,-3.5679551232574,-0.717436587358877,8.255305032360612,0.5769129108897163,1
328,2024-09-19 22:35:40.069926912,TASK_BEGIN,012,-1.2588391983289449,1.8733915592437531,6.8452788681111185,-0.5203288281615611,-3.621934765758203,-0.7251001844859134,8.234829056202512,0.5602770528014507,1
329,2024-09-19 22:35:41.020970240,TASK_BEGIN,012,-1.2562831249817885,1.861130446565454,7.210979932290897,-0.6134222036998175,-3.6843567700222613,-0.7312104943434874,8.339362563216637,0.5247275098345188,1
330,2024-09-19 22:35:41.083275776,TASK_BEGIN,012,-1.2286370025797801,1.8377841099071754,7.5470791986552905,-0.7056659213592974,-3.7530443151165023,-0.7363268343824381,8.549019024349937,0.4754906562896244,1
331,2024-09-19 22:35:41.150948864,TASK_BEGIN,012,-1.1740828039550653,1.802249815790478,7.842792943546576,-0.7925978610919466,-3.8249774412709394,-0.7410757420112928,8.839389551139023,0.41882660566453794,1
332,2024-09-19 22:35:41.225102080,TASK_BEGIN,012,-1.0915010068072215,1.7538148472549666,8.088232335819129,-0.8695754493685658,-3.8964055119271164,-0.7461294584797491,9.184572241389565,0.3613268143802567,1
333,2024-09-19 22:35:41.292879104,TASK_BEGIN,012,-0.9805659950767794,1.6922446593571445,8.274691659040723,-0.9320878701271519,-3.9631194182017264,-0.7521491523702148,9.559887692496703,0.30920760947451104,1
334,2024-09-19 22:35:41.360646912,TASK_BEGIN,012,-0.84187228411767,1.617862354547222,8.394931601972742,-0.9760966257329257,-4.020893254814608,-0.7596996257709951,9.94374525409173,0.2677811759322009,1
335,2024-09-19 22:35:41.422374144,TASK_BEGIN,012,-0.6770414726888183,1.5316160018644183,8.443533466044913,-0.9983705120546128,-4.065987996529494,-0.769149624272854,10.318515594508636,0.24118754085314098,1
336,2024-09-19 22:35:42.348750080,TASK_BEGIN,012,-0.4887475949515089,1.435124483035419,8.41722789895139,-0.9967738094854274,-4.095571324645017,-0.7805804119331495,10.670637683751508,0.23235460191386634,1
337,2024-09-19 22:35:42.416502016,TASK_BEGIN,012,-0.2806599183147451,1.3306904098541583,8.315030058981035,-0.9704709769177499,-4.107954663046954,-0.7937322690378166,10.99023393210747,0.2431045915654514,1
338,2024-09-19 22:35:42.471754240,TASK_BEGIN,012,-0.057350152641372956,1.221268542355966,8.13817704204549,-0.9200071494092927,-4.102613055048518,-0.8080068888750751,11.270460665693939,0.27430789561784163,1
339,2024-09-19 22:35:42.549455872,TASK_BEGIN,012,0.17582240835175778,1.1103707978106663,7.890110645832812,-0.8472502518636985,-4.079999675697695,-0.8225211568107106,11.506700685448942,0.3259956420946908,1
340,2024-09-19 22:35:42.619787776,TASK_BEGIN,012,0.4128887251505778,1.0018825652971892,7.57665346929514,-0.7552232883193958,-4.041195789575256,-0.8361975059746907,11.695649644656736,0.397389557568488,1
341,2024-09-19 22:35:42.680397824,TASK_BEGIN,012,0.6475532848317095,0.8997685175415935,7.206135809061581,-0.6478560892631026,-3.9874591775613286,-0.8478781689036033,11.834605397286898,0.4868610927967513,1
342,2024-09-19 22:35:42.744241920,TASK_BEGIN,012,0.8736039506631131,0.807658519189205,6.78912047565692,-0.5296657575072428,-3.9197688832251707,-0.8564482890158178,11.921397518198233,0.5918711714578384,1
343,2024-09-19 22:35:43.693409024,TASK_BEGIN,012,1.0854492517626417,0.7283388660601483,6.337701156906843,-0.40539183365845344,-3.838509857697073,-0.8609443569593208,11.954986322802583,0.7089583089734943,1
344,2024-09-19 22:35:43.764477952,TASK_BEGIN,012,1.278724883504364,0.6632353526146246,5.864674145610139,-0.2796460428162606,-3.7434152320358702,-0.8606284675527681,11.93635738658065,0.8338313299923793,1
345,2024-09-19 22:35:43.817728000,TASK_BEGIN,012,1.450833396882787,0.6120147933535045,5.382893947518837,-0.15663354023728016,-3.6337536416250584,-0.8550262205420225,11.869313238379362,0.9615953224027388,1
346,2024-09-19 22:35:43.895399168,TASK_BEGIN,012,1.601265295516041,0.5724078302702388,4.904903471575604,-0.039963822510509575,-3.508652925797673,-0.8439305155688429,11.760722794884918,1.0871076045573422,1
347,2024-09-19 22:35:43.957453056,TASK_BEGIN,012,1.7316138145560451,0.5402975160752238,4.442703316815819,0.06746595693238683,-3.3674612204968324,-0.8273673823069249,11.619854858857323,1.2054189235180814,1
348,2024-09-19 22:35:44.034629120,TASK_BEGIN,012,1.84528809681867,0.5100690120837311,4.007518738654625,0.1635297750595989,-3.2100749362183283,-0.8055311024745408,11.457071043494,1.3122036498781489,1
349,2024-09-19 22:35:44.103514880,TASK_BEGIN,012,1.9470029682298362,0.4751808189455036,3.609607800345721,0.2468637405265673,-3.037191040486168,-0.77871198147831,11.282716400244123,1.4040614712581785,1
350,2024-09-19 22:35:45.035124992,TASK_BEGIN,012,2.042154839357561,0.4288925813296292,3.258192942954849,0.3168066728795698,-2.850482269366232,-0.7472347144760563,11.10663257944725,1.4786267247686111,1
351,2024-09-19 22:35:45.112822016,TASK_BEGIN,012,2.1361795499026193,0.36506174518695983,2.9614190278574024,0.373357037060852,-2.652690495511631,-0.7114133677812077,10.937988140709484,1.5345133832990685,1
352,2024-09-19 22:35:45.174396928,TASK_BEGIN,012,2.2339537820130646,0.2788966857644659,2.726140006633917,0.4171595704630905,-2.447593075758629,-0.6715294868587837,10.785099765618128,1.57118006894197,1
353,2024-09-19 22:35:45.250701824,TASK_BEGIN,012,2.3392818511323132,0.16754837954102964,2.557449211348427,0.4494404534466112,-2.239804231069254,-0.6278393720575701,10.65527689694463,1.5888019937369458,1
354,2024-09-19 22:35:45.317183232,TASK_BEGIN,012,2.454516200717638,0.030451065156695142,2.458096025947493,0.4718443282165517,-2.0344287006915205,-0.5806038509081818,10.554847471327692,1.5881742957842175,1
355,2024-09-19 22:35:45.386270976,TASK_BEGIN,012,2.5803642894595953,-0.13063171758593087,2.4280572112159846,0.4862347008572046,-1.8366117132485567,-0.530125379737321,10.489550242729594,1.5705719624862087,1
356,2024-09-19 22:35:45.454056960,TASK_BEGIN,012,2.7158965142511198,-0.3118455537534072,2.4643607605257776,0.49454378279702904,-1.651023494355675,-0.4767853792112959,10.465309414336723,1.5374968898477874,1
357,2024-09-19 22:35:46.393219072,TASK_BEGIN,012,2.858712178142546,-0.5077016011536685,2.561020628758562,0.49870649638540265,-1.4813343839670352,-0.4210807919482048,10.488731913683688,1.4904080418994046,1
358,2024-09-19 22:35:46.464140800,TASK_BEGIN,012,3.0052132739358055,-0.7116562167197407,2.7090218287344516,0.5006571814481486,-1.329781060131458,-0.3636507711003383,10.566302823883936,1.4306600311991313,1
359,2024-09-19 22:35:46.531744768,TASK_BEGIN,012,3.1509736219545648,-0.916731294596153,2.8965569689960797,0.5023172993744106,-1.1969422234073206,-0.30528365107551897,10.702299979096788,1.3597381897664678,1
360,2024-09-19 22:35:46.599683072,TASK_BEGIN,012,3.2911984485821133,-1.116112212660614,3.1097745260959706,0.5054868086382384,-1.0817840374971084,-0.2469075475181149,10.89697519854966,1.279559915948048,1
361,2024-09-19 22:35:46.659799040,TASK_BEGIN,012,3.4212255681405765,-1.3036651447632204,3.334167311622111,0.5116112923473292,-0.9819330985629502,-0.18956839758116828,11.146537711536508,1.1924950396237657,1
362,2024-09-19 22:35:46.721982976,TASK_BEGIN,012,3.536980210536648,-1.474325378433495,3.556466075468338,0.521498485106888,-0.8940747160851872,-0.13438887847305275,11.444979680407913,1.1009955700480367,1
363,2024-09-19 22:35:46.799254784,TASK_BEGIN,012,3.6353171513063187,-1.6243364726038902,3.7664648123892914,0.5351235543935535,-0.8143715763319884,-0.08251001748487992,11.786553690938504,1.0070141027997954,1
364,2024-09-19 22:35:47.721457152,TASK_BEGIN,012,3.714237870387148,-1.751349680316837,3.958061715793403,0.5516245011373822,-0.7388279264864485,-0.035032032397802455,12.167514394701426,0.9114817567565714,1
365,2024-09-19 22:35:47.784956928,TASK_BEGIN,012,3.772983707290254,-1.854405191599622,4.1293382978782684,0.5694542119620979,-0.6635813021538317,0.007038943040730793,12.586193149080401,0.8140855117521177,1
366,2024-09-19 22:35:47.846125056,TASK_BEGIN,012,3.8119984437331764,-1.9338165623426968,4.282046960276798,0.5865680890046325,-0.5851473386672825,0.042849888994759514,13.041240552803988,0.7134861333635857,1
367,2024-09-19 22:35:47.923304192,TASK_BEGIN,012,3.8327896154217704,-1.9909833896038307,4.420782753064126,0.6005959723187777,-0.5006487288226833,0.07177483871501628,13.52874854115803,0.6079105296039105,1
368,2024-09-19 22:35:47.985789952,TASK_BEGIN,012,3.837753510292584,-2.0281634074731585,4.551827562046557,0.6090569021079805,-0.4080499115690682,0.09349738738239183,14.039637916581754,0.4958444512986268,1
369,2024-09-19 22:35:48.060267008,TASK_BEGIN,012,3.8299918312172525,-2.048230352823636,4.681738494079466,0.6096680847337919,-0.3063959208234272,0.10808602245118806,14.558785104204556,0.37651523121052766,1
370,2024-09-19 22:35:48.127990016,TASK_BEGIN,012,3.813088726138316,-2.0544308931381874,4.81604322085841,0.6007045627899168,-0.19602479761264685,0.11604652391807704,15.066597696512378,0.24999755306376176,1
371,2024-09-19 22:35:49.062423808,TASK_BEGIN,012,3.790832716028873,-2.050150584820395,4.958505774671004,0.5812925654040805,-0.07869767346300169,0.11833631956011396,15.5423964992408,0.11699412389630114,1
372,2024-09-19 22:35:49.138919168,TASK_BEGIN,012,3.766933480201632,-2.0387072838720437,5.111155483155602,0.551521383506973,0.042454215824703524,0.11632031945017032,15.968018993733999,-0.0214916447698082,1
373,2024-09-19 22:35:49.207072000,TASK_BEGIN,012,3.744787749829272,-2.0231895228363843,5.274780724766776,0.5123419932485581,0.16326115791411736,0.11165291540668597,16.33038414683912,-0.1643989538004252,1
374,2024-09-19 22:35:49.265264896,TASK_BEGIN,012,3.7272877867924286,-2.00634002520545,5.449312491638722,0.465330411213517,0.27907829630626474,0.10610106785585931,16.62292993126426,-0.3107575187824669,1
375,2024-09-19 22:35:49.342444800,TASK_BEGIN,012,3.7166446886567286,-1.9904718275410171,5.633712040377844,0.4124339997868013,0.3853872839780628,0.10135454926225665,16.84642183847853,-0.45980681523278116,1
376,2024-09-19 22:35:49.404509952,TASK_BEGIN,012,3.7142468850863284,-1.9774110648654757,5.825422554284765,0.35576556945350984,0.4782596387681563,0.09887310141264545,17.008994229031615,-0.6110113697712689,1
377,2024-09-19 22:35:49.473576960,TASK_BEGIN,012,3.720618050436863,-1.968474619579522,6.0197504383559695,0.29744996476973085,0.5546341489786036,0.09979457520577649,17.12460245067431,-0.7637947723492289,1
378,2024-09-19 22:35:50.418784000,TASK_BEGIN,012,3.7355217585708655,-1.9644913558061912,6.209556289119267,0.23951993024772172,0.6124814021050721,0.1048886562672423,17.209628838989744,-0.9169905671202375,1
379,2024-09-19 22:35:50.488774144,TASK_BEGIN,012,3.7581846356707143,-1.9658564715251263,6.385575108632599,0.18383671197442988,0.6509601109411003,0.11452152142995084,17.27867459188894,-1.068265521844413,1
380,2024-09-19 22:35:50.556516864,TASK_BEGIN,012,3.7875317882085646,-1.9725900496879523,6.537577541262181,0.13196814932256598,0.6705606087953006,0.12862033759229283,17.34105566215273,-1.2138000309551604,1
381,2024-09-19 22:35:50.624406016,TASK_BEGIN,012,3.822333045522895,-1.9843797601306585,6.656186726299801,0.08500163659553267,0.6730999631877462,0.14666211883084618,17.398874796421225,-1.348344907432006,1
382,2024-09-19 22:35:50.692009984,TASK_BEGIN,012,3.861246688277772,-2.0006158154855807,6.734779970007706,0.043362156664803427,0.6614955933862173,0.16771216721916812,17.446825044333817,-1.4656369795960147,1
383,2024-09-19 22:35:50.759712000,TASK_BEGIN,012,3.90282090828075,-2.0204386469078877,6.770950232734392,0.006713969720450136,0.6394332812080786,0.19050822935757053,17.47362227856663,-1.5590978659606303,1
384,2024-09-19 22:35:50.818568960,TASK_BEGIN,012,3.945522717241906,-2.0428086133115113,6.767192090447891,-0.026017804622601722,0.611095526925609,0.21356787432057006,17.46474768316476,-1.6226821948317705,1
385,2024-09-19 22:35:51.771428864,TASK_BEGIN,012,3.987833095258698,-2.066593738995765,6.7306237630074754,-0.0564973497795911,0.5809953142736503,0.2353021779883213,17.40583850919265,-1.651685245510592,1
386,2024-09-19 22:35:51.831290112,TASK_BEGIN,012,4.02839554955215,-2.090665345202366,6.671839498584433,-0.0867214430559093,0.5538193385108988,0.25413372905787,17.285783363946855,-1.6433158636419158,1
387,2024-09-19 22:35:51.906606848,TASK_BEGIN,012,4.06616500790935,-2.113988284949156,6.603227467194552,-0.11869153811952636,0.5341471442864798,0.2686222308382429,17.09862495826766,-1.5969221878519282,1
388,2024-09-19 22:35:51.974528000,TASK_BEGIN,012,4.100508684627071,-2.1356901306589275,6.537116542845377,-0.15404987367052203,0.5260466374011405,0.2775875519728458,16.843928591705904,-1.513912243196376,1
389,2024-09-19 22:35:52.033492224,TASK_BEGIN,012,4.131242254891733,-2.155094985216261,6.4840982329642465,-0.19374061211373458,0.5327130501164546,0.28020802840137976,16.52587029095482,-1.3975006917555344,1
390,2024-09-19 22:35:52.110262016,TASK_BEGIN,012,4.15860917989308,-2.1717187716011,6.451834749705986,-0.23778215291411628,0.5562912281410326,0.2760819424915677,16.151436185905215,-1.252347125488347,1
391,2024-09-19 22:35:52.178042112,TASK_BEGIN,012,4.183221081208331,-2.185238774866403,6.444492365922253,-0.2852120334299086,0.5978685058084452,0.2652527934931641,15.728294782950382,-1.08410208974537,1
392,2024-09-19 22:35:53.083944192,TASK_BEGIN,012,4.2059821853497406,-2.1954562255083707,6.4626581773286675,-0.33419720993538077,0.6575554679335125,0.2481972984005592,15.26339940244665,-0.8989795661242047,1
393,2024-09-19 22:35:53.164733952,TASK_BEGIN,012,4.228017644111706,-2.2022663422739046,6.5034092280756735,-0.38224360356162407,0.7345910401900493,0.2257768177047851,14.763284211759258,-0.7035274683541737,1
394,2024-09-19 22:35:53.232483840,TASK_BEGIN,012,4.250600547775412,-2.2056446739729587,6.560314304029477,-0.42644484379467723,0.8274528869662358,0.19916039250411546,14.235915465822023,-0.5045972493981161,1
395,2024-09-19 22:35:53.300260096,TASK_BEGIN,012,4.275052899174301,-2.205651440443266,6.623483395197067,-0.4637514639348764,0.9340030098744958,0.16972534077798063,13.692839500585546,-0.3093227977241973,1
396,2024-09-19 22:35:53.367965696,TASK_BEGIN,012,4.302612716535897,-2.202444035250306,6.680020113699926,-0.49125037170324004,1.0516971676824443,0.13893835728581033,13.150107022074724,-0.12492692118050278,1
397,2024-09-19 22:35:53.435726848,TASK_BEGIN,012,4.334285299821086,-2.1962820614840086,6.715183771287049,-0.5064333311269241,1.1778478466161424,0.10822761257365188,12.627158808157452,0.04169739790022602,1
398,2024-09-19 22:35:53.502386944,TASK_BEGIN,012,4.3707099822547555,-2.1875196854108228,6.714228747133001,-0.5074292321390459,1.3099137394416196,0.07886880218630814,12.144263810114797,0.1845402936507528,1
399,2024-09-19 22:35:54.446853120,TASK_BEGIN,012,4.412075956790716,-2.17659277721492,6.6644530709309375,-0.49316419649215304,1.4457489248442148,0.051916873099643185,11.72008169250614,0.2989691815632945,1
400,2024-09-19 22:35:54.514363136,TASK_BEGIN,012,4.458101281413086,-2.164005762873473,6.556888287485761,-0.463425610215931,1.5836944429965125,0.02820178806763046,11.370317508816706,0.3820228708560895,1
401,2024-09-19 22:35:54.566881792,TASK_BEGIN,012,4.508070979606794,-2.1503166882501223,6.387406990206479,-0.4188569654210791,1.7224617970004794,0.008370203374751665,11.107129546317784,0.4325044438543753,1
402,2024-09-19 22:35:54.649814016,TASK_BEGIN,012,4.560936639355561,-2.136121867195009,6.157278930192818,-0.36091959959618053,1.8608955718838625,-0.007065732880450382,10.938643290466995,0.45091080554777613,1
403,2024-09-19 22:35:54.715591680,TASK_BEGIN,012,4.61546542072487,-2.1220422088092983,5.8731161907649145,-0.2918049939334062,1.9977315777153195,-0.017699310546747532,10.86847728498016,0.4392311966697575,1
404,2024-09-19 22:35:54.785700096,TASK_BEGIN,012,4.670370091141097,-2.1087040365748497,5.54612685650553,-0.2142641706670167,2.1314005015893223,-0.023228331972368958,10.895454805082327,0.40070408630973603,1
405,2024-09-19 22:35:54.852478976,TASK_BEGIN,012,4.724343702512298,-2.0967045459516154,5.190819623334053,-0.13136109365266754,2.259909457295578,-0.023481584992129698,11.0134827271091,0.3396291921272361,1
406,2024-09-19 22:35:55.796872960,TASK_BEGIN,012,4.77602687916272,-2.0865693443360405,4.823459057630058,-0.04619267969900055,2.3808669038649812,-0.018467204873398584,11.21152716654446,0.26120174550879854,1
407,2024-09-19 22:35:55.864708864,TASK_BEGIN,012,4.824029953445738,-2.078725367502093,4.460463174199354,0.038373743562198664,2.4916902450814873,-0.008430927441182238,11.473905526702103,0.1712359408369208,1
408,2024-09-19 22:35:55.932444160,TASK_BEGIN,012,4.867068928066494,-2.073499198454146,4.116760617877282,0.11991036235686034,2.5899488692057777,0.006093519212644922,11.781278824733253,0.07574350502175245,1
409,2024-09-19 22:35:56.000160768,TASK_BEGIN,012,4.90413730256964,-2.071125287748209,3.8042351937344865,0.19656543961422396,2.673747781203908,0.02425510956269687,12.112446424801332,-0.01951315796044679,1
410,2024-09-19 22:35:56.067517952,TASK_BEGIN,012,4.934606086273623,-2.071746287106256,3.5306865800118787,0.26709535534572715,2.7420604165249864,0.04488435921857356,12.44661750646843,-0.10939676996719372,1
411,2024-09-19 22:35:56.135087872,TASK_BEGIN,012,4.958223480779649,-2.0754053300727104,3.2997585067279673,0.33076839800338426,2.7949260538553364,0.06653448054134026,12.765604618113326,-0.18971869223063773,1
412,2024-09-19 22:35:56.201538048,TASK_BEGIN,012,4.975052981388589,-2.082043002063791,3.1119198980913847,0.38717188838682115,2.8334591545399577,0.08757999019542115,13.055381844444376,-0.25751995541770695,1
413,2024-09-19 22:35:57.136603136,TASK_BEGIN,012,4.985397362104375,-2.0915116409963344,2.966111151905631,0.43599662504045567,2.859696768542603,0.10635989410837003,13.30674316247397,-0.31122769122690624,1
414,2024-09-19 22:35:57.215387904,TASK_BEGIN,012,4.9897343102773934,-2.1036069674584397,2.861347717715715,0.47685934894033627,2.876386768845918,0.12131962645026563,13.515271195647689,-0.35060016159185886,1
415,2024-09-19 22:35:57.283160832,TASK_BEGIN,012,4.988659120465383,-2.118101034113408,2.797629670091897,0.509197358652011,2.8868154288508348,0.13111092135808108,13.680914451853846,-0.3764553829374842,1
416,2024-09-19 22:35:57.350938880,TASK_BEGIN,012,4.982810636157942,-2.134759022230762,2.7759878143303807,0.5322507641783607,2.8946758421799452,0.13464885839277774,13.807175121062775,-0.3902636285743438,1
417,2024-09-19 22:35:57.418683136,TASK_BEGIN,012,4.97276795798964,-2.1533347165235757,2.797975231776165,0.5451251015843642,2.903900067122892,0.13115029660477245,13.899930419753531,-0.3937579301597643,1
418,2024-09-19 22:35:57.486455040,TASK_BEGIN,012,4.958933885795581,-2.173549345799899,2.8649739697401104,0.5469224731737803,2.9184030883055456,0.12016514320399219,13.966321152416494,-0.38873109421790214,1
419,2024-09-19 22:35:57.554254080,TASK_BEGIN,012,4.941440978361354,-2.195060974515273,2.977541674916124,0.5369300183778205,2.9417597634357757,0.10159458123874258,14.014314217534153,-0.37707508372242726,1
420,2024-09-19 22:35:58.482204160,TASK_BEGIN,012,4.920120064464864,-2.217431508906981,3.13496035365498,0.514818465342404,2.9768718421603584,0.07569366721483932,14.053141732463493,-0.360975309971303,1
421,2024-09-19 22:35:58.560425984,TASK_BEGIN,012,4.89455425289208,-2.2400996697090156,3.3350767525786256,0.4807731114290132,3.0256750295908184,0.04306308826265841,14.094160347751938,-0.3431304483352972,1
422,2024-09-19 22:35:58.632870144,TASK_BEGIN,012,4.864209132134009,-2.2623705912499807,3.5744016822268043,0.4355143880807942,3.0889217141226224,0.004630304212420905,14.151268470036591,-0.32686559426752454,1
423,2024-09-19 22:35:58.700613888,TASK_BEGIN,012,4.828617141414576,-2.283431403810795,3.84835241772698,0.38022827060983044,3.166060476193456,-0.038387921162121495,14.240182239469446,-0.3160223935582457,1
424,2024-09-19 22:35:58.767508992,TASK_BEGIN,012,4.7876056022771865,-2.3023949950685076,4.151471530665349,0.3164536903766242,3.255220756583842,-0.08455042296669049,14.376554085095023,-0.3146359773027721,1
425,2024-09-19 22:35:58.836252928,TASK_BEGIN,012,4.741537325993904,-2.3183641750909376,4.477479476906052,0.24596669598613805,3.3533104000337937,-0.1322822087623506,14.573454408412974,-0.3265107890708807,1
426,2024-09-19 22:35:58.897041920,TASK_BEGIN,012,4.691476049504338,-2.3305039368844636,4.819222162141662,0.17068575578688117,3.456222549980101,-0.17997200159672005,14.838864629218564,-0.3547690586328873,1
427,2024-09-19 22:35:59.808921088,TASK_BEGIN,012,4.6391803010773796,-2.3381145204505906,5.168784279809815,0.09260596813146744,3.5591212283326863,-0.22605365922434914,15.173962893815828,-0.4014361541060413,1
428,2024-09-19 22:35:59.885914112,TASK_BEGIN,012,4.586906971087677,-2.3407001822349742,5.517929166194307,0.013760472591038252,3.6567719007854462,-0.2690644442808132,15.572784203966034,-0.4671724987864823,1
429,2024-09-19 22:35:59.957971200,TASK_BEGIN,012,4.537098567458377,-2.338019319899214,5.858750810750031,-0.06379878587774686,3.7439067048916814,-0.30769095371985944,16.02309971921609,-0.5512140138561458,1
430,2024-09-19 22:36:00.024239872,TASK_BEGIN,012,4.4920534776750465,-2.3300982399032706,6.184345423398786,-0.1380168041468675,3.815648610750681,-0.34082068911010827,16.507981118010118,-0.6514842408554657,1
431,2024-09-19 22:36:00.090322944,TASK_BEGIN,012,4.453644727371165,-2.3172074384495014,6.489319635578426,-0.20685252023270667,3.868041317783141,-0.36761287470118637,17.00765409954629,-0.7648097787728888,1
432,2024-09-19 22:36:00.153886976,TASK_BEGIN,012,4.423112468640892,-2.2998179390562403,6.769932555802045,-0.26828415724824667,3.8986419297835164,-0.3875780728221684,17.501212397899334,-0.8871832880391424,1
433,2024-09-19 22:36:00.225681920,TASK_BEGIN,012,4.400928852567127,-2.2785542738355478,7.0238091144411445,-0.32031025593475904,3.9069569562683153,-0.40063037998449047,17.967741448401828,-1.0140222088225028,1
434,2024-09-19 22:36:01.166260992,TASK_BEGIN,012,4.386735231030945,-2.2541469952518516,7.249369218188671,-0.36098910492402725,3.894486831189205,-0.407083876857987,18.38684741683529,-1.1404023857340098,1
435,2024-09-19 22:36:01.228744960,TASK_BEGIN,012,4.379375446910644,-2.2273830974012316,7.445156436253851,-0.38854416393072344,3.8643565836777944,-0.40759330656895004,18.739043693405204,-1.2612959406948117,1
436,2024-09-19 22:36:01.306852096,TASK_BEGIN,012,4.377038518080056,-2.1990613782831128,7.609213330191623,-0.40150569278328857,3.8207092411116577,-0.40305413183918276,19.006357491086355,-1.3718171624026616,1
437,2024-09-19 22:36:01.368621056,TASK_BEGIN,012,4.3774686461841466,-2.1699639973702647,7.738653992021791,-0.39883666989695166,3.768069569376115,-0.39448508303699825,19.173057522645728,-1.4674055964816914,1
438,2024-09-19 22:36:01.442779904,TASK_BEGIN,012,4.378177006145095,-2.140845775790498,7.829615465384154,-0.3800337756931232,3.710827101289818,-0.38292675428481754,19.22613030907054,-1.5439017035327602,1
439,2024-09-19 22:36:01.507375872,TASK_BEGIN,012,4.37662528626219,-2.112427788438146,7.877779708439193,-0.3452400525905214,3.6529198083309145,-0.369380254742528,19.1554438291417,-1.5975918775550988,1
440,2024-09-19 22:36:01.569379840,TASK_BEGIN,012,4.3703853895840235,-2.085374627760496,7.879489788376755,-0.2953941291618296,3.597712616886476,-0.3547759140992607,18.954171491336826,-1.6253504729388282,1
441,2024-09-19 22:36:02.513673216,TASK_BEGIN,012,4.357289555451485,-2.0602475718170297,7.833091987318974,-0.2323800726481908,3.5479677762022535,-0.33994512841936064,18.620136106962935,-1.6249491970198076,1
442,2024-09-19 22:36:02.575248128,TASK_BEGIN,012,4.335581550512864,-2.037451896960823,7.739832051510021,-0.15908624480199485,3.5057599633887313,-0.32558528734938164,18.157814441212825,-1.5954943195122782,1
443,2024-09-19 22:36:02.645967104,TASK_BEGIN,012,4.304060794663905,-2.0172068105321785,7.60382512269572,-0.07929050783524502,3.472261258041521,-0.31222418495461923,17.579782584319638,-1.5378128567710259,1
444,2024-09-19 22:36:02.723649024,TASK_BEGIN,012,4.2622004896972765,-1.9995511791156675,7.431263808049421,0.002625703830373919,3.447484226155075,-0.3001907688463359,16.906616847146363,-1.4545692298875843,1
445,2024-09-19 22:36:02.792777216,TASK_BEGIN,012,4.210225502413434,-1.98437688671284,7.229587455442153,0.08203266070052607,3.43017883369015,-0.28960136722084223,16.16523658561342,-1.3500433153206084,1
446,2024-09-19 22:36:02.860524800,TASK_BEGIN,012,4.149131900940176,-1.9714720521110327,7.0073097024553155,0.15435033034349707,3.418034718590343,-0.28037884037020455,15.386353624155653,-1.2296822928606432,1
447,2024-09-19 22:36:02.924494848,TASK_BEGIN,012,4.080631205883743,-1.9605629609382975,6.774585061922706,0.21523821049256006,3.408194572514706,-0.2723176757146246,14.601957393401664,-1.0995860665706572,1
448,2024-09-19 22:36:03.834286848,TASK_BEGIN,012,4.007023056824126,-1.951355182467767,6.543919368575106,0.26072022498711916,3.3979333604830613,-0.2651834327425061,13.843528093736095,-0.9660259964681805,1
449,2024-09-19 22:36:03.914148864,TASK_BEGIN,012,3.931014800160334,-1.9435716958705453,6.330262640797906,0.28731498479340156,3.385287471069145,-0.25881157312956143,13.141067911685381,-0.8350452958879567,1
450,2024-09-19 22:36:03.973499136,TASK_BEGIN,012,3.85551828535505,-1.9369752715174915,6.150111628933074,0.29221736678851223,3.3694579619652996,-0.2531706477204219,12.522746424992516,-0.7121945467278101,1
451,2024-09-19 22:36:04.035985152,TASK_BEGIN,012,3.78346945274926,-1.9313674388744881,6.019785233245813,0.27354439045809237,3.350899265565043,-0.24837410547429897,12.0148969758732,-0.6024493556590695,1
452,2024-09-19 22:36:04.114090752,TASK_BEGIN,012,3.717683559882353,-1.9265699789725692,5.953327968347966,0.2306162366678838,3.3310788220665515,-0.2446461187015143,11.64180694509446,-0.510256185500226,1
453,2024-09-19 22:36:04.176129792,TASK_BEGIN,012,3.6606946035145613,-1.9223952544619565,5.960538895230517,0.16419573874926774,3.311983763389154,-0.2422586306042496,11.424552202200717,-0.4395195422552113,1
454,2024-09-19 22:36:04.238991872,TASK_BEGIN,012,3.6145451901405665,-1.918607411788042,6.045571500568348,0.07659907975279284,3.295552432049006,-0.24145615406956616,11.378614155424934,-0.39336501501129245,1
455,2024-09-19 22:36:05.196371200,TASK_BEGIN,012,3.5805907299341904,-1.9148863027072136,6.2063324334412355,-0.028364319349751296,3.2832234483124165,-0.24238131467117452,11.511028187064936,-0.3737151908460857,1
456,2024-09-19 22:36:05.264476928,TASK_BEGIN,012,3.559421375279238,-1.910819057077161,6.434565986033407,-0.1456117527057525,3.2757063901670973,-0.24501909083872153,11.818401492330532,-0.3808914684984235,1
457,2024-09-19 22:36:05.331687936,TASK_BEGIN,012,3.550927697511581,-1.9059344946282557,6.716399910843921,-0.2691346100721865,3.272969575695049,-0.24917841952808026,12.286734977829438,-0.4134793978478619,1
458,2024-09-19 22:36:05.386533888,TASK_BEGIN,012,3.5544390636834873,-1.8997666739735048,7.033279631763761,-0.3924321553060424,3.2743792654376573,-0.2545144487207707,12.893104329705038,-0.4685916267317121,1
459,2024-09-19 22:36:05.464643072,TASK_BEGIN,012,3.5688531069912606,-1.8919157111162201,7.363281308919837,-0.5089800995790692,3.278937364717195,-0.2605787374591304,13.608417494295935,-0.5424272146140886,1
460,2024-09-19 22:36:05.534066944,TASK_BEGIN,012,3.592726952021813,-1.8820804004313079,7.6827288703433325,-0.6126883742230302,3.2855979016333126,-0.26688257325166476,14.399950509797925,-0.6307925053606044,1
461,2024-09-19 22:36:05.603303936,TASK_BEGIN,012,3.624338346615289,-1.8700592383625343,7.967990230908754,-0.6983224061800125,3.2936064118388355,-0.2729654304467016,15.232799906344793,-0.7292960751621891,1
462,2024-09-19 22:36:06.545627136,TASK_BEGIN,012,3.6617328982321653,-1.8557346183514754,8.197247606756363,-0.7618644372770896,3.3027536235982167,-0.2784670128809079,16.070592385752665,-0.8332501841128007,1
463,2024-09-19 22:36:06.614242816,TASK_BEGIN,012,3.702771820990283,-1.8390543170476294,8.352015817679282,-0.8007738406985785,3.3134872946710656,-0.283199796664153,16.876456877950126,-0.9375634001228158,1
464,2024-09-19 22:36:06.681993984,TASK_BEGIN,012,3.7451924970789823,-1.8200152936969805,8.418354397275035,-0.8141042226483887,3.326897447294792,-0.2872009507011196,17.614945773611677,-1.0368756378657642,1
465,2024-09-19 22:36:06.742532096,TASK_BEGIN,012,3.7866916230100474,-1.7986525378477694,8.387914170683485,-0.8024797355467821,3.344548029658253,-0.29072379523847675,18.25500991886413,-1.1259811354403595,1
466,2024-09-19 22:36:06.817491968,TASK_BEGIN,012,3.825033222265497,-1.7750364525316258,8.258914285549407,-0.7679884348704835,3.3681095945198347,-0.29415046397440753,18.773566822178,-1.2004210196901046,1
467,2024-09-19 22:36:06.877889024,TASK_BEGIN,012,3.8581672085749434,-1.749279824072729,8.036842369560201,-0.7140449146995009,3.398881557586247,-0.29786312189013975,19.158566702290354,-1.257070281915709,1
468,2024-09-19 22:36:06.944214016,TASK_BEGIN,012,3.8843236632645293,-1.7215500703306486,7.734455511151939,-0.6452134256782928,3.4374196987802232,-0.30213979307959515,19.410339273808102,-1.294553096406354,1
469,2024-09-19 22:36:07.896500992,TASK_BEGIN,012,3.90205818258447,-1.692080044571304,7.370831908032362,-0.5669366735840232,3.4834393330080067,-0.3071141150467991,19.540823210152162,-1.3133912602980697,1
470,2024-09-19 22:36:07.964303872,TASK_BEGIN,012,3.9102691714439244,-1.661178275995357,6.969602612905319,-0.4851291799696712,3.5359920377733354,-0.3127890081339563,19.571209287303006,-1.3158955540811497,1
471,2024-09-19 22:36:08.032044800,TASK_BEGIN,012,3.908217521161608,-1.6292469710083852,6.556761072259865,-0.40566524103478074,3.5937651163218054,-0.319068520778636,19.528760671884914,-1.3058589036611719,1
472,2024-09-19 22:36:08.091899904,TASK_BEGIN,012,3.895541171350798,-1.5968081935714793,6.158462125680533,-0.3338577666188339,3.65534577899424,-0.32578494617729664,19.443504855980244,-1.2881043861231034,1
473,2024-09-19 22:36:08.167459840,TASK_BEGIN,012,3.872251782599966,-1.5645243514004117,5.799011566575178,-0.27402053821317673,3.719395586410757,-0.33272371155689046,19.34545287064485,-1.2679560331358357,1
474,2024-09-19 22:36:08.230118912,TASK_BEGIN,012,3.8387358212386045,-1.5331982085647315,5.499088901265173,-0.22916374212562216,3.784750531505455,-0.3396541546238931,19.262571500565254,-1.2507120970921626,1
475,2024-09-19 22:36:08.302928896,TASK_BEGIN,012,3.795799018513333,-1.5037515349312938,5.274318133224919,-0.2008498712104835,3.85044559770604,-0.3463595212336618,19.219041129952775,-1.2411521449770209,1
476,2024-09-19 22:36:09.246597120,TASK_BEGIN,012,3.7447727598374576,-1.477192182020557,5.134357047065862,-0.18921780073238317,3.9156511468370354,-0.35265123548940996,19.233270896597702,-1.2430774273865788,1
477,2024-09-19 22:36:09.313829888,TASK_BEGIN,012,3.6876442125673212,-1.4545737416887188,5.082541569430971,-0.19314167321203835,3.9795585779325235,-0.358367700399182,19.31576221065798,-1.2589439938563205,1
478,2024-09-19 22:36:09.382238976,TASK_BEGIN,012,3.6271079967814366,-1.4369409716458397,5.116005692271978,-0.21046666525084262,4.041286457575261,-0.363374478682962,19.467348693259314,-1.2896937386908305,1
479,2024-09-19 22:36:09.448919808,TASK_BEGIN,012,3.5664475758210634,-1.4252567226431625,5.226226043154965,-0.23828760531305,4.099831268535206,-0.3675717448795579,19.67843085090362,-1.334824271234929,1
480,2024-09-19 22:36:09.515656960,TASK_BEGIN,012,3.509256099183446,-1.420320515995939,5.3999795365919665,-0.273264636967554,4.154034424656708,-0.3708952565115136,19.929815862836207,-1.3926479652321073,1
481,2024-09-19 22:36:09.581947904,TASK_BEGIN,012,3.4590862448834367,-1.4226954701714896,5.6206841911752825,-0.3119620090760312,4.202569403725071,-0.37330508040856203,20.195336491171425,-1.4606386207591344,1
482,2024-09-19 22:36:09.645498112,TASK_BEGIN,012,3.419097108911305,-1.432651347060416,5.870055493168494,-0.3511813812594084,4.244027762711797,-0.37478080704330813,20.445500984147667,-1.535723735211158,1
483,2024-09-19 22:36:10.571966720,TASK_BEGIN,012,3.3917226725143523,-1.450124515590933,6.129869821695392,-0.3882525135845576,4.27718392625995,-0.37534632062032086,20.650912948442407,-1.614417328100791,1
484,2024-09-19 22:36:10.638969856,TASK_BEGIN,012,3.378404682371371,-1.4747018647917218,6.383411512909174,-0.421225024408447,4.301410292463305,-0.3751250521348003,20.78485200269047,-1.6928607318980537,1
485,2024-09-19 22:36:10.707555840,TASK_BEGIN,012,3.3794518676098435,-1.5056384714354702,6.616273728939165,-0.4489163275528695,4.317079490157098,-0.3744000551634371,20.82542948982066,-1.7669670055177782,1
486,2024-09-19 22:36:10.775304960,TASK_BEGIN,012,3.3940424660248465,-1.5419074893143427,6.816665400691145,-0.4708387412949218,4.325742216947609,-0.37364405207741863,20.757622948135168,-1.8327586861226854,1
487,2024-09-19 22:36:10.843090176,TASK_BEGIN,012,3.4203406685232234,-1.5822715975875257,6.975687410102058,-0.4870847985351756,4.329962676433116,-0.37349751080707533,20.574480499157538,-1.8867611321990243,1
488,2024-09-19 22:36:10.903217920,TASK_BEGIN,012,3.4557074502395846,-1.6253684374895865,7.0878087472776015,-0.49823495481965296,4.332861833870211,-0.3746943895986055,20.276601636125754,-1.926233299972645,1
489,2024-09-19 22:36:10.965238016,TASK_BEGIN,012,3.4970022686269497,-1.6698072468550704,7.151280881807074,-0.5052792290430861,4.337519788008634,-0.3779527179061124,19.870163098217432,-1.9491751805948097,1
490,2024-09-19 22:36:11.921809920,TASK_BEGIN,012,3.5409400249087053,-1.7142702603872284,7.168018168393042,-0.509480709662826,4.34637466705246,-0.3838563445341794,19.364880945422524,-1.9542558639350553,1
491,2024-09-19 22:36:11.989227008,TASK_BEGIN,012,3.5844251023949756,-1.757602481587798,7.142812382874855,-0.5121400093524461,4.360699384955882,-0.39275147739628996,18.773057280829374,-1.940827073453877,1
492,2024-09-19 22:36:12.057393920,TASK_BEGIN,012,3.624800907452443,-1.798871408899646,7.082279558572873,-0.5143258027475988,4.380228372107532,-0.4046745161273543,18.109616832581278,-1.9090326317243493,1
493,2024-09-19 22:36:12.124761088,TASK_BEGIN,012,3.660007795043441,-1.8373906107897584,6.994047661800766,-0.5166867459649009,4.403050693819912,-0.41932723938273947,17.39205391407894,-1.8598555768318636,1
494,2024-09-19 22:36:12.192096000,TASK_BEGIN,012,3.688654932492173,-1.8727127257879264,6.886351840144096,-0.5194075303410595,4.425856725394611,-0.43610835365947254,16.63913613297338,-1.794880316121951,1
495,2024-09-19 22:36:12.260645120,TASK_BEGIN,012,3.7099918274489716,-1.9046002852082544,6.767864685278659,-0.5222881391657886,4.444455429598477,-0.45418686614498394,15.868164856259195,-1.7156983009683238,1
496,2024-09-19 22:36:12.328455168,TASK_BEGIN,012,3.723779540100837,-1.9329857701124624,6.64745869904145,-0.5248666906344767,4.454335841513919,-0.47258748529521416,15.092083991065499,-1.6232351084567502,1
497,2024-09-19 22:36:13.262891008,TASK_BEGIN,012,3.730102900806401,-1.957934186901298,6.533630461966323,-0.5264993984223336,4.451092107484538,-0.4902704695348831,14.318283637964477,-1.5174679269146398,1
498,2024-09-19 22:36:13.330936064,TASK_BEGIN,012,3.729181764476588,-1.9796111489432324,6.433545063456095,-0.5263764215198374,4.430704033739927,-0.506211266497638,13.549760808859958,-1.3977467834036752,1
499,2024-09-19 22:36:13.407448064,TASK_BEGIN,012,3.7212236720431275,-1.9982462787142583,6.352028727317971,-0.5235462023805444,4.389782390107768,-0.519488901392501,12.787651171649534,-1.2635092059729434,1
500,2024-09-19 22:36:13.475233792,TASK_BEGIN,012,3.706345257339562,-2.014088888722368,6.291035658000286,-0.5170417873000077,4.325850423449341,-0.5293742074953594,12.033697730773259,-1.11502425563026,1
501,2024-09-19 22:36:13.542530048,TASK_BEGIN,012,3.6845919865338255,-2.0273748276741808,6.249844212828227,-0.5061087619249816,4.237636818872505,-0.5354022963487888,11.291868105347014,-0.9539096694338165,1
502,2024-09-19 22:36:13.610720000,TASK_BEGIN,012,3.656065170596162,-2.0383257040218794,6.225715436819555,-0.49042400062950336,4.125321300107162,-0.5374250037010905,10.568943955338641,-0.7832965238180531,1
503,2024-09-19 22:36:13.678481152,TASK_BEGIN,012,3.6210969324893445,-2.0471759557165945,6.214616137586104,-0.470198640247043,3.990670593887236,-0.5356374425748314,9.874266015035776,-0.6076441207117963,1
504,2024-09-19 22:36:14.622018048,TASK_BEGIN,012,3.5803739684144573,-2.0542027824006026,6.211920308871426,-0.44615576427802844,3.8369973066662477,-0.5305603952619992,9.21911970534913,-0.43235594160211754,1
505,2024-09-19 22:36:14.689795840,TASK_BEGIN,012,3.5349635969853455,-2.0597418580683997,6.213110013683004,-0.419429323589003,3.668901861070042,-0.5229667648897384,8.61608212695192,-0.2633679123208901,1
506,2024-09-19 22:36:14.745910784,TASK_BEGIN,012,3.4862760646129174,-2.0641902830386165,6.214270605261382,-0.39140985372190623,3.491818544607977,-0.5137636586077631,8.078107407576452,-0.10675178349119649,1
507,2024-09-19 22:36:14.824422144,TASK_BEGIN,012,3.436009642473229,-2.068000976309023,6.212117461666454,-0.3635380401424167,3.3114563230770075,-0.5038590291054853,7.617013626848753,0.03171346618804846,1
508,2024-09-19 22:36:14.886906880,TASK_BEGIN,012,3.386069364562122,-2.0716617537912794,6.203551520344699,-0.33705959682530096,3.133259450619023,-0.4940411397508558,7.241488059417464,0.14703823407208452,1
509,2024-09-19 22:36:14.960792064,TASK_BEGIN,012,3.3384153065088866,-2.0756523986735997,6.185035107228453,-0.3127926625885538,2.9619800095421605,-0.4848882407111944,6.955162736870305,0.23557006772300962,1
510,2024-09-19 22:36:15.028545024,TASK_BEGIN,012,3.294841863398372,-2.08039122624607,6.152201977819637,-0.2909906056635239,2.8014128966022698,-0.47672440450922243,6.755352238310804,0.2954893142027262,1
511,2024-09-19 22:36:15.947089920,TASK_BEGIN,012,3.256751070772107,-2.086193217233776,6.100022458548861,-0.2713604202859057,2.654348096043675,-0.46964223337817274,6.632841011861121,0.32707731854146715,1
512,2024-09-19 22:36:16.014087936,TASK_BEGIN,012,3.224975884756195,-2.093248481880446,6.023549650184526,-0.25321732677304426,2.522764306793422,-0.46359405387159075,6.5730256581552,0.33260728676813767,1
513,2024-09-19 22:36:16.076769024,TASK_BEGIN,012,3.199673230800923,-2.101614149855448,5.91889173791935,-0.23568667222567982,2.4081629969280387,-0.458512771636053,6.558595274151954,0.31582998407417623,1
514,2024-09-19 22:36:16.150409984,TASK_BEGIN,012,3.1803098529700393,-2.1112153076295934,5.783902921809046,-0.21786769256305727,2.3118672390629014,-0.4544100522734496,6.573221038432008,0.2811987877581327,1
515,2024-09-19 22:36:16.218230016,TASK_BEGIN,012,3.1657675031167245,-2.1218589768796687,5.61837440411331,-0.19894757883230488,2.2351733900893596,-0.45142350699541683,6.6048343539022625,0.2331138683947216,1
516,2024-09-19 22:36:16.274129920,TASK_BEGIN,012,3.154547931472357,-2.1332615555582493,5.42387683288128,-0.17830913091290618,2.179308598389431,-0.4498066583246583,6.647199611013915,0.1754293359217016,1
517,2024-09-19 22:36:16.351535104,TASK_BEGIN,012,3.1450099548153605,-2.1450810770099453,5.203438407945032,-0.15564024417031952,2.1451772476268474,-0.4498700720916578,6.699662052636509,0.11126725484058742,1
518,2024-09-19 22:36:17.292448000,TASK_BEGIN,012,3.135577727998477,-2.156946322955317,4.96119559803383,-0.13100345308232286,2.1329657457312323,-0.451901085913033,6.765853606101231,0.04302454317249123,1
519,2024-09-19 22:36:17.364980992,TASK_BEGIN,012,3.124899925505968,-2.1684822094027774,4.702225971947994,-0.1048360957193952,2.1417619951793307,-0.45609126107985437,6.852060832076319,-0.02753137330353248,1
520,2024-09-19 22:36:17.422034944,TASK_BEGIN,012,3.111967551233775,-2.1793324022682485,4.432619035304634,-0.0778777162840542,2.1693385289140372,-0.4624808343016071,6.965531877539262,-0.09912047480474465,1
521,2024-09-19 22:36:17.494632960,TASK_BEGIN,012,3.0961938280792936,-2.1891773133113097,4.15955224852841,-0.05103791783152878,2.2121635558343367,-0.47091867622651784,7.112932337127677,-0.17080545812501696,1
522,2024-09-19 22:36:17.568289024,TASK_BEGIN,012,3.0774326016544262,-2.1977469280560475,3.8912140290629478,-0.025254392737027585,2.2656083621858216,-0.4810445251877678,7.299316021715911,-0.24189604668590065,1
523,2024-09-19 22:36:17.633897984,TASK_BEGIN,012,3.0559068805489167,-2.2048303548897406,3.636671186839605,-0.0014084564595569402,2.3242801692734907,-0.4923065902461622,7.52790326957042,-0.3119225612004174,1
524,2024-09-19 22:36:17.703774976,TASK_BEGIN,012,3.0320664381621083,-2.210283109794436,3.4057198252466443,0.01967162451230936,2.382427881410618,-0.5040146280950778,7.800540706611219,-0.3806548608030618,1
525,2024-09-19 22:36:18.647514112,TASK_BEGIN,012,3.0064509661485928,-2.2140351065801225,3.208528184790729,0.03714549991760519,2.4343922611913618,-0.5154091824442667,8.118239277023468,-0.44808513182893256,1
526,2024-09-19 22:36:18.713109248,TASK_BEGIN,012,2.9796305696194234,-2.2161053645620994,3.0548602504172737,0.0501069577529287,2.475097050734489,-0.5257317525830455,8.481175500021477,-0.514286710120501,1
527,2024-09-19 22:36:18.783074048,TASK_BEGIN,012,2.9522217919707447,-2.2166218233635226,2.9528731330196543,0.05762513466310574,2.5005831960333023,-0.5343031151058357,8.88805072803451,-0.5791787169973693,1
528,2024-09-19 22:36:18.850816000,TASK_BEGIN,012,2.924919637982583,-2.215832345463865,2.9077698473285922,0.05890321103024452,2.508518549702958,-0.540615358810613,9.335092216262591,-0.6423322057377169,1
529,2024-09-19 22:36:18.915549184,TASK_BEGIN,012,2.8984965478465683,-2.2140912300959026,2.9208070952765386,0.05348668177429613,2.4985195494581385,-0.5444108042353993,9.815011627377721,-0.7029025679444576,1
530,2024-09-19 22:36:18.986018816,TASK_BEGIN,012,2.8737550756288273,-2.2118149202327464,2.989081441842081,0.04141555187617412,2.4721226750689667,-0.5457070185670273,10.316308522363768,-0.7596692232929372,1
531,2024-09-19 22:36:19.041808128,TASK_BEGIN,012,2.8514553760339143,-2.2094169062515845,3.1061177255747072,0.023254360253474035,2.432382424461395,-0.544758770793124,10.823403854593199,-0.8111476808153574,1
532,2024-09-19 22:36:19.988593920,TASK_BEGIN,012,2.8322625517382227,-2.207244901578963,3.262877615424317,1.4473413126834265e-05,2.383247109518846,-0.541986590807124,11.317891337218768,-0.8557815751670654,1
533,2024-09-19 22:36:20.051867904,TASK_BEGIN,012,2.816729047795285,-2.2055366153640072,3.4487297955011487,-0.026963722912731216,2.3289208851111187,-0.5379034247817506,11.780754311108248,-0.8922196115200605,1
534,2024-09-19 22:36:20.130023936,TASK_BEGIN,012,2.8052732197449646,-2.2043936012717475,3.652190634414629,-0.05611961926008916,2.2733422837288524,-0.533044683906226,12.194916448884108,-0.9195944140721845,1
535,2024-09-19 22:36:20.191924992,TASK_BEGIN,012,2.7981272252394715,-2.2037710152044463,3.861615246579761,-0.08579035748861724,2.219808989589189,-0.5278910458227059,12.547272077459844,-0.9376559728813212,1
536,2024-09-19 22:36:20.268687104,TASK_BEGIN,012,2.795289630136097,-2.2034911861570894,4.066114010796261,-0.11438615061264651,2.170731622343177,-0.5227856566508121,12.82968051666781,-0.9467090908822132,1
537,2024-09-19 22:36:20.336424192,TASK_BEGIN,012,2.796540345414732,-2.2032891185731174,4.256579574235104,-0.14059676689953243,2.1275047059724708,-0.5178702528702853,13.03896985496819,-0.9474721105817373,1
538,2024-09-19 22:36:20.404225024,TASK_BEGIN,012,2.8015336264585575,-2.2028821823138522,4.426339313140792,-0.16351941422674157,2.090508395523742,-0.5130704583150978,13.176232535196045,-0.9409926791849416,1
539,2024-09-19 22:36:21.318384640,TASK_BEGIN,012,2.8099191466147526,-2.2020368636147207,4.571200923871816,-0.1826534697858941,2.059254845300115,-0.5081437927331767,13.245773480784504,-0.9286191003745458,1
540,2024-09-19 22:36:21.389747968,TASK_BEGIN,012,2.8214054600305314,-2.200601972957957,4.689168318348102,-0.19783011578529916,2.032654735092272,-0.502778814222555,13.25418063848193,-0.9119384293079482,1
541,2024-09-19 22:36:21.457541120,TASK_BEGIN,012,2.835716658357309,-2.198498535397177,4.780179365184499,-0.2091576621457351,2.0093503332086806,-0.49671694355717816,13.209836538341285,-0.892659194166925,1
542,2024-09-19 22:36:21.525144064,TASK_BEGIN,012,2.852473121598663,-2.195684335475789,4.84593493624256,-0.21698440597180232,1.9880534758586705,-0.4898660149938125,13.122801843445725,-0.8725170626827755,1
543,2024-09-19 22:36:21.592097024,TASK_BEGIN,012,2.8710608875126313,-2.1921192312979207,4.889748687469456,-0.22184236774500263,1.9677964232182197,-0.4823770138804648,13.004757744992864,-0.8532681521099814,1
544,2024-09-19 22:36:21.660784896,TASK_BEGIN,012,2.890524560457698,-2.187745301220812,4.916404938374848,-0.22435777328375137,1.94801179725839,-0.4746628381606681,12.868712251625231,-0.8367233500335474,1
545,2024-09-19 22:36:21.728504832,TASK_BEGIN,012,2.909506488620255,-2.1824854199608947,4.931961552625697,-0.2251470355987189,1.9284805259367976,-0.46736112132704977,12.728240311182754,-0.8246922460735763,1
546,2024-09-19 22:36:22.662275072,TASK_BEGIN,012,2.926280926068636,-2.17626313713393,4.94330470801982,-0.22473300561672344,1.9092852491962755,-0.46126713047770357,12.596165758670086,-0.8187583957583202,1
547,2024-09-19 22:36:22.725712128,TASK_BEGIN,012,2.938916372603592,-2.169044601523043,4.957361986386267,-0.22351097531614103,1.8908417913624893,-0.45726384472486964,12.48310711000848,-0.8199748281288709,1
548,2024-09-19 22:36:22.806020096,TASK_BEGIN,012,2.9455273211787096,-2.160895075710975,4.9801519685462825,-0.22178253402902676,1.8739563894894962,-0.45626015590669644,12.396647360402218,-0.8286304477385439,1
549,2024-09-19 22:36:22.864087808,TASK_BEGIN,012,2.9445431740315477,-2.152036746500228,5.0159705655129105,-0.21985129319235117,1.859791605214313,-0.45912887681735864,12.341318946358408,-0.8441197509168885,1
550,2024-09-19 22:36:22.927053056,TASK_BEGIN,012,2.934952956325272,-2.1428947859152525,5.066928563943943,-0.2181240319675966,1.8496284760670525,-0.46662212723664437,12.318868027665134,-0.8648874589310644,1
551,2024-09-19 22:36:23.010280960,TASK_BEGIN,012,2.9164968478795466,-2.1341204346947102,5.132861491158195,-0.2171354784381759,1.8444191993109817,-0.4792506858112093,12.328263920355816,-0.8884776708970334,1
552,2024-09-19 22:36:23.078013952,TASK_BEGIN,012,2.8897524212452,-2.126582892194379,5.21142467511396,-0.21746384153925905,1.8443034180776896,-0.4971518687443564,12.365435788635299,-0.9117256518298636,1
553,2024-09-19 22:36:24.008439040,TASK_BEGIN,012,2.856072154661298,-2.121325802991973,5.298203551001926,-0.21959122157399735,1.848338006511139,-0.5200015961154404,12.423348719083688,-0.9311100829543009,1
554,2024-09-19 22:36:24.089629952,TASK_BEGIN,012,2.817379694126751,-2.11948370722053,5.386954407012815,-0.22381236801234097,1.8545710003315836,-0.5470112262509592,12.493142778154102,-0.9432739855294161,1
555,2024-09-19 22:36:24.148219904,TASK_BEGIN,012,2.775884347093012,-2.122157343682971,5.470226041394719,-0.2302578967469008,1.8603875005290411,-0.5770011334269947,12.56623569240751,-0.9456422269923279,1
556,2024-09-19 22:36:24.210782976,TASK_BEGIN,012,2.7338054822124502,-2.1302673583381115,5.540387890453857,-0.23900634492740253,1.862944590601251,-0.6085124303383647,12.63649376816277,-0.9369793109706239,1
557,2024-09-19 22:36:24.292904960,TASK_BEGIN,012,2.693181046719706,-2.1444236396718344,5.590817559166222,-0.2502040415435598,1.8595637558099147,-0.6399314612619565,12.701635661334155,-0.9177229129866284,1
558,2024-09-19 22:36:24.360687872,TASK_BEGIN,012,2.65576131863299,-2.1648358172198283,5.6169340984048635,-0.2641271310054163,1.8480629111182885,-0.6696255024700233,12.76347145756801,-0.8899576105032634,1
559,2024-09-19 22:36:24.428429056,TASK_BEGIN,012,2.6229397847826017,-2.1912668243588462,5.616884192959754,-0.2811770932700949,1.827036408713699,-0.6960854313970392,12.827034641511556,-0.8570153057974571,1
560,2024-09-19 22:36:25.371653120,TASK_BEGIN,012,2.5956969518983524,-2.223023896183188,5.591876032709292,-0.3018541651287065,1.796040652340089,-0.7180567215998492,12.899111684546767,-0.8228844272014392,1
561,2024-09-19 22:36:25.439469056,TASK_BEGIN,012,2.5745648192836383,-2.258983785336465,5.546203459624017,-0.32674352944880136,1.7556344568407292,-0.7346377592523046,12.986773619108154,-0.7916429421045126,1
562,2024-09-19 22:36:25.507197952,TASK_BEGIN,012,2.559616052824892,-2.297647441091278,5.486864846909205,-0.3564875324222777,1.7072661100923732,-0.7453296658907104,13.09623093101765,-0.766982371002403,1
563,2024-09-19 22:36:25.569218048,TASK_BEGIN,012,2.5504818708169985,-2.337218056542621,5.422616123428641,-0.3916906657530823,1.653035875547089,-0.7500331586958405,13.231979395700412,-0.7518124748214703,1
564,2024-09-19 22:36:25.632257024,TASK_BEGIN,012,2.5464108077312604,-2.3756974738732133,5.362482903006898,-0.4327452956016341,1.5953865635276077,-0.7490066946411204,13.395918010711428,-0.7479675780873912,1
565,2024-09-19 22:36:25.705747968,TASK_BEGIN,012,2.5463627900303187,-2.4109958114427394,5.314034311558604,-0.4796245697027937,1.536775977121518,-0.7428097872664468,13.586204940678371,-0.7560295340438977,1
566,2024-09-19 22:36:25.778217984,TASK_BEGIN,012,2.54910265604612,-2.44105028807571,5.281882042719305,-0.5317109461665326,1.4793805693665072,-0.7322485154613931,13.796309017952067,-0.7752641182000988,1
567,2024-09-19 22:36:26.697050112,TASK_BEGIN,012,2.5532559722482655,-2.4639509100132586,5.266844577226487,-0.5877093283451716,1.424887678494599,-0.7183279150133031,14.015256068667034,-0.8037132488285459,1
568,2024-09-19 22:36:26.750022912,TASK_BEGIN,012,2.5573378514555913,-2.4780700441973065,5.265940049617427,-0.6456451303391858,1.3743835514284417,-0.7022040768149223,14.22952350612698,-0.8384887893036974,1
569,2024-09-19 22:36:26.832420096,TASK_BEGIN,012,2.5598248472539558,-2.482189871712763,5.273025971470038,-0.7029069088124097,1.3282768157311098,-0.6851265140054449,14.425913310763761,-0.8762046618824391,1
570,2024-09-19 22:36:26.889703168,TASK_BEGIN,012,2.5593235437841226,-2.475612152673365,5.2798940952511835,-0.7563384932360431,1.2862633577887572,-0.6683800045385193,14.594186865356578,-0.9133906500102733,1
571,2024-09-19 22:36:26.968215808,TASK_BEGIN,012,2.554784429597717,-2.4582240685813326,5.27776676676894,-0.8024616987682706,1.247435250407444,-0.6532509890012372,14.728435632290012,-0.9467481805259049,1
572,2024-09-19 22:36:27.035974144,TASK_BEGIN,012,2.5456402615310525,-2.430500104402589,5.258952173896225,-0.8378502964902201,1.2105400460488116,-0.6410205689568917,14.826776718360318,-0.973210432315772,1
573,2024-09-19 22:36:27.090500864,TASK_BEGIN,012,2.531806552422001,-2.3934416989093723,5.218145815320626,-0.8595390574676659,1.1742221073981163,-0.6329467198396498,14.889710511127562,-0.9898817547833358,1
574,2024-09-19 22:36:28.032080896,TASK_BEGIN,012,2.5135836083160363,-2.34847105686639,5.152981279648829,-0.8653443321776939,1.1371078634362872,-0.630201328368617,14.917815163711257,-0.9939577667864787,1
575,2024-09-19 22:36:28.114015232,TASK_BEGIN,012,2.491527807710423,-2.2972955754077082,5.06380899061593,-0.8540676803390416,1.0977882520430005,-0.6337715654405859,14.909477242242009,-0.982688425284262,1
576,2024-09-19 22:36:28.181588992,TASK_BEGIN,012,2.466326996750151,-2.241760038323003,4.953016673239337,-0.8256069553878639,1.054836070317136,-0.6443613750792083,14.859634413204338,-0.9534473523629151,1
577,2024-09-19 22:36:28.249573888,TASK_BEGIN,012,2.4386852653649305,-2.1837106788761678,4.824378224234967,-0.7809978363027144,1.006919207579854,-0.6623163634505984,14.760469090523861,-0.903985518172876,1
578,2024-09-19 22:36:28.317025024,TASK_BEGIN,012,2.409219748507655,-2.1248935533832225,4.682734265067437,-0.7223779879692817,0.9529666746422472,-0.6875769475227664,14.603853503897044,-0.8328707804881844,1
579,2024-09-19 22:36:28.384946944,TASK_BEGIN,012,2.3783894671823087,-2.0668946539961572,4.533816063326218,-0.6528326899645646,0.8923038896686951,-0.7196644115639469,14.384106845527308,-0.7399803302525724,1
580,2024-09-19 22:36:28.452655104,TASK_BEGIN,012,2.346478336514804,-2.0111164361324003,4.383797913367513,-0.5761051925061444,0.8247224655810318,-0.7577125783446398,14.09971660864956,-0.626866351937561,1
581,2024-09-19 22:36:29.396372992,TASK_BEGIN,012,2.3136221905219716,-1.9587838922969532,4.238485509748468,-0.4962119096627744,0.7505208819076724,-0.8005534339899693,13.753644003768969,-0.4968874899112138,1
582,2024-09-19 22:36:29.460212992,TASK_BEGIN,012,2.2798515253873552,-1.910977524892765,4.102499750219051,-0.41702581748022716,0.6705502264177248,-0.8468426795506611,13.35248371907597,-0.35508206131600384,1
583,2024-09-19 22:36:29.522269952,TASK_BEGIN,012,2.2451467060651136,-1.8686925715763323,3.9789330629256714,-0.3419037662296058,0.5862512974007481,-0.8951887838910416,12.905026548786296,-0.2077959240175696,1
584,2024-09-19 22:36:29.599433728,TASK_BEGIN,012,2.2095252672667995,-1.8329204153578644,3.869608836647882,-0.27343238346435045,0.49964239276249567,-0.9442492060760285,12.420994823399317,-0.06212179385220317,1
