,time,MARKER,pid,L_O_DSI,L_D_DSI,L_O_DSphi,L_D_DSphi,R_O_DSI,R_D_DSI,R_O_DSphi,R_D_DSphi,trial_id
0,2024-09-19 22:23:42.160954112,TASK_BEGIN,012,0.2323293306077608,-0.11866292052745661,-2.544971815665849,-0.682205263557329,-2.3241681343592426,0.5339242922588218,-8.812795850204798,1.6023058057561124,0
1,2024-09-19 22:23:42.238647040,TASK_BEGIN,012,0.037831672952514966,-0.045051215822294266,-2.223271851954985,-0.6267050694572862,-2.4602799758860248,0.6006169693322433,-5.604344971984892,1.0586643828388116,0
2,2024-09-19 22:23:42.302352128,TASK_BEGIN,012,-0.15002700767336594,0.025941397799691023,-1.902691391062473,-0.5739555927121546,-2.5913159130844097,0.665645155286392,-2.4714767588538673,0.5270696750951163,0
3,2024-09-19 22:23:42.377409792,TASK_BEGIN,012,-0.32616486204290446,0.09250146405853414,-1.5907300503994497,-0.5241345122181593,-2.7135202353798027,0.727212557411138,0.5104838370298391,0.019486672696097756,0
4,2024-09-19 22:23:43.306849024,TASK_BEGIN,012,-0.48641865686815366,0.15311983320901168,-1.2948517441837777,-0.4771296790223855,-2.823801936925335,0.7838445474635256,3.2761023225144243,-0.45371787257433405,0
5,2024-09-19 22:23:43.384084992,TASK_BEGIN,012,-0.6276819785536288,0.2066443935314232,-1.0219031604919353,-0.4326739931012463,-2.919947331445455,0.8344692036382771,5.772032269033432,-0.8839562524248248,0
6,2024-09-19 22:23:43.456726016,TASK_BEGIN,012,-0.7479129418365746,0.2522882528405041,-0.7778028551520239,-0.39054138533448657,-3.0007173426488722,0.8784371057214773,7.957902727105669,-1.2643702142872104,0
7,2024-09-19 22:23:43.524470016,TASK_BEGIN,012,-0.8461036866823535,0.28961595862307477,-0.567694519734246,-0.35070665579125426,-3.0658055411302105,0.9154971852434273,9.806727261069108,-1.5898393523711443,0
8,2024-09-19 22:23:43.592273920,TASK_BEGIN,012,-0.9222301070056335,0.3185180462847491,-0.396438687148119,-0.31338215414013454,-3.115686456593715,0.9457392005117182,11.30492099968381,-1.85713275958744,0
9,2024-09-19 22:23:43.657097984,TASK_BEGIN,012,-0.9771459031568468,0.3391760361116042,-0.26912700224855096,-0.2789137930006331,-3.151441672575031,0.9695137465781077,12.451679592097857,-2.065088940164437,0
10,2024-09-19 22:23:43.719758080,TASK_BEGIN,012,-1.0124072856823885,0.3520227063439289,-0.19126366428230082,-0.24760227967062068,-3.174639127193162,0.9873520751525933,13.257778349241436,-2.214659297358739,0
11,2024-09-19 22:23:44.656492800,TASK_BEGIN,012,-1.0300644024971966,0.3577076254792024,-0.1684491320194372,-0.21953400416580968,-3.1872665608666217,0.999909912966758,13.744102556253372,-2.3087222553892075,0
12,2024-09-19 22:23:44.734146048,TASK_BEGIN,012,-1.0324707255022858,0.35707623109977377,-0.20571746460302026,-0.19447629328926577,-3.191680603910286,1.0079419331601431,13.940048384226225,-2.3517020873076513,0
13,2024-09-19 22:23:44.796307200,TASK_BEGIN,012,-1.0221374752485088,0.35115535557200844,-0.306777055467133,-0.1718751446897217,-3.1905273374021474,1.0122894669549891,13.881764994495699,-2.3491486332428533,0
14,2024-09-19 22:23:44.873993984,TASK_BEGIN,012,-1.0016276777711923,0.3411235422821782,-0.4732940495298076,-0.1509545228545596,-3.186582010439538,1.0138540291621951,13.61031006575744,-2.3074543060993937,0
15,2024-09-19 22:23:44.936275968,TASK_BEGIN,012,-0.9734652640013092,0.32825483468560057,-0.704277777819244,-0.13086911021713024,-3.1825050749181556,1.01354346235141,13.169843782255315,-2.23374900723076,0
16,2024-09-19 22:23:44.997890816,TASK_BEGIN,012,-0.9400307238753778,0.3138468165314,-0.9955955091581845,-0.11089264582877155,-3.1805947805008135,1.0122023234594868,12.605930144971527,-2.1358361173520968,0
17,2024-09-19 22:23:45.075997184,TASK_BEGIN,012,-0.903436132042709,0.29914706286915277,-1.3396321849196133,-0.0906577332790408,-3.182610790251921,1.0105481341084515,11.964004329785688,-2.021993110819663,0
18,2024-09-19 22:23:46.010747136,TASK_BEGIN,012,-0.8654186928454792,0.28528395542881246,-1.7251521764014088,-0.07039271777178785,-3.189675451856153,1.0091264536494282,11.287971154809066,-1.9005786667475493,0
19,2024-09-19 22:23:46.089490944,TASK_BEGIN,012,-0.8273048964082977,0.2732074863079896,-2.137477125388081,-0.05103554025419183,-3.202231850115655,1.0082889426662311,10.618768625678639,-1.77951773342123,0
20,2024-09-19 22:23:46.149990912,TASK_BEGIN,012,-0.7900379098344529,0.26364439088134956,-2.5590742378058677,-0.03417973166368597,-3.220030806741573,1.0081955414289407,9.992891898720684,-1.6657889195252045,0
21,2024-09-19 22:23:46.225019136,TASK_BEGIN,012,-0.7541996057655131,0.2570620367601348,-2.970538077934386,-0.02192754622263958,-3.2421155137701394,1.0088373683835588,9.441281361202655,-1.5650531806557708,0
22,2024-09-19 22:23:46.289625088,TASK_BEGIN,012,-0.7199838785240696,0.25363600205691794,-3.3518521210053205,-0.01671651292274804,-3.266815434362623,1.010072546770302,8.989015780778116,-1.4815149278162902,0
23,2024-09-19 22:23:46.351677952,TASK_BEGIN,012,-0.6871662711722948,0.2532364010642009,-3.6837554416050753,-0.021100203643242495,-3.2918032484231396,1.0116649269930993,8.65558170548177,-1.41795488763733,0
24,2024-09-19 22:23:46.428395008,TASK_BEGIN,012,-0.6551541555084901,0.2554579378993066,-3.9489650879091807,-0.03747799275734028,-3.314255916260956,1.0133191517860174,8.454895174851686,-1.375774183657153,0
25,2024-09-19 22:23:47.340440064,TASK_BEGIN,012,-0.6231417989380225,0.2596947282814145,-4.133067905549852,-0.06784438987032441,-3.3311349147745717,1.0147179571974625,8.394658085028963,-1.3549858337172813,0
26,2024-09-19 22:23:47.402925056,TASK_BEGIN,012,-0.5903249131380458,0.2652331819547324,-4.225193710425476,-0.1135958311579725,-3.3395636213518363,1.0155701325600868,8.475554782722922,-1.3542414645005791,0
27,2024-09-19 22:23:47.480591104,TASK_BEGIN,012,-0.5561263209040075,0.2713412257477583,-4.218772552322205,-0.1753373841914432,-3.3372295545351123,1.0156640903757161,8.69104509158339,-1.371004279967929,0
28,2024-09-19 22:23:47.550798080,TASK_BEGIN,012,-0.5203918468839103,0.2773497952373977,-4.112422048022824,-0.25265612103283436,-3.3227351463779087,1.014918481277795,9.027963095949625,-1.401887750067439,0
29,2024-09-19 22:23:47.618583040,TASK_BEGIN,012,-0.4834944906148826,0.2827195554184495,-3.9105549352144804,-0.3439469003776752,-3.2958356367537496,1.0134242110830025,9.467559867314483,-1.4430578894800372,0
30,2024-09-19 22:23:47.686342144,TASK_BEGIN,012,-0.4463037688032129,0.2870776595096641,-3.6231915413121323,-0.44640555088370004,-3.257486018320357,1.011459953233812,9.986515389347824,-1.4905496333193113,0
31,2024-09-19 22:23:47.754081024,TASK_BEGIN,012,-0.4100480419833078,0.29021947696162015,-3.264831288586983,-0.5562163312893357,-3.2096407681478696,1.0094567609413538,10.557704329408834,-1.5404465818537039,0
32,2024-09-19 22:23:48.685007104,TASK_BEGIN,012,-0.3761327424202943,0.2920853058610613,-2.8527094324888562,-0.6688830075274235,-3.154856011969111,1.0079094428655042,11.150836891787197,-1.588994985407765,0
33,2024-09-19 22:23:48.762647040,TASK_BEGIN,012,-0.3459574094611846,0.29272551789286877,-2.405030535856322,-0.7796315424528044,-3.0958496576584182,1.0072640655597471,11.733412746170357,-1.6327255874788864,0
34,2024-09-19 22:23:48.824647936,TASK_BEGIN,012,-0.32076082567361286,0.29226242490186,-1.939751911123399,-0.8838007178762546,-3.0351784010014438,1.0078249667403036,12.272513815656783,-1.6686103087670294,0
35,2024-09-19 22:23:48.886823936,TASK_BEGIN,012,-0.30151479963774164,0.29085097117653314,-1.4741651731198082,-0.9771322824959293,-2.975091285339183,1.009712019377645,12.73739637101847,-1.6942593916198738,0
36,2024-09-19 22:23:48.964932864,TASK_BEGIN,012,-0.28885425074577536,0.2886402503324657,-1.02503399565374,-1.0559156623705257,-2.9175137178130086,1.0128699563054282,13.102137565955669,-1.7081305325752476,0
37,2024-09-19 22:23:49.026949888,TASK_BEGIN,012,-0.2830140611320557,0.2857442024206106,-0.6087541069241396,-1.1170292111376188,-2.8640732581242467,1.0171058171943723,13.347717066571214,-1.7096871165688388,0
38,2024-09-19 22:23:49.088540928,TASK_BEGIN,012,-0.2837636823450429,0.28222918871415525,-0.24117777148714006,-1.157968263590177,-2.816098328987027,1.0221239797644615,13.46346895309448,-1.6994510990070895,0
39,2024-09-19 22:23:50.039020032,TASK_BEGIN,012,-0.2903564230583785,0.2781147832588176,0.06280878388124635,-1.1769091227561577,-2.774579881568603,1.0275455568026848,13.44788940360255,-1.6789316694211633,0
40,2024-09-19 22:23:50.100870144,TASK_BEGIN,012,-0.3015322251166183,0.2733801788961426,0.289706439599429,-1.172798524298943,-2.7401290807256546,1.0329216275481399,13.308529361183144,-1.6504414472703972,0
41,2024-09-19 22:23:50.178163200,TASK_BEGIN,012,-0.3156190781894005,0.26797655077406213,0.4278547056624194,-1.1454478126441832,-2.7129486641789446,1.0377547916198653,13.06078767084508,-1.6168333868697415,0
42,2024-09-19 22:23:50.240246016,TASK_BEGIN,012,-0.33073959421528654,0.26184720972228787,0.46818693568501113,-1.0956157617675366,-2.692808922109628,1.0415346780493455,12.725851722333259,-1.5812298909335105,0
43,2024-09-19 22:23:50.301829120,TASK_BEGIN,012,-0.34506586917676935,0.2549483877497884,0.405438648208894,-1.0250639014480913,-2.679038036096569,1.0437836826246756,12.328355401669144,-1.5468504166849184,0
44,2024-09-19 22:23:50.378545152,TASK_BEGIN,012,-0.35703410375569467,0.24725962602788926,0.23959708511361433,-0.9365830256833312,-2.6705756282423265,1.0441026273522573,11.894234247069098,-1.516983301431274,0
45,2024-09-19 22:23:50.440608000,TASK_BEGIN,012,-0.36544930208005416,0.23878032700225915,-0.02297546063182186,-0.8339830516858805,-2.6661326376682566,1.0422042503549702,11.44881693617401,-1.494989872854092,0
46,2024-09-19 22:23:51.391367936,TASK_BEGIN,012,-0.36945984071640675,0.22951789954792812,-0.3692951075735994,-0.7220083694110592,-2.6644221427880126,1.037926785853262,11.014889245172371,-1.4841449708117282,0
47,2024-09-19 22:23:51.452958976,TASK_BEGIN,012,-0.36844864875137573,0.21947621537379225,-0.7804546625102065,-0.6061525382290708,-2.664341630648874,1.031228079352165,10.610815315287176,-1.487231169175274,0
48,2024-09-19 22:23:51.532119040,TASK_BEGIN,012,-0.3619454444764199,0.20865508119820228,-1.2329869420739783,-0.4923744214123997,-2.665009376486605,1.0221686479518206,10.249331882192251,-1.505997761948357,0
49,2024-09-19 22:23:51.595324928,TASK_BEGIN,012,-0.34964928446952576,0.19706931933421926,-1.7007304169409792,-0.3867181746505263,-2.6656708522697024,1.0108935213408552,9.93746382561669,-1.5407046634676795,0
50,2024-09-19 22:23:51.667644160,TASK_BEGIN,012,-0.3315551770026715,0.18478326735412287,-2.1571524894367258,-0.2948557154079683,-2.6655616001088207,0.9976172433084145,9.6773860092332,-1.58995214612439,0
51,2024-09-19 22:23:51.727839744,TASK_BEGIN,012,-0.30809957223623213,0.17194426684895925,-2.577973903397582,-0.2215985152394397,-2.6638075239013452,0.9826142142223245,9.467639335988544,-1.6508437357861487,0
52,2024-09-19 22:23:51.789858048,TASK_BEGIN,012,-0.2802448102978409,0.1588001752065283,-2.9437921133993172,-0.17044035015938533,-2.6594256301488315,0.9662168010689818,9.304051772918731,-1.7193395389780792,0
53,2024-09-19 22:23:52.712025856,TASK_BEGIN,012,-0.2494693989139803,0.14569718443397872,-3.242214921032044,-0.14323058437446712,-2.6514480561008718,0.9488136086290829,9.180168295844984,-1.7906319701420514,0
54,2024-09-19 22:23:52.788849152,TASK_BEGIN,012,-0.21766647329935943,0.1330656868753417,-3.4688958728953634,-0.14009095210766614,-2.639115806529676,0.9308317009177983,9.087660752837989,-1.8595057198505576,0
55,2024-09-19 22:23:52.856640000,TASK_BEGIN,012,-0.18697664888107615,0.1214047626979228,-3.6271579308127597,-0.15959154026035652,-2.622055011376219,0.9127021648857161,9.017232253526872,-1.9207126373146652,0
56,2024-09-19 22:23:52.924387840,TASK_BEGIN,012,-0.15959476999973,0.11126701473480963,-3.726475817477116,-0.19908712962211883,-2.600392631854503,0.8948312200525415,8.959969938397066,-1.9693580600028189,0
57,2024-09-19 22:23:52.992201984,TASK_BEGIN,012,-0.13758490440658502,0.10323475947557709,-3.7803955525516195,-0.25511720093572726,-2.5748139992128225,0.87759529304537,8.908683602994321,-2.0012855297004113,0
58,2024-09-19 22:23:53.059907072,TASK_BEGIN,012,-0.12273235541849255,0.09787852694972625,-3.8043096708158393,-0.3238292265321027,-2.546560870839705,0.8613552497625316,8.858748169977646,-2.013446572603992,0
59,2024-09-19 22:23:53.115260928,TASK_BEGIN,012,-0.1164601045646618,0.09570157187762278,-3.8132555314507384,-0.40138859692214723,-2.5173499433251254,0.8464728300218234,8.808178064995214,-2.0041697230115414,0
60,2024-09-19 22:23:54.059411200,TASK_BEGIN,012,-0.11980740006636004,0.0970859379859709,-3.8198944939387856,-0.4843250169707677,-2.489194698837478,0.8333151487775232,8.756989909373557,-1.9732120933230954,0
61,2024-09-19 22:23:54.137067264,TASK_BEGIN,012,-0.13342728924726274,0.10225060630563937,-3.8329388245001095,-0.5697781508393035,-2.464149310030628,0.8222388898544255,8.70625103682587,-1.921613006304522,0
62,2024-09-19 22:23:54.199096064,TASK_BEGIN,012,-0.15756682792014795,0.11122053825755197,-3.8563113952431727,-0.6556068248540323,-2.4440502481837307,0.8135560083699096,8.65730113805153,-1.8515060247223964,0
63,2024-09-19 22:23:54.261092096,TASK_BEGIN,012,-0.1920382294611198,0.12380773027319866,-3.889237734813484,-0.7403265113617407,-2.4303419502080277,0.807494581408137,8.611343909012266,-1.76598619758693,0
64,2024-09-19 22:23:54.338294016,TASK_BEGIN,012,-0.2362135270919035,0.13961299916736564,-3.92725432459735,-0.8228959631603077,-2.423997984282336,0.8041668207598086,8.569376534835984,-1.6690038490967039,0
65,2024-09-19 22:23:54.400325888,TASK_BEGIN,012,-0.2890572072731057,0.15805149337559543,-3.963835174482155,-0.9024388662780226,-2.4254712791271955,0.8035441755565621,8.532500979239257,-1.5652450945659795,0
66,2024-09-19 22:23:54.477971200,TASK_BEGIN,012,-0.34917905221235973,0.1783946791158799,-3.992215088264803,-0.9779720951027802,-2.4346180343870003,0.8054362705297429,8.502547331707216,-1.459996025688984,0
67,2024-09-19 22:23:55.408337920,TASK_BEGIN,012,-0.41488629101748875,0.19982205261170854,-4.007073036635996,-1.0481581361428043,-2.450628431188074,0.8094829039956741,8.482664836265652,-1.3589953837078175,0
68,2024-09-19 22:23:55.488414976,TASK_BEGIN,012,-0.48423295486549,0.22147976482958923,-4.005849195142909,-1.111106866845461,-2.4720634183109476,0.8151802922493397,8.477658983123792,-1.2682722309352563,0
69,2024-09-19 22:23:55.548065024,TASK_BEGIN,012,-0.5550663069726608,0.24254023859405555,-3.989413015613235,-1.1643152848453222,-2.4970406871294086,0.8219485510949676,8.493966741526837,-1.1939034435481517,0
70,2024-09-19 22:23:55.623905024,TASK_BEGIN,012,-0.6250586835455907,0.262252075568899,-3.9617855303408755,-1.2048319705946675,-2.5234960821548493,0.8292138872176381,8.538877634229111,-1.1415778841971136,0
71,2024-09-19 22:23:55.691627008,TASK_BEGIN,012,-0.6917146568225103,0.27996990171504965,-3.9290497574969123,-1.229610930927731,-2.5494291758952454,0.8364681723742025,8.618819464087247,-1.1159728966174958,0
72,2024-09-19 22:23:55.756242944,TASK_BEGIN,012,-0.7523674746709577,0.2951614233161475,-3.898108103327579,-1.235908440021029,-2.573108434875444,0.8432917309397991,8.737441735172562,-1.1201195989334187,0
73,2024-09-19 22:23:55.818778112,TASK_BEGIN,012,-0.8042131056295704,0.30740039240016803,-3.875859351434555,-1.221603144575975,-2.593222460211381,0.8493492428030854,8.89455773262809,-1.1549359636746077,0
74,2024-09-19 22:23:56.770759936,TASK_BEGIN,012,-0.8444387032635711,0.3163574576381442,-3.8687887516653263,-1.1854175232875461,-2.6089288840195968,0.854374922922985,9.086301908836083,-1.2189974930443637,0
75,2024-09-19 22:23:56.833259008,TASK_BEGIN,012,-0.8704601830301496,0.32179552771154185,-3.8825651282794205,-1.1270713780969503,-2.619788726660058,0.8581622566005012,9.306096635595118,-1.3085411423111992,0
76,2024-09-19 22:23:56.896909824,TASK_BEGIN,012,-0.8802189646779532,0.3235732991551097,-3.9213733682846823,-1.047392629269547,-2.6256622214784042,0.8605706224109628,9.545854245189432,-1.4176813404405635,0
77,2024-09-19 22:23:56.973613056,TASK_BEGIN,012,-0.8724495705394341,0.32165849259012147,-3.9871486120041424,-0.9483787329919224,-2.6266573568618927,0.8615500406555051,9.797078270517558,-1.5388582361679233,0
78,2024-09-19 22:23:57.037619200,TASK_BEGIN,012,-0.8468396549971385,0.31614642240944774,-4.079090841953748,-0.8331717134279271,-2.6231511905344167,0.8611716534769571,10.051803026577934,-1.663569353740615,0
79,2024-09-19 22:23:57.097649152,TASK_BEGIN,012,-0.8040581674924675,0.3072752841871629,-4.193638411986492,-0.7059151317873281,-2.6158360854854905,0.8596454749334093,10.303372318331512,-1.7833250426463707,0
80,2024-09-19 22:23:57.174624000,TASK_BEGIN,012,-0.7456905990349728,0.29543183603014017,-4.324791609987316,-0.5714985877015287,-2.6057181001093683,0.8573063374601766,10.546900346519422,-1.8906054645333825,0
81,2024-09-19 22:23:58.096317184,TASK_BEGIN,012,-0.674141063935613,0.28114844943425166,-4.464604984507728,-0.4352261697810623,-2.5940134174872647,0.8545575373411671,10.77923408629253,-1.9796149627228476,0
82,2024-09-19 22:23:58.164196096,TASK_BEGIN,012,-0.5925355174606822,0.2650966640117462,-4.603799227960552,-0.30246564961222905,-2.5819631837895947,0.8517866663441841,10.99860380212427,-2.0467905581762027,0
83,2024-09-19 22:23:58.219355136,TASK_BEGIN,012,-0.5046260540494755,0.24807578429250296,-4.732595397942701,-0.17833975608665856,-2.5706557437915016,0.8492882976029514,11.204466457011637,-2.091091886514882,0
84,2024-09-19 22:23:58.297046016,TASK_BEGIN,012,-0.4146693550043045,0.23098440820258906,-4.841783267255272,-0.06747624541156236,-2.5609066035919312,0.8472159909037786,11.397748349666577,-2.1140424988884257,0
85,2024-09-19 22:23:58.359720960,TASK_BEGIN,012,-0.32723849173039876,0.21476356625187418,-4.923688567944764,0.026211912797414517,-2.5531651485329254,0.8455594419419478,11.581071854922559,-2.119452521151547,0
86,2024-09-19 22:23:58.421817088,TASK_BEGIN,012,-0.24694731875942877,0.2003161538148998,-4.972577291814488,0.09971526381258998,-2.5474357944169848,0.8441409881343298,11.758254753413524,-2.1127834779817527,0
87,2024-09-19 22:23:58.498544896,TASK_BEGIN,012,-0.1781148744487205,0.188422560935488,-4.984410181417165,0.15103835142041147,-2.5432610335605426,0.842639640444505,11.932712011643057,-2.1001975177188514,0
88,2024-09-19 22:23:59.444903936,TASK_BEGIN,012,-0.12442837575712642,0.17967177644486967,-4.95635402208291,0.17921449887189675,-2.5398010470463026,0.8406450759317697,12.105321949079952,-2.087483596607469,0
89,2024-09-19 22:23:59.506941952,TASK_BEGIN,012,-0.08866059486687457,0.1744196276332422,-4.88658407505287,0.18426545503111674,-2.5360148244865015,0.8377289870343623,12.272916465814484,-2.079153936672956,0
90,2024-09-19 22:23:59.568604928,TASK_BEGIN,012,-0.07248124253163832,0.1727832269237774,-4.7745684480832,0.16712796767966068,-2.530931348018204,0.8335205206427942,12.428031267511154,-2.077906198893047,0
91,2024-09-19 22:23:59.644113920,TASK_BEGIN,012,-0.0763808628124597,0.17467401710848018,-4.6215936305757594,0.12951679188337645,-2.523949833020303,0.8277746752938993,12.559836347725621,-2.084496905437883,0
92,2024-09-19 22:23:59.704600064,TASK_BEGIN,012,-0.09970756639524167,0.17985593212470305,-4.431208761624663,0.07371659772684344,-2.515071689472586,0.8204159322702108,12.65607857963317,-2.098011350554225,0
93,2024-09-19 22:23:59.785252864,TASK_BEGIN,012,-0.14080324139441253,0.1880046196341225,-4.20934494903723,0.002338446781496558,-2.5049844948329882,0.8115380989134442,12.705690822463007,-2.1164191976287023,0
94,2024-09-19 22:23:59.844302080,TASK_BEGIN,012,-0.19719583205810665,0.19874787359111995,-3.9638510703069247,-0.08193647626020245,-2.4949597654146856,0.801361590564783,12.701226042816566,-2.1371803082757697,0
95,2024-09-19 22:24:00.785543936,TASK_BEGIN,012,-0.2657878966945609,0.21168150815395612,-3.7034158013078624,-0.17659169428100285,-2.4865833454962067,0.790176069768743,12.640284504903468,-2.157713806885172,0
96,2024-09-19 22:24:00.863241984,TASK_BEGIN,012,-0.3430293452816181,0.22636955441472612,-3.436359561500686,-0.2794025902598552,-2.4813961865648513,0.7782955973692288,12.525695720376,-2.1757264305265047,0
97,2024-09-19 22:24:00.932023808,TASK_BEGIN,012,-0.4251163003894787,0.24234454659305563,-3.169921026421982,-0.3883938235523904,-2.480571709836937,0.7660340055707039,12.364682602769644,-2.1894604520920615,0
98,2024-09-19 22:24:00.987436032,TASK_BEGIN,012,-0.508236331411216,0.25911924860315266,-2.910221743428133,-0.5016616620880381,-2.484762766684925,0.753701214045761,12.16741050835171,-2.1978326882370314,0
99,2024-09-19 22:24:01.065116928,TASK_BEGIN,012,-0.5888230729752094,0.27620910577200547,-2.662659106897591,-0.6171587834746126,-2.4941410220400453,0.7416161996486398,11.94546791973394,-2.2004132178008713,0
100,2024-09-19 22:24:01.127974144,TASK_BEGIN,012,-0.6637682997275789,0.29315518006857394,-2.4323892583995423,-0.7325508877705146,-2.508506044097683,0.7301198526544105,11.710774279350458,-2.197296347183729,0
101,2024-09-19 22:24:01.189968128,TASK_BEGIN,012,-0.7305657243311837,0.3095376305812249,-2.224612313725603,-0.8452253971910144,-2.527349803760019,0.7195712594687945,11.474961890669862,-2.188962730362744,0
102,2024-09-19 22:24:02.132399872,TASK_BEGIN,012,-0.7873933585691731,0.3249791151829602,-2.044462947760178,-0.9524527892227456,-2.5498858106743247,0.7103226583151455,11.248844326581237,-2.1761552107809337,0
103,2024-09-19 22:24:02.210611200,TASK_BEGIN,012,-0.8331632141086254,0.33915009139851576,-1.8965220345476481,-1.0516215792952681,-2.575109047991155,0.7026793338597116,11.04165701981911,-2.159731589313352,0
104,2024-09-19 22:24:02.273890816,TASK_BEGIN,012,-0.8675622385982374,0.35178918263939174,-1.7842245869908089,-1.140446994998976,-2.6019078193886727,0.6968628739850359,10.860239552286284,-2.1405056746997264,0
105,2024-09-19 22:24:02.350189824,TASK_BEGIN,012,-0.8910743443550847,0.3627338240608684,-1.7095359826010166,-1.2170798279595982,-2.629185638170588,0.6929960803021122,10.708683095003451,-2.1191657469457175,0
106,2024-09-19 22:24:02.412614912,TASK_BEGIN,012,-0.9049408721550561,0.37193914106741355,-1.673115593449304,-1.280082022429256,-2.655941897668418,0.691108246347529,10.588730250936715,-2.0963210248126125,0
107,2024-09-19 22:24:02.474273024,TASK_BEGIN,012,-0.9110217381686875,0.37946771164279375,-1.6749122757333343,-1.3282893323056362,-2.6812980024964816,0.6911474104328107,10.500598338243236,-2.072583886414567,0
108,2024-09-19 22:24:02.551465984,TASK_BEGIN,012,-0.9115679373657124,0.3854536362727546,-1.7149045454476968,-1.3606519707939349,-2.704470327220769,0.6929930917898797,10.443636828715158,-2.048554034202152,0
109,2024-09-19 22:24:03.468873984,TASK_BEGIN,012,-0.9089597913067665,0.3900579127886213,-1.793573411261665,-1.3761819459200493,-2.7246885995398906,0.6964711430344341,10.416552915262454,-2.0247149186507354,0
110,2024-09-19 22:24:03.539767040,TASK_BEGIN,012,-0.9054508254697126,0.3934250343980495,-1.9117385980241366,-1.3740807473038845,-2.7411175163556667,0.7013759883008941,10.4173857009893,-2.0013900343945488,0
111,2024-09-19 22:24:03.607503872,TASK_BEGIN,012,-0.9029255802225992,0.3956403871608446,-2.0696947646062878,-1.353993608858353,-2.752902840625607,0.7075072603719419,10.443558304116069,-1.9788438869164953,0
112,2024-09-19 22:24:03.670300928,TASK_BEGIN,012,-0.9026993166513478,0.3966964140789087,-2.26605561464569,-1.3162472472481843,-2.7593875067375677,0.7147214383825842,10.492151069390077,-1.9574374883233174,0
113,2024-09-19 22:24:03.742995200,TASK_BEGIN,012,-0.9054109817488528,0.39648399823216657,-2.4969100929431476,-1.2619641456707753,-2.760379485917078,0.7229821674512052,10.560354695939596,-1.9377051084387888,0
114,2024-09-19 22:24:03.810416896,TASK_BEGIN,012,-0.9110207639647814,0.3948083334470807,-2.755565425239586,-1.1930495473515819,-2.756293664164838,0.7323787391596959,10.64600367709966,-1.9203296157486434,0
115,2024-09-19 22:24:03.872014080,TASK_BEGIN,012,-0.9188802654362793,0.39141123865395583,-3.032783521340206,-1.1120937114873848,-2.7480820271096804,0.7430920946994792,10.74789586427678,-1.9060654172033589,0
116,2024-09-19 22:24:04.813741824,TASK_BEGIN,012,-0.9278574650888846,0.38599410431666936,-3.317444943454185,-1.0222055994360486,-2.736991373005765,0.7553203776981268,10.865629093627575,-1.8956582049740147,0
117,2024-09-19 22:24:04.876229120,TASK_BEGIN,012,-0.9365122281228844,0.3782524675338464,-3.5976084224385114,-0.9267750130833271,-2.724253034432872,0.7692002400516683,10.999344842004653,-1.889836039751603,0
118,2024-09-19 22:24:04.954340864,TASK_BEGIN,012,-0.9432991124452247,0.36792948131535647,-3.8616671103266222,-0.8291959898695196,-2.7108181615279965,0.7847550094649046,11.150073366689767,-1.889427013551699,0
119,2024-09-19 22:24:05.024497920,TASK_BEGIN,012,-0.9467703165405421,0.3548840712419179,-4.099188317102784,-0.7326252716719261,-2.6972184877838496,0.8018752448144565,11.320538639550106,-1.8955232415980539,0
120,2024-09-19 22:24:05.078374144,TASK_BEGIN,012,-0.9457596030994619,0.3391581264004675,-4.301372164878697,-0.6398242572267866,-2.6835548623891463,0.8203131669508584,11.515485360487743,-1.9095190451318242,0
121,2024-09-19 22:24:05.156051968,TASK_BEGIN,012,-0.9395237872721827,0.3210198049290533,-4.461433310135099,-0.5530705509244751,-2.6695505735376206,0.8396725236143324,11.740872007196991,-1.9329150310651078,0
122,2024-09-19 22:24:05.227808000,TASK_BEGIN,012,-0.9278286800163166,0.30097091764720163,-4.575117888785493,-0.4741051616863658,-2.654622676395986,0.8593999460622552,12.001964058116446,-1.9668921924987475,0
123,2024-09-19 22:24:06.171251968,TASK_BEGIN,012,-0.9109831249188215,0.2797218555541308,-4.641152067867287,-0.40410986475252986,-2.637978924540756,0.8787976171815429,12.30082629844844,-2.011758525390017,0
124,2024-09-19 22:24:06.239029760,TASK_BEGIN,012,-0.8898180404401764,0.2581379356650604,-4.661175038638802,-0.3437400449338704,-2.618745676024839,0.8970594782605106,12.634098028123987,-2.0664719440507047,0
125,2024-09-19 22:24:06.305641728,TASK_BEGIN,012,-0.8656066430019178,0.23716322662350578,-4.638952773377696,-0.2932390812483633,-2.5960865898954344,0.9133169630950404,12.99209524281511,-2.128474183621369,0
126,2024-09-19 22:24:06.367270144,TASK_BEGIN,012,-0.8399404485392804,0.21773905234581092,-4.5791545173388615,-0.2526268479835172,-2.569278202700224,0.9266924499421374,13.359790505386293,-2.193951289775634,0
127,2024-09-19 22:24:06.433974016,TASK_BEGIN,012,-0.8145790138305528,0.20073242490164928,-4.486110001124495,-0.2219116787476228,-2.537778033251566,0.9363742776933104,13.719203885412126,-2.258418473759762,0
128,2024-09-19 22:24:06.506127104,TASK_BEGIN,012,-0.7912831541500099,0.1868756867913086,-4.362696217736942,-0.20126498115850858,-2.5013486714460056,0.9417181575194757,14.052004612224483,-2.317380089048742,0
129,2024-09-19 22:24:06.568612096,TASK_BEGIN,012,-0.7716535917676495,0.17671484849702238,-4.209418873911884,-0.1911122158443974,-2.4602291691601,0.9423542216238814,14.341284810168936,-2.3668511182145484,0
130,2024-09-19 22:24:07.516187136,TASK_BEGIN,012,-0.7570200219982327,0.1705717211734215,-4.0240224526212875,-0.1920867033194006,-2.4152611645075557,0.93826350119785,14.57217964551494,-2.4036406096813767,0
131,2024-09-19 22:24:07.588677888,TASK_BEGIN,012,-0.7484141975011083,0.16852938650259439,-3.8020374782167523,-0.20481441965407918,-2.3678906787740974,0.9298008941134384,14.731648202221312,-2.425381919082631,0
132,2024-09-19 22:24:07.651438848,TASK_BEGIN,012,-0.7466016978037573,0.17044603875471975,-3.5382936227481743,-0.22960060262427393,-2.3200599421915618,0.9176703010962375,14.808150918843397,-2.430396161585173,0
133,2024-09-19 22:24:07.712998912,TASK_BEGIN,012,-0.7520915215431596,0.1759915838429545,-3.229010591827091,-0.2661519357115121,-2.2740614420905745,0.9028692172321333,14.791998042493802,-2.417570902424407,0
134,2024-09-19 22:24:07.791105024,TASK_BEGIN,012,-0.7650570905734054,0.18469244721341174,-2.8739522311072334,-0.3134008419145901,-2.2323895703496013,0.8866110538415098,14.676662271834601,-2.3864218297978392,0
135,2024-09-19 22:24:07.853275904,TASK_BEGIN,012,-0.7851903498572674,0.19597390843042928,-2.478128092419524,-0.3694282803317547,-2.197572501323003,0.8702271977931701,14.460792771313125,-2.3373817667110557,0
136,2024-09-19 22:24:07.915308800,TASK_BEGIN,012,-0.8115933963164298,0.20920252403554573,-2.0525534844955198,-0.43150000007917505,-2.1719844283913217,0.8550557458364062,14.150389966590357,-2.2722030671895825,0
137,2024-09-19 22:24:08.858397952,TASK_BEGIN,012,-0.8428083865908054,0.2237355435006787,-1.6138112394246602,-0.49623888547797385,-2.157680309951135,0.842329577326954,13.760421724360834,-2.194253700778737,0
138,2024-09-19 22:24:08.936039168,TASK_BEGIN,012,-0.8770013885661224,0.23897562421094848,-1.18253806935524,-0.5599068335217888,-2.156273439779503,0.8330756631721553,13.31510396791213,-2.108510240413802,0
139,2024-09-19 22:24:08.998055936,TASK_BEGIN,012,-0.9122353471196987,0.25442158876274423,-0.7812273901162161,-0.6187391927114693,-2.1688049486468293,0.8280305153621306,12.846411081644137,-2.0211944720480055,0
140,2024-09-19 22:24:09.074315264,TASK_BEGIN,012,-0.9467552803713467,0.26970564129952074,-0.43182129842309314,-0.6692834046149904,-2.1955466251717977,0.8275716672960982,12.390880232906124,-1.9391486314997164,0
141,2024-09-19 22:24:09.138137856,TASK_BEGIN,012,-0.9792285013896609,0.28460815621488234,-0.153488601362514,-0.7087018324639248,-2.2357948766206377,0.8316750304181454,11.98502940014274,-1.8690821783980724,0
142,2024-09-19 22:24:09.209813248,TASK_BEGIN,012,-1.008884817464258,0.2990421578541887,0.0391170796844128,-0.7349935920991998,-2.2878173495620637,0.8399211893121639,11.66013218612974,-1.8167978959326119,0
143,2024-09-19 22:24:09.262201088,TASK_BEGIN,012,-1.0355146938891795,0.31300861967586835,0.13684910491612975,-0.7471011146563584,-2.349035362783196,0.8515585205437757,11.437821863999662,-1.7865277868041096,0
144,2024-09-19 22:24:10.196059136,TASK_BEGIN,012,-1.0593390092889574,0.3265395693230782,0.13618797026191204,-0.7449093688183137,-2.416358235905596,0.8655983891982019,11.327926982627227,-1.7805299192657946,0
145,2024-09-19 22:24:10.263865856,TASK_BEGIN,012,-1.0808259318518736,0.3396546064530201,0.03872202640198652,-0.7291718960967747,-2.486524883911592,0.8809119597479529,11.328704326525463,-1.7990145829188755,0
146,2024-09-19 22:24:10.331648256,TASK_BEGIN,012,-1.1005359063947326,0.35234813535671294,-0.1495729100701024,-0.7013884674395112,-2.5563448998570775,0.8963173200556502,11.428556942430314,-1.8403298463542594,0
147,2024-09-19 22:24:10.399404032,TASK_BEGIN,012,-1.1190200505388506,0.36460338479029647,-0.4189398867287158,-0.6636656173459182,-2.6227996962642837,0.9106562659805062,11.6083416714478,-1.9012748582699661,0
148,2024-09-19 22:24:10.456794880,TASK_BEGIN,012,-1.1367493224939076,0.37641082130734216,-0.7562596814803852,-0.6186119643751052,-2.6830647063938797,0.9228623482787368,11.843885807044922,-1.9774583329969515,0
149,2024-09-19 22:24:10.534454016,TASK_BEGIN,012,-1.1540512511355063,0.38776964746565296,-1.1454017629668767,-0.5692796246774918,-2.7345652328491017,0.932025424553717,12.108495279086037,-2.063678738345758,0
150,2024-09-19 22:24:10.602742016,TASK_BEGIN,012,-1.1710433597033174,0.3986693091064283,-1.5677306220317475,-0.5190835125195773,-2.7751129343546945,0.9374525506636519,12.375164179009468,-2.1543001249289877,0
151,2024-09-19 22:24:11.541623040,TASK_BEGIN,012,-1.1875636805598793,0.40906521163420034,-2.0029285601341984,-0.47163476059052767,-2.803080937591807,0.9387132806807393,12.618290654852082,-2.243567246290548,0
152,2024-09-19 22:24:11.613957120,TASK_BEGIN,012,-1.2031233886565718,0.4188674364368054,-2.430096068892246,-0.4305026877483124,-2.8175507743604524,0.9356579687432885,12.814778474348632,-2.325800533652628,0
153,2024-09-19 22:24:11.681556992,TASK_BEGIN,012,-1.2169206390778302,0.42795282424408704,-2.828977390219411,-0.3989455930831672,-2.8183754639895624,0.9284088494327882,12.944444024222635,-2.3954814848002286,0
154,2024-09-19 22:24:11.742927104,TASK_BEGIN,012,-1.2279378384082107,0.43619605806329914,-3.181204908301726,-0.37962562695617025,-2.8061329589767676,0.9173297239865043,12.990005244465934,-2.447340723636851,0
155,2024-09-19 22:24:11.805185024,TASK_BEGIN,012,-1.2351048444890145,0.4435025838583846,-3.4714874202317727,-0.3743376872320021,-2.7820006441016694,0.9029787068293345,12.937279562384987,-2.476555756010806,0
156,2024-09-19 22:24:11.883544832,TASK_BEGIN,012,-1.237467076890949,0.44982324690764175,-3.688654736923753,-0.38381842078058037,-2.747607394598233,0.8860478182752606,12.775975387234912,-2.4790440160560308,0
157,2024-09-19 22:24:11.952733952,TASK_BEGIN,012,-1.2343010122953257,0.45514256456480257,-3.8264639630345987,-0.4076939800143483,-2.7048902118315747,0.8672987041113238,12.50087383267747,-2.451767165704743,0
158,2024-09-19 22:24:12.891555840,TASK_BEGIN,012,-1.2251769229717568,0.4594506425041257,-3.883985610560324,-0.4445899134956855,-2.6559666142103286,0.8475093850888993,12.1129393194083,-2.393027443196961,0
159,2024-09-19 22:24:12.964239872,TASK_BEGIN,012,-1.2099998954289133,0.46271773204286476,-3.8653661520480047,-0.4923763941772908,-2.603043415045811,0.8274399801081296,11.620049198560697,-2.3027784408013257,0
160,2024-09-19 22:24:13.032034048,TASK_BEGIN,012,-1.1890296423861284,0.4648852592497058,-3.7790053004121393,-0.5484655738837951,-2.548362866597225,0.8078110544790346,11.037144258302424,-2.182866849823958,0
161,2024-09-19 22:24:13.093905920,TASK_BEGIN,012,-1.1628410329827983,0.4658712585612303,-3.6364316178143765,-0.6100751406162783,-2.4941495739081807,0.7892848820094633,10.385545576001412,-2.037049191307738,0
162,2024-09-19 22:24:13.155983872,TASK_BEGIN,012,-1.1321973001083838,0.46557609379728465,-3.451188676547488,-0.6744069881070174,-2.442529673764434,0.7724483978402268,9.691203590726772,-1.8707279459866686,0
163,2024-09-19 22:24:13.233869056,TASK_BEGIN,012,-1.0978713058993006,0.46388068021172235,-3.2379267914646364,-0.7387190794939551,-2.3954551627693306,0.7578037141612854,8.982000890669399,-1.690475530622994,0
164,2024-09-19 22:24:13.295917056,TASK_BEGIN,012,-1.0605009824836058,0.4606446300108066,-3.0116798946722794,-0.8003240692698639,-2.3546917247777337,0.7457700844579473,8.284947988487925,-1.5034734277391857,0
165,2024-09-19 22:24:14.215643904,TASK_BEGIN,012,-1.0205380068521976,0.4557175105726667,-2.787195403390571,-0.8565850757852156,-2.3218541300750166,0.736692121141897,7.624474282398225,-1.3170245382603003,0
166,2024-09-19 22:24:14.277664768,TASK_BEGIN,012,-0.978279821040438,0.44896935806607224,-2.5783083997021947,-0.9049414137192201,-2.2983909281146153,0.7308414150658384,7.022248316199422,-1.1382271067134508,0
167,2024-09-19 22:24:14.356916992,TASK_BEGIN,012,-0.9339349998698481,0.4403316766625043,-2.3974517051653046,-0.9429683603243122,-2.285454578446434,0.7284004561833642,6.497647481384953,-0.9737107774590393,0
168,2024-09-19 22:24:14.417479936,TASK_BEGIN,012,-0.8876705841681525,0.42982774511571203,-2.255315894396601,-0.968487126195622,-2.283709366910094,0.7294307998570946,6.06762725656377,-0.8292724663205397,0
169,2024-09-19 22:24:14.492420864,TASK_BEGIN,012,-0.8396227257881399,0.4175757977545735,-2.160557566571204,-0.9797165548363547,-2.293189623769107,0.7338446124651462,5.745731887997539,-0.7094441065514088,0
170,2024-09-19 22:24:14.556696064,TASK_BEGIN,012,-0.7899091661034955,0.4037687748360554,-2.1194514555012858,-0.9754088875916052,-2.3132696763677063,0.7414013740650918,5.541016059761743,-0.6171879577931845,0
171,2024-09-19 22:24:14.627951872,TASK_BEGIN,012,-0.7387021985823685,0.38864882535550277,-2.1355222421279696,-0.9549220177372177,-2.3427148736774788,0.7517292015700351,5.4575654840413375,-0.5538342925705839,0
172,2024-09-19 22:24:15.571621888,TASK_BEGIN,012,-0.6863637663290054,0.372491793559244,-2.2093232576717567,-0.9182393734731371,-2.3797552418633305,0.7643484151676737,5.49457210790855,-0.519224733188134,0
173,2024-09-19 22:24:15.629356032,TASK_BEGIN,012,-0.6335705016029652,0.3556047910315824,-2.338493507103703,-0.865972511636885,-2.4221794367462275,0.7786845654846962,5.646460968551124,-0.5119582967869671,0
174,2024-09-19 22:24:15.691855104,TASK_BEGIN,012,-0.5813556156894886,0.3383304830642728,-2.5181099704044456,-0.7993474576144545,-2.4674825475033515,0.7940803713850152,5.902792762273768,-0.5296718257005687,0
175,2024-09-19 22:24:15.769481984,TASK_BEGIN,012,-0.5310661887107546,0.32105000859607996,-2.74129761869432,-0.720148498918764,-2.5130516295934813,0.8098142535348526,6.24840793302426,-0.569388382335117,0
176,2024-09-19 22:24:15.831479040,TASK_BEGIN,012,-0.48428620080306123,0.3041797498017184,-2.9999704056838468,-0.6306262908818528,-2.5563295903533345,0.8251206344559238,6.664626429256563,-0.6279731860870564,0
177,2024-09-19 22:24:15.909740032,TASK_BEGIN,012,-0.44275373670273854,0.28815984110442266,-3.2853982491794933,-0.5334229491274453,-2.594938473255648,0.8392126998842826,7.131648556946289,-0.7025922626475242,0
178,2024-09-19 22:24:15.972227072,TASK_BEGIN,012,-0.40826035245673875,0.2734355072884196,-3.588320140663079,-0.4315371274370986,-2.6267880232878307,0.8513163566319191,7.631381078851416,-0.7909735573381026,0
179,2024-09-19 22:24:16.905662976,TASK_BEGIN,012,-0.38252446540148766,0.26043637992051494,-3.8986810999968147,-0.328278306691885,-2.6501719083860484,0.8607174410403181,8.149655948567302,-0.8913361974794732,0
180,2024-09-19 22:24:16.983861760,TASK_BEGIN,012,-0.36705948914676273,0.2495566326005466,-4.205317222575974,-0.227162761512832,-2.663836487726893,0.8668201776682924,8.67710500456375,-1.002013331772478,0
181,2024-09-19 22:24:17.056327168,TASK_BEGIN,012,-0.3630635355216507,0.24113142083309314,-4.495830265936957,-0.13176376191154007,-2.6670399206291293,0.8692152668676814,9.208529660702766,-1.1209601536895395,0
182,2024-09-19 22:24:17.124160768,TASK_BEGIN,012,-0.3713357935834361,0.23540290860477317,-4.7568213829652475,-0.04553013644062618,-2.6596082498092835,0.8677420967173629,9.741302222232314,-1.245386392043746,0
183,2024-09-19 22:24:17.191844864,TASK_BEGIN,012,-0.3922076074540883,0.23247626342540215,-4.974615595864438,0.028434984037237137,-2.6419373742984766,0.8625159763361734,10.273599187787298,-1.3716249192734782,0
184,2024-09-19 22:24:17.259603968,TASK_BEGIN,012,-0.42548287081746355,0.23227884821879372,-5.136392815234028,0.08761414904170502,-2.614906067949936,0.853905398818827,10.802944405801014,-1.495216159837075,0
185,2024-09-19 22:24:17.325097216,TASK_BEGIN,012,-0.4703959472459206,0.23454322350960152,-5.2314376168796555,0.13028498193409677,-2.579736208932635,0.8424716751874812,11.325219414828611,-1.6111989455373694,0
186,2024-09-19 22:24:18.259011072,TASK_BEGIN,012,-0.5256006682296067,0.23882646455439094,-5.252216117948581,0.1556640137419296,-2.5378550869560987,0.8288939220631183,11.834188070916994,-1.7146105174554886,0
187,2024-09-19 22:24:18.337604864,TASK_BEGIN,012,-0.5891942911242557,0.24455946353801264,-5.195082130310244,0.16396440640825866,-2.490794936653789,0.8138966607785256,12.321529321585249,-1.8010984993830303,0
188,2024-09-19 22:24:18.400008960,TASK_BEGIN,012,-0.6587580109950896,0.2511061195194215,-5.060514722102163,0.15634587619850082,-2.4401434148715686,0.7981879851573641,12.77741588408014,-1.867485273739299,0
189,2024-09-19 22:24:18.462475008,TASK_BEGIN,012,-0.7314054007030062,0.2578172223464765,-4.852917975712017,0.13475746661531654,-2.3875085434849646,0.7824057728455937,13.191544768487182,-1.9121496591504115,0
190,2024-09-19 22:24:18.540787968,TASK_BEGIN,012,-0.8038852785063371,0.26408117749281984,-4.580195190722912,0.10171947867763116,-2.3344358279075936,0.7670659116862343,13.554083436386918,-1.9351173969202897,0
191,2024-09-19 22:24:18.609168896,TASK_BEGIN,012,-0.8728019894528642,0.26937871781580675,-4.253380395481144,0.060100820185231864,-2.282300123505768,0.7525211138304385,13.855978792894417,-1.937854051651028,0
192,2024-09-19 22:24:18.673296896,TASK_BEGIN,012,-0.9349462755962414,0.2733354221391459,-3.886377521665606,0.012914393231933125,-2.2322781859722536,0.7389519108479866,14.088745690281648,-1.9229190518671402,0
193,2024-09-19 22:24:19.609829888,TASK_BEGIN,012,-0.987647677536163,0.27575681211619535,-3.495549538477234,-0.036870697347209186,-2.185433564178223,0.7263961390526034,14.244301639788873,-1.8936465952188726,0
194,2024-09-19 22:24:19.675017216,TASK_BEGIN,012,-1.0290459659762243,0.27663728639129886,-3.0989052332973737,-0.08650031701300896,-2.142824674185862,0.7147998897881321,14.31517221918741,-1.8538696240410537,0
195,2024-09-19 22:24:19.752856832,TASK_BEGIN,012,-1.0582364419840813,0.2761463302173773,-2.714844463496632,-0.13358905299823282,-2.1055508529318523,0.7040721215800104,14.295015130414853,-1.8076317152471049,0
196,2024-09-19 22:24:19.814946816,TASK_BEGIN,012,-1.0753076729231963,0.274603272980493,-2.360530093589655,-0.17626727371918827,-2.074716394639327,0.6941342214637727,14.179335990219986,-1.758894402704549,0
197,2024-09-19 22:24:19.876968960,TASK_BEGIN,012,-1.0812926335949875,0.27244621039324274,-2.050111300271017,-0.21332902665366804,-2.0513224721763805,0.6849556251455969,13.96635778261147,-1.7113170987173816,0
198,2024-09-19 22:24:19.954660864,TASK_BEGIN,012,-1.0780128800303912,0.27018607246186543,-1.793328231512591,-0.24434881550673854,-2.0361353767506887,0.6765684260672016,13.658060774066392,-1.6681819441909913,0
199,2024-09-19 22:24:20.027461888,TASK_BEGIN,012,-1.0677948416056247,0.2683380468280274,-1.5949740096548435,-0.2697173842810523,-2.0296279323201545,0.6690674080845871,13.261285924604367,-1.6324527662091326,0
200,2024-09-19 22:24:20.943164928,TASK_BEGIN,012,-1.0531075625760655,0.26734478763090913,-1.4551591751750972,-0.29058490829897893,-2.0320562190920133,0.6626078919156334,12.788413379501794,-1.6068592934600268,0
201,2024-09-19 22:24:21.005652736,TASK_BEGIN,012,-1.0362313955270062,0.26752001096713585,-1.3699745820403058,-0.3087297441412903,-2.0436106480314677,0.6573988716995212,12.256942351976525,-1.5938843479686813,0
202,2024-09-19 22:24:21.082225152,TASK_BEGIN,012,-1.0190313577557546,0.26902791630954276,-1.3322552543014408,-0.3263648476603728,-2.0645071497719987,0.6536776296657747,11.687831236010378,-1.5956113803188383,0
203,2024-09-19 22:24:21.145154048,TASK_BEGIN,012,-1.0028266182759664,0.27189003726023525,-1.332374296293961,-0.3458955060164506,-2.0949555945089857,0.6516641672009735,11.103210988142502,-1.6134785333299424,0
204,2024-09-19 22:24:21.208123136,TASK_BEGIN,012,-0.988325537106118,0.27600163157424035,-1.359160420564406,-0.3696561392443809,-2.135044335352826,0.6515095933742366,10.524202718188883,-1.648029179649997,0
205,2024-09-19 22:24:21.270193152,TASK_BEGIN,012,-0.9756338016181971,0.2811479231721806,-1.4010931651445502,-0.39965102226457677,-2.1845770094997383,0.6532544815082908,9.96922420903685,-1.698751414946129,0
206,2024-09-19 22:24:21.353225216,TASK_BEGIN,012,-0.9643665326636246,0.28702417780300243,-1.4477247205140302,-0.4373166529347789,-2.2428792416918926,0.6568113873150454,9.453031020596798,-1.7640741961464428,0
207,2024-09-19 22:24:22.291362048,TASK_BEGIN,012,-0.9538592287962643,0.2932678975200455,-1.490933070338622,-0.4833344429081748,-2.308673782894646,0.661986528304871,8.98664851056765,-1.841523813708658,0
208,2024-09-19 22:24:22.364502016,TASK_BEGIN,012,-0.9434022900071374,0.29949918332656567,-1.5255952399863448,-0.537522542470691,-2.3801796612014416,0.6685463979121018,8.577920780206098,-1.9279534366027768,0
209,2024-09-19 22:24:22.432290048,TASK_BEGIN,012,-0.9324011311948998,0.3053528135120353,-1.5496095996006827,-0.5988147077594274,-2.455462607025769,0.6763087136483902,8.232095849973938,-2.0197304077329736,0
210,2024-09-19 22:24:22.492474112,TASK_BEGIN,012,-0.9204237888285225,0.31049264650138686,-1.5634090911463885,-0.6653312335458037,-2.532850187010262,0.685212113312042,7.952050382172357,-2.112843062631209,0
211,2024-09-19 22:24:22.567764992,TASK_BEGIN,012,-0.9071740997224388,0.31461609236073734,-1.569098902752509,-0.7345513372349671,-2.6111596346450416,0.695323054494227,7.738124106481215,-2.202992715214681,0
212,2024-09-19 22:24:22.623163136,TASK_BEGIN,012,-0.892463682780922,0.3174636257245323,-1.5694941665465525,-0.8035550209968403,-2.689624999861387,0.7067735433717263,7.588005560228576,-2.285796512694758,0
213,2024-09-19 22:24:22.700498944,TASK_BEGIN,012,-0.8762445500014322,0.3188397674976675,-1.5675293564390835,-0.8692528208724583,-2.76759731529379,0.7196602034601336,7.497390678748813,-2.3571914311084554,0
214,2024-09-19 22:24:23.638833920,TASK_BEGIN,012,-0.8586978267719338,0.31863426807681067,-1.566229313052797,-0.92856365573981,-2.8441727241133274,0.733946620384901,7.461490078618915,-2.4139620100587043,0
215,2024-09-19 22:24:23.699820032,TASK_BEGIN,012,-0.8402992878765848,0.316825434583401,-1.568859492438798,-0.9785908748930662,-2.917875120972987,0.7493979163596297,7.4764648755472995,-2.4541643522336174,0
216,2024-09-19 22:24:23.777031936,TASK_BEGIN,012,-0.8217900114654296,0.31346306177482725,-1.578796381837769,-1.016836419008429,-2.986468106935412,0.7655553241042615,7.53998133624657,-2.4772843421721604,0
217,2024-09-19 22:24:23.839162112,TASK_BEGIN,012,-0.8040565607527396,0.308645233271568,-1.599141063577918,-1.0414021859332425,-3.0469433885202895,0.7817436941393128,7.651000488391243,-2.4841451387387514,0
218,2024-09-19 22:24:23.916313088,TASK_BEGIN,012,-0.7879777126656744,0.30250089321270096,-1.632450563574854,-1.0511061639406678,-3.095712982755422,0.797104914238389,7.809215516738744,-2.47664567144577,0
219,2024-09-19 22:24:23.985604096,TASK_BEGIN,012,-0.7742924614362533,0.295178924756915,-1.680767287049611,-1.045513297876375,-3.128995193414269,0.8106591053128143,8.01420111708772,-2.4573776452034357,0
220,2024-09-19 22:24:24.053381888,TASK_BEGIN,012,-0.7635159979769476,0.28684113383636883,-1.745697667210964,-1.0249344772324571,-3.1433328056899668,0.8213970662751254,8.264233598743251,-2.4291516864015055,0
221,2024-09-19 22:24:24.971474176,TASK_BEGIN,012,-0.7559043324093038,0.277661149249679,-1.8282221833568362,-0.9904157939840831,-3.1361410906984726,0.8283970829215541,8.554939474629053,-2.3944995595206935,0
222,2024-09-19 22:24:25.029406976,TASK_BEGIN,012,-0.7514501694236885,0.2678333137863066,-1.928253403201057,-0.9436959945279524,-3.106177339345836,0.830947664881094,8.878080010102597,-2.3552610803732805,0
223,2024-09-19 22:24:25.107025920,TASK_BEGIN,012,-0.749884828209919,0.257588651465427,-2.0442177522473055,-0.8871229130936419,-3.0538523760153686,0.8286544458380336,9.220804100260551,-2.3123385857600276,0
224,2024-09-19 22:24:25.174722816,TASK_BEGIN,012,-0.7506808197739786,0.2472080586220338,-2.1728774796087076,-0.8235473192980339,-2.9813271769366785,0.8215123458603426,9.565626816614376,-2.2656338681440973,0
225,2024-09-19 22:24:25.231064064,TASK_BEGIN,012,-0.7530883700919013,0.23702644638751716,-2.3093947547113625,-0.7562050570605938,-2.8923496442600856,0.8099287892189246,9.891260410666117,-2.214153441098876,0
226,2024-09-19 22:24:25.307897088,TASK_BEGIN,012,-0.7562416641584657,0.2274273546389984,-2.4475464561725606,-0.6885650425586707,-2.7918552917449184,0.7946942740848442,10.174257693395537,-2.1562633075596414,0
227,2024-09-19 22:24:25.370384128,TASK_BEGIN,012,-0.7593215089783975,0.21882667431695213,-2.5801027410998936,-0.6241021074382608,-2.685461347144633,0.7769118444737739,10.39126541861178,-2.0900558836717074,0
228,2024-09-19 22:24:26.321011968,TASK_BEGIN,012,-0.7617158736406521,0.2116440015235135,-2.699466955303268,-0.5659859059079135,-2.578998036773338,0.7579029794121689,10.521575305867625,-2.0137751899520953,0
229,2024-09-19 22:24:26.388784896,TASK_BEGIN,012,-0.7631150500709332,0.20626423933370455,-2.79858716975169,-0.5167391097009664,-2.4781238073756504,0.7391006428707225,10.549570926501271,-1.926239351696634,0
230,2024-09-19 22:24:26.444157952,TASK_BEGIN,012,-0.7635087890184157,0.20299414964762463,-2.872009357151427,-0.4779577471015132,-2.387989676959474,0.7219349523611613,10.466763510698605,-1.827212568923195,0
231,2024-09-19 22:24:26.524285184,TASK_BEGIN,012,-0.763110571531848,0.20202124813793082,-2.9168827216314037,-0.45017666247444865,-2.3129413291227943,0.7077218834908445,10.273384877872124,-1.7177114045539337,0
232,2024-09-19 22:24:26.592050944,TASK_BEGIN,012,-0.7622819862023411,0.20338897271250148,-2.933731007215079,-0.43290623600609435,-2.256308344618155,0.6975708741632707,9.979371980397282,-1.600209081103751,0
233,2024-09-19 22:24:26.652432896,TASK_BEGIN,012,-0.7615078787605691,0.2069993726411758,-2.926818779350008,-0.4248034092828658,-2.220311202953811,0.6923195082588836,9.604093236665808,-1.478629807845092,0
234,2024-09-19 22:24:26.715408128,TASK_BEGIN,012,-0.7613960883295203,0.21263655710901505,-2.9039597546365306,-0.42392309404549955,-2.206044292422946,0.6924885146521673,9.174354032880727,-1.3580536719071077,0
235,2024-09-19 22:24:27.666051072,TASK_BEGIN,012,-0.7626413192577441,0.21999262608034284,-2.8756614976750563,-0.42802129573846937,-2.21346755038503,0.698244379529838,8.721140966806438,-1.2441957460836144,0
236,2024-09-19 22:24:27.728535808,TASK_BEGIN,012,-0.7659354814657059,0.22868758953624274,-2.853708072817704,-0.4348784446735315,-2.241371780384236,0.7093635275791677,8.276098812031787,-1.1427994562609065,0
237,2024-09-19 22:24:27.806663936,TASK_BEGIN,012,-0.7718538888189568,0.2382880832249148,-2.849617832411641,-0.4425681829939526,-2.2873496581774657,0.7252093533380387,7.868461050256552,-1.0590471446677074,0
238,2024-09-19 22:24:27.874409984,TASK_BEGIN,012,-0.7807479247104503,0.24832995710042038,-2.873455311821423,-0.44960626174975576,-2.3478610582728936,0.7447505175470501,7.522765273585964,-0.99707812414096,0
239,2024-09-19 22:24:27.942221056,TASK_BEGIN,012,-0.7926606976355625,0.25834554728712006,-2.9330867751917906,-0.45498039806166957,-2.4184269908502425,0.7666379849539711,7.257640013078369,-0.9597287746818405,0
240,2024-09-19 22:24:28.008545792,TASK_BEGIN,012,-0.8072806843085385,0.26789621111640755,-3.033641562788024,-0.458091818426522,-2.4938632231977786,0.7893215997522494,7.085851306376889,-0.9485375968691563,0
241,2024-09-19 22:24:28.070552064,TASK_BEGIN,012,-0.8239427923129132,0.276606483799956,-3.177040333652849,-0.45863587157801256,-2.568468522910764,0.8111700181640279,7.015358122257485,-0.9639306794531151,0
242,2024-09-19 22:24:29.012200192,TASK_BEGIN,012,-0.8416691627391675,0.2841878523127867,-3.361747416566196,-0.4564558478789315,-2.636214628920815,0.8305761737673452,7.05065398950943,-1.0054604464230268,0
243,2024-09-19 22:24:29.074168064,TASK_BEGIN,012,-0.8592331462096897,0.29044217258438065,-3.5829425683492664,-0.45141614834125465,-2.6910426742814666,0.8460522118510947,7.1934297655695225,-1.0719623711013395,0
244,2024-09-19 22:24:29.156772096,TASK_BEGIN,012,-0.8752334883493781,0.29524646047224784,-3.8330582073465798,-0.4433389843967971,-2.727297862524861,0.8563233198917772,7.441924680963663,-1.1615043294966947,0
245,2024-09-19 22:24:29.213399040,TASK_BEGIN,012,-0.8881685478554657,0.2985278670001241,-4.1025278495539,-0.43200008845924764,-2.740252406004059,0.8604249969839908,7.789444660691195,-1.271163999294955,0
246,2024-09-19 22:24:29.292308224,TASK_BEGIN,012,-0.8965053711788727,0.300238475096645,-4.380738941022858,-0.41712061840051157,-2.7266329820161976,0.857795004046069,8.223433711415908,-1.396877143548705,0
247,2024-09-19 22:24:29.360065024,TASK_BEGIN,012,-0.8987558434087135,0.30034047609736775,-4.65720253960311,-0.3983202301284176,-2.685048599340496,0.8483338179453495,8.72606452059475,-1.5335819823760684,0
248,2024-09-19 22:24:29.420983040,TASK_BEGIN,012,-0.8935799090486056,0.29881067128233524,-4.922707891075307,-0.3750890657507149,-2.616212726229617,0.8324076528318036,9.276077192472444,-1.675644166779326,0
249,2024-09-19 22:24:30.363298048,TASK_BEGIN,012,-0.8799121512221009,0.29566284565374495,-5.170022367349048,-0.3468812341291443,-2.5228919719733374,0.8107917445670781,9.850852181847133,-1.81733666765904,0
250,2024-09-19 22:24:30.427495168,TASK_BEGIN,012,-0.8570905429569949,0.290974093216689,-5.393867817849929,-0.3133591998980309,-2.409566049347405,0.7845717137899694,10.428005848338163,-1.9531660161377618,0
251,2024-09-19 22:24:30.503983872,TASK_BEGIN,012,-0.8249811666887154,0.2849002995781337,-5.590330574704221,-0.2746767502039727,-2.281849874723,0.7550274454170364,10.986629544350112,-2.0780294828871018,0
252,2024-09-19 22:24:30.566336000,TASK_BEGIN,012,-0.7840941443186333,0.2776756390081963,-5.756071920510783,-0.23163562178359615,-2.1458232397662806,0.7235269364737704,11.508552813683151,-2.1873221719849316,0
253,2024-09-19 22:24:30.642284032,TASK_BEGIN,012,-0.7356559924828925,0.2695986886265082,-5.88763625043263,-0.18563701187581885,-2.0074524382600614,0.6914459354646417,11.979383416769599,-2.277077374489291,0
254,2024-09-19 22:24:30.695776000,TASK_BEGIN,012,-0.6815943176865908,0.26100995846676533,-5.981051129088658,-0.1384594240243174,-1.872212365659962,0.6601058836254678,12.3886316299603,-2.344134269337839,0
255,2024-09-19 22:24:30.775674112,TASK_BEGIN,012,-0.6244261278287733,0.25226720983119616,-6.031802565743827,-0.09195593022478595,-1.7449165343642816,0.6307183754905888,12.728714514408935,-2.3862897048424325,0
256,2024-09-19 22:24:31.710848000,TASK_BEGIN,012,-0.5670761011524719,0.24372543653072073,-6.035174518799256,-0.04777904050531352,-1.6297005605033912,0.6043357607615667,12.993391878931115,-2.402381448968756,0
257,2024-09-19 22:24:31.788493824,TASK_BEGIN,012,-0.5126482234210339,0.23572296489094416,-5.986920474433632,-0.007214872195633326,-1.5300683097779273,0.5818094560175121,13.176429961247303,-2.3922594289194343,0
258,2024-09-19 22:24:31.857211136,TASK_BEGIN,012,-0.46415948373691845,0.22856699124256058,-5.884190637739896,0.028850826498499415,-1.448913002448896,0.563754115649699,13.271142463946358,-2.3566726994561558,0
259,2024-09-19 22:24:31.912583936,TASK_BEGIN,012,-0.42425600497417776,0.22251171964827524,-5.726526681420222,0.05987264188695722,-1.388460419543195,0.5505170717221544,13.271143328402855,-2.297174176876457,0
260,2024-09-19 22:24:31.992158976,TASK_BEGIN,012,-0.3949580856117634,0.21773089942771182,-5.516630216984501,0.0855476310354963,-1.3501202633149623,0.5421552004306978,13.17204876861678,-2.2161071540794723,0
261,2024-09-19 22:24:32.053051904,TASK_BEGIN,012,-0.3774814490856788,0.21429110256006736,-5.260616942091662,0.10571391011721838,-1.33428331773348,0.5384274679172754,12.973315679861054,-2.1166244903786677,0
262,2024-09-19 22:24:32.115150848,TASK_BEGIN,012,-0.3721514418878041,0.21212906434472836,-4.9676333552548115,0.12025059984097787,-1.3401578841547295,0.5388192467744465,12.679461005449669,-2.0026401808644474,0
263,2024-09-19 22:24:33.071208960,TASK_BEGIN,012,-0.3784083728881562,0.2110384336533991,-4.648919247469465,0.12897456401826862,-1.3657686314450528,0.5426112727451793,12.300403678726827,-1.8786692072153324,0
264,2024-09-19 22:24:33.139497984,TASK_BEGIN,012,-0.39491811239784413,0.21068008153283196,-4.316556840631117,0.13155573469432622,-1.408203328906779,0.548987444829904,11.85111016975588,-1.7495993367960314,0
265,2024-09-19 22:24:33.207284992,TASK_BEGIN,012,-0.4198054948752242,0.2106283778939854,-3.982262795237971,0.12749695432193914,-1.4640695488324884,0.5571529678432728,11.350897013075285,-1.6204747526327654,0
266,2024-09-19 22:24:33.275021056,TASK_BEGIN,012,-0.45098217512228816,0.21044664513904796,-3.6565261331792844,0.11621079842814583,-1.530014819638289,0.5664274682662059,10.8224830503538,-1.4963359960539995,0
267,2024-09-19 22:24:33.342797056,TASK_BEGIN,012,-0.48648246481775964,0.20976597049713533,-3.3481163930178197,0.09719780941545916,-1.6031699373089265,0.5762948966239554,10.290425941835803,-1.3820748855260592,0
268,2024-09-19 22:24:33.396933120,TASK_BEGIN,012,-0.5247071778793797,0.20834133259051585,-3.0637986521715153,0.07028730931139923,-1.6814305684831254,0.5864120557918785,9.778692932221112,-1.282219269920667,0
269,2024-09-19 22:24:33.475041024,TASK_BEGIN,012,-0.5645262734642408,0.2060765093653314,-2.808250261738148,0.035847464283661215,-1.7635203622192197,0.5965822400435244,9.307789049419787,-1.200624940847209,0
270,2024-09-19 22:24:34.396560896,TASK_BEGIN,012,-0.6052630735489252,0.20302636466105572,-2.5843363596026276,-0.005126075603139803,-1.848823884072146,0.6067024183880622,8.892128314136484,-1.1401069420845282,0
271,2024-09-19 22:24:34.464370944,TASK_BEGIN,012,-0.6466027340908219,0.19938531931473116,-2.3936505610619805,-0.051066623479375635,-1.9370588961375816,0.6166995933354967,8.538037373493436,-1.1020405519067618,0
272,2024-09-19 22:24:34.532147968,TASK_BEGIN,012,-0.6884442609979755,0.1954601756563673,-2.2369238000902945,-0.10000284970794254,-2.0279040992812227,0.6264723915865577,8.242772074815958,-1.0860328913275439,0
273,2024-09-19 22:24:34.599829760,TASK_BEGIN,012,-0.7307173151461405,0.19162379354513864,-2.1140839847839663,-0.14977426307846534,-2.120681721990396,0.6358486421466921,7.9952131047609605,-1.0898676637491524,0
274,2024-09-19 22:24:34.660512000,TASK_BEGIN,012,-0.7732048756773753,0.1882570386633877,-2.024110962203598,-0.19824345446447988,-2.2141540184541144,0.6445685984753767,7.778563372492303,-1.1098568169018077,0
275,2024-09-19 22:24:34.722641152,TASK_BEGIN,012,-0.8154105729560757,0.18569603542456867,-1.96490554201125,-0.24349881713437266,-2.3064487594961762,0.6522991868413689,7.574401079591376,-1.1415103701520506,0
276,2024-09-19 22:24:34.800391936,TASK_BEGIN,012,-0.8564972253475115,0.1841994309664294,-1.9332912028643028,-0.284072215709123,-2.39509671981164,0.6586710850556764,7.3668536887251825,-1.1802759714602784,0
277,2024-09-19 22:24:35.737736960,TASK_BEGIN,012,-0.8953069038439302,0.18393779054847723,-1.9251699711938093,-0.3191588797368489,-2.477163718806693,0.6633200560554521,7.145786183435796,-1.2221187165292855,0
278,2024-09-19 22:24:35.799761920,TASK_BEGIN,012,-0.930446579230094,0.1849965447276852,-1.93576929452529,-0.3487616147693322,-2.549462587019114,0.6659174701149418,6.908342873185895,-1.263835965686691,0
279,2024-09-19 22:24:35.877868032,TASK_BEGIN,012,-0.9604105041284838,0.18738506467754099,-1.9598796782714007,-0.3736836113527865,-2.6088248630796125,0.6661888920681662,6.658777626232413,-1.30313397138966,0
280,2024-09-19 22:24:35.940798976,TASK_BEGIN,012,-0.9837262576042753,0.19105120390363486,-1.9920221654033723,-0.39536990300389996,-2.6524233789085994,0.663931924034378,6.407116061902898,-1.3385928106170606,0
281,2024-09-19 22:24:36.002863104,TASK_BEGIN,012,-0.9991288864503043,0.19590018146565413,-2.026612942996742,-0.4156526947792478,-2.678125488774842,0.6590414908505968,6.167376632963637,-1.3696277674863881,0
282,2024-09-19 22:24:36.080971008,TASK_BEGIN,012,-1.005747902975605,0.20180939751712562,-2.058301839708241,-0.4364512316563296,-2.6847876454237474,0.651533197116737,5.955750935544961,-1.396415520544271,0
283,2024-09-19 22:24:36.142146048,TASK_BEGIN,012,-1.0032542905332948,0.20862995692993155,-2.0825625132760806,-0.4594469571828061,-2.6723779921808193,0.6415480922018619,5.788858003920954,-1.4197186681168676,0
284,2024-09-19 22:24:37.057483008,TASK_BEGIN,012,-0.9919221479437778,0.21617644683956438,-2.0963697750926316,-0.485749594715277,-2.6419189571592265,0.629340131674295,5.682154974765794,-1.4406653280458337,0
285,2024-09-19 22:24:37.135596032,TASK_BEGIN,012,-0.972604289568715,0.22421602983067354,-2.0986629038958164,-0.5156309731956309,-2.595347151765926,0.6152622655913917,5.648507819050421,-1.4605641599156083,0
286,2024-09-19 22:24:37.207305984,TASK_BEGIN,012,-0.9466436779981225,0.23246659605759792,-2.0903510000361614,-0.5484551614189904,-2.535353681877962,0.599754412348849,5.696925548693503,-1.4807380568084871,0
287,2024-09-19 22:24:37.260404992,TASK_BEGIN,012,-0.9157359378777815,0.24060758283171382,-2.0738662378266945,-0.5828464189864907,-2.465181622899244,0.5833232885779852,5.83162799250906,-1.5023426247575742,0
288,2024-09-19 22:24:37.337143808,TASK_BEGIN,012,-0.8817459362670865,0.24830127622735657,-2.0525623431048623,-0.6169917161969799,-2.388355936282724,0.5665127328350459,6.0516069228387455,-1.5261858459061606,0
289,2024-09-19 22:24:37.399174144,TASK_BEGIN,012,-0.8464834754710048,0.25521754604607433,-2.030215675066452,-0.6489583885407059,-2.308399613657916,0.5498743223864725,6.350746355752498,-1.5526015141362581,0
290,2024-09-19 22:24:37.476859136,TASK_BEGIN,012,-0.8114739103493847,0.2610567697339238,-2.0105627284003957,-0.676982848905421,-2.228640016846558,0.5339447714687888,6.718548626140025,-1.5814353806167112,0
291,2024-09-19 22:24:38.420371200,TASK_BEGIN,012,-0.7777902525111187,0.2655741893843891,-1.9966833524544634,-0.6997216540183266,-2.152130452857544,0.5192266617919323,7.1413575318186755,-1.6121407536833368,0
292,2024-09-19 22:24:38.482484992,TASK_BEGIN,012,-0.746001773717062,0.2686104045665418,-1.990270233281328,-0.716450235210539,-2.081588536407492,0.5061674549988693,7.603747190052343,-1.643907064878269,0
293,2024-09-19 22:24:38.544509696,TASK_BEGIN,012,-0.7162511359517614,0.27012289237184106,-1.9911468920351327,-0.7271700482072231,-2.019285837794163,0.4951430800103656,8.089584964086395,-1.6757382762788915,0
294,2024-09-19 22:24:38.625528064,TASK_BEGIN,012,-0.6884273931654039,0.2702059763577463,-1.9974163527859867,-0.7325695540260195,-1.9669726772695806,0.4864582765812527,8.582293091575266,-1.7064258855739012,0
295,2024-09-19 22:24:38.689525760,TASK_BEGIN,012,-0.6623646548072859,0.2690876158186896,-2.0062847967485995,-0.7338264151275739,-1.9259403100958488,0.4803610439605558,9.064348748597595,-1.7344355578392627,0
296,2024-09-19 22:24:38.751565056,TASK_BEGIN,012,-0.6379928060111151,0.26709834526256243,-2.0152986108535833,-0.7323013805955757,-1.897165655124083,0.4770520981128687,9.516745537849674,-1.7578231377946916,0
297,2024-09-19 22:24:38.828951040,TASK_BEGIN,012,-0.6154190240486456,0.26462255268632345,-2.023603877739246,-0.7292041872946392,-1.8813660899298177,0.47667338070191184,9.9191624614279,-1.7742695972177644,0
298,2024-09-19 22:24:39.770375936,TASK_BEGIN,012,-0.5949706784573431,0.2620530648040642,-2.0327635685199636,-0.7253237910006666,-1.8788711958855022,0.47927847654450006,10.25100003516345,-1.7812066771248356,0
299,2024-09-19 22:24:39.833175808,TASK_BEGIN,012,-0.5772208482523004,0.25975978351989365,-2.0467852893566616,-0.7209130020594113,-1.8894141961277044,0.48480930520912324,10.49302120876937,-1.7759916013069392,0
300,2024-09-19 22:24:39.895343104,TASK_BEGIN,012,-0.5629870420672387,0.2580688581990374,-2.071383677611328,-0.7157648448089404,-1.9120359993475056,0.4931057734882084,10.629264541869333,-1.7561568914242267,0
301,2024-09-19 22:24:39.975141120,TASK_BEGIN,012,-0.5532970239713731,0.25725217426503566,-2.1128084328962906,-0.7094264439381373,-1.9451762626625981,0.5039464297489031,10.648744054650841,-1.7197174599021798,0
302,2024-09-19 22:24:40.034816768,TASK_BEGIN,012,-0.5493237926111668,0.25753051991625586,-2.1766389744003702,-0.701432463845838,-1.9868600914380388,0.5170896287288861,10.546290135510427,-1.665392541133418,0
303,2024-09-19 22:24:40.096886016,TASK_BEGIN,012,-0.552273943139738,0.2590821605239939,-2.26689885806582,-0.691444414511742,-2.034859981051498,0.5322883425347475,10.322206463187923,-1.592608470531237,0
304,2024-09-19 22:24:40.174992896,TASK_BEGIN,012,-0.5632098915115333,0.26204034485016037,-2.385659056269328,-0.6792613554716656,-2.0867918337518807,0.5492750074376012,9.981096806815984,-1.5013226161638564,0
305,2024-09-19 22:24:41.119800064,TASK_BEGIN,012,-0.5828291264179045,0.2664738437154535,-2.532980902090013,-0.6647833183304607,-2.14017676101928,0.5677301885565628,9.530683171303988,-1.3918727463977032,0
306,2024-09-19 22:24:41.181819904,TASK_BEGIN,012,-0.6112766521350695,0.2723617836076807,-2.7068850626401257,-0.6480443762601154,-2.1925156438460007,0.5872541509912216,8.981352162320308,-1.2650445020980252,0
307,2024-09-19 22:24:41.257454080,TASK_BEGIN,012,-0.6480699436147593,0.2795788061835755,-2.903208541503253,-0.6293243815427441,-2.2413929625641007,0.6073572397188617,8.346598201697615,-1.1223597743564464,0
308,2024-09-19 22:24:41.321796864,TASK_BEGIN,012,-0.6921542663283763,0.2878970292276965,-3.1155234442623203,-0.6092257675335527,-2.284583787923342,0.6274713486130886,7.643924571127927,-0.9664188440234747,0
309,2024-09-19 22:24:41.392982784,TASK_BEGIN,012,-0.7420356980999884,0.29700050790101995,-3.335403794433116,-0.5886246263556795,-2.3201215943266194,0.6469670439147772,6.895526605644524,-0.8011432720430753,0
310,2024-09-19 22:24:41.460732928,TASK_BEGIN,012,-0.7959196347347313,0.30650534673706226,-3.5531626066158393,-0.5685228891212823,-2.3463263738703475,0.6651619920730862,6.128182131888346,-0.6318552909641841,0
311,2024-09-19 22:24:41.523847936,TASK_BEGIN,012,-0.8518163832862067,0.31598265803058156,-3.758933851162129,-0.5498845179907917,-2.36183963225338,0.6813247711197311,5.372078791809122,-0.4651378272138136,0
312,2024-09-19 22:24:42.466342912,TASK_BEGIN,012,-0.907622455641837,0.32498389368983294,-3.9438097739648916,-0.5335101566659644,-2.36569268175423,0.6946893259433211,4.6587478566164044,-0.3084091859130572,0
313,2024-09-19 22:24:42.539137024,TASK_BEGIN,012,-0.9611915014880615,0.3330627388850437,-4.100725452604816,-0.5199609487207967,-2.357383447377236,0.7044934280522144,4.018529032411165,-0.16922597340742673,0
314,2024-09-19 22:24:42.606818048,TASK_BEGIN,012,-1.0103789912022225,0.33978449481960094,-4.2249207478688335,-0.509518206364497,-2.3369103613812965,0.7100406156733736,3.4780264087846224,-0.05447661352356339,0
315,2024-09-19 22:24:42.669792000,TASK_BEGIN,012,-1.0530586503884278,0.34472669658550154,-4.314002595176446,-0.5021603137104133,-2.3047290352008414,0.7107668540213243,3.0582357581669064,0.03025565136787209,0
316,2024-09-19 22:24:42.731870208,TASK_BEGIN,012,-1.087165501780779,0.34749161231946235,-4.3677312690485754,-0.4975435268997097,-2.2616478262906554,0.706291702528001,2.7740917238332106,0.08093440036198125,0
317,2024-09-19 22:24:42.810137088,TASK_BEGIN,012,-1.1108234845373135,0.3477461030517175,-4.387636696707318,-0.4949976653712705,-2.208707188177902,0.6964484291249189,2.635351093313322,0.09495340811838757,0
318,2024-09-19 22:24:42.871587840,TASK_BEGIN,012,-1.1225446737497635,0.3452799116305027,-4.376511032663522,-0.4935766677331882,-2.1470874650642413,0.6812992213891319,2.647595871573239,0.07095311449547687,0
319,2024-09-19 22:24:43.814867968,TASK_BEGIN,012,-1.121431789725565,0.340058876318104,-4.337789087068985,-0.492183183027704,-2.0780716449486913,0.6611406642859406,2.8121048803814155,0.008850915893540404,0
320,2024-09-19 22:24:43.886724096,TASK_BEGIN,012,-1.1073274392037837,0.3322548943554813,-4.274848820049908,-0.4897311240089668,-2.0030394888548524,0.6364944262165694,3.124386219298946,-0.08985553542846327,0
321,2024-09-19 22:24:43.954447104,TASK_BEGIN,012,-1.080886900948504,0.32224538092594474,-4.190365522261959,-0.48529035484298866,-1.9234584275371462,0.6080762915858507,3.57210803082948,-0.221673737665797,0
322,2024-09-19 22:24:44.016110848,TASK_BEGIN,012,-1.0435681641257641,0.3105851073370286,-4.08597739482133,-0.4781758160262207,-1.8408977243908078,0.5767510276635529,4.133523436934834,-0.38086897062006864,0
323,2024-09-19 22:24:44.089939200,TASK_BEGIN,012,-0.9975422807208518,0.2979615491486007,-3.9624318854500737,-0.46798306654412003,-1.7570991589557277,0.543489357444074,4.777319267141763,-0.5596054413259887,0
324,2024-09-19 22:24:44.155461120,TASK_BEGIN,012,-0.9455355452712156,0.2851440350870753,-3.8199957656148356,-0.45462669204743505,-1.674052113912606,0.509330040775113,5.464143765822793,-0.7484907767753047,0
325,2024-09-19 22:24:44.217419008,TASK_BEGIN,012,-0.8906255024504395,0.27293064367466524,-3.658657315721945,-0.438431418146936,-1.5939831831456048,0.4753319752136432,6.1494429925155085,-0.9373764431171302,0
326,2024-09-19 22:24:45.162724864,TASK_BEGIN,012,-0.836016281761551,0.2620933803968816,-3.477994237911086,-0.42022028331897504,-1.519242741139585,0.44250598081622344,6.787154479077449,-1.1162242599903553,0
327,2024-09-19 22:24:45.225245184,TASK_BEGIN,012,-0.7848025883420698,0.25332049180342875,-3.2771854521943706,-0.40126896573208376,-1.4521544950023637,0.4117414400469948,7.3337725118471875,-1.2758530152288117,0
328,2024-09-19 22:24:45.303322112,TASK_BEGIN,012,-0.7397230617491517,0.24715828934527467,-3.055634823651789,-0.3830751969468201,-1.3948905423218996,0.3837540338801147,7.752027718581087,-1.4084505037528057,0
329,2024-09-19 22:24:45.373573888,TASK_BEGIN,012,-0.7029231938240678,0.2439655355374826,-2.813975742604201,-0.36705122472631757,-1.3493625567490017,0.359063885988901,8.013509650776943,-1.5078798768105481,0
330,2024-09-19 22:24:45.435447040,TASK_BEGIN,012,-0.6757712810545804,0.24389638587541332,-2.554794329971854,-0.3543053903309999,-1.3170817645071888,0.3379999822921983,8.100120418789045,-1.5698861280097112,0
331,2024-09-19 22:24:45.505966080,TASK_BEGIN,012,-0.6587767292936,0.24691431689205545,-2.2827810015041377,-0.34557154944716,-1.2989824921579989,0.3207307356079852,8.004673159510856,-1.5922527915413682,0
332,2024-09-19 22:24:45.568001024,TASK_BEGIN,012,-0.6516394502160187,0.2528233848022275,-2.004570440336613,-0.34120162059608694,-1.2952653028196839,0.3073183084791162,7.730975020167667,-1.5748762511737475,0
333,2024-09-19 22:24:46.488834048,TASK_BEGIN,012,-0.6534115526544179,0.2613012081289106,-1.7285436711597892,-0.34113184179850936,-1.3053329230720792,0.29778010026500384,7.293555097238746,-1.5197214551281593,0
334,2024-09-19 22:24:46.551808000,TASK_BEGIN,012,-0.6627059957166667,0.2719284066027723,-1.4645039956633654,-0.34484991325786946,-1.327851764821096,0.29213226858930097,6.717029873335095,-1.4306826337159524,0
335,2024-09-19 22:24:46.631715072,TASK_BEGIN,012,-0.6778813953504976,0.2842182419777205,-1.222972069770043,-0.3514484841171539,-1.3609051140778246,0.29039748297734436,6.035032217403837,-1.313394565885336,0
336,2024-09-19 22:24:46.699469056,TASK_BEGIN,012,-0.6971720936844467,0.29765110786849397,-1.0140580432551234,-0.35978739824350353,-1.4021897884470875,0.29258166639539585,5.288616157615868,-1.174982735061542,0
337,2024-09-19 22:24:46.767225088,TASK_BEGIN,012,-0.7187721115977354,0.3117116816546373,-0.8462411687152309,-0.36870133882144834,-1.4492531472625223,0.2986431994828196,4.523996059039536,-1.0237025996180864,0
338,2024-09-19 22:24:46.834976000,TASK_BEGIN,012,-0.7408894386954551,0.32591769283816463,-0.7255629966036655,-0.3771649656844834,-1.4997615730913347,0.30846934679398064,3.789432759123627,-0.8684722976957908,0
339,2024-09-19 22:24:46.902045952,TASK_BEGIN,012,-0.761784940325411,0.3398294813158931,-0.6554760196635998,-0.3843791650352794,-1.5517302535012238,0.3218520602223336,3.131323439846285,-0.7183622706471748,0
340,2024-09-19 22:24:47.809300736,TASK_BEGIN,012,-0.7798155716879703,0.35304120993993154,-0.63712986642425,-0.38981932371241185,-1.6036539184730694,0.3384534348213465,2.5901285590731646,-0.5820843038140989,0
341,2024-09-19 22:24:47.887407104,TASK_BEGIN,012,-0.7935050864855948,0.3651691240642624,-0.669705889738159,-0.393303380663413,-1.6545512934731268,0.35777083565362244,2.1970154478647053,-0.4674729399879507,0
342,2024-09-19 22:24:47.949815808,TASK_BEGIN,012,-0.8016598592262653,0.37585842111803086,-0.7505815069903699,-0.3950822570311217,-1.7039618607742069,0.3791237961864384,1.9716551012878976,-0.38095172887742146,0
343,2024-09-19 22:24:48.024576000,TASK_BEGIN,012,-0.8035239027676977,0.38481800449781633,-0.8753586643337548,-0.39590024750291364,-1.7519161914288213,0.40167666443424893,1.921167048746531,-0.32702731329727147,0
344,2024-09-19 22:24:48.089533184,TASK_BEGIN,012,-0.7989251776556516,0.39186755101628595,-1.0379769887273882,-0.3969614808738266,-1.7988948615444824,0.42449727570176765,2.0401604037780663,-0.307898424120391,0
345,2024-09-19 22:24:48.151561984,TASK_BEGIN,012,-0.7883437475270842,0.39696872528235383,-1.2311479490959847,-0.3997590442829268,-1.845783579199948,0.44664305007790295,2.3117625419738697,-0.3232588855220263,0
346,2024-09-19 22:24:48.217514240,TASK_BEGIN,012,-0.7728709824906579,0.4002265611407123,-1.4471160595151278,-0.4057770096976432,-1.8938046945497113,0.4672564539634308,2.709402673048737,-0.3703324570654321,0
347,2024-09-19 22:24:49.171346944,TASK_BEGIN,012,-0.7540955988858975,0.40187034285513173,-1.6784485411201064,-0.4161560646605071,-1.9443900688471274,0.4856438454123185,3.199172665894395,-0.4441486023517782,0
348,2024-09-19 22:24:49.227785216,TASK_BEGIN,012,-0.7339634215991988,0.40222742307297155,-1.91848520250834,-0.43145394719461844,-1.9989886380571074,0.5013169729278036,3.7427075564957226,-0.5380638888182082,0
349,2024-09-19 22:24:49.306363136,TASK_BEGIN,012,-0.7146034416733028,0.40169036859364693,-2.161277955813192,-0.45158496928174036,-2.0588414897539553,0.513994095316775,4.300477405126328,-0.6444966038829558,0
350,2024-09-19 22:24:49.374662144,TASK_BEGIN,012,-0.6980880666055523,0.4006728487510043,-2.4011296987764394,-0.4759249081325951,-2.1247594425874334,0.5235739267680417,4.835189000566833,-0.7557285204304238,0
351,2024-09-19 22:24:49.442433024,TASK_BEGIN,012,-0.6861518094866261,0.39956013270617907,-2.6321121000812324,-0.503486913093536,-2.1969215613871116,0.5300984706086085,5.314889571393806,-0.8645656829087272,0
352,2024-09-19 22:24:49.507127808,TASK_BEGIN,012,-0.6799609070603085,0.3986722418859384,-2.8480363860033293,-0.5330639184525208,-2.2747349086223916,0.533715572491103,5.715429290148221,-0.9647900995815288,0
353,2024-09-19 22:24:49.569615104,TASK_BEGIN,012,-0.6800210384696225,0.3982551410417582,-3.043069374303459,-0.5632968777941314,-2.356834099278524,0.5346534289506899,6.022050515869173,-1.0515209578221043,0
354,2024-09-19 22:24:50.513750016,TASK_BEGIN,012,-0.6862270061486614,0.3984944695198869,-3.2127346752313573,-0.5926959147559155,-2.4412560724927737,0.5332204100118687,6.229985886302551,-1.1215630924778928,0
355,2024-09-19 22:24:50.576281856,TASK_BEGIN,012,-0.6979775862020149,0.39952975254732304,-3.3548548687041846,-0.6196448752164541,-2.5257175241077556,0.5298262338245654,6.344031469838174,-1.1736254436631735,0
356,2024-09-19 22:24:50.646714880,TASK_BEGIN,012,-0.7142787411853756,0.40145490176752485,-3.4701342048080206,-0.6423946039748154,-2.607888813502411,0.5249972068167001,6.377041074652647,-1.2082373225657015,0
357,2024-09-19 22:24:50.724342016,TASK_BEGIN,012,-0.7338103410924209,0.404308095444594,-3.5622339966199204,-0.6590651868870232,-2.685612670678804,0.5193585956928414,6.347449419897686,-1.2273450134185857,0
358,2024-09-19 22:24:50.792529152,TASK_BEGIN,012,-0.7549636693467471,0.4080599873733653,-3.6372040161980506,-0.6677051153353725,-2.7570547544853374,0.5135806284200188,6.276468331034438,-1.2337686665033856,0
359,2024-09-19 22:24:50.847897856,TASK_BEGIN,012,-0.7758760399057015,0.41260852724970404,-3.7022404004509486,-0.6664475552037149,-2.8207878515899014,0.5083060752128414,6.1858679451080505,-1.2307620661256085,0
360,2024-09-19 22:24:50.928036864,TASK_BEGIN,012,-0.79451203242624,0.4177874999403038,-3.764068032530681,-0.6537748749873165,-2.875835066954388,0.5040838767211853,6.09675104982076,-1.2217905577754802,0
361,2024-09-19 22:24:51.868707072,TASK_BEGIN,012,-0.8088209632363114,0.4233859957251709,-3.827450416486262,-0.6288498865047558,-2.9216886017762085,0.5013256907862841,6.028983102447175,-1.2104566817014986,0
362,2024-09-19 22:24:51.931193088,TASK_BEGIN,012,-0.8169328013293566,0.42916312182391353,-3.8941765460284175,-0.591809376016313,-2.958268150473527,0.5002871406263807,6.000562334121062,-1.2004263392387657,0
363,2024-09-19 22:24:51.993216000,TASK_BEGIN,012,-0.8173180918027632,0.4348460482370387,-3.962637433186506,-0.5439243226107414,-2.9857694693183316,0.5010671264790328,6.026247290980125,-1.1952306902699212,0
364,2024-09-19 22:24:52.070850048,TASK_BEGIN,012,-0.8088711647678767,0.44011711719612445,-4.028027877232843,-0.4875993046404158,-3.0044438518532357,0.5036236184032009,6.115227490823321,-1.1978798179496155,0
365,2024-09-19 22:24:52.142805248,TASK_BEGIN,012,-0.7909389213255862,0.4446064654136378,-4.083159156402664,-0.4262103645347812,-3.0144560267667684,0.5078104169027807,6.268517024624952,-1.210350770834841,0
366,2024-09-19 22:24:52.210115840,TASK_BEGIN,012,-0.7633504555666569,0.44790388631698264,-4.119736303568493,-0.36377786709705495,-3.0159224322387304,0.513431299688807,6.477372440493445,-1.233141853805177,0
367,2024-09-19 22:24:52.278315264,TASK_BEGIN,012,-0.7264787342378811,0.4495948520550289,-4.129855832880948,-0.30450008103193443,-3.0090584226452943,0.5202918126834705,6.723596176594827,-1.2650665853806062,0
368,2024-09-19 22:24:53.221574912,TASK_BEGIN,012,-0.6813154309889796,0.4493183036406586,-4.107433234510453,-0.25222021840934217,-2.994283088725432,0.5282277664738878,6.981525031711431,-1.3033264186353855,0
369,2024-09-19 22:24:53.289371136,TASK_BEGIN,012,-0.629510475486947,0.44683829746619763,-4.049185714611756,-0.20995258335349984,-2.9722156988834407,0.5371086126143458,7.220987627477424,-1.3438197974595214,0
370,2024-09-19 22:24:53.356764160,TASK_BEGIN,012,-0.5733289455104922,0.44211168396131406,-3.9548321920441603,-0.17963158999093945,-2.9436058761254666,0.5468296561109084,7.410816502162328,-1.381645612260887,0
371,2024-09-19 22:24:53.415788800,TASK_BEGIN,012,-0.5155023041954357,0.4353257779520336,-3.8265131712610723,-0.1621673916840159,-2.9092630150568017,0.557303159755379,7.522787247240989,-1.4117533522342829,0
372,2024-09-19 22:24:53.479377920,TASK_BEGIN,012,-0.4589932531112025,0.42689007751241886,-3.6678536824417596,-0.15768706760294776,-2.8700031538846726,0.5684478244032769,7.535547601696323,-1.429656682937463,0
373,2024-09-19 22:24:53.555867904,TASK_BEGIN,012,-0.40673691910878906,0.4173891436119576,-3.4832148140088073,-0.16572829003569525,-2.826590519393572,0.5801747796951835,7.437721154105393,-1.4320946640662813,0
374,2024-09-19 22:24:53.627779072,TASK_BEGIN,012,-0.3614271490528093,0.40751601104881247,-3.2774225644019492,-0.1852706177816401,-2.779680848591402,0.5923743344374224,7.229512515931364,-1.4175166050716106,0
375,2024-09-19 22:24:54.571142912,TASK_BEGIN,012,-0.3253710741961775,0.39800296741333696,-3.055862565382737,-0.21467023470598776,-2.729832643877816,0.6049139435874834,6.922553560492062,-1.3863018733748418,0
376,2024-09-19 22:24:54.628544256,TASK_BEGIN,012,-0.3003908191186473,0.38956139191071054,-2.8246215782610293,-0.2516175628841203,-2.6776392602113632,0.6176578710651655,6.538087769785701,-1.3407041074504098,0
377,2024-09-19 22:24:54.707303936,TASK_BEGIN,012,-0.2877478839716099,0.38283504747584296,-2.59047269033791,-0.29319692037254064,-2.623952733824886,0.6305081653656747,6.103908858970682,-1.284566596327539,0
378,2024-09-19 22:24:54.775162880,TASK_BEGIN,012,-0.28808063700801945,0.37836270424964674,-2.3607024017623632,-0.3360842699567429,-2.5700977545710564,0.6434490996238718,5.650754113044357,-1.22284620176918,0
379,2024-09-19 22:24:54.830455040,TASK_BEGIN,012,-0.3013596937839095,0.37654807164176,-2.142817430706039,-0.37687254027954264,-2.5179366772297875,0.6565671906093526,5.208977046637925,-1.1609799270120886,0
380,2024-09-19 22:24:54.907931904,TASK_BEGIN,012,-0.3268753253700146,0.37764370972182015,-1.9441492163884766,-0.41245749987070873,-2.4696860579817277,0.6700302637112439,4.8061102126423485,-1.1041961662520785,0
381,2024-09-19 22:24:54.970418944,TASK_BEGIN,012,-0.3632704234977268,0.3817530479557157,-1.7714057688835867,-0.4403940899549257,-2.4275345106452817,0.6840345980079925,4.465407710301487,-1.0569257323213832,0
382,2024-09-19 22:24:55.914555904,TASK_BEGIN,012,-0.4086299030776158,0.3888434964465705,-1.6301500094325478,-0.45916548109215977,-2.39324051626306,0.6987428044551112,4.204994844078356,-1.022408920032248,0
383,2024-09-19 22:24:55.978043904,TASK_BEGIN,012,-0.46062291577626147,0.3987604151350052,-1.524064918200289,-0.4683584677253275,-2.367866465320146,0.7142296458167849,4.0372763337064095,-1.0024911730717336,0
384,2024-09-19 22:24:56.055944704,TASK_BEGIN,012,-0.516659574288102,0.41123716887816175,-1.4540832770658616,-0.46875629706655486,-2.3516896212502663,0.7304439813616532,3.9686569879866003,-0.9975633314833712,0
385,2024-09-19 22:24:56.118500864,TASK_BEGIN,012,-0.5740183367069615,0.42590115848103316,-1.4179283387628467,-0.46231770721349624,-2.3442397439538367,0.7471910345720416,3.9997727471589104,-1.006624824419256,0
386,2024-09-19 22:24:56.180002048,TASK_BEGIN,012,-0.6299454041032713,0.44227807070181135,-1.4106256841114808,-0.45196512996415406,-2.344403294952135,0.7641387214356287,4.12620784452171,-1.0274837256351492,0
387,2024-09-19 22:24:56.260524032,TASK_BEGIN,012,-0.6817561052236827,0.4598002268319183,-1.4259087608822718,-0.44115500853120276,-2.3505755800185373,0.7808502920005135,4.339544221551769,-1.0571157494747445,0
388,2024-09-19 22:24:56.319802880,TASK_BEGIN,012,-0.7269494437463934,0.4778281650442584,-1.4578282312889372,-0.43332435170867184,-2.360850238027537,0.7968405072625482,4.6285810735253605,-1.0921258253070742,0
389,2024-09-19 22:24:57.246728960,TASK_BEGIN,012,-0.763333378189555,0.4956917803098562,-1.501820028806105,-0.4313717569023405,-2.3732016171747143,0.811646556440597,4.980454876084569,-1.1291571068740343,0
390,2024-09-19 22:24:57.300940032,TASK_BEGIN,012,-0.7891661918131454,0.5127481034672386,-1.554926675050119,-0.437279277969839,-2.3856100124596566,0.8248970881228571,5.381323139520278,-1.1651286386096886,0
391,2024-09-19 22:24:57.378205952,TASK_BEGIN,012,-0.8033030942846513,0.5284428986861722,-1.6154710101948557,-0.45187169769485624,-2.3961267644346926,0.8363570659544305,5.816552075862004,-1.1973475953226849,0
392,2024-09-19 22:24:57.445713152,TASK_BEGIN,012,-0.8052975292137011,0.5423587870659698,-1.6827773006073101,-0.4746702101580539,-2.402923869850782,0.845936168446454,6.2708883266560145,-1.2236613322939405,0
393,2024-09-19 22:24:57.506724096,TASK_BEGIN,012,-0.7954102920315946,0.5542385949661476,-1.7572478591367293,-0.5038638721497758,-2.40436280497776,0.8536696492139004,6.729218155733879,-1.2427361942780992,0
394,2024-09-19 22:24:57.583185664,TASK_BEGIN,012,-0.7745413776086919,0.5639863802374925,-1.8406262412966747,-0.5364469276276721,-2.3990759785529634,0.8596917529647449,7.1778512272963795,-1.2543263406205882,0
395,2024-09-19 22:24:57.640941824,TASK_BEGIN,012,-0.7441392182482415,0.5716553870215914,-1.9361693436595782,-0.5684944998619513,-2.3860399451140983,0.8642150670364073,7.60566442420928,-1.2593102679156978,0
396,2024-09-19 22:24:58.559895040,TASK_BEGIN,012,-0.7061129142147088,0.577425571083252,-2.048555132136529,-0.5955260976758313,-2.364611541454693,0.8675128830314128,8.004651860297585,-1.2594524157914495,0
397,2024-09-19 22:24:58.639642112,TASK_BEGIN,012,-0.6627294179189845,0.5815674593240776,-2.183333777570906,-0.6129689416334776,-2.334496999136305,0.8698940106230498,8.369740462247238,-1.257014553298684,0
398,2024-09-19 22:24:58.703794944,TASK_BEGIN,012,-0.6164696006140203,0.584394139354207,-2.3458598500874746,-0.6167306877949209,-2.2956730993649788,0.8716715106815099,8.697731473550194,-1.2543285660950068,0
399,2024-09-19 22:24:58.775769088,TASK_BEGIN,012,-0.5698363596845866,0.5862098756382822,-2.5400051878545176,-0.6038039580836627,-2.2483097790366866,0.8731383947884899,8.98563967678745,-1.2534392883616738,0
400,2024-09-19 22:24:58.843544064,TASK_BEGIN,012,-0.525136940443106,0.5872632626161696,-2.7670873635728754,-0.5727643076623559,-2.1926970995493584,0.8745545772498076,9.229256622662243,-1.255927969774103,0
401,2024-09-19 22:24:58.911304960,TASK_BEGIN,012,-0.48427878599941965,0.5877082787614465,-3.0252883854791786,-0.5240211273566597,-2.129153429845503,0.8761362022200139,9.422506491794383,-1.2628813180997225,0
402,2024-09-19 22:24:58.967329024,TASK_BEGIN,012,-0.4486065567536567,0.587572305541008,-3.309672305232251,-0.45973519064848595,-2.0579462389045013,0.8780418554497367,9.557566329182452,-1.2748838869075787,0
403,2024-09-19 22:24:59.909046016,TASK_BEGIN,012,-0.4187979824684978,0.5867303422758121,-3.612742559412566,-0.3834412458837709,-1.9793194190754357,0.880366407125321,9.625666754509943,-1.2920334613568494,0
404,2024-09-19 22:24:59.986737920,TASK_BEGIN,012,-0.39484908446745837,0.5848930478750994,-3.925299660492811,-0.2995255191913746,-1.893696169538817,0.883160746426013,9.618630535532263,-1.3140466796405426,0
405,2024-09-19 22:25:00.049346048,TASK_BEGIN,012,-0.3761714232657534,0.5816207343820177,-4.237341094495128,-0.21270171498546026,-1.801983040568713,0.8864770696272057,9.530917788111948,-1.3404123182229086,0
406,2024-09-19 22:25:00.111404032,TASK_BEGIN,012,-0.3617803695182501,0.576364111239406,-4.538866688132275,-0.12755525400588102,-1.7057792699800582,0.8904134860149286,9.361518986430085,-1.3704713882991846,0
407,2024-09-19 22:25:00.189996032,TASK_BEGIN,012,-0.3505239708072813,0.5685201898774376,-4.820568684216585,-0.04818335578522298,-1.6073723819964403,0.8951338874269067,9.115081992597354,-1.4033620971896135,0
408,2024-09-19 22:25:00.259886848,TASK_BEGIN,012,-0.34130056655793156,0.5574920121994681,-5.074413780553475,0.022047667601586777,-1.5095644264194497,0.900861384677651,8.802023837430271,-1.4378596901087284,0
409,2024-09-19 22:25:00.314167040,TASK_BEGIN,012,-0.33321902315512053,0.5427448954168769,-5.2940350587013745,0.08062087886098879,-1.415416343150071,0.9078531275887116,8.437621079305638,-1.4721973571158853,0
410,2024-09-19 22:25:01.270993920,TASK_BEGIN,012,-0.3256831068077533,0.5238563790190228,-5.474828341378806,0.12589623437825573,-1.3279654811635557,0.9163600380563375,8.040258787133661,-1.5039863067370032,0
411,2024-09-19 22:25:01.324352000,TASK_BEGIN,012,-0.3184246481150248,0.5005658558676117,-5.613794699973433,0.15710111350123654,-1.2499641908561674,0.9265746470005128,7.629193658278192,-1.5303152578775399,0
412,2024-09-19 22:25:01.406487040,TASK_BEGIN,012,-0.3115165384780228,0.4728318023667353,-5.709288238299709,0.17430031332751797,-1.1836927175850473,0.9385771722082367,7.222240301803097,-1.5479940761724886,0
413,2024-09-19 22:25:01.462671104,TASK_BEGIN,012,-0.3053620597999271,0.440890003560793,-5.760819848160578,0.17832324548206563,-1.130895927295385,0.9522961152262885,6.833817742523243,-1.553856560042938,0
414,2024-09-19 22:25:01.540345088,TASK_BEGIN,012,-0.30062868051252645,0.4052900672305367,-5.768975158837698,0.1706383608891741,-1.0928555395322843,0.9674964218976246,6.473795393013549,-1.5450965218791244,0
415,2024-09-19 22:25:01.605998080,TASK_BEGIN,012,-0.29810982870951575,0.36689242858542553,-5.735407963184225,0.15319998528167722,-1.0705327348556226,0.9837965842886508,6.1474516623352065,-1.519642847090835,0
416,2024-09-19 22:25:01.671418880,TASK_BEGIN,012,-0.2985552344157816,0.3268299390499774,-5.66289423444426,0.12831987477394116,-1.0646642966301239,1.0007072712523346,5.856579734590365,-1.4765392986581474,0
417,2024-09-19 22:25:02.620772096,TASK_BEGIN,012,-0.3025430469855219,0.28644872731447224,-5.5554664928451745,0.0986048253920793,-1.075729726766548,1.0176846715146244,5.601297586249693,-1.4162359453974962,0
418,2024-09-19 22:25:02.683271936,TASK_BEGIN,012,-0.3104204458347047,0.24723158169275883,-5.418539826567983,0.06692505225016919,-1.1038048499902298,1.0341960949622973,5.381707266717491,-1.3406638077657536,0
419,2024-09-19 22:25:02.745757184,TASK_BEGIN,012,-0.32226777237130205,0.21069429603255765,-5.258847942484161,0.03631160428592259,-1.148383310587422,1.0497928218502919,5.19869028900154,-1.253020945400425,0
420,2024-09-19 22:25:02.822547968,TASK_BEGIN,012,-0.3378343582534144,0.17825261286679578,-5.084056524432966,0.009722571893735956,-1.2082340856632212,1.064174030659245,5.053677337758945,-1.1573305973158898,0
421,2024-09-19 22:25:02.892413952,TASK_BEGIN,012,-0.35645216083877473,0.15108044618731042,-4.902058757635946,-0.010277565114817222,-1.2813285700044879,1.0772201454199195,4.947659775793342,-1.0579293839633832,0
422,2024-09-19 22:25:02.960200960,TASK_BEGIN,012,-0.3769780077737789,0.12999419692929015,-4.720172520891933,-0.02181650874890944,-1.3648581484235809,1.088983713590417,4.880016756710396,-0.959064776644983,0
423,2024-09-19 22:25:03.027981824,TASK_BEGIN,012,-0.39781280982414857,0.11538877457916817,-4.544573236969827,-0.02390033232015932,-1.4553435418459257,1.0996399208210326,4.847903754426132,-0.8647076930738375,0
424,2024-09-19 22:25:03.959109120,TASK_BEGIN,012,-0.4170369303523289,0.10723320125183561,-4.380072108503893,-0.016474484834527174,-1.548791007642947,1.109406755907776,4.846595765178311,-0.7785200403303187,0
425,2024-09-19 22:25:04.026610176,TASK_BEGIN,012,-0.43267834815328693,0.1051226640184669,-4.230012589525907,-0.0004063901973213779,-1.640836136511047,1.1184528602044295,4.870564629501783,-0.7038071411323921,0
426,2024-09-19 22:25:04.087169024,TASK_BEGIN,012,-0.44304620477089407,0.10837149957659778,-4.096038649375334,0.022568884473798692,-1.7268868525687324,1.1268214631734184,4.914853592448664,-0.6433673434672287,0
427,2024-09-19 22:25:04.161881856,TASK_BEGIN,012,-0.44698956958326685,0.11611767173285005,-3.977789931765793,0.04994100281334621,-1.8023410063125676,1.1343965099360744,4.9763932545586504,-0.5993316768431818,0
428,2024-09-19 22:25:04.226353920,TASK_BEGIN,012,-0.44399524893751285,0.1274145199121342,-3.8728023583899436,0.07857848067946559,-1.8629000852678657,1.1409159985194242,5.05482427299031,-0.5731335387453832,0
429,2024-09-19 22:25:04.288100096,TASK_BEGIN,012,-0.434157973159773,0.14130860473643003,-3.776790211845888,0.10494740455260879,-1.9049021108423454,1.1460163244589903,5.152285503065745,-0.5655939526329758,0
430,2024-09-19 22:25:04.350181120,TASK_BEGIN,012,-0.4180953122467454,0.15691254211541047,-3.6842656015186894,0.12538023213978186,-1.9255738821023438,1.1492845094450541,5.272049709807722,-0.5769980215993183,0
431,2024-09-19 22:25:05.311758080,TASK_BEGIN,012,-0.3968307270074685,0.17346862862004167,-3.58936044059553,0.1363879324979521,-1.9231482394094,1.150298334967758,5.416689405217989,-0.6071460042432628,0
432,2024-09-19 22:25:05.388354048,TASK_BEGIN,012,-0.3716386287527893,0.19038900518628304,-3.4866945761587713,0.13498142759958226,-1.8968589411027759,1.1486468715052953,5.586652064778742,-0.6554550487726223,0
433,2024-09-19 22:25:05.451492096,TASK_BEGIN,012,-0.3438822653928693,0.20726754786792478,-3.37209912653036,0.11891982370332799,-1.8468792883069916,1.1439427892358778,5.779555421969971,-0.7210860706640413,0
434,2024-09-19 22:25:05.523941888,TASK_BEGIN,012,-0.3149029949927099,0.2238697266062616,-3.2430224262535496,0.08682744488918695,-1.7742458053996504,1.135842878094616,5.990101203119788,-0.8029803307495949,0
435,2024-09-19 22:25:05.591150848,TASK_BEGIN,012,-0.2859792136397566,0.2401054490324747,-3.098537152459916,0.03819974451655247,-1.6807273158238958,1.124080823746774,6.2104764003206805,-0.8997538573027485,0
436,2024-09-19 22:25:05.650147840,TASK_BEGIN,012,-0.25832292322359973,0.2559887527619431,-2.938990897786898,-0.02663922273037292,-1.5686110673384737,1.1085097205805454,6.430964219961377,-1.0094920243409842,0
437,2024-09-19 22:25:05.712634112,TASK_BEGIN,012,-0.23307312553816475,0.2715939060469593,-2.765490949296512,-0.10657857887852369,-1.4404979486616971,1.0891545123014044,6.640407469066676,-1.1295308930483765,0
438,2024-09-19 22:25:06.663410944,TASK_BEGIN,012,-0.21125939814782377,0.28701990909159925,-2.5794838428518605,-0.19976455141968752,-1.2992530642300044,1.0662700326736485,6.826465009684207,-1.2563280309444076,0
439,2024-09-19 22:25:06.726521856,TASK_BEGIN,012,-0.19373703680101567,0.30236956191499287,-2.38258382978014,-0.30369031740203234,-1.1481616359193398,1.040390350559221,6.975901540099408,-1.385511093040553,0
440,2024-09-19 22:25:06.806966016,TASK_BEGIN,012,-0.18112393829381485,0.3177406504006639,-2.1766442142244222,-0.4153509173238291,-0.9911858869369792,1.0123496692860037,7.075217852327168,-1.5121268336036682,0
441,2024-09-19 22:25:06.864635136,TASK_BEGIN,012,-0.17376852864028536,0.3332233358038766,-1.9639500301140025,-0.5314284137229826,-0.8331267717882903,0.9832553347581863,7.111750413558011,-1.6310096108425798,0
442,2024-09-19 22:25:06.942267904,TASK_BEGIN,012,-0.17175859415366432,0.34890019997267624,-1.7473552102300782,-0.6484610637917376,-0.6795341205399318,0.9544063250162954,7.074874308817193,-1.7371278441546267,0
443,2024-09-19 22:25:07.004777728,TASK_BEGIN,012,-0.1749672143188594,0.36484543236738187,-1.5302834149235947,-0.7629731404083137,-0.5363493965673074,0.9271749006702718,6.956673296998078,-1.8258267810577113,0
444,2024-09-19 22:25:07.066311936,TASK_BEGIN,012,-0.18311268004244358,0.38111514571741195,-1.3166406963664055,-0.8715605196609515,-0.40939145644925384,0.9028805397862175,6.752032017267867,-1.8930138401559222,0
445,2024-09-19 22:25:07.982827776,TASK_BEGIN,012,-0.19578408767457892,0.3977195424379992,-1.11060245301641,-0.9709689159528209,-0.30383812129026844,0.8826763292545843,6.4589108298557445,-1.9353871830947997,0
446,2024-09-19 22:25:08.060934144,TASK_BEGIN,012,-0.21239555955792064,0.41457741316755004,-0.9161407246572891,-1.0582541819073197,-0.2238326868782981,0.8674604881089777,6.079432361701507,-1.950744289367726,0
447,2024-09-19 22:25:08.123179008,TASK_BEGIN,012,-0.2320960926082756,0.43147231756277743,-0.7363729714106606,-1.1310623419307009,-0.17227003321018106,0.8578221985703899,5.621503210548598,-1.938317457279871,0
448,2024-09-19 22:25:08.199534848,TASK_BEGIN,012,-0.25371949120817205,0.4480393686639736,-0.5730919828848349,-1.1879210629364816,-0.1507055976554283,0.854017473672067,5.100043888716076,-1.8990305047515055,0
449,2024-09-19 22:25:08.261104128,TASK_BEGIN,012,-0.2758413523784137,0.46379747180143005,-0.42678979400415645,-1.2283715544758327,-0.15928178333671203,0.855960744075208,4.536961873885425,-1.8355660053287253,0
450,2024-09-19 22:25:08.323591168,TASK_BEGIN,012,-0.29693227988668275,0.4782189315161788,-0.29713266720782194,-1.252868893588132,-0.19666299858086986,0.8632292695902092,3.9596196972996447,-1.752213319824228,0
451,2024-09-19 22:25:08.403363072,TASK_BEGIN,012,-0.3155413571427359,0.49081684846496254,-0.1834568341560152,-1.2625399445357615,-0.26008161946769665,0.8750932206871044,3.3982833989351766,-1.6545841000229726,0
452,2024-09-19 22:25:09.345978112,TASK_BEGIN,012,-0.3304516394699441,0.5012278539447711,-0.08482848526184113,-1.258960722345786,-0.3455411457172368,0.8905791306626007,2.883318004831608,-1.5492787799173677,0
453,2024-09-19 22:25:09.414321664,TASK_BEGIN,012,-0.3407791905018846,0.509266904733086,0.0003155108091533556,-1.2440326884954327,-0.44808906204258464,0.9085555130453616,2.4425561158801212,-1.4434529212440288,0
454,2024-09-19 22:25:09.482016000,TASK_BEGIN,012,-0.3460045160099852,0.5149395213429545,0.07447244839969544,-1.2199119780709862,-0.5620696896311714,0.9278213894796437,2.098887309810088,-1.3441736298562545,0
455,2024-09-19 22:25:09.549755136,TASK_BEGIN,012,-0.3459468389303854,0.5184166269412032,0.14097481053752778,-1.1889291306905427,-0.6813645710013535,0.9471843468659968,1.8683029197444414,-1.2576120190721158,0
456,2024-09-19 22:25:09.613989888,TASK_BEGIN,012,-0.3407190754190065,0.5199914055150942,0.20358550487301696,-1.1534989224855283,-0.7996641802610277,0.965523045618484,1.7589707382999187,-1.1883216755474755,0
457,2024-09-19 22:25:09.676475136,TASK_BEGIN,012,-0.33068798088352486,0.5200316850499056,0.26598655234708624,-1.1160434441213694,-0.9107815238122903,0.9818406997905545,1.7716747890484887,-1.1388603263116823,0
458,2024-09-19 22:25:09.738977024,TASK_BEGIN,012,-0.3164135645874902,0.5189274823254089,0.33114829250314437,-1.0789320562042441,-1.008975165624873,0.9953213816676119,1.9013014878539112,-1.109830982534762,0
459,2024-09-19 22:25:10.671607040,TASK_BEGIN,012,-0.29853948941349184,0.5170357132232458,0.40058266354209665,-1.0444279758879336,-1.0892301456567848,1.0053832288242874,2.138614315275832,-1.1002330881871025,0
460,2024-09-19 22:25:10.738167040,TASK_BEGIN,012,-0.27765942594821114,0.5146353179074504,0.4737053092509903,-1.014624229240212,-1.1474888125908502,1.011707128968776,2.471635125898927,-1.1079388400052774,0
461,2024-09-19 22:25:10.800209920,TASK_BEGIN,012,-0.2541980374810736,0.511899675385271,0.5475701931388195,-0.991351346704365,-1.1808747191934308,1.0142358934058826,2.88641612688791,-1.1301420063430325,0
462,2024-09-19 22:25:10.861783808,TASK_BEGIN,012,-0.22831128448545174,0.5088774770604585,0.6170872446619279,-0.9760609499423006,-1.187922245851287,1.0131616116777107,3.3673957128335315,-1.1636920056461173,0
463,2024-09-19 22:25:10.942733056,TASK_BEGIN,012,-0.19982561833570622,0.5054793064596972,0.6756015901744259,-0.9697047663032952,-1.1687523397524486,1.0089138662459958,3.897615024899381,-1.2052764126762852,0
464,2024-09-19 22:25:11.001522944,TASK_BEGIN,012,-0.168292237999927,0.5014889230992355,0.7155312412260877,-0.9726071755687908,-1.125094206821094,1.0021394399674328,4.45913414456392,-1.2514979498945267,0
465,2024-09-19 22:25:11.078283008,TASK_BEGIN,012,-0.13319372048451067,0.49661551093779177,0.7288907399541064,-0.9843285975437449,-1.0600722357629444,0.9936552552414749,5.034063648397363,-1.2989797357092434,0
466,2024-09-19 22:25:12.007924992,TASK_BEGIN,012,-0.09419953278121516,0.49057126477192986,0.7077920106907889,-1.0035748851608892,-0.9777742645677282,0.9843685768663375,5.6061221531901415,-1.3445679735507512,0
467,2024-09-19 22:25:12.089751040,TASK_BEGIN,012,-0.05131242562275921,0.4831402047562215,0.6449557889339625,-1.0282264457295887,-0.8827256043772064,0.9751753329621852,6.1618032375237926,-1.385523709629291,0
468,2024-09-19 22:25:12.157526784,TASK_BEGIN,012,-0.0048578804137408204,0.47421781347201986,0.5341083233605493,-1.055489191799502,-0.7794030674407227,0.9668551531786775,6.690288911182987,-1.4195579309725375,0
469,2024-09-19 22:25:12.225039104,TASK_BEGIN,012,0.04460318382232522,0.46382166082166487,0.3703140591125962,-1.0821222444342633,-0.6718698625024196,0.9599856595577377,7.182331282558703,-1.444724680542654,0
470,2024-09-19 22:25:12.286592000,TASK_BEGIN,012,0.09633962188547797,0.4520819613702952,0.15048192415731745,-1.1047191110722507,-0.5635810803949135,0.9548987766277726,7.6291543367187105,-1.4593283062963798,0
471,2024-09-19 22:25:12.348663040,TASK_BEGIN,012,0.14946134990417795,0.4392217659071041,-0.1259105554418986,-1.120019750856419,-0.45735596571228726,0.951683398822094,8.02207216936602,-1.4619554743777223,0
472,2024-09-19 22:25:12.426769920,TASK_BEGIN,012,0.20291251513839975,0.4255337143041736,-0.4560600968605159,-1.125220388682888,-0.3554288236923394,0.9502150402846941,8.3526548733812,-1.4515976990017747,0
473,2024-09-19 22:25:13.360862976,TASK_BEGIN,012,0.25549117395708143,0.41135455264783843,-0.8332190635860698,-1.1182755008273109,-0.25948181835533035,0.9501961057198703,8.613036836273618,-1.427768134580611,0
474,2024-09-19 22:25:13.438096896,TASK_BEGIN,012,0.3059079918605884,0.39703297798756637,-1.2463820184724486,-1.0981788562649468,-0.170646202601464,0.9512087012318239,8.796336344206901,-1.39057781112056,0
475,2024-09-19 22:25:13.499162880,TASK_BEGIN,012,0.35288920665959306,0.3828866537570454,-1.6804923510282679,-1.0651589252626337,-0.08952177833719817,0.9527831467050949,8.897393851993531,-1.340812433473519,0
476,2024-09-19 22:25:13.575097088,TASK_BEGIN,012,0.39533107294083847,0.3691537568762304,-2.117287704855179,-1.0207295562679006,-0.016236011272817676,0.9544703933851555,8.913786689543729,-1.2800190776583604,0
477,2024-09-19 22:25:13.642843904,TASK_BEGIN,012,0.4324541060581448,0.35595756170470016,-2.5366798582103853,-0.967605994536951,0.0494905109310157,0.955896150361854,8.846708637203896,-1.2105260026946627,0
478,2024-09-19 22:25:13.707097088,TASK_BEGIN,012,0.46384101536595296,0.343306228723653,-2.9183728119253898,-0.9095315229514145,0.10830201389109,0.9567787934938697,8.701328146437822,-1.1353459552772653,0
479,2024-09-19 22:25:13.769095936,TASK_BEGIN,012,0.48929699130802445,0.3311353913796045,-3.243445334334304,-0.8509980696027283,0.1611853817187524,0.9569076510068031,8.486547462598878,-1.0580122002844343,0
480,2024-09-19 22:25:14.720684032,TASK_BEGIN,012,0.5086110475621222,0.3193771936816967,-3.4958322480688975,-0.7967828070515676,0.2094408457039008,0.9560969797723915,8.214346091689025,-0.9824057996861097,0
481,2024-09-19 22:25:14.789589760,TASK_BEGIN,012,0.5213612114600208,0.30802728882965924,-3.6637177454793575,-0.7513118226263293,0.2545936220629401,0.954145731057729,7.899137817749456,-0.9125950777251487,0
482,2024-09-19 22:25:14.857357056,TASK_BEGIN,012,0.5268417031821553,0.297188259891547,-3.7406918567041103,-0.7180277434816584,0.29820889529762723,0.9508283010934149,7.557609006966386,-0.8526966309132966,0
483,2024-09-19 22:25:14.925094912,TASK_BEGIN,012,0.5241010574371721,0.2870815249592662,-3.7263390104667344,-0.698981470925044,0.34165033788647886,0.945918896689064,7.208899308254942,-0.8067102179867254,0
484,2024-09-19 22:25:14.982338816,TASK_BEGIN,012,0.5120508874661694,0.27803119680287564,-3.625998277188816,-0.6947490832878127,0.3858694689993902,0.9392367027899978,6.874284824935441,-0.7782375903055221,0
485,2024-09-19 22:25:15.059623168,TASK_BEGIN,012,0.48961498527029623,0.2704301545567178,-3.4497960892927324,-0.7046147092748167,0.4312648376667337,0.9306997713720193,6.57578363134706,-0.7701034744538804,0
486,2024-09-19 22:25:15.128434688,TASK_BEGIN,012,0.4559048651782591,0.2646951479621261,-3.2113149783792663,-0.7268902063334279,0.4775922208748104,0.9203768171451483,6.333997177461499,-0.78402971859819,0
487,2024-09-19 22:25:16.065399040,TASK_BEGIN,012,0.4104209591126604,0.2612106067766026,-2.926163050020793,-0.7592735297613027,0.5239234624297855,0.9085190212285723,6.16595701301122,-0.820497063609094,0
488,2024-09-19 22:25:16.127405824,TASK_BEGIN,012,0.3532610218873396,0.2602659164939004,-2.6105916784528977,-0.7991887208272751,0.568678656883874,0.8955558545931992,6.083513243160793,-0.8788098379985579,0
489,2024-09-19 22:25:16.204153088,TASK_BEGIN,012,0.2852785869906701,0.26200185343526017,-2.280399100031829,-0.8440589850782271,0.6097274489132913,0.8820606832394049,6.092222609866941,-0.9572597493617748,0
490,2024-09-19 22:25:16.265250048,TASK_BEGIN,012,0.20814586094042747,0.26638016151966376,-1.950339927849282,-0.8914657017679813,0.6445426190843062,0.8687051594689363,6.190387524832384,-1.0532480053446966,0
491,2024-09-19 22:25:16.342446080,TASK_BEGIN,012,0.12433541941902816,0.273180120122132,-1.633995220325758,-0.9391697003882242,0.6704262434384197,0.8562101285095377,6.36829365700196,-1.1633255884627642,0
492,2024-09-19 22:25:16.408518144,TASK_BEGIN,012,0.03705110259582324,0.28202011860981235,-1.3438339404638968,-0.9850284079089467,0.68481202993963,0.8452930489834561,6.608187448735936,-1.2832404922109957,0
493,2024-09-19 22:25:16.466906880,TASK_BEGIN,012,-0.04990874727183668,0.29239961458231195,-1.0911702347916694,-1.0268999244144983,0.6855800582408964,0.8366158825099399,6.885279963545049,-1.4080567731628413,0
494,2024-09-19 22:25:17.421227008,TASK_BEGIN,012,-0.13240722222583956,0.30375472674605386,-0.8857991008993065,-1.0626315056730633,0.6713254270530465,0.8307344308226668,7.1694338129115955,-1.5322772650080294,0
495,2024-09-19 22:25:17.489090816,TASK_BEGIN,012,-0.2063609141228742,0.315519510514981,-0.7352910200084648,-1.0901731911061796,0.6415631400366003,0.8280501315703308,7.427092742322142,-1.6498903217376404,0
496,2024-09-19 22:25:17.556823040,TASK_BEGIN,012,-0.26819841138550127,0.3271828337404595,-0.6442787885818398,-1.1077656310168162,0.5968231607288128,0.8287790614513005,7.623379143269454,-1.7544096298121263,0
497,2024-09-19 22:25:17.624587776,TASK_BEGIN,012,-0.31524920750044877,0.33832665320301475,-0.6142675522994178,-1.1140960285584045,0.5385762619526753,0.8329533299454579,7.724602505520466,-1.8390831985065068,0
498,2024-09-19 22:25:17.687578880,TASK_BEGIN,012,-0.34593993643202287,0.3486299970305177,-0.644177269107058,-1.1083625098387675,0.46902770984535663,0.8404436766838663,7.701474435903436,-1.8973889383652986,0
499,2024-09-19 22:25:17.760150784,TASK_BEGIN,012,-0.3597642565241449,0.35783506019955524,-0.7312589203518829,-1.0902727190055737,0.390896661241559,0.8509753359657385,7.532818658304179,-1.9237628828380058,0
500,2024-09-19 22:25:17.827704832,TASK_BEGIN,012,-0.35709920942185003,0.3656961657494009,-0.8718452502646403,-1.0600091638070817,0.30724035943983713,0.8641292617828288,7.2087777752745845,-1.9143465852134167,0
501,2024-09-19 22:25:18.735019008,TASK_BEGIN,012,-0.33897871836366494,0.37194457074119164,-1.0616690239315396,-1.0181530954970888,0.22130360784721376,0.8793436547703736,6.732386166207301,-1.8675026712406753,0
502,2024-09-19 22:25:18.812984832,TASK_BEGIN,012,-0.30688617296555337,0.3762882650588738,-1.295803240998374,-0.9655749387121455,0.13638352395002246,0.8959235852795375,6.11911247350928,-1.7839741970255405,0
503,2024-09-19 22:25:18.875471104,TASK_BEGIN,012,-0.26257517366832583,0.37844274684051593,-1.5684171950919783,-0.9033527786843454,0.055685872542702915,0.9130562836941687,5.394909836634766,-1.6667659824338288,0
504,2024-09-19 22:25:18.937957120,TASK_BEGIN,012,-0.20791693997925498,0.37817420170932253,-1.8724337291670263,-0.832796363017812,-0.017897083413092353,0.9298377655317941,4.593662581985728,-1.5209035445647252,0
505,2024-09-19 22:25:19.017222912,TASK_BEGIN,012,-0.1447732528974083,0.37533455138509925,-2.198946749843866,-0.7556177161113665,-0.0820849547503709,0.945320559778312,3.754591408360535,-1.3531467683700034,0
506,2024-09-19 22:25:19.078021888,TASK_BEGIN,012,-0.07490030727683868,0.36987905332760374,-2.536378127016515,-0.6742029923689208,-0.13545759962004036,0.9585844562928678,2.919816403583228,-1.1716731331001269,0
507,2024-09-19 22:25:19.139603968,TASK_BEGIN,012,9.477499473413867e-05,0.36187204083918534,-2.8698868828096042,-0.5918370338618003,-0.17754950278965403,0.9688240628046525,2.1320907309636468,-0.9857256569707625,0
508,2024-09-19 22:25:20.090455040,TASK_BEGIN,012,0.07873083248741482,0.3514885024228223,-3.181743323648195,-0.5127121679951326,-0.20882072107130953,0.9754371907576744,1.432525641283691,-0.8051681170891914,0
509,2024-09-19 22:25:20.163997696,TASK_BEGIN,012,0.15958318156784962,0.33901055104704264,-3.4528232048403273,-0.44166622650153164,-0.23058509773418281,0.9780877263679417,0.8580570625055614,-0.6398571388495113,0
510,2024-09-19 22:25:20.231733760,TASK_BEGIN,012,0.24120845315968145,0.32481484009505507,-3.664666866748795,-0.38375093752066514,-0.24488006102592283,0.9767191608730926,0.43856673391725565,-0.498815616188682,0
511,2024-09-19 22:25:20.299470848,TASK_BEGIN,012,0.3220920452762236,0.30935219849158874,-3.801406113775147,-0.3437795522640543,-0.254194314281798,0.971519129030403,0.19402415745114915,-0.3893680783673674,0
512,2024-09-19 22:25:20.353636864,TASK_BEGIN,012,0.4006234310942083,0.2931238417363674,-3.8512470167543973,-0.32591540722682355,-0.2610695629172174,0.962862706398689,0.13256680054844486,-0.31653017872233247,0
513,2024-09-19 22:25:20.430829056,TASK_BEGIN,012,0.47510022032637156,0.27665752447421427,-3.8075209430777948,-0.33329001173439843,-0.26771233312141796,0.9512588964683516,0.25022559178362613,-0.28282994133715167,0
514,2024-09-19 22:25:20.493316864,TASK_BEGIN,012,0.5437634936746786,0.26048650993258976,-3.6693303449788033,-0.36765031389767777,-0.27572952831754355,0.9372994973171364,0.5318974874669573,-0.2884287052204574,0
515,2024-09-19 22:25:21.421196032,TASK_BEGIN,012,0.6048594452213782,0.2451309836030675,-3.441810066205224,-0.42904359913924134,-0.2860161031400695,0.9216037209934569,0.952687755077432,-0.3312785584637131,0
516,2024-09-19 22:25:21.477824000,TASK_BEGIN,012,0.6567284943897141,0.23107484807723372,-3.136036822894487,-0.5155695929732953,-0.298784372919894,0.9047679602845851,1.479659150131135,-0.4072725326763602,0
517,2024-09-19 22:25:21.556704000,TASK_BEGIN,012,0.6979293915800847,0.21873275093706013,-2.768431638409364,-0.6233126619423907,-0.31370590539746535,0.8873368996207835,2.074772838248408,-0.510559633863532,0
518,2024-09-19 22:25:21.624419072,TASK_BEGIN,012,0.7273841660625596,0.20841481779320387,-2.35938786997803,-0.7465858013738486,-0.3300980431956331,0.8697984334386892,2.699125475664194,-0.6341062493894238,0
519,2024-09-19 22:25:21.684835072,TASK_BEGIN,012,0.7445110231476543,0.20030489899158016,-1.9312111832609056,-0.8784837820527137,-0.34706878449829043,0.8525895133517433,3.317495776452069,-0.7704002817096429,0
520,2024-09-19 22:25:21.746874880,TASK_BEGIN,012,0.7493062069366505,0.19446567363484926,-1.5059271747306477,-1.0115856894933986,-0.36358416331904925,0.8361008608231217,3.9020747778597302,-0.9121579188667492,0
521,2024-09-19 22:25:21.824568064,TASK_BEGIN,012,0.7423250212541355,0.1908741176463768,-1.1035442646875606,-1.1386144066753463,-0.3785050465359888,0.8206778709661479,4.434854603620435,-1.0529220668930448,0
522,2024-09-19 22:25:22.771224064,TASK_BEGIN,012,0.7245356027303058,0.18947540947928357,-0.741050066071301,-1.2529452430833161,-0.3906586475669496,0.8066184988992969,4.90853823861542,-1.1874611365761054,0
523,2024-09-19 22:25:22.838432000,TASK_BEGIN,012,0.6970843747762262,0.1902314868833153,-0.43208098921927335,-1.3489614922949285,-0.39893326787417327,0.794165572585173,5.325893318099007,-1.3119377932713925,0
524,2024-09-19 22:25:22.900933120,TASK_BEGIN,012,0.6610501737550989,0.19314357167273702,-0.1869286862449616,-1.4223072772446224,-0.40233171440316867,0.7834886673145928,5.697659154642265,-1.4238799411268488,0
525,2024-09-19 22:25:22.963417856,TASK_BEGIN,012,0.6172591347174,0.19824175981416517,-0.012496733984972122,-1.4700637250015176,-0.3999979472876604,0.7746604910095215,6.039356472497856,-1.5219983085702269,0
526,2024-09-19 22:25:23.042340096,TASK_BEGIN,012,0.5662258656945947,0.20554739004436412,0.08791355283248221,-1.490818927376012,-0.3913369511023824,0.7676507084493147,6.367481197682065,-1.6059059522531318,0
527,2024-09-19 22:25:23.103717120,TASK_BEGIN,012,0.5082636067263483,0.21502110936942112,0.11482368424045862,-1.4846115925496384,-0.3762925644142856,0.7623567551662922,6.695764993627178,-1.67580786481431,0
528,2024-09-19 22:25:23.177851904,TASK_BEGIN,012,0.44373582929903316,0.22651207081288288,0.07257872360405407,-1.4527934986607343,-0.35566159578975326,0.7586590169246682,7.032309451123718,-1.732210184831597,0
529,2024-09-19 22:25:24.113266176,TASK_BEGIN,012,0.3733469080685971,0.23972259016792413,-0.0310556709339348,-1.397854385512773,-0.3312325906508733,0.7564659658250497,7.378083496981309,-1.7756894482459777,0
530,2024-09-19 22:25:24.174974208,TASK_BEGIN,012,0.29835124696275933,0.25419944255750854,-0.18578975294728808,-1.3231829123827341,-0.30563806940559396,0.7557261984197048,7.726709844829879,-1.8067713578318039,0
531,2024-09-19 22:25:24.256967168,TASK_BEGIN,012,0.22060066178384216,0.2693584555641576,-0.38004883155625757,-1.2327329430637812,-0.2819653552860304,0.7564070538733227,8.065231566497786,-1.8259382233230548,0
532,2024-09-19 22:25:24.324708864,TASK_BEGIN,012,0.14241426246978578,0.2845403005602558,-0.6021652575739281,-1.1306515117614728,-0.2632548467711533,0.7584533573775278,8.375685687468323,-1.8337151883824874,0
533,2024-09-19 22:25:24.391248896,TASK_BEGIN,012,0.0663205001432703,0.2990812582675804,-0.8411323608940657,-1.020977066679404,-0.25201317370556753,0.7617430851826004,8.63739884323858,-1.8307523225765145,0
534,2024-09-19 22:25:24.460264960,TASK_BEGIN,012,-0.005230796735577745,0.31237583625943277,-1.086772014690244,-0.9074679555506315,-0.24983685666596345,0.7660559187117996,8.829886179817287,-1.817868261335167,0
535,2024-09-19 22:25:24.515792896,TASK_BEGIN,012,-0.0700970028225819,0.3239197584593636,-1.3295060998126227,-0.7935504098981415,-0.25722370246799653,0.7710701548585813,8.9361016227052,-1.796081581987203,0
536,2024-09-19 22:25:25.458256128,TASK_BEGIN,012,-0.1265922114818338,0.3333377422973353,-1.5601063591941837,-0.6823570809850144,-0.27361075429041665,0.7763932646995759,8.94534147607466,-1.7666320678328191,0
537,2024-09-19 22:25:25.536364032,TASK_BEGIN,012,-0.1735930142788325,0.34040411878496735,-1.7697179935369234,-0.5768229922422234,-0.2976006049548182,0.7816124965063315,8.854719619350035,-1.7309341448615696,0
538,2024-09-19 22:25:25.602479872,TASK_BEGIN,012,-0.21062092646893493,0.34506082900410606,-1.9503676426821555,-0.47974747612283863,-0.32728499186017895,0.7863480554478413,8.66871847695093,-1.6904373057467463,0
539,2024-09-19 22:25:25.665915904,TASK_BEGIN,012,-0.23788319342768863,0.34743254323757794,-2.0960744216700524,-0.3936851469177967,-0.3605871437046613,0.7903032345655692,8.397575701866066,-1.6464710151102762,0
540,2024-09-19 22:25:25.727948032,TASK_BEGIN,012,-0.25624386822966244,0.3478299877386164,-2.2042364519392823,-0.32063509547630875,-0.39558365598517153,0.7933088882959309,8.055634943100445,-1.600170538088644,0
541,2024-09-19 22:25:25.805177856,TASK_BEGIN,012,-0.2671044609538924,0.3467256588606366,-2.276495636000838,-0.2616886002469937,-0.4307610083235505,0.7953516673655766,7.659968006426316,-1.5524903123961378,0
542,2024-09-19 22:25:25.878081024,TASK_BEGIN,012,-0.27219617237678756,0.3446940563946304,-2.3184554766816183,-0.21685155323003735,-0.46512577590235016,0.7965735441043807,7.228926352331368,-1.5042317992390843,0
543,2024-09-19 22:25:26.815522048,TASK_BEGIN,012,-0.2733294550034584,0.3423298934296371,-2.3382953535284683,-0.18513017119654562,-0.49812579214049024,0.7972378736074485,6.7803947967288405,-1.4559911456790344,0
544,2024-09-19 22:25:26.877574912,TASK_BEGIN,012,-0.27216417421578076,0.3401709780730142,-2.344941973358831,-0.16480631385375025,-0.5294334668649245,0.7976650783286173,6.329898247072881,-1.4079866087565713,0
545,2024-09-19 22:25:26.955367168,TASK_BEGIN,012,-0.27003676812233235,0.3386437988021238,-2.3466608472145176,-0.15376940800870698,-0.5586685002492718,0.7981456686038749,5.889146487432061,-1.3598867092564288,0
546,2024-09-19 22:25:27.017389824,TASK_BEGIN,012,-0.26785366664804516,0.3380319194043272,-2.350508402823302,-0.1498160877717205,-0.585122448272388,0.7988474490677063,5.465790096806655,-1.3108678387684471,0
547,2024-09-19 22:25:27.079457024,TASK_BEGIN,012,-0.2660414171547693,0.33845870031380093,-2.362392741871561,-0.15087943067180362,-0.6075820612361958,0.7997475650774325,5.064543017757346,-1.2599892396638954,0
548,2024-09-19 22:25:27.156702976,TASK_BEGIN,012,-0.26453042806512955,0.33988139650978605,-2.3872544259318795,-0.15516803764560358,-0.6243531846148438,0.8006168020476586,4.688817229460919,-1.2067043436814435,0
549,2024-09-19 22:25:27.218225152,TASK_BEGIN,012,-0.2627743815543215,0.34210581133604334,-2.429159510191878,-0.16121809896607403,-0.6334827496113273,0.8010532921352079,4.3417372509539955,-1.1512135030885626,0
550,2024-09-19 22:25:28.167835904,TASK_BEGIN,012,-0.25985297355063075,0.3448327942653058,-2.491330230118598,-0.16788612006849568,-0.6330725981807483,0.8005377607483553,4.026153588349555,-1.0945034957327586,0
551,2024-09-19 22:25:28.239422976,TASK_BEGIN,012,-0.2546950421251363,0.34773328120108044,-2.5761022786338748,-0.17431833845039277,-0.6215782215659715,0.7984909222860945,3.7442376064315464,-1.038165945662375,0
552,2024-09-19 22:25:28.307141120,TASK_BEGIN,012,-0.2463774585554856,0.35053225331702237,-2.6847800699546234,-0.17993447535102572,-0.5980518959427756,0.7943370318192413,3.497430122123491,-0.9842003682892475,0
553,2024-09-19 22:25:28.374883072,TASK_BEGIN,012,-0.23438753431641038,0.3530760607436128,-2.8174874048077725,-0.1844406342132975,-0.5623473658236127,0.7875826648427584,3.2867878890478264,-0.9348993349000985,0
554,2024-09-19 22:25:28.431543296,TASK_BEGIN,012,-0.21876396419792205,0.355362561508158,-2.9731085972579097,-0.18784114434708593,-0.5152853355064968,0.7779012470465383,3.1130686735197726,-0.8927454337084803,0
555,2024-09-19 22:25:28.509231872,TASK_BEGIN,012,-0.20011606897075634,0.3575278122670652,-3.14921461579,-0.1904072444367844,-0.458709677329837,0.7651971873980802,2.976051561718802,-0.8602165985973602,0
556,2024-09-19 22:25:28.571301888,TASK_BEGIN,012,-0.17956004081855167,0.35979880829892225,-3.341813671623714,-0.19259583429502777,-0.3953680514062682,0.7496308722779037,2.873299716397646,-0.8394953532754859,0
557,2024-09-19 22:25:29.496150016,TASK_BEGIN,012,-0.15858308104071697,0.3624301926403198,-3.5450025365607174,-0.19495062682072423,-0.3286363159452967,0.7316060883309705,2.7991132358187896,-0.8321755914153356,0
558,2024-09-19 22:25:29.558635008,TASK_BEGIN,012,-0.1388254436228855,0.36564274646657885,-3.7508378944438814,-0.19802097459936635,-0.26216004680091454,0.711730699058202,2.744396894061217,-0.8390650990503381,0
559,2024-09-19 22:25:29.631962112,TASK_BEGIN,012,-0.12180338429724774,0.36957544867621267,-3.9497030687789594,-0.2022986406305758,-0.1994854474716951,0.6907562215683942,2.6976295874339007,-0.8601212462184893,0
560,2024-09-19 22:25:29.691598848,TASK_BEGIN,012,-0.10864134714438582,0.3742561359406478,-4.131155227386689,-0.2081487616614696,-0.1437333407554664,0.6694974032016611,2.646607579326882,-0.894526099371009,0
561,2024-09-19 22:25:29.754436096,TASK_BEGIN,012,-0.09988403421118222,0.3795930477819846,-4.28494420969248,-0.21574815677374976,-0.09733991937120814,0.6487417936634647,2.580487613104466,-0.9409053409478721,0
562,2024-09-19 22:25:29.835232000,TASK_BEGIN,012,-0.09541635078317408,0.38538685362416425,-4.401785412857687,-0.22510354488271656,-0.061874002783585486,0.6291725212964664,2.491607130596361,-0.9976333627621166,0
563,2024-09-19 22:25:29.893600768,TASK_BEGIN,012,-0.09446767029946827,0.39135569647406526,-4.473695125422475,-0.23619409832305754,-0.03795481681688619,0.6113217930910831,2.376499664693482,-1.0630758642619929,0
564,2024-09-19 22:25:30.846700032,TASK_BEGIN,012,-0.09566965816631917,0.39716296954333397,-4.494146709302847,-0.24915882503758507,-0.0252908582990457,0.5955506254488665,2.235803341914521,-1.1356399176674496,0
565,2024-09-19 22:25:30.902426880,TASK_BEGIN,012,-0.09718432704872347,0.402445451645028,-4.458473356385164,-0.26438848773534485,-0.02284178905771933,0.582043630443958,2.073390826128807,-1.2136271249269335,0
566,2024-09-19 22:25:30.980094976,TASK_BEGIN,012,-0.09693827100269957,0.4068458267881372,-4.364608540979669,-0.2824687464891446,-0.029114771566438897,0.5708247666338487,1.8954180428904694,-1.2949855082264723,0
567,2024-09-19 22:25:31.042579712,TASK_BEGIN,012,-0.09293698526676149,0.4100489160422747,-4.213861888485477,-0.3040265496266578,-0.04257662549293276,0.5618048824623064,1.7096745730715293,-1.3770893889741966,0
568,2024-09-19 22:25:31.104592896,TASK_BEGIN,012,-0.08356804243799483,0.4118157761648535,-4.0113816011851835,-0.32955501526979025,-0.06203723210367348,0.55484405088072,1.5250723708211609,-1.4566813059083659,0
569,2024-09-19 22:25:31.181382912,TASK_BEGIN,012,-0.06780662140902234,0.41201180204829474,-3.7660839651921116,-0.35928675894500417,-0.08681297095020923,0.5497934024609641,1.3510635878925397,-1.5300693898055822,0
570,2024-09-19 22:25:31.253351168,TASK_BEGIN,012,-0.045282186290313,0.4106251494102705,-3.4899359038451916,-0.39316469701861284,-0.11663691542016236,0.5465076492445038,1.1971031350429904,-1.5935600981953815,0
571,2024-09-19 22:25:32.157323008,TASK_BEGIN,012,-0.016216113868112548,0.4077686990445254,-3.196732173871741,-0.4308880737308872,-0.15144347609353145,0.5448500890201298,1.0722444719384505,-1.643964398383631,0
572,2024-09-19 22:25:32.239649280,TASK_BEGIN,012,0.018712535440581383,0.40366389384988677,-2.9008146531223407,-0.47196827906400285,-0.19115754610627972,0.5447055490797027,0.9846177607567677,-1.6789553964372934,0
573,2024-09-19 22:25:32.295911168,TASK_BEGIN,012,0.05850454865921108,0.3986140452048842,-2.6161183593331048,-0.5157732802255737,-0.2355569151458935,0.5459966508606159,0.9406160233431807,-1.697178254844372,0
574,2024-09-19 22:25:32.374052864,TASK_BEGIN,012,0.10194900476986347,0.3929716301571826,-2.3555955376479085,-0.5615728931858839,-0.2842258085360791,0.548692630445147,0.9441179695998911,-1.6982243996647535,0
575,2024-09-19 22:25:32.436419840,TASK_BEGIN,012,0.14770354491409285,0.38709552860445096,-2.130889034079646,-0.6085676444289104,-0.3365683290632812,0.5528028374114646,0.9962037256123429,-1.6826119606577112,0
576,2024-09-19 22:25:32.498072064,TASK_BEGIN,012,0.19434094938031465,0.38130077606355833,-1.9520803977273478,-0.6558764513148686,-0.3918133680264678,0.5583495232177549,1.0953539105535663,-1.651749304441241,0
577,2024-09-19 22:25:32.576322048,TASK_BEGIN,012,0.24034713466888197,0.37581870190792654,-1.8272655784194825,-0.702499579555521,-0.4489491686869998,0.5653198907582995,1.237802933123354,-1.6077980649627834,0
578,2024-09-19 22:25:33.519623936,TASK_BEGIN,012,0.28408346246092575,0.37078503996159023,-1.7618100075521543,-0.7472976896293384,-0.5066119477306684,0.5736130610724214,1.4180104494952244,-1.5534735546210021,0
579,2024-09-19 22:25:33.585031936,TASK_BEGIN,012,0.32376276438877694,0.3662556812249326,-1.7574648096190413,-0.7890147120210401,-0.5630504656954992,0.5830110457900626,1.6295714204353937,-1.4918890667833857,0
