,time,MARKER,pid,L_O_DSI,L_D_DSI,L_O_DSphi,L_D_DSphi,R_O_DSI,R_D_DSI,R_O_DSphi,R_D_DSphi,trial_id
0,2024-09-20 20:18:51.669117952,TASK_BEGIN,013,-0.17087122198674443,0.03317929584852853,-3.2735613216181223,0.8982470544097451,-1.3273429631784794,-0.08351245320186043,-3.5549292547560616,-0.050171382215900465,0
1,2024-09-20 20:18:51.730579968,TASK_BEGIN,013,-0.3831332918725359,0.07861422755150642,-3.3920710951449844,0.8152367157189363,-1.297838453672821,-0.05736026993295973,-4.8916142965048595,0.4757119943537231,0
2,2024-09-20 20:18:52.677936896,TASK_BEGIN,013,-0.59168073245762,0.12320706076716173,-3.512827025690479,0.7361207106321571,-1.2681502399151348,-0.03301720544516978,-6.1881536165909585,0.9855375940985843,0
3,2024-09-20 20:18:52.747409152,TASK_BEGIN,013,-0.7924707132709897,0.165965428169342,-3.6350446321912417,0.6644902672548878,-1.2388473894043748,-0.011580542726501964,-7.408665253851344,1.4656615242651794,0
4,2024-09-20 20:18:52.812919040,TASK_BEGIN,013,-0.9819750574653356,0.20604197039219127,-3.7578608440009056,0.6033300939446707,-1.2109183565918582,0.0061088718435182154,-8.525373039813749,1.9054150156898209,0
5,2024-09-20 20:18:52.877938944,TASK_BEGIN,013,-1.1573065863452714,0.2427779705228788,-3.880269690970606,0.5547805695341493,-1.185881106451978,0.019533160391153576,-9.519898742525376,2.2976818865681508,0
6,2024-09-20 20:18:52.947472128,TASK_BEGIN,013,-1.316254510772425,0.27572014809436896,-4.000915440059045,0.5199774137244564,-1.165752784384439,0.028509748438563753,-10.382752960448078,2.63875642680809,0
7,2024-09-20 20:18:53.018931968,TASK_BEGIN,013,-1.4572603340991388,0.30461731132098563,-4.117790047909807,0.498986955375274,-1.1528554460794036,0.033156228129211124,-11.111616631808882,2.9275988646569497,0
8,2024-09-20 20:18:53.082416128,TASK_BEGIN,013,-1.5793516499647593,0.32940153888485985,-4.228043651475571,0.4908684111071952,-1.1495050531837694,0.03383421854288349,-11.709236946474418,3.1648043148897393,0
9,2024-09-20 20:18:54.029438976,TASK_BEGIN,013,-1.6820643472754506,0.35015905539620823,-4.328101508862717,0.4938733117664138,-1.1576781511233318,0.03109730548834352,-12.181709252503643,3.3517288931723317,0
10,2024-09-20 20:18:54.091456768,TASK_BEGIN,013,-1.7653929642318194,0.3670994275882806,-4.414086050394287,0.5057435333948285,-1.1787435558954658,0.025649746881603083,-12.537383061322174,3.490047452523532,0
11,2024-09-20 20:18:54.166574848,TASK_BEGIN,013,-1.829774884760863,0.38052815271511714,-4.482394174578868,0.5240424941553032,-1.2132909049766816,0.018303749650091385,-12.786232230408709,3.5817104811856497,0
12,2024-09-20 20:18:54.234305024,TASK_BEGIN,013,-1.8760769033307263,0.3908194953628129,-4.53024399512914,0.5464584009703197,-1.261043357605697,0.009919910608554964,-12.939519392434788,3.629113134304191,0
13,2024-09-20 20:18:54.302081024,TASK_BEGIN,013,-1.9055584788690423,0.3983845583729603,-4.5560603612624435,0.5710363733128329,-1.3208514755937244,0.0013332202774835964,-13.009549723464906,3.6352688577937795,0
14,2024-09-20 20:18:54.369788928,TASK_BEGIN,013,-1.919812921893245,0.4036355220794745,-4.559670944224292,0.5963165175988717,-1.3907932567483086,-0.006711825530440692,-13.00929160193831,3.603824395700626,0
15,2024-09-20 20:18:54.437587968,TASK_BEGIN,013,-1.920698067999206,0.4069527337822924,-4.542309697652375,0.6213623757998248,-1.468388145508744,-0.013594050018538723,-12.951838987036693,3.5389040732478088,0
16,2024-09-20 20:18:55.345444864,TASK_BEGIN,013,-1.9102620873345646,0.40866111294477075,-4.506412527790935,0.6456705557793035,-1.5508722015558443,-0.0188134489946474,-12.849827811872872,3.444921376259201,0
17,2024-09-20 20:18:55.422646016,TASK_BEGIN,013,-1.8906687703233955,0.40901910013304454,-4.455287154880676,0.6689936683224297,-1.6354560247567747,-0.021968078754820073,-12.71491439462213,3.326497446031836,0
18,2024-09-20 20:18:55.491083008,TASK_BEGIN,013,-1.864131647523563,0.4082210675999218,-4.392815827219309,0.691154212749011,-1.7195248349819785,-0.022728361096297032,-12.557487494797831,3.1885291004601646,0
19,2024-09-20 20:18:55.546245120,TASK_BEGIN,013,-1.8328610740083864,0.40641118732083426,-4.32322870141827,0.7119116142285816,-1.8007726224154221,-0.02082365856532367,-12.386807317813767,3.036343520054216,0
20,2024-09-20 20:18:55.617600000,TASK_BEGIN,013,-1.799015292397925,0.40370356570627297,-4.250848200900173,0.7308942841051527,-1.8772625933678144,-0.01604980974825082,-12.211521270753156,2.875787649185981,0
21,2024-09-20 20:18:55.685273856,TASK_BEGIN,013,-1.7646455728052621,0.40020377182064504,-4.179794739362113,0.7475924000299486,-1.9474155766214978,-0.008299021850788662,-12.040174734197258,2.7130837127713088,0
22,2024-09-20 20:18:55.757352960,TASK_BEGIN,013,-1.731634054220453,0.3960285534374408,-4.113791793001387,0.7614145807734496,-2.0099502459343412,0.0023989562224000266,-11.88134951518438,2.554400529787975,0
23,2024-09-20 20:18:56.705018112,TASK_BEGIN,013,-1.7016261560505561,0.3913193713298451,-4.05611816563614,0.77179481446596,-2.0638031754093054,0.01584832514010415,-11.743481575851403,2.4052863459971277,0
24,2024-09-20 20:18:56.757543936,TASK_BEGIN,013,-1.6759635981021879,0.38624613799095037,-4.009578961029842,0.7783061418572105,-2.1080504375063036,0.03169122239737931,-11.634671448053673,2.27021800032762,0
25,2024-09-20 20:18:56.840571904,TASK_BEGIN,013,-1.6556314622858053,0.38100418317688084,-3.976381216695508,0.7807398434850349,-2.1418673117482734,0.04944516398312642,-11.562526177092781,2.1524376918168144,0
26,2024-09-20 20:18:56.908324096,TASK_BEGIN,013,-1.6412318562066075,0.37581158759646405,-3.9578984576649576,0.7791445546263368,-2.164578762559266,0.06856359618069963,-11.53376247775845,2.0540400665263134,0
27,2024-09-20 20:18:56.973527808,TASK_BEGIN,013,-1.632990490532347,0.37090908543565004,-3.954370138714191,0.7738425587642601,-2.175815662728502,0.08850523279222504,-11.553456700437774,1.976129536505155,0
28,2024-09-20 20:18:57.036013056,TASK_BEGIN,013,-1.6307981408112964,0.36655868035166556,-3.964698730289932,0.7654265572816327,-2.175710841835977,0.10879168021058648,-11.624131322854788,1.9189052494199335,0
29,2024-09-20 20:18:57.098017024,TASK_BEGIN,013,-1.6342789607128672,0.36303771028940013,-3.9865694457796366,0.7547222444331811,-2.1650210575855926,0.12903801060604156,-11.74497329686215,1.8816629868187214,0
30,2024-09-20 20:18:58.055141888,TASK_BEGIN,013,-1.6428590962528158,0.36062708318039977,-4.016951779527681,0.7427140102062431,-2.1450879076629374,0.14895679806511486,-11.911460435564212,1.8628030420675896,0
31,2024-09-20 20:18:58.122910976,TASK_BEGIN,013,-1.6558062256982278,0.3595914781537067,-4.052831206076131,0.7304587975784758,-2.1176306500529467,0.16834210292424984,-12.115568387655047,1.8599628131142314,0
32,2024-09-20 20:18:58.190659840,TASK_BEGIN,013,-1.6722423542575218,0.3601519009261239,-4.091941194461477,0.7190180665576353,-2.0844528634157156,0.1870384383596413,-12.346584143202202,1.870336779925346,0
33,2024-09-20 20:18:58.258384896,TASK_BEGIN,013,-1.6911656909926471,0.3624583563956846,-4.1332497378078985,0.709412515051194,-2.047187718890937,0.20490224484499892,-12.592486203056918,1.8911382592207688,0
34,2024-09-20 20:18:58.317764864,TASK_BEGIN,013,-1.711508409997746,0.3665722474487376,-4.177025283838058,0.7025815409806299,-2.0071617433392217,0.2217669254946403,-12.841774039837997,1.9200823585705578,0
35,2024-09-20 20:18:58.380381184,TASK_BEGIN,013,-1.7322162536252923,0.37246041136259084,-4.224507653924244,0.6993319040440511,-1.9653689774009377,0.23742165880016813,-13.085342971409974,1.9557465143446888,0
36,2024-09-20 20:18:58.457596928,TASK_BEGIN,013,-1.7523160787591368,0.37999576469260626,-4.277380414891132,0.7002768390817103,-1.9225124390006503,0.251610384589689,-13.317708126430391,1.9976869984035166,0
37,2024-09-20 20:18:59.404006144,TASK_BEGIN,013,-1.7709642094138354,0.38896262394452485,-4.33722176504536,0.7057746586823203,-1.879087955256645,0.2640554788946333,-13.537092010844782,2.0462777139917474,0
38,2024-09-20 20:18:59.462418944,TASK_BEGIN,013,-1.7874976116998307,0.3990714825493381,-4.404969166387093,0.7158668320515755,-1.8354814640515518,0.27450528235020494,-13.74455820074409,2.102353789172887,0
39,2024-09-20 20:18:59.539697920,TASK_BEGIN,013,-1.8014961893733195,0.40998628822828426,-4.480405476368746,0.7302164664516447,-1.7920319979661627,0.282789852444062,-13.942787144913815,2.166816746001809,0
40,2024-09-20 20:18:59.609077760,TASK_BEGIN,013,-1.8128405847864015,0.4213593024818411,-4.561803332230068,0.7480732987177594,-1.749037537448065,0.28885936171432264,-14.134936447133883,2.2403447530742087,0
41,2024-09-20 20:18:59.661873152,TASK_BEGIN,013,-1.8217514909277268,0.4328648181844547,-4.645917940670477,0.768304713239758,-1.7067293959393688,0.2927886071048489,-14.323721180483581,2.3232290824228374,0
42,2024-09-20 20:18:59.744573952,TASK_BEGIN,013,-1.8287981065816574,0.4442243928041071,-4.728396152860254,0.7895099457854544,-1.665251682521384,0.294749745399003,-14.510701712414303,2.415223151156335,0
43,2024-09-20 20:18:59.801059072,TASK_BEGIN,013,-1.8348553512420513,0.45521944586650775,-4.8044916466255305,0.8101953980445137,-1.624664774132271,0.2949696477987441,-14.695734159186372,2.5153163357204553,0
44,2024-09-20 20:19:00.742139136,TASK_BEGIN,013,-1.8409986255486332,0.46569202541144394,-4.869855712090631,0.8289584958392736,-1.58499338770992,0.29369556896686094,-14.876643000672072,2.6215195303716037,0
45,2024-09-20 20:19:00.820247808,TASK_BEGIN,013,-1.8483498111537098,0.4755385769176767,-4.921158954811687,0.8446259720806811,-1.5463352036053852,0.291185261834335,-15.049356769002493,2.730843804852073,0
46,2024-09-20 20:19:00.890542080,TASK_BEGIN,013,-1.857905269100981,0.48470094651851325,-4.95637920180362,0.8563230054891927,-1.5089852557439092,0.2877108541657063,-15.208658784522054,2.8395368775570913,0
47,2024-09-20 20:19:00.943928064,TASK_BEGIN,013,-1.870380532401424,0.4931557328180025,-4.974745999500296,0.8634931805205873,-1.473481565947694,0.2835479490016245,-15.349269627235083,2.9434679255593137,0
48,2024-09-20 20:19:01.022035968,TASK_BEGIN,013,-1.886105257835663,0.5009020874114883,-4.97652365220854,0.865918193392764,-1.4405355131809225,0.2789405782178772,-15.466654323743091,3.038498940600002,0
49,2024-09-20 20:19:01.083634944,TASK_BEGIN,013,-1.9049936669692287,0.5079501611420394,-4.962872866485346,0.8637685068576416,-1.4109061967516532,0.2740648502615751,-15.557079252435347,3.120726530835328,0
50,2024-09-20 20:19:01.161520128,TASK_BEGIN,013,-1.9265903876135828,0.5143135872130169,-4.935847545759914,0.8576575373412096,-1.3852850008191908,0.2690161464098403,-15.616869704916356,3.1865684857451186,0
51,2024-09-20 20:19:02.080011008,TASK_BEGIN,013,-1.9501611552004934,0.5200066379408191,-4.898349224280161,0.8486340064110323,-1.364218882838075,0.2638211754477013,-15.641246254810175,3.232802994541131,0
52,2024-09-20 20:19:02.147747072,TASK_BEGIN,013,-1.9747882823509015,0.5250432791369859,-4.85381605651861,0.8380645817744535,-1.348100553997792,0.2584604598802317,-15.623383373410693,3.256728864539752,0
53,2024-09-20 20:19:02.215469056,TASK_BEGIN,013,-1.9994441555733238,0.5294344847524372,-4.805574189167664,0.8274115392819451,-1.337226541149482,0.2528834891621378,-15.554291298653387,3.2564902326472347,0
54,2024-09-20 20:19:02.275077120,TASK_BEGIN,013,-2.023038749351846,0.5331811934384725,-4.756007018486293,0.8179678486096162,-1.3318494432613757,0.24700172003578824,-15.42372277531496,3.231416898385436,0
55,2024-09-20 20:19:02.336592128,TASK_BEGIN,013,-2.044462747481394,0.5362638985076731,-4.70586574295194,0.8106365045116584,-1.3321545419772098,0.2406634394578738,-15.22178455085792,3.1821678909402804,0
56,2024-09-20 20:19:02.414840832,TASK_BEGIN,013,-2.0626579149569078,0.5386353478069392,-4.654034810620042,0.805812401279895,-1.3381981275412507,0.2336413648345161,-14.940681614032163,3.110588683909964,0
57,2024-09-20 20:19:02.476364032,TASK_BEGIN,013,-2.0767184521257622,0.540223055506757,-4.59787331257535,0.8033781358270414,-1.3499098680808224,0.22566699386181985,-14.576176340948203,3.0193892717996818,0
58,2024-09-20 20:19:03.430074880,TASK_BEGIN,013,-2.0859894447892575,0.54094035992379,-4.534006170708654,0.8027960684139615,-1.3672033808000943,0.21651417475074233,-14.12860837668649,2.9118286693941067,0
59,2024-09-20 20:19:03.496496896,TASK_BEGIN,013,-2.0901305685487874,0.5406980481145599,-4.459299600159398,0.8032680141537836,-1.3901302815042704,0.20609661638991236,-13.603417059977213,2.7915108910608426,0
60,2024-09-20 20:19:03.558557184,TASK_BEGIN,013,-2.0891362702416476,0.5394103797246899,-4.371773401240471,0.8039294656659032,-1.4189547417985173,0.19453482858679755,-13.011157557682054,2.6623002355004637,0
61,2024-09-20 20:19:03.626938880,TASK_BEGIN,013,-2.083304347334984,0.5369947803583612,-4.271296048032398,0.8040395809084541,-1.4540667436557062,0.18216958592032506,-12.367136208934458,2.528313201735604,0
62,2024-09-20 20:19:03.689437952,TASK_BEGIN,013,-2.0731441927245955,0.5333684723626786,-4.159972169214169,0.8031250131248688,-1.4957591576694322,0.16952448825631655,-11.690778398978107,2.3938965428170964,0
63,2024-09-20 20:19:03.766632192,TASK_BEGIN,013,-2.059245742991505,0.528447859150721,-4.04211135479597,0.8010424028766103,-1.5439649289054096,0.1572309417126939,-11.004582835900731,2.263474387899036,0
64,2024-09-20 20:19:03.836577792,TASK_BEGIN,013,-2.042158136124904,0.5221555026873876,-3.923679525800929,0.7979442963074147,-1.5980413788296077,0.14593240660337287,-10.332443290281434,2.141190304799245,0
65,2024-09-20 20:19:04.767934208,TASK_BEGIN,013,-2.022310238244977,0.5144333322288006,-3.81134035417101,0.7941682127518569,-1.6566571311790477,0.13619012198053726,-9.69747266552877,2.03037064208539,0
66,2024-09-20 20:19:04.845587968,TASK_BEGIN,013,-1.9999693633544875,0.5052553187701753,-3.7114122523593345,0.7900967227686838,-1.7178229032836316,0.12841242995867333,-9.119815791396327,1.9329630030532612,0
67,2024-09-20 20:19:04.915890944,TASK_BEGIN,013,-1.9752289583867535,0.49463540666879224,-3.629007192630652,0.7860307868606974,-1.7790796932769246,0.12281889554019595,-8.614984618175388,1.8491961089517706,0
68,2024-09-20 20:19:04.970082048,TASK_BEGIN,013,-1.948025659079925,0.482632054020999,-3.5674058462690597,0.7820993073223963,-1.8378008713584009,0.11943915774800716,-8.193135705435886,1.7776427484431572,0
69,2024-09-20 20:19:05.047298816,TASK_BEGIN,013,-1.918180587585581,0.4693507619900522,-3.527655326446721,0.7782219788197319,-1.8915160035513012,0.11814161907926285,-7.859397438738357,1.7156572815425355,0
70,2024-09-20 20:19:05.109787136,TASK_BEGIN,013,-1.8854635819870684,0.4549451594353773,-3.508426521545024,0.7741272824500376,-1.9381642788835798,0.11868285993867365,-7.61484952192929,1.6600175489204645,0
71,2024-09-20 20:19:05.186632960,TASK_BEGIN,013,-1.8496948628208978,0.4396194160114257,-3.506135238325859,0.7693928988596943,-1.9762303515112218,0.12076505924473487,-7.457567387482598,1.6076166478984337,0
72,2024-09-20 20:19:06.104005120,TASK_BEGIN,013,-1.8108748941533657,0.4236315487938257,-3.515268276502411,0.7634721256161144,-2.0047537836081437,0.1240846383233952,-7.383432243858585,1.5560820209234656,0
73,2024-09-20 20:19:06.171720960,TASK_BEGIN,013,-1.7692841387815934,0.40728988483500683,-3.528926124382713,0.7557115299419647,-2.0232161209986,0.12835212310065527,-7.386706359353841,1.5042019489223364,0
74,2024-09-20 20:19:06.239422208,TASK_BEGIN,013,-1.7254998005873363,0.39093619894397236,-3.5396574588434,0.7453941617347614,-2.031350003274931,0.13328224445884895,-7.460518763834206,1.4520977905566441,0
75,2024-09-20 20:19:06.297404160,TASK_BEGIN,013,-1.6803361624297917,0.3749186185044151,-3.5405343313948707,0.7318320281780168,-2.028975046997078,0.13858726969747476,-7.597414310471126,1.401149203817748,0
76,2024-09-20 20:19:06.374650880,TASK_BEGIN,013,-1.634755731646259,0.3595644060829925,-3.5262561184363994,0.7145053745952454,-2.01596046191943,0.14400694868917505,-7.789864186921849,1.3536918137273106,0
77,2024-09-20 20:19:06.442636032,TASK_BEGIN,013,-1.5897929414540455,0.3451617342140259,-3.4940419803653566,0.693219884779351,-1.9923287913889578,0.14936653566799538,-8.03043766166599,1.3125503819935396,0
78,2024-09-20 20:19:06.498224896,TASK_BEGIN,013,-1.5465036053536116,0.3319524536298071,-3.4441045164436077,0.6682342168771338,-1.9584175401292208,0.15461781685127038,-8.311556036857729,1.2805498660950612,0
79,2024-09-20 20:19:07.444281088,TASK_BEGIN,013,-1.5059245198826332,0.3201308616755265,-3.379572168724072,0.6403102678296346,-1.914996669414315,0.15982493642657064,-8.625059770301432,1.2601344131471788,0
80,2024-09-20 20:19:07.506958080,TASK_BEGIN,013,-1.469019509388306,0.3098423975207949,-3.3058689676766093,0.6106535494176404,-1.8633195076213578,0.16509765930262435,-8.961806589595525,1.2531367451065532,0
81,2024-09-20 20:19:07.589541888,TASK_BEGIN,013,-1.4366102933369034,0.30118071903481997,-3.2296605436528565,0.5807355412915772,-1.8051526439703731,0.17051366731385964,-9.311380103062259,1.260691471495309,0
82,2024-09-20 20:19:07.657293056,TASK_BEGIN,013,-1.4093163423264914,0.2941859035872811,-3.157558670739778,0.5520322871788567,-1.7428064159301198,0.1760812933037385,-9.66204625823503,1.283281785503174,0
83,2024-09-20 20:19:07.717025024,TASK_BEGIN,013,-1.3875240385628804,0.2888458074145122,-3.0949345498760024,0.5257606775849412,-1.6791256860737558,0.18176447799447792,-10.0011130699716,1.3208815012825894,0
84,2024-09-20 20:19:07.792807168,TASK_BEGIN,013,-1.3713780310754888,0.2850987726151221,-3.0452297790091225,0.5026993872179764,-1.6173710280841247,0.18753894815068914,-10.315566808585398,1.373090696384362,0
85,2024-09-20 20:19:07.860503808,TASK_BEGIN,013,-1.3607710955480512,0.2828347180492483,-3.009898734973321,0.483136092559123,-1.5609448929056908,0.1934221990085674,-10.592637342670209,1.439133038138896,0
86,2024-09-20 20:19:08.799331840,TASK_BEGIN,013,-1.355322501485596,0.28189505865038905,-2.988781366504825,0.4669346747614551,-1.5129873236718254,0.19944939950913826,-10.820111010775621,1.5176489665289703,0
87,2024-09-20 20:19:08.861409024,TASK_BEGIN,013,-1.3543616216373977,0.28207494291886476,-2.9806035922592256,0.453690363079396,-1.475936543493349,0.20561401783289227,-10.986529003671777,1.606370636329465,0
88,2024-09-20 20:19:08.938654720,TASK_BEGIN,013,-1.356943314115379,0.2831297234384655,-2.9834343165567816,0.4429190530020679,-1.4511756122576531,0.2118059969233393,-11.081517536419762,1.7018906082089755,0
89,2024-09-20 20:19:09.000646912,TASK_BEGIN,013,-1.3619107187451713,0.2847852292550715,-2.9950620263383305,0.4342142397655286,-1.4388579288700432,0.21776842574457972,-11.0962764047229,1.7996717111482974,0
90,2024-09-20 20:19:09.075128064,TASK_BEGIN,013,-1.3680036778233386,0.2867524015851889,-3.013300576970608,0.4273289885301095,-1.4379319138904996,0.2230830893126549,-11.024003423203478,1.894242187626097,0
91,2024-09-20 20:19:09.140344064,TASK_BEGIN,013,-1.373993487240019,0.2887467743064489,-3.036256119767023,0.4221885907432433,-1.4463098081066537,0.22719018374322197,-10.860165078069967,1.9794782865973735,0
92,2024-09-20 20:19:09.202336256,TASK_BEGIN,013,-1.3788136857480404,0.2905097894419063,-3.062575959327673,0.41886502059316605,-1.4611182520307817,0.22944557633145227,-10.602846285818595,2.049030952167433,0
93,2024-09-20 20:19:10.139431936,TASK_BEGIN,013,-1.3816551243379298,0.2918270427814893,-3.091648279985919,0.4175347315073252,-1.479026013439449,0.22921441762283168,-10.25338685408026,2.0969885561211843,0
94,2024-09-20 20:19:10.218532096,TASK_BEGIN,013,-1.381999532761216,0.292539520742324,-3.123707086299982,0.4184295932575835,-1.496661510561604,0.22598228397711764,-9.817198945822907,2.1187055348929698,0
95,2024-09-20 20:19:10.289720832,TASK_BEGIN,013,-1.379593347294804,0.29254653756460103,-3.159829662833493,0.42179189631193925,-1.5110742549477683,0.21944867111850128,-9.304489044024454,2.1115887155677857,0
96,2024-09-20 20:19:10.343175168,TASK_BEGIN,013,-1.374403387636848,0.2918033972513073,-3.2018133437788174,0.42783648346059,-1.5201450559543814,0.20957876096592187,-8.730603414661514,2.075616941714798,0
97,2024-09-20 20:19:10.420845824,TASK_BEGIN,013,-1.3665919935346644,0.2903176381976012,-3.2518960009366897,0.43670753273752655,-1.522856046787939,0.19661603455518756,-8.11577886776689,2.013456814668385,0
98,2024-09-20 20:19:10.482844928,TASK_BEGIN,013,-1.3564989604282203,0.2881435620295627,-3.312329096663022,0.44842488866010993,-1.5193721352053664,0.18106548190185107,-7.484318850448459,1.9302044746811098,0
99,2024-09-20 20:19:10.560625920,TASK_BEGIN,013,-1.3445972173867538,0.2853737448016409,-3.384904848056536,0.46284060412358075,-1.510940343469567,0.16364971739828316,-6.863498080338982,1.8329157738279422,0
100,2024-09-20 20:19:11.500243968,TASK_BEGIN,013,-1.331423707942248,0.28213002895157946,-3.470606189888863,0.4796392504317516,-1.4996489114430356,0.14524681201970802,-6.282480110429365,1.7300655601847825,0
101,2024-09-20 20:19:11.561799936,TASK_BEGIN,013,-1.317518049838629,0.27855804212574864,-3.56953863147468,0.49840329514079473,-1.488080282657618,0.12682372826930247,-5.771176685890232,1.6309231132114115,0
102,2024-09-20 20:19:11.640997888,TASK_BEGIN,013,-1.3033915303721997,0.27482631784704664,-3.681146588147329,0.5187267487670442,-1.47888388306116,0.10936168322767717,-5.3586817569185206,1.5447257090045787,0
103,2024-09-20 20:19:11.698971904,TASK_BEGIN,013,-1.2895211818077992,0.27112717477211346,-3.8044848648520513,0.5403180114498519,-1.4743279294130003,0.0937616714906583,-5.0711042599741685,1.479656749858071,0
104,2024-09-20 20:19:11.776461056,TASK_BEGIN,013,-1.2763530942160395,0.26767552558789237,-3.9383059465875245,0.5630409091574212,-1.4759239246096474,0.0807391654938093,-4.929136989741395,1.4418718741608376,0
105,2024-09-20 20:19:11.837997824,TASK_BEGIN,013,-1.26431274794154,0.26470454630321444,-4.081018715994822,0.5869067345382779,-1.4842069272963698,0.07073462399963497,-4.9459240144343815,1.4348619356909502,0
106,2024-09-20 20:19:11.911918080,TASK_BEGIN,013,-1.2538376569985885,0.2624606258234218,-4.230779399424111,0.6120683650901815,-1.4987159309848141,0.06386321574832216,-5.125621552883077,1.4592831118347351,0
107,2024-09-20 20:19:12.830589184,TASK_BEGIN,013,-1.2454388747969778,0.26119987090046276,-4.385807508422952,0.6388330327532261,-1.518168264385534,0.05991782775604561,-5.462889469344188,1.5132510770562237,0
108,2024-09-20 20:19:12.888659968,TASK_BEGIN,013,-1.2397619666270345,0.26118318183105527,-4.544732321001264,0.667659764466656,-1.5407614614825584,0.05842997839367562,-5.94343152515222,1.5930040452094827,0
109,2024-09-20 20:19:12.966105088,TASK_BEGIN,013,-1.2376002189129736,0.262662807456706,-4.706712814533242,0.6991038631874018,-1.56449869879872,0.05877756108473702,-6.545394102514704,1.6936871363241979,0
110,2024-09-20 20:19:13.027468032,TASK_BEGIN,013,-1.2398378126148826,0.26585857578490313,-4.871245781837413,0.7337066519364865,-1.5874634137519639,0.06031294379458001,-7.241159346193539,1.8099572189592321,0
111,2024-09-20 20:19:13.101582080,TASK_BEGIN,013,-1.247339390183514,0.2709335060095333,-5.037761171514307,0.7718636226308143,-1.6080371107921485,0.06248253794639325,-7.999188230370017,1.9363291477440256,0
112,2024-09-20 20:19:13.169330944,TASK_BEGIN,013,-1.2608244961976125,0.2779821096516633,-5.205152081770228,0.8137132418052483,-1.6250667844867708,0.06491564973565445,-8.78589004697604,2.0674526174597796,0
113,2024-09-20 20:19:13.237085952,TASK_BEGIN,013,-1.2807584407296753,0.2870330913936718,-5.371354738859191,0.8590695973382485,-1.6379509111838282,0.06746870163902836,-9.567588086031343,2.198471015309099,0
114,2024-09-20 20:19:14.180662016,TASK_BEGIN,013,-1.3072715552218939,0.29805620969876434,-5.533073050506144,0.9073944273220557,-1.6466292986940483,0.07022463673475601,-10.312547765228578,2.32535496490546,0
115,2024-09-20 20:19:14.248428288,TASK_BEGIN,013,-1.3401204608301356,0.3109678532717447,-5.685748622487247,0.957798043663834,-1.651517397300343,0.07346303772665065,-10.992942763991376,2.445011982274846,0
116,2024-09-20 20:19:14.316194048,TASK_BEGIN,013,-1.3787093652539537,0.3256397273365349,-5.823887435819255,1.0090793938384248,-1.6534315575310197,0.07761989032772716,-11.586454265640498,2.555128791207041,0
117,2024-09-20 20:19:14.378681856,TASK_BEGIN,013,-1.422163012868374,0.3419122022121521,-5.941772644700501,1.0598250405150929,-1.6535168944389207,0.08324537261440743,-12.077084979040785,2.6538687898552156,0
118,2024-09-20 20:19:14.440271104,TASK_BEGIN,013,-1.4694163114424958,0.3596071628665125,-6.034356931051,1.1085514592262247,-1.6531589009839123,0.09095719783776364,-12.455140535943928,2.7396154108508632,0
119,2024-09-20 20:19:14.519401984,TASK_BEGIN,013,-1.5192915649242298,0.3785367500559917,-6.097957892621814,1.153832956445894,-1.6538519451256142,0.10138604652225319,-12.716800179808914,2.810934226064858,0
120,2024-09-20 20:19:14.587153920,TASK_BEGIN,013,-1.5705582125100273,0.39850872861704695,-6.130526822062924,1.1943711897920035,-1.6570256838240125,0.1151145583803135,-12.863610017792059,2.866793855067131,0
121,2024-09-20 20:19:15.524275200,TASK_BEGIN,013,-1.6219887343660382,0.4193303239768581,-6.131536107304379,1.2290113461772894,-1.663874548108712,0.13261247584514724,-12.90194257571467,2.906912802320271,0
122,2024-09-20 20:19:15.590296832,TASK_BEGIN,013,-1.6724199928690207,0.4408111867316338,-6.101620049281012,1.2567299529073415,-1.6752490526550912,0.15417156976025162,-12.842483680686057,2.9320646045145633,0
123,2024-09-20 20:19:15.663879936,TASK_BEGIN,013,-1.7208068341493006,0.4627636505073834,-6.042066721687939,1.276607849437003,-1.6916339029891496,0.17985277319503037,-12.699815392051244,2.9442698115994785,0
124,2024-09-20 20:19:15.725992960,TASK_BEGIN,013,-1.7662505759618963,0.48499712985027593,-5.954278453117226,1.2878020070903535,-1.7131981061606698,0.20946374400644174,-12.491966479457949,2.946841842041866,0
125,2024-09-20 20:19:15.801803264,TASK_BEGIN,013,-1.8080068402079241,0.5073061824508829,-5.839369201348734,1.2895457145105647,-1.7398922767981144,0.24257371696511698,-12.239694400615893,2.9442021638438702,0
126,2024-09-20 20:19:15.864983808,TASK_BEGIN,013,-1.8454922960602849,0.5294564408326101,-5.698010305631227,1.2811984054739554,-1.7715499105495243,0.2785501994588314,-11.965304412904059,2.941392253224434,0
127,2024-09-20 20:19:15.926488064,TASK_BEGIN,013,-1.8783041839234305,0.5511752395023979,-5.530490133581102,1.2623303091221583,-1.8079258022791467,0.316592936120896,-11.690963075796626,2.9433500541865993,0
128,2024-09-20 20:19:16.851116032,TASK_BEGIN,013,-1.906246925052961,0.5721517166145076,-5.33691833833514,1.232813086448038,-1.8486538267939652,0.3557564284716788,-11.436713182505423,2.9541489993514447,0
129,2024-09-20 20:19:16.914889216,TASK_BEGIN,013,-1.9293375891374174,0.5920452848829668,-5.117612120127513,1.1929134253754328,-1.8931901886107956,0.3949713606563147,-11.218479725170068,2.97636764192135,0
130,2024-09-20 20:19:16.976259072,TASK_BEGIN,013,-1.9477626449350953,0.6104971999550519,-4.873734917116214,1.143405579639455,-1.940811194352858,0.43307590300299065,-11.04632459946478,3.0106569026019514,0
131,2024-09-20 20:19:17.053452032,TASK_BEGIN,013,-1.9617930769785703,0.6271417711089845,-4.608101177517095,1.0856877852813358,-1.9906720057900233,0.4688590273927652,-10.923354002604563,3.0555490583185154,0
132,2024-09-20 20:19:17.117793024,TASK_BEGIN,013,-1.9716980455626076,0.6416185187957709,-4.325837675745281,1.021833476421137,-2.0418927691749142,0.5011164465625297,-10.845689400562101,3.1075398865400246,0
133,2024-09-20 20:19:17.193953024,TASK_BEGIN,013,-1.9776919973298357,0.6535878301024713,-4.034556497722098,0.9545084748990187,-2.09363282961201,0.5287227270552586,-10.803517884137857,3.1614169604456994,0
134,2024-09-20 20:19:17.262326016,TASK_BEGIN,013,-1.9799223267444415,0.6627490920489353,-3.743932045303335,0.8867533565994621,-2.145121685097499,0.5507173998881524,-10.78287935267939,3.2107893325837216,0
135,2024-09-20 20:19:18.202774016,TASK_BEGIN,013,-1.9784900799058747,0.6688578830996273,-3.4648190627156046,0.8216877191570269,-2.195644634731062,0.5663916536497039,-10.767819977040658,3.2487817532155048,0
136,2024-09-20 20:19:18.272644096,TASK_BEGIN,013,-1.973493906482512,0.671741456419023,-3.2081285924640714,0.7622047739961183,-2.244516043620826,0.5753586844984129,-10.742590216369168,3.268792473798563,0
137,2024-09-20 20:19:18.340370944,TASK_BEGIN,013,-1.9650853964440442,0.6713147303361037,-2.9837158152965646,0.7107273109356576,-2.2910760412357787,0.5775972843033186,-10.693517677104206,3.265133804103101,0
138,2024-09-20 20:19:18.408116224,TASK_BEGIN,013,-1.9535274682494896,0.6675977249230016,-2.7995046400398724,0.66907610251737,-2.33472920659155,0.573470560316885,-10.610316261380419,3.2334608659748723,0
139,2024-09-20 20:19:18.465701120,TASK_BEGIN,013,-1.9392463577215302,0.6607312464376258,-2.660919702489295,0.6384349485884286,-2.375027391892385,0.5637276492198114,-10.486968358444507,3.1711159963660585,0
140,2024-09-20 20:19:18.528187136,TASK_BEGIN,013,-1.9228507229034812,0.6509837485968135,-2.570621860586582,0.619354218772751,-2.411756056691155,0.5494806671625979,-10.322334811014347,3.077530529297318,0
141,2024-09-20 20:19:18.611361024,TASK_BEGIN,013,-1.9050919081387185,0.6387431323252634,-2.528592305945719,0.6117686735978239,-2.4449311683030697,0.5321274175773948,-10.12018632791563,2.954541014895127,0
142,2024-09-20 20:19:19.539614976,TASK_BEGIN,013,-1.8867791738424087,0.6244947474277314,-2.53257130466585,0.6150505743190376,-2.4746414231447855,0.5132002468228712,-9.888305397702089,2.8063387197444656,0
143,2024-09-20 20:19:19.622792960,TASK_BEGIN,013,-1.8686944067219888,0.6087934627457011,-2.5787160046045363,0.6281117642315085,-2.5007820474828857,0.4941650703558839,-9.636933043454187,2.6390147971312596,0
144,2024-09-20 20:19:19.675987968,TASK_BEGIN,013,-1.8515331640234391,0.5922355982615152,-2.6622661289872154,0.6495377378032494,-2.5228004118987535,0.47622809799162064,-9.377241790755962,2.459922918015104,0
145,2024-09-20 20:19:19.753204224,TASK_BEGIN,013,-1.8358653475779978,0.5754298417431877,-2.7780813549745207,0.6777366322168132,-2.539551211873581,0.4602004557368215,-9.120312737398738,2.2770722386607254,0
146,2024-09-20 20:19:19.815232000,TASK_BEGIN,013,-1.8221011856300062,0.5589646803038499,-2.921036028432119,0.7110968615707967,-2.54930641047773,0.4464401549301146,-8.87664835555153,2.0986185705297844,0
147,2024-09-20 20:19:19.892359168,TASK_BEGIN,013,-1.8104645045044079,0.5433755029208872,-3.0862481129260972,0.7481229049184825,-2.5499221103876297,0.43486382789269906,-8.655903519676972,1.9324250209777123,0
148,2024-09-20 20:19:19.954387968,TASK_BEGIN,013,-1.8009855273251785,0.5291180473224558,-3.2690488484860865,0.7874959838512903,-2.5391125272224,0.4250062977224651,-8.46656324192522,1.7856678334437555,0
149,2024-09-20 20:19:20.900491008,TASK_BEGIN,013,-1.7935156584454912,0.5165500090722216,-3.4646987989820897,0.8280420699613418,-2.514746980760028,0.41610782334905505,-8.315605801628873,1.6645069577126321,0
150,2024-09-20 20:19:20.972835840,TASK_BEGIN,013,-1.7877574075471798,0.5059180983237979,-3.66806826906715,0.8686515684830632,-2.4751128538481884,0.40721954186384823,-8.208254057753535,1.5738246254777457,0
151,2024-09-20 20:19:21.025060096,TASK_BEGIN,013,-1.7833037074910432,0.49734995675881843,-3.8735305155107036,0.908213866043608,-2.419145235007697,0.3973227064160047,-8.147811192856427,1.5169825219163873,0
152,2024-09-20 20:19:21.108313088,TASK_BEGIN,013,-1.779677781722393,0.49085252259059575,-4.07512905139956,0.9455988039980372,-2.3466418994315554,0.38545738149789655,-8.135612350353206,1.495570188545726,0
153,2024-09-20 20:19:21.166682880,TASK_BEGIN,013,-1.7763604047664847,0.4863170012955001,-4.266928450086863,0.9796820419694386,-2.2584501519186464,0.3708553821488405,-8.171069755477133,1.5091988685711522,0
154,2024-09-20 20:19:21.241699072,TASK_BEGIN,013,-1.7727981528652723,0.48352896323933664,-4.443438067736824,1.0094007071240938,-2.156588127332049,0.35306756623766195,-8.251588042593795,1.5554105512063496,0
155,2024-09-20 20:19:21.302820096,TASK_BEGIN,013,-1.7684000603912928,0.4821826462580486,-4.6000094971591645,1.0338276473509311,-2.044268825922793,0.33206727797142543,-8.37226753261074,1.6297283169027375,0
156,2024-09-20 20:19:22.255115008,TASK_BEGIN,013,-1.7625468079150588,0.48190206127615925,-4.7331255974664135,1.0522490626982282,-1.9257969360347298,0.3083035596924202,-8.525728796593913,1.7258699287102859,0
157,2024-09-20 20:19:22.322983936,TASK_BEGIN,013,-1.754647424438044,0.4822746215994307,-4.840559596955349,1.064226136789485,-1.806319655420961,0.2826836228892779,-8.702406697032881,1.8361548174009508,0
158,2024-09-20 20:19:22.388881920,TASK_BEGIN,013,-1.744256710750475,0.4828987368665459,-4.921439498661829,1.069625688123795,-1.6914603614848107,0.2564895163675028,-8.891343964747369,1.952111783051771,0
159,2024-09-20 20:19:22.450464000,TASK_BEGIN,013,-1.7312152462082018,0.48343640472638055,-4.97620935357653,1.0686085163274788,-1.5868981570643836,0.2312526866795196,-9.081391786289496,2.0652573138988823,0
160,2024-09-20 20:19:22.526177024,TASK_BEGIN,013,-1.7157462345829255,0.48365598034401974,-5.0064073996039165,1.061569226748119,-1.4979365130921163,0.2086068236660749,-9.262579621294496,2.167922872122525,0
161,2024-09-20 20:19:22.593984000,TASK_BEGIN,013,-1.6984624748878683,0.48345326491448554,-5.0142737831107445,1.049049893280855,-1.429081578910655,0.19013391202059646,-9.427076366333619,2.2539132102015547,0
162,2024-09-20 20:19:22.656740864,TASK_BEGIN,013,-1.6802733483177565,0.48284642712496695,-5.002369024501209,1.0316789435334166,-1.383671760644779,0.17722217220928205,-9.569333981507386,2.3188457486268406,0
163,2024-09-20 20:19:23.573093120,TASK_BEGIN,013,-1.662223865843566,0.4819500884539187,-4.9733399787729,1.010162872013798,-1.3636211050893878,0.1709542547081321,-9.685832432837662,2.3602353196392376,0
164,2024-09-20 20:19:23.640832000,TASK_BEGIN,013,-1.6453333714233769,0.4809424899192904,-4.929760128538052,0.9853029651838537,-1.3693162295806984,0.17203451684645132,-9.775209322309093,2.3775112796581857,0
165,2024-09-20 20:19:23.703319040,TASK_BEGIN,013,-1.630488085589539,0.480038011015445,-4.873911249867631,0.9579934786621545,-1.3996756101824213,0.180758636098093,-9.83885921054863,2.372024089529761,0
166,2024-09-20 20:19:23.780108800,TASK_BEGIN,013,-1.6183838471567265,0.47946606206890785,-4.807527530227699,0.9291915377458605,-1.452352972326261,0.19702742518543478,-9.881286914136961,2.3468903395182323,0
167,2024-09-20 20:19:23.842595840,TASK_BEGIN,013,-1.6094808718277516,0.4794496067128755,-4.731657134319597,0.8998797533006707,-1.5240144262211852,0.22039517438815434,-9.909618928239908,2.3065677609802298,0
168,2024-09-20 20:19:23.905347072,TASK_BEGIN,013,-1.6039515273398028,0.48017910431184374,-4.646735393042456,0.8710331736416055,-1.61059962051851,0.25013083757402627,-9.932402884628269,2.2562730459986606,0
169,2024-09-20 20:19:23.983454208,TASK_BEGIN,013,-1.601634163888479,0.48178417674710083,-4.5528019401983295,0.8435774553542833,-1.7075419090062305,0.2852768624198869,-9.958192836496778,2.20140506228256,0
170,2024-09-20 20:19:24.929784064,TASK_BEGIN,013,-1.6020174476588958,0.4843096143070713,-4.44974754629536,0.8183308020490421,-1.809978563103545,0.3247015790606092,-9.99422656715506,2.1470309771996794,0
171,2024-09-20 20:19:24.997566976,TASK_BEGIN,013,-1.6042807348506352,0.4877039608738452,-4.3375553476165924,0.7959464196211519,-1.9129640232519611,0.3671404908075281,-10.045326916684603,2.0974556553135013,0
172,2024-09-20 20:19:25.054387968,TASK_BEGIN,013,-1.607405691307428,0.49182623183593716,-4.216521466267659,0.7768714081931377,-2.0116765623851314,0.41122296242730233,-10.113228778791141,2.0559051791264857,0
173,2024-09-20 20:19:25.133072896,TASK_BEGIN,013,-1.6103403477134115,0.4964692293226749,-4.087397038066434,0.7613214048924041,-2.101625581994915,0.45549251055389794,-10.196529959067801,2.024347928987878,0
174,2024-09-20 20:19:25.193665024,TASK_BEGIN,013,-1.612169838075025,0.5013926319602934,-3.951448748295826,0.7492726595711394,-2.1788836699210705,0.49843846593451135,-10.291304316712301,2.003497718990394,0
175,2024-09-20 20:19:25.255290112,TASK_BEGIN,013,-1.6122613181625676,0.5063588384250923,-3.8105259863184253,0.7404854096034612,-2.2403491995869094,0.538554279530754,-10.392268917642797,1.993056638997099,0
176,2024-09-20 20:19:25.332941824,TASK_BEGIN,013,-1.6103782568714722,0.5111656826046446,-3.6671686702555,0.7345677907058155,-2.2839957689930834,0.5744234995502533,-10.494232290900797,1.9921559346991213,0
177,2024-09-20 20:19:26.280378112,TASK_BEGIN,013,-1.6067570678271452,0.5156701929869232,-3.524684159921891,0.7310729536742661,-2.30902547359344,0.6048165438802299,-10.593343158716172,1.9997963587009684,0
178,2024-09-20 20:19:26.345978880,TASK_BEGIN,013,-1.6021099405672623,0.5197973436647071,-3.387122772316802,0.7296085127407662,-2.3158699806480234,0.6287763999295065,-10.687672582698474,2.0150715866075055,0
179,2024-09-20 20:19:26.407979008,TASK_BEGIN,013,-1.5975192962435993,0.5235301063580089,-3.2591237732777834,0.7299285019995969,-2.306064860745801,0.6456805824548205,-10.777014194456898,2.0371250939900123,0
180,2024-09-20 20:19:26.472225792,TASK_BEGIN,013,-1.594250139737455,0.5268856296921236,-3.1456658915556206,0.7319832274806919,-2.2820686702721398,0.6552740987564931,-10.862156460935305,2.0649729011339253,0
181,2024-09-20 20:19:26.548711936,TASK_BEGIN,013,-1.5935551277798372,0.5298909896853915,-3.051841563070281,0.735923452535647,-2.247080127238994,0.6576773352069709,-10.94405525835531,2.097387383868099,0
182,2024-09-20 20:19:26.619204096,TASK_BEGIN,013,-1.5965227333304148,0.5325690284927348,-2.982702509714486,0.7420672941766191,-2.2048671156301234,0.6533849834352856,-11.02331814380578,2.132979481281067,0
183,2024-09-20 20:19:26.686979072,TASK_BEGIN,013,-1.603975569049436,0.5349337236355826,-2.9430290749191497,0.7508341042552488,-2.1595645777302965,0.6432605160163741,-11.100105868226198,2.170479653032591,0
184,2024-09-20 20:19:27.605112064,TASK_BEGIN,013,-1.6164146258380523,0.5369891192966247,-2.936852065519335,0.7626436313379482,-2.1153645012550157,0.6285013712938006,-11.1742125354131,2.2090742099764147,0
185,2024-09-20 20:19:27.669692928,TASK_BEGIN,013,-1.6339975786505452,0.5387286136255817,-2.966731906358834,0.7777793757266303,-2.0760988431624,0.610550582399025,-11.245172373739175,2.248608846982814,0
186,2024-09-20 20:19:27.741519104,TASK_BEGIN,013,-1.6565275070651118,0.5401354400794154,-3.032980817806541,0.7962339406264319,-2.0448468740009726,0.5909675134505182,-11.312474393498576,2.2895646248611916,0
187,2024-09-20 20:19:27.793730048,TASK_BEGIN,013,-1.6834420252807747,0.5411869625501893,-3.1330927021047974,0.8175830508254955,-2.023706537759539,0.5712950281780509,-11.375798658326584,2.3328473420462013,0
188,2024-09-20 20:19:27.871347968,TASK_BEGIN,013,-1.7138212452870019,0.5418641628552605,-3.2615922614758714,0.8409387232474418,-2.013737728370423,0.5529444833715406,-11.434942122936604,2.3794832100007017,0
189,2024-09-20 20:19:27.933783808,TASK_BEGIN,013,-1.7464400451309803,0.5421643122487503,-3.4103756566145824,0.8650039113741732,-2.014995528427674,0.5370969356965478,-11.489322318447027,2.4302836500586125,0
190,2024-09-20 20:19:28.010566912,TASK_BEGIN,013,-1.779868064284549,0.5421123525880459,-3.569502694156302,0.8882173491947074,-2.026618734391171,0.5246259893974135,-11.53729496280497,2.485511343504295,0
191,2024-09-20 20:19:28.954253824,TASK_BEGIN,013,-1.8125893043288175,0.5417651847148379,-3.7283237355270216,0.9089528889682847,-2.046996342851031,0.5160622109835005,-11.575442394644481,2.5445566250659777,0
192,2024-09-20 20:19:29.015142912,TASK_BEGIN,013,-1.8431053119753027,0.5412038626504262,-3.8766852915425134,0.9257244318452115,-2.0740033956419133,0.5116073791807721,-11.597807916222761,2.6056179408051166,0
193,2024-09-20 20:19:29.089219072,TASK_BEGIN,013,-1.8700151875983566,0.5405156362743566,-4.00585645793584,0.9373542591515598,-2.105257991827452,0.5111846703466322,-11.595333189054813,2.66544660584226,0
194,2024-09-20 20:19:29.152975104,TASK_BEGIN,013,-1.8920924985450156,0.5397756267444795,-4.108997222342997,0.9430853160683973,-2.138365188886122,0.5145029315148609,-11.556113100504986,2.719324908326801,0
195,2024-09-20 20:19:29.226537216,TASK_BEGIN,013,-1.9083685079570827,0.539036763808131,-4.181331214441514,0.9426368892593017,-2.171129473977041,0.5211165672374357,-11.466800090922309,2.7614105521158088,0
196,2024-09-20 20:19:29.291660032,TASK_BEGIN,013,-1.9182074188382892,0.5383290162007868,-4.220315198444554,0.9362165896957663,-2.201706872331795,0.5304702545629426,-11.314856218110364,2.785395987261943,0
197,2024-09-20 20:19:29.353657856,TASK_BEGIN,013,-1.9213504171718205,0.5376634219092411,-4.225947845466017,0.9245147038558079,-2.228666076588089,0.5419272856702047,-11.091024265769226,2.785309260861671,0
198,2024-09-20 20:19:30.305552128,TASK_BEGIN,013,-1.9179127643132061,0.5370357782070196,-4.201122664933255,0.9086944260718628,-2.25095736798605,0.5547864524704008,-10.791350442507667,2.756294482695909,0
199,2024-09-20 20:19:30.364100864,TASK_BEGIN,013,-1.9083450267223434,0.5364284979056047,-4.151743983210069,0.8903436090913999,-2.267828188941736,0.5682922206062564,-10.418265870325834,2.69525754976927,0
200,2024-09-20 20:19:30.425755136,TASK_BEGIN,013,-1.893392240160799,0.5358134470568323,-4.086318345296942,0.871335029792475,-2.2787385440577,0.5816427225683174,-9.980689242281496,2.601298975362934,0
201,2024-09-20 20:19:30.502973184,TASK_BEGIN,013,-1.8740631833848713,0.5351579285812142,-4.014979299876671,0.8536024029123229,-2.2833048019108557,0.5940063940394379,-9.49348662832501,2.475907897050103,0
202,2024-09-20 20:19:30.565352960,TASK_BEGIN,013,-1.85157991742033,0.5344310666272785,-3.9481872638653766,0.8389047296944855,-2.281266695442793,0.6045579835794092,-8.976623070147463,2.322976427272427,0
203,2024-09-20 20:19:30.636604928,TASK_BEGIN,013,-1.8272794188442416,0.5336064269301664,-3.8953969698924955,0.8286370187909007,-2.2724711371874027,0.612527194222923,-8.454175552520176,2.1487336538073567,0
204,2024-09-20 20:19:30.698237184,TASK_BEGIN,013,-1.8024847556787016,0.5326618639958219,-3.8638774233183195,0.8236920426600501,-2.2568909752929582,0.6172424409443495,-7.953286400324929,1.9616008102120184,0
205,2024-09-20 20:19:31.648402944,TASK_BEGIN,013,-1.7783924301559073,0.5315816343283407,-3.857784313031803,0.8243530653866569,-2.2346860873030607,0.6181629816258234,-7.503061891319633,1.771836453179325,0
206,2024-09-20 20:19:31.719164928,TASK_BEGIN,013,-1.7560106731480785,0.5303625682971749,-3.877546485651258,0.8302055492224513,-2.2062624991547906,0.6149010051157608,-7.1331850120095535,1.590852747558131,0
207,2024-09-20 20:19:31.788218112,TASK_BEGIN,013,-1.736157545645466,0.529021021558885,-3.919673084768859,0.840092499784099,-2.1722802899234357,0.6072351505558856,-6.871829057427892,1.4302025394528466,0
208,2024-09-20 20:19:31.859406080,TASK_BEGIN,013,-1.7194990246749953,0.5275966328659096,-3.9771514709129887,0.8521719987127728,-2.1336181677441286,0.5951227634952742,-6.742822181170883,1.3003401012483355,0
209,2024-09-20 20:19:31.912379904,TASK_BEGIN,013,-1.7065817938398908,0.5261507601438542,-4.040461063101971,0.8641058074391657,-2.0913280454814758,0.5787179751140475,-6.762730981841931,1.2093774994708706,0
210,2024-09-20 20:19:31.994971904,TASK_BEGIN,013,-1.6978228525189865,0.5247595811270539,-4.098945210143822,0.8733394123073583,-2.0465857795119997,0.5583875703744381,-6.938793744955475,1.1621797032594872,0
211,2024-09-20 20:19:32.052240896,TASK_BEGIN,013,-1.693455140673381,0.5235045785709941,-4.1422214277620695,0.8774136555549197,-2.00062591743689,0.5347060273657188,-7.26815671292885,1.160066985253027,0
212,2024-09-20 20:19:33.002538752,TASK_BEGIN,013,-1.6934576677863429,0.5224646246814926,-4.161506130578283,0.8742792107381381,-1.954657902338938,0.5084196512151405,-7.738175225026988,1.2010756755159941,0
213,2024-09-20 20:19:33.064584960,TASK_BEGIN,013,-1.6975056915601148,0.5217112401205576,-4.15084928975231,0.8625986130982671,-1.909779030387604,0.4803911598038179,-8.327326021032057,1.2804904796927468,0
214,2024-09-20 20:19:33.141334016,TASK_BEGIN,013,-1.7049650822124751,0.5213040482836913,-4.108148567243398,0.8419923358523306,-1.86690523982618,0.45154879399710945,-9.006690844738854,1.3914591805105636,0
215,2024-09-20 20:19:33.209064960,TASK_BEGIN,013,-1.7149368359306258,0.5212837991399131,-4.035634576005808,0.8131541344942553,-1.8267208528615049,0.4228526500886799,-9.742300787742789,1.5256916062026746,0
216,2024-09-20 20:19:33.276837120,TASK_BEGIN,013,-1.7263461608755875,0.5216655501717851,-3.9395640463930497,0.7777774869206547,-1.7896261131643596,0.395267825569052,-10.498221575019512,1.6742274641608823,0
217,2024-09-20 20:19:33.342969856,TASK_BEGIN,013,-1.7380610784214694,0.5224365202029748,-3.829149904327513,0.7383093321293164,-1.7556800643021284,0.36972437888746834,-11.239662623093512,1.828167412079018,0
218,2024-09-20 20:19:33.404995840,TASK_BEGIN,013,-1.7490192365197685,0.5235608889654346,-3.7150323130890115,0.6976135995990685,-1.7245858208958729,0.34706138108950485,-11.935458558493652,1.9792916770319182,0
219,2024-09-20 20:19:34.330193152,TASK_BEGIN,013,-1.7583466126688374,0.5249921635145691,-3.60766118732525,0.6586250502517551,-1.6957815314182847,0.3279798256713817,-12.559758022196311,2.120546449656748,0
220,2024-09-20 20:19:34.398009088,TASK_BEGIN,013,-1.7654513239004532,0.5266906032095416,-3.5159251756523666,0.624042851873842,-1.6686529389408091,0.3130308679865817,-13.09297108526708,2.2463758138256233,0
221,2024-09-20 20:19:34.465772032,TASK_BEGIN,013,-1.7700654873994397,0.5286383778771451,-3.446317268318392,0.596103026935074,-1.642816982986168,0.3026357291733389,-13.522029423780705,2.352889996794728,0
222,2024-09-20 20:19:34.533473024,TASK_BEGIN,013,-1.7722208604611904,0.5308461966548209,-3.4027660478099246,0.5764560612400028,-1.6183910910841937,0.29710616877011226,-13.84010696977842,2.4378845406870253,0
223,2024-09-20 20:19:34.601252096,TASK_BEGIN,013,-1.7721849435342845,0.5333528089873926,-3.38698924689346,0.5661416327680467,-1.59616181882202,0.29664100077542377,-14.04588756338102,2.500683526878313,0
224,2024-09-20 20:19:34.663472896,TASK_BEGIN,013,-1.7704043049393658,0.5362231675788954,-3.399051875143202,0.5656225378674756,-1.577595917149064,0.30130586321536634,-14.142275412866137,2.5417713072902766,0
225,2024-09-20 20:19:34.725470976,TASK_BEGIN,013,-1.7674722618953431,0.539547141454846,-3.4378509396498496,0.5748400708674949,-1.5646927728466993,0.3110195855919113,-14.134711509359851,2.5623242611667396,0
226,2024-09-20 20:19:35.679101184,TASK_BEGIN,013,-1.7641011460489096,0.5434354614917715,-3.5014110117317117,0.5932811174760441,-1.5597134380030286,0.32555581139432904,-14.029725671790814,2.5638835817077235,0
227,2024-09-20 20:19:35.741099008,TASK_BEGIN,013,-1.761081342918153,0.5480098369426851,-3.587009763850831,0.6200663849982109,-1.5648232302217253,0.34455407836858415,-13.83415893404235,2.5482955238590606,0
228,2024-09-20 20:19:35.803528192,TASK_BEGIN,013,-1.75922870108747,0.5533871387891192,-3.6912241528763112,0.6540560129136561,-1.5817075008236772,0.3675386159397263,-13.554939940082706,2.5178353256774115,0
229,2024-09-20 20:19:35.880279040,TASK_BEGIN,013,-1.7593225916034982,0.5596589046110115,-3.8100100274845166,0.6939474631003788,-1.6112630155083123,0.393946582052572,-13.199264451204076,2.475402393770607,0
230,2024-09-20 20:19:35.942295808,TASK_BEGIN,013,-1.7620288098537202,0.5668681783518204,-3.938835953086224,0.7383347242201143,-1.6534526771804305,0.4231593942755302,-12.775247503286717,2.4247358028535375,0
231,2024-09-20 20:19:36.006727936,TASK_BEGIN,013,-1.7678084834444603,0.5749882360859981,-4.072771237784713,0.785719464587409,-1.7073206969452794,0.45452409822658935,-12.292895221529939,2.3705138113248845,0
232,2024-09-20 20:19:36.082300672,TASK_BEGIN,013,-1.7768305216652627,0.5839103014733737,-4.2064848596454105,0.8345102316903802,-1.7710868350462594,0.4873543717238842,-11.764859314048907,2.3181138331024385,0
233,2024-09-20 20:19:37.028833024,TASK_BEGIN,013,-1.788909661931656,0.5934454262925092,-4.3342314630447705,0.8830583525184131,-1.8422544839175214,0.5209100706080507,-11.206543828878099,2.27299737830916,0
234,2024-09-20 20:19:37.097243136,TASK_BEGIN,013,-1.8034895449489445,0.603341081412589,-4.449870513203235,0.9297289092762173,-1.9177415055290343,0.5543695092570236,-10.635572742088307,2.239982095642553,0
235,2024-09-20 20:19:37.152579072,TASK_BEGIN,013,-1.8196901052054242,0.6133104264890721,-4.546933121246889,0.9729682119676208,-1.994081297548871,0.58682148345666,-10.07081647847836,2.2227195763181276,0
236,2024-09-20 20:19:37.229847808,TASK_BEGIN,013,-1.8364195384612843,0.6230689654888406,-4.618858417261873,1.0113586153307277,-2.067715074196579,0.6172938685858508,-9.531093426048072,2.223517634442015,0
237,2024-09-20 20:19:37.291518976,TASK_BEGIN,013,-1.852514340882726,0.6323679370622194,-4.659547215316986,1.0436794110803906,-2.135337333687756,0.6448049472611246,-9.033656240747922,2.2434114629082123,0
238,2024-09-20 20:19:37.354007040,TASK_BEGIN,013,-1.8668614369555518,0.6410136952076918,-4.664171307228823,1.0689698585168568,-2.1942172686647434,0.6684117765275662,-8.5926802655944,2.282223699403772,0
239,2024-09-20 20:19:37.435964160,TASK_BEGIN,013,-1.8784854892340568,0.6488707498999841,-4.629966216904221,1.086570063936771,-2.24243244487883,0.687253791237592,-8.218069911057656,2.3384548946320556,0
240,2024-09-20 20:19:38.368871936,TASK_BEGIN,013,-1.8866104831064894,0.6558547687187821,-4.556757609234615,1.0961305725086086,-2.278980230374152,0.7006066213692657,-7.9149122528852365,2.409181527920776,0
241,2024-09-20 20:19:38.447835904,TASK_BEGIN,013,-1.8907048916793516,0.6619226005036181,-4.447126725423011,1.0976025287465003,-2.3037291793768397,0.7079398742492141,-7.68370779348144,2.4902439228656226,0
242,2024-09-20 20:19:38.506470912,TASK_BEGIN,013,-1.8905128602632515,0.6670619342712296,-4.30622585319833,1.0912261806228145,-2.3171869654866266,0.7089499443146627,-7.521197098031566,2.5767216371823207,0
243,2024-09-20 20:19:38.568483072,TASK_BEGIN,013,-1.8860719539125492,0.6712803110668397,-4.141309556059035,1.0775254510241339,-2.320149311439843,0.7035530370146668,-7.421449817608318,2.6634423894024004,0
244,2024-09-20 20:19:38.644231936,TASK_BEGIN,013,-1.8777158165809693,0.6745935518398437,-3.9611077643594625,1.057301795247318,-2.3133768476903542,0.6918573347546315,-7.376930979055816,2.7453352404637674,0
245,2024-09-20 20:19:38.706270976,TASK_BEGIN,013,-1.866061030459685,0.6770158832859359,-3.7751912533935275,1.0316196460179066,-2.2974298647049944,0.6741505893714326,-7.379439384438741,2.817679999261302,0
246,2024-09-20 20:19:38.786554112,TASK_BEGIN,013,-1.851980522587155,0.6785556867564339,-3.593423283067441,1.0017849135541113,-2.2727029105221432,0.6509259188474298,-7.420972863944147,2.8764240989682044,0
247,2024-09-20 20:19:39.691053056,TASK_BEGIN,013,-1.8365575748641214,0.679217977207366,-3.425484896004309,0.9693164581826493,-2.239605748364243,0.6229334224070081,-7.494491106707324,2.9185939538248213,0
248,2024-09-20 20:19:39.768667904,TASK_BEGIN,013,-1.8210040088027448,0.6790088455879875,-3.280328033660555,0.9358856278023019,-2.198782432608915,0.5912181134541652,-7.5943660410468485,2.9426429429600773,0
249,2024-09-20 20:19:39.839365888,TASK_BEGIN,013,-1.8065346484750227,0.6779357700585574,-3.1653517989340694,0.9031794177765989,-2.1512862620585675,0.5571113883274279,-7.716352933292365,2.9485841231485597,0
250,2024-09-20 20:19:39.891958016,TASK_BEGIN,013,-1.7942077608096418,0.67600182975264,-3.0853200124994964,0.8726865834771075,-2.098678391183267,0.5221680882464325,-7.857075456984256,2.9378560093546713,0
251,2024-09-20 20:19:39.968733952,TASK_BEGIN,013,-1.7847537235898023,0.6731949737438794,-3.0414298174380257,0.845490283859613,-2.0430219760985913,0.4880550014814216,-8.013125533954911,2.912936512869426,0
252,2024-09-20 20:19:40.030761984,TASK_BEGIN,013,-1.778428754464821,0.6694748060096556,-3.031036107471848,0.822166431886204,-1.986757234523117,0.45640659077434337,-8.180066896050427,2.8767940782942465,0
253,2024-09-20 20:19:40.108434176,TASK_BEGIN,013,-1.7749368178608593,0.6647613360846196,-3.0481925466978286,0.8028072895474528,-1.9324918690510446,0.4286777759464926,-8.351798468336195,2.8323498001966665,0
254,2024-09-20 20:19:41.040795136,TASK_BEGIN,013,-1.7734433697592011,0.6589304756721038,-3.0847509333244636,0.787112223475411,-1.8827653091589778,0.40602231797135446,-8.520598357082777,2.7821173994333797,0
255,2024-09-20 20:19:41.118902784,TASK_BEGIN,013,-1.7726797432353614,0.651818942103643,-3.1316062649578775,0.774486463661519,-1.8398445123224796,0.38921189204319434,-8.677878251609792,2.7280687576808624,0
256,2024-09-20 20:19:41.180489984,TASK_BEGIN,013,-1.7711266305244044,0.6432401250144191,-3.179796903486201,0.7641341860648492,-1.8055974991750325,0.3786051200676706,-8.815409075565059,2.6716583009644936,0
257,2024-09-20 20:19:41.257270016,TASK_BEGIN,013,-1.7672495880234202,0.6330110354447074,-3.2213726370306075,0.7551587818809886,-1.7814396332722089,0.37416842177165455,-8.926468075632904,2.6139083455983805,0
258,2024-09-20 20:19:41.318864896,TASK_BEGIN,013,-1.759734815264666,0.6209856390179942,-3.250035432038158,0.7466746030648864,-1.7682954382580354,0.37553609733480064,-9.006358963581317,2.555490845339529,0
259,2024-09-20 20:19:41.392826112,TASK_BEGIN,013,-1.747673289198381,0.6070876058016738,-3.261509446185994,0.7379125419177683,-1.766536809698214,0.3820896032098398,-9.05234132936597,2.496809347801067,0
260,2024-09-20 20:19:41.457762816,TASK_BEGIN,013,-1.7306699274526127,0.5913396957861423,-3.2535521644259657,0.728283785863855,-1.7759136796288277,0.39303365213839636,-9.063447669589417,2.438118865658176,0
261,2024-09-20 20:19:42.404052992,TASK_BEGIN,013,-1.7088779693874865,0.5738886616928498,-3.2256094432050744,0.7173740280847072,-1.7955011606459188,0.40744712867779936,-9.04038607950721,2.379655710956047,0
262,2024-09-20 20:19:42.461957888,TASK_BEGIN,013,-1.6829630336908006,0.5550191105820546,-3.178293131798462,0.7048880228011576,-1.8236594391075869,0.42430104376814226,-8.985319307557294,2.3216963371335027,0
263,2024-09-20 20:19:42.524445184,TASK_BEGIN,013,-1.653998395456945,0.5351467880416073,-3.112941956439424,0.6906072365352003,-1.8580214186533366,0.4424611161443283,-8.901406589421823,2.264545352138186,0
264,2024-09-20 20:19:42.607286784,TASK_BEGIN,013,-1.6232981970113451,0.5147877195289222,-3.0314122979097946,0.6744032057998017,-1.8955715854960637,0.4607095908821216,-8.792312435436806,2.2085308060866806,0
265,2024-09-20 20:19:42.672236032,TASK_BEGIN,013,-1.592216379350064,0.49450898977430124,-2.9360349872297564,0.6562866597302145,-1.932851264956918,0.4778095340953686,-8.661912232637814,2.154021163491799,0
266,2024-09-20 20:19:42.734724096,TASK_BEGIN,013,-1.5619632516966795,0.4748735162389035,-2.8295774922489723,0.6364418916064377,-1.9662351283253858,0.4925984914590195,-8.514230689964071,2.101392468252058,0
267,2024-09-20 20:19:42.795860224,TASK_BEGIN,013,-1.5334944412367246,0.45639382687015756,-2.7151419354776363,0.6152247547959061,-1.9922025902429206,0.5040789539494778,-8.353581769818176,2.050894988431697,0
268,2024-09-20 20:19:43.752587264,TASK_BEGIN,013,-1.5074932775031291,0.43950513513447553,-2.59606059294514,0.5931450602155767,-2.0075889811963394,0.51149233424984,-8.1848832602829,2.0024608732190425,0
269,2024-09-20 20:19:43.815451904,TASK_BEGIN,013,-1.4844111982382024,0.424554831203631,-2.475877359742573,0.5708646095626702,-2.009823575845696,0.5143779973710187,-8.013997795743645,1.9555713558010537,0
270,2024-09-20 20:19:43.877483776,TASK_BEGIN,013,-1.4645038850623378,0.4117961312415229,-2.358430257259858,0.5492223027615484,-1.9971157272923088,0.5126027169859804,-7.847832551458602,1.9092936442314574,0
271,2024-09-20 20:19:43.957768192,TASK_BEGIN,013,-1.44783152191389,0.4013790386614798,-2.2479530660195373,0.5292647115070592,-1.9685395762129994,0.5063403688043039,-7.694058284552549,1.8624984949806866,0
272,2024-09-20 20:19:44.025495040,TASK_BEGIN,013,-1.434235057620679,0.3933426730128864,-2.149113001694423,0.5122450690143528,-1.9240207756840013,0.49600859750955584,-7.560619722982127,1.8141615550987054,0
273,2024-09-20 20:19:44.078785792,TASK_BEGIN,013,-1.423309762405414,0.3876141207070141,-2.0669931220929363,0.4995762766696411,-1.864266283488013,0.48218961548628453,-7.455289342262604,1.7636161242462949,0
274,2024-09-20 20:19:44.161015040,TASK_BEGIN,013,-1.4143867394019136,0.38401296313262223,-2.0069885645121572,0.49273666440975306,-1.790673822522896,0.46555243112948114,-7.385281486539783,1.7106891894850442,0
275,2024-09-20 20:19:45.074806016,TASK_BEGIN,013,-1.4065351024134556,0.38226006434336524,-1.9744425777786625,0.4931116221598566,-1.7052459621342013,0.44677869991500424,-7.356834850670232,1.6557626012031854,0
276,2024-09-20 20:19:45.147733760,TASK_BEGIN,013,-1.3986047245790372,0.3819929940546649,-1.973956563911903,0.5017789847496555,-1.610520867607004,0.4264987619106725,-7.374819360853929,1.5998298066252974,0
277,2024-09-20 20:19:45.215482880,TASK_BEGIN,013,-1.3893183350961387,0.3827896213477567,-2.008613998405043,0.5193106140445733,-1.5095119805104307,0.4052548195019676,-7.442522326594962,1.5445533532591156,0
278,2024-09-20 20:19:45.275640832,TASK_BEGIN,013,-1.377404124383766,0.3841978067988831,-2.079429215385297,0.5456727655575072,-1.4056376114799007,0.3834995430431481,-7.561603823407382,1.4922831757014554,0
279,2024-09-20 20:19:45.337177856,TASK_BEGIN,013,-1.3617556789041128,0.38576883881187957,-2.1851386919356828,0.5802441013771834,-1.3026200348392016,0.361618963346252,-7.73187334516951,1.445970808251482,0
280,2024-09-20 20:19:45.414664960,TASK_BEGIN,013,-1.3416002679879986,0.3870923225353415,-2.3223062302843194,0.6219104799415662,-1.2043352184960916,0.33996199468243715,-7.95054261960851,1.408910769954254,0
281,2024-09-20 20:19:45.475792896,TASK_BEGIN,013,-1.316636362646741,0.38782700530955116,-2.4856966136295764,0.669191790010349,-1.1146076520582546,0.31886445661185764,-8.211218525502586,1.384347009846906,0
282,2024-09-20 20:19:46.429392128,TASK_BEGIN,013,-1.28709453010195,0.3877209591503344,-2.6688493364585075,0.7203749470797762,-1.036964804619429,0.2986612128656532,-8.503381691896168,1.3750779296079494,0
283,2024-09-20 20:19:46.490952960,TASK_BEGIN,013,-1.2537058131602286,0.38661948935571805,-2.8647002910893753,0.7736251150833128,-0.974380073433986,0.27968450649381565,-8.812782552726429,1.3831290752036265,0
284,2024-09-20 20:19:46.552978944,TASK_BEGIN,013,-1.2175968899226592,0.3844632333054059,-3.0660626236371993,0.8270527057351971,-0.9290434577095776,0.2622504722572441,-9.122580180589651,1.4095016491115346,0
285,2024-09-20 20:19:46.633143808,TASK_BEGIN,013,-1.180132315154281,0.38127707203610134,-3.265904101275517,0.8787581904831797,-0.9022057911108645,0.24663878348118656,-9.41489907683927,1.4540526850225763,0
286,2024-09-20 20:19:46.700951808,TASK_BEGIN,013,-1.1427195148851272,0.3771499239290813,-3.457546320429209,0.9269081778920859,-0.8941421969604793,0.23307445182530548,-9.67264361257081,1.51555430536297,0
287,2024-09-20 20:19:46.761873920,TASK_BEGIN,013,-1.1066237453068473,0.3722110740033971,-3.634927970117335,0.9698607451654824,-0.9042489790756723,0.22172173425759123,-9.881364122202045,1.5918640031330669,0
288,2024-09-20 20:19:46.823449088,TASK_BEGIN,013,-1.072859168947603,0.36661145400208184,-3.7929211996971866,1.0062982541928331,-0.9312119767858091,0.21269084207417552,-10.030811083999533,1.6800876739649042,0
289,2024-09-20 20:19:47.780258816,TASK_BEGIN,013,-1.0421749876870452,0.3605130698270895,-3.9276285053888076,1.0353188685733599,-0.9731498461534684,0.20604946063917234,-10.11589250296578,1.7767123705621706,0
290,2024-09-20 20:19:47.843852032,TASK_BEGIN,013,-1.0150994049712259,0.35408485131196477,-4.036660473511719,1.056477177740634,-1.0277106405070662,0.20183571395058333,-10.136925321334198,1.8777805929715146,0
291,2024-09-20 20:19:47.915733760,TASK_BEGIN,013,-0.9919987585993248,0.3475027073906328,-4.119351678281682,1.0697807334168636,-1.09217165498797,0.20007389315366636,-10.099214241159194,1.979157828832115,0
292,2024-09-20 20:19:47.982685952,TASK_BEGIN,013,-0.9731250169202439,0.34095016752265345,-4.176745787957213,1.0756352773796143,-1.1635577225332467,0.20078550995076241,-10.012182339719466,2.076885496250736,0
293,2024-09-20 20:19:48.051227904,TASK_BEGIN,013,-0.9586343350965577,0.3346136054967186,-4.211255919513874,1.074739345193054,-1.2387475971432849,0.2039784942514541,-9.888343377858869,2.167558660269277,0
294,2024-09-20 20:19:48.112287232,TASK_BEGIN,013,-0.9485748708092486,0.32866916311435085,-4.226143771712059,1.067965527253646,-1.3145730720083941,0.20960580358714775,-9.742275790103433,2.248594752985178,0
295,2024-09-20 20:19:48.184878080,TASK_BEGIN,013,-0.9428571270884617,0.3232661298679,-4.225084179969062,1.056283230007252,-1.3879489406038084,0.21750811810493634,-9.589655981792136,2.318269850809871,0
296,2024-09-20 20:19:49.121353984,TASK_BEGIN,013,-0.9412213513051252,0.31851473869509417,-4.211960429860781,1.0407437417593903,-1.456019039777824,0.22736581415210616,-9.44630498076716,2.3755584436101658,0
297,2024-09-20 20:19:49.198477056,TASK_BEGIN,013,-0.9432164899241536,0.31448257285549963,-4.190793101682445,1.0224920484297129,-1.5162428602712652,0.2386729421565506,-9.327025209303452,2.419937774317842,0
298,2024-09-20 20:19:49.266221824,TASK_BEGIN,013,-0.9482078231148997,0.31119949409607195,-4.165607983244468,1.0027541457623352,-1.566393557227336,0.2507376194173523,-9.24410571187836,2.451288070110528,0
299,2024-09-20 20:19:49.321699072,TASK_BEGIN,013,-0.9554252000193227,0.30867017762170773,-4.140160646991043,0.9827810843690087,-1.6045409552405723,0.26272005425746997,-9.205850294306371,2.4699376265035937,0
300,2024-09-20 20:19:49.398948864,TASK_BEGIN,013,-0.9640509553413477,0.3068922343967084,-4.117592155364316,0.9637676100577344,-1.6291040495572242,0.2737131007228194,-9.215741266843489,2.4768273224111863,0
301,2024-09-20 20:19:49.460041984,TASK_BEGIN,013,-0.9733267001761768,0.30587350161812926,-4.100182934192744,0.9467820321682008,-1.6389601584717084,0.28284372600644103,-9.272643451672092,2.473721659596088,0
302,2024-09-20 20:19:49.522563840,TASK_BEGIN,013,-0.9826413035308028,0.30564015540524875,-4.089314945111704,0.9327305976656572,-1.6335319918821565,0.28936632101252857,-9.372125910331125,2.4634003321000764,0
303,2024-09-20 20:19:50.450575104,TASK_BEGIN,013,-0.9915719496731905,0.3062327997311987,-4.085559145372457,0.92233405650221,-1.612818220307167,0.29274173372466095,-9.508573523778999,2.449722114956188,0
304,2024-09-20 20:19:50.523529984,TASK_BEGIN,013,-0.9998806307897515,0.3076942538319083,-4.088710179146473,0.9160760268365479,-1.577395856996779,0.29270382600164235,-9.67728986683655,2.437382834145122,0
305,2024-09-20 20:19:50.590711296,TASK_BEGIN,013,-1.007485054039639,0.3100528828113254,-4.097709541478927,0.9141267141994841,-1.528429682539137,0.289300981624087,-9.875702999997781,2.431327379863511,0
306,2024-09-20 20:19:50.650395136,TASK_BEGIN,013,-1.014413797001536,0.3133018960552381,-4.110535416740526,0.9162848490776261,-1.4677147765322311,0.28290654831525985,-10.103220823546243,2.436019390410921,0
307,2024-09-20 20:19:50.726725120,TASK_BEGIN,013,-1.0207464547079093,0.3173757411503882,-4.124097604115058,0.9219556672273059,-1.3977460801516464,0.27420699364882256,-10.359855792172002,2.454781127422784,0
308,2024-09-20 20:19:50.789646080,TASK_BEGIN,013,-1.0265472638706028,0.3221296410217576,-4.134108023136049,0.9301459118548394,-1.3217395030879613,0.26416377437277966,-10.64417160025765,2.4892644634377192,0
309,2024-09-20 20:19:50.855254016,TASK_BEGIN,013,-1.0318069526484648,0.3273302411671005,-4.1350439625854,0.939480810126281,-1.2435200129307304,0.2539367021040351,-10.951350829436116,2.5390681050959993,0
310,2024-09-20 20:19:51.805403136,TASK_BEGIN,013,-1.0363995725357216,0.3326618049903982,-4.120476183129085,0.9482866513983099,-1.16726938040655,0.24477670485418573,-11.27213342758744,2.6015812712718636,0
311,2024-09-20 20:19:51.873069056,TASK_BEGIN,013,-1.0400539841272225,0.3377472101079736,-4.083858125719275,0.9547549266756368,-1.0971903205310283,0.2379087904659626,-11.593000673883619,2.6721903476232436,0
312,2024-09-20 20:19:51.929629184,TASK_BEGIN,013,-1.0423443988470922,0.3421782861786781,-4.019552734714563,0.9571483057228595,-1.0371592429917333,0.23441818829246616,-11.897502478794738,2.744913000846039,0
313,2024-09-20 20:19:52.006785024,TASK_BEGIN,013,-1.0427082512533936,0.3455473368465865,-3.923779286822605,0.9539969348954496,-0.9904217962760411,0.23514395808162938,-12.168266702112417,2.813318106239388,0
314,2024-09-20 20:19:52.071558912,TASK_BEGIN,013,-1.040489628083256,0.34747376888944115,-3.795301036557854,0.9442567299960851,-0.9593447416374672,0.24058268903210964,-12.38913715045168,2.8714856751040916,0
315,2024-09-20 20:19:52.136465152,TASK_BEGIN,013,-1.034994222554017,0.347624749992165,-3.63585857538287,0.92743014131063,-0.9452220134658731,0.2508102869681247,-12.547081088964283,2.9148618422952763,0
316,2024-09-20 20:19:52.212340992,TASK_BEGIN,013,-1.0255458964739266,0.34573193253048873,-3.450408862790714,0.9036622315436373,-0.9481494418054501,0.26543547718627797,-12.633679110144776,2.940920790548068,0
317,2024-09-20 20:19:53.139670016,TASK_BEGIN,013,-1.0115473542047233,0.34160667629485725,-3.2471080948269497,0.8738022258341402,-0.9669887679267336,0.28359553340338794,-12.64596789036275,2.949473002886878,0
318,2024-09-20 20:19:53.222756096,TASK_BEGIN,013,-0.9925470047513103,0.3351545872693356,-3.036882910553963,0.8393902180683369,-0.9994341648858555,0.3040003027312902,-12.586372721265928,2.9424904178823246,0
319,2024-09-20 20:19:53.278704896,TASK_BEGIN,013,-0.9683057703918474,0.3263877341751718,-2.8325292978606007,0.8025334840312495,-1.0421770901003777,0.32502875614627474,-12.46167121878702,2.9235077536881295,0
320,2024-09-20 20:19:53.358202880,TASK_BEGIN,013,-0.938858319324367,0.3154326295942704,-2.647441259650049,0.7656757431740799,-1.0911434771047195,0.34487354156978695,-12.281369473447096,2.896814748916457,0
321,2024-09-20 20:19:53.426002944,TASK_BEGIN,013,-0.9045627098781968,0.30253262886492643,-2.4941484870252753,0.7312946993948117,-1.1417837769472794,0.3617163137027656,-12.056214686968259,2.866675368652954,0
322,2024-09-20 20:19:53.493715968,TASK_BEGIN,013,-0.8661220991797967,0.2880418118174681,-2.3828145607751883,0.7015568223081586,-1.1894215663089682,0.37391289880184214,-11.797353252708469,2.8367355081085317,0
323,2024-09-20 20:19:53.561201152,TASK_BEGIN,013,-0.8245648100956339,0.27240771071927566,-2.3198108651630025,0.6779506812628221,-1.2296640366232992,0.38017155759995686,-11.516032505719325,2.8096801648317924,0
324,2024-09-20 20:19:54.498756864,TASK_BEGIN,013,-0.7811877341539317,0.25614439610190026,-2.306580608621114,0.6609706388507568,-1.258833314270526,0.3797046061587298,-11.223432884484135,2.7871299988955665,0
325,2024-09-20 20:19:54.561253120,TASK_BEGIN,013,-0.7374726637821648,0.23979944682934765,-2.339180676328113,0.6499852910720172,-1.274327633081123,0.3723229411107858,-10.930399351582441,2.769724452534238,0
326,2024-09-20 20:19:54.631681024,TASK_BEGIN,013,-0.694977848933469,0.22391747102263132,-2.4088352348029884,0.6433867235753616,-1.2748244862361082,0.3584477998308457,-10.647085376244243,2.7572883135121034,0
327,2024-09-20 20:19:54.693766144,TASK_BEGIN,013,-0.6552167614407924,0.2090043429761927,-2.503441308116945,0.6389742425067246,-1.260292138672178,0.3390393006942178,-10.382519943196897,2.748934577504654,0
328,2024-09-20 20:19:54.771398912,TASK_BEGIN,013,-0.6195513425401722,0.1954984393842637,-2.6095225091838503,0.6344067225512555,-1.231828125481686,0.3154622470742742,-10.143989679429758,2.74298564943935,0
329,2024-09-20 20:19:54.843756800,TASK_BEGIN,013,-0.5891191382774937,0.18375243229070093,-2.714001737380631,0.627563786375859,-1.1913838998490054,0.28931712564884376,-9.936223560903803,2.73674612471714,0
330,2024-09-20 20:19:54.911483136,TASK_BEGIN,013,-0.5647930741884212,0.17402373754745554,-2.8054206348077444,0.6167556846631849,-1.1414696783876173,0.26226862735587786,-9.760691985443577,2.7263604746447117,0
331,2024-09-20 20:19:55.830066944,TASK_BEGIN,013,-0.5471599476778808,0.16646949511747502,-2.8745959105880585,0.6008086165243629,-1.084926629726644,0.2359037815346097,-9.615437140029533,2.707008985758428,0
332,2024-09-20 20:19:55.887186944,TASK_BEGIN,013,-0.5365014881705463,0.16114400969586778,-2.9148935975829535,0.579080663448864,-1.0247866689333986,0.2116380793018327,-9.495536445678066,2.6734462495598303,0
333,2024-09-20 20:19:55.965563904,TASK_BEGIN,013,-0.5327728067661326,0.1580000257319699,-2.9223125621707635,0.5514557482628486,-0.9641665313062409,0.19066345603252607,-9.39394618570782,2.620650136524421,0
334,2024-09-20 20:19:56.025410816,TASK_BEGIN,013,-0.5355917967389247,0.15689684894770717,-2.8954995533994023,0.5183344977521609,-0.9061306418408513,0.17391551291555923,-9.302363481283354,2.544383975122192,0
335,2024-09-20 20:19:56.087468032,TASK_BEGIN,013,-0.5442575287691562,0.15761702969801936,-2.8356905091585762,0.4806047559257802,-0.8535136779788957,0.16204800013212606,-9.21186687307223,2.4416635414150076,0
336,2024-09-20 20:19:56.164699904,TASK_BEGIN,013,-0.5578020065208802,0.159891537833727,-2.7464551748361754,0.4395604573366254,-0.8087524942530913,0.15542319800917484,-9.113398693618516,2.311208917167252,0
337,2024-09-20 20:19:56.226342912,TASK_BEGIN,013,-0.5750736168354275,0.16343310922493975,-2.633171915002368,0.3967591936966585,-0.7737632062117744,0.15412192856875193,-8.9983713528109,2.1538596350488417,0
338,2024-09-20 20:19:57.179560704,TASK_BEGIN,013,-0.5948537087324381,0.1679759766902568,-2.5023477723778598,0.3538469256990459,-0.7498478680358457,0.15795849038001122,-8.859537006311001,1.972792376205629,0
339,2024-09-20 20:19:57.247349248,TASK_BEGIN,013,-0.6159863167345487,0.17331406660034016,-2.3609967754848213,0.3123998398361687,-0.7376295014047032,0.1664892944539466,-8.691968670867954,1.7734238498157633,0
340,2024-09-20 20:19:57.303154944,TASK_BEGIN,013,-0.6374719429499205,0.179324527564843,-2.216193529638338,0.27381665405151817,-0.7370581903122938,0.17902004868353139,-8.493908126583564,1.5630570983183756,0
341,2024-09-20 20:19:57.382777856,TASK_BEGIN,013,-0.6584938248016144,0.18596902126072934,-2.0747460348419033,0.23925523841175422,-0.7475007490092918,0.19462474774799404,-8.267253740863444,1.3503704815782456,0
342,2024-09-20 20:19:57.442310144,TASK_BEGIN,013,-0.6783882213596748,0.19327736836575374,-1.942851721097918,0.20958519690889732,-0.7678757507840608,0.2121959836007806,-8.017426266407764,1.144724845489545,0
343,2024-09-20 20:19:57.503431936,TASK_BEGIN,013,-0.6965885103567437,0.2013238343831041,-1.8256665438333424,0.18533724646151364,-0.7968053497019086,0.23054075571430208,-7.752473566470897,0.9552466386594342,0
344,2024-09-20 20:19:57.583698944,TASK_BEGIN,013,-0.7125798119721407,0.21020438961801152,-1.7268476633885832,0.16665699719040042,-0.8327771324758616,0.248509021571942,-7.4816821502656214,0.7898369286339804,0
345,2024-09-20 20:19:58.527561984,TASK_BEGIN,013,-0.725901387838952,0.22001916283240083,-1.6482215481374753,0.1532920345358769,-0.874301962022291,0.26512074086845,-7.214325490746927,0.6544132948525749,0
346,2024-09-20 20:19:58.597368832,TASK_BEGIN,013,-0.736197601341869,0.23085830252503745,-1.5897194984628806,0.1446358622674163,-0.9200369508152529,0.2796607071754627,-6.959106492603978,0.55260949962874,0
347,2024-09-20 20:19:58.659347968,TASK_BEGIN,013,-0.743276472513466,0.24278567635767584,-1.5496267985103551,0.1398307792772207,-0.9688400857201541,0.29172662820444495,-6.724312555202598,0.48592190577033983,0
348,2024-09-20 20:19:58.721394944,TASK_BEGIN,013,-0.7471461110752328,0.25581963805431057,-1.5250931068226032,0.13791507678845044,-1.0197596861227998,0.30123147595197625,-6.518110570077596,0.4541075310436133,0
349,2024-09-20 20:19:58.799089920,TASK_BEGIN,013,-0.7480353587243371,0.2699169009334799,-1.5127934540395722,0.13798727337552175,-1.0719998753794835,0.308369347005814,-6.348378237943601,0.455646243499488,0
350,2024-09-20 20:19:58.861454080,TASK_BEGIN,013,-0.746406784770873,0.28496481438784416,-1.5095909302762691,0.13935504154366343,-1.1248680366874861,0.31355293912111915,-6.222133011866719,0.48822240880871876,0
351,2024-09-20 20:19:58.936027136,TASK_BEGIN,013,-0.7429480729809571,0.30078204634145467,-1.5130609811851201,0.1416462336041358,-1.1776606541559789,0.31732850796376905,-6.14519880049204,0.5492345498329191,0
352,2024-09-20 20:19:59.876337152,TASK_BEGIN,013,-0.7385223849022065,0.31712437167729746,-1.521824418617359,0.14486966818555852,-1.2294934690850041,0.32027848881696724,-6.122501728297432,0.6362492722283474,0
353,2024-09-20 20:19:59.948061952,TASK_BEGIN,013,-0.7340762507594899,0.3336931126964545,-1.5357209732004509,0.14941307551990013,-1.2791637912451181,0.322926791528362,-6.158762416800624,0.7472798444853307,0
354,2024-09-20 20:20:00.000274944,TASK_BEGIN,013,-0.7305286201310267,0.3501475889505373,-1.5558639256099174,0.1559740405828424,-1.3251239338026768,0.325659832058501,-6.259097574528257,0.8808600464013971,0
355,2024-09-20 20:20:00.077473024,TASK_BEGIN,013,-0.7286778979963553,0.36612422626221375,-1.5845570276365726,0.16544107289138302,-1.3655945063164945,0.32867756830363776,-6.429135573715113,1.0359523688078291,0
356,2024-09-20 20:20:00.140233984,TASK_BEGIN,013,-0.7291524105822604,0.38126133251437777,-1.6249667287021374,0.17874235533643298,-1.398816966695792,0.3319949262289722,-6.674495263996616,1.2117377014959585,0
357,2024-09-20 20:20:00.217924096,TASK_BEGIN,013,-0.7324021906756799,0.39522495721614087,-1.6804813229050317,0.19666936059871631,-1.4233830569067893,0.33550014874818324,-6.999709713811645,1.4073412323509575,0
358,2024-09-20 20:20:00.280889856,TASK_BEGIN,013,-0.7387131812230339,0.4077312155722085,-1.7539379898521168,0.21971008396557737,-1.4385116096342465,0.3390430198781582,-7.4066735159294375,1.6215374779626595,0
359,2024-09-20 20:20:01.205344000,TASK_BEGIN,013,-0.7482352436231507,0.418563066704351,-1.8470402188882948,0.24795520096795423,-1.4441796030026495,0.34251330533521085,-7.892689990300109,1.8524446567204287,0
360,2024-09-20 20:20:01.273113088,TASK_BEGIN,013,-0.7610280572873142,0.42758161731927397,-1.9600654319408668,0.281097334850524,-1.4411170447982697,0.34588757112141383,-8.448521530883601,2.0972172756096312,0
361,2024-09-20 20:20:01.339083008,TASK_BEGIN,013,-0.7771158445768233,0.4347310886277999,-2.0917187879750094,0.31847678679622626,-1.4307148109598176,0.3492376778975766,-9.05720205371001,2.3517901678617683,0
362,2024-09-20 20:20:01.400588800,TASK_BEGIN,013,-0.7965238092690825,0.4400356535440941,-2.239062361403654,0.3591269158097785,-1.414866805491835,0.35270006848925844,-9.694194556973985,2.610768255046989,0
363,2024-09-20 20:20:01.476274944,TASK_BEGIN,013,-0.8192712694218532,0.44358812928461294,-2.397614406676689,0.40181539017345236,-1.3957518755364577,0.3564193127701153,-10.328804650299864,2.867519390816089,0
364,2024-09-20 20:20:01.544023808,TASK_BEGIN,013,-0.8453182418315882,0.44553281992526733,-2.561710564021362,0.44510107586933456,-1.3755686846842181,0.3604896890050495,-10.926364619257832,3.114434017236513,0
365,2024-09-20 20:20:01.611740928,TASK_BEGIN,013,-0.8744933371679817,0.4460460188625939,-2.725108040033195,0.48742597453294634,-1.3562423031144106,0.36490764383800967,-11.450979229503368,3.3432881900219478,0
366,2024-09-20 20:20:02.550084864,TASK_BEGIN,013,-0.9064364997070158,0.4453171580534691,-2.881682881135203,0.5272388746973967,-1.339145323512279,0.36953932503985715,-11.868892155675317,3.5457160937540513,0
367,2024-09-20 20:20:02.622268672,TASK_BEGIN,013,-0.9405646033878765,0.44353193090551923,-3.026005929380795,0.563118474491036,-1.3249179311274593,0.37411604502613816,-12.152208402231825,3.7138277492897678,0
368,2024-09-20 20:20:02.686326016,TASK_BEGIN,013,-0.9760589920950157,0.44085896839656924,-3.153699916366609,0.5938769476088718,-1.313447904505843,0.3782669434802765,-12.282221217071495,3.840899668070562,0
369,2024-09-20 20:20:02.748398848,TASK_BEGIN,013,-1.0118871835009555,0.43744401623019513,-3.2616392783153003,0.6186549747859463,-1.3039778335868626,0.3815730826816163,-12.251512609703612,3.9219584598897237,0
370,2024-09-20 20:20:02.826044928,TASK_BEGIN,013,-1.0468698460596155,0.4334155653645235,-3.3480257518673557,0.6370007888983085,-1.2952656068227852,0.3836151649313942,-12.064307749635926,3.9541357462350755,0
371,2024-09-20 20:20:02.894062080,TASK_BEGIN,013,-1.0797880456231506,0.42890052597546396,-3.4122858986486686,0.6488990304711492,-1.2857701961479926,0.3840035286018429,-11.735113430063697,3.936806992893994,0
372,2024-09-20 20:20:02.949270016,TASK_BEGIN,013,-1.10951438266704,0.4240425473885367,-3.4548182327624892,0.6547424696690771,-1.2738774566516327,0.3824030021927389,-11.286394789372832,3.871593498873384,0
373,2024-09-20 20:20:03.890639872,TASK_BEGIN,013,-1.135150198112561,0.4190168136753001,-3.476725051042258,0.655270165448823,-1.2581671553538074,0.3785741635617281,-10.746405682747055,3.762302485895725,0
374,2024-09-20 20:20:03.968269056,TASK_BEGIN,013,-1.1561527571737609,0.41404171169051035,-3.479593366938259,0.651476845375191,-1.2376740205234662,0.37243795637336724,-10.147669552863976,3.61480139806071,0
375,2024-09-20 20:20:04.030300928,TASK_BEGIN,013,-1.1724324452092936,0.40938932371366216,-3.4652898728014305,0.6444832905740984,-1.2120726670425759,0.3641415531295581,-9.52559492870766,3.4367379798268867,0
376,2024-09-20 20:20:04.107929856,TASK_BEGIN,013,-1.1843977792338647,0.4053910024345066,-3.435790877257112,0.6353937391117085,-1.1817644849407645,0.354089788643921,-8.916489688641109,3.2370709444007164,0
377,2024-09-20 20:20:04.176487168,TASK_BEGIN,013,-1.192938975255584,0.4024309730579894,-3.393176706559567,0.6252062865015658,-1.1479081242108513,0.3429275945545481,-8.35486696617079,3.0254844408922796,0
378,2024-09-20 20:20:04.244194048,TASK_BEGIN,013,-1.1993539064694076,0.40092490645364703,-3.3398965752335563,0.6148212535287136,-1.112427486536529,0.3314889320978971,-7.870562485321699,2.8117573569777767,0
379,2024-09-20 20:20:04.308770048,TASK_BEGIN,013,-1.2052183582164637,0.40128583865489187,-3.2792175015023686,0.6051210798594527,-1.077971933156563,0.320729820485448,-7.486303021196726,2.6051068744168386,0
380,2024-09-20 20:20:05.246938112,TASK_BEGIN,013,-1.2122097391568023,0.4038832832408783,-3.215578691020586,0.5970468179351234,-1.0477690461036102,0.311643996922959,-7.216118538001625,2.4135395839184435,0
381,2024-09-20 20:20:05.309565952,TASK_BEGIN,013,-1.221919254361555,0.4090042843281458,-3.154572627507457,0.5916087377318695,-1.025346819187803,0.30515783740210123,-7.064741032290736,2.243311033550917,0
382,2024-09-20 20:20:05.387675136,TASK_BEGIN,013,-1.235698083939621,0.41682554290080515,-3.102438432638954,0.5898111367773,-1.01418862489979,0.30202580626956826,-7.0280068575964725,2.0986290973432467,0
383,2024-09-20 20:20:05.449681920,TASK_BEGIN,013,-1.2545671258465907,0.4274017427141814,-3.065155238020697,0.5925149880279179,-1.0174141615750898,0.302761636366304,-7.09424547166093,1.9816902979342286,0
384,2024-09-20 20:20:05.512166912,TASK_BEGIN,013,-1.279195495292092,0.44066869786523793,-3.0473669188877035,0.6002886243873474,-1.037508391139325,0.3076179440796216,-7.246605387574824,1.8930527892036186,0
385,2024-09-20 20:20:05.592987136,TASK_BEGIN,013,-1.3099224940652998,0.45645370732878693,-3.0514021359755064,0.6132884874550251,-1.076066315657386,0.31659529663656044,-7.465960211893105,1.8322361574211827,0
386,2024-09-20 20:20:05.653897984,TASK_BEGIN,013,-1.3467746093355486,0.47448403714345777,-3.076650311933169,0.631194559913669,-1.133564360331479,0.32945880131084304,-7.733571206201048,1.7983229894872057,0
387,2024-09-20 20:20:06.569472256,TASK_BEGIN,013,-1.389446039865648,0.4943908583673808,-3.1195253483491956,0.6532192053941774,-1.2092164047900826,0.3457603161688581,-8.032715014084012,1.7903372920013847,0
388,2024-09-20 20:20:06.648402944,TASK_BEGIN,013,-1.4372565231486332,0.5157138717536648,-3.1740378535643368,0.6781816698455649,-1.3009428144237007,0.3648707049674518,-8.34916230742476,1.8072900015032527,0
389,2024-09-20 20:20:06.716128256,TASK_BEGIN,013,-1.489122669346189,0.5379120660833884,-3.2326932998009528,0.7046029106124707,-1.405442451162323,0.38601282180431484,-8.670977735109926,1.8479027613066512,0
390,2024-09-20 20:20:06.783926016,TASK_BEGIN,013,-1.5435656820926122,0.5603813271279668,-3.287387230585293,0.7307886873599679,-1.5183731559869533,0.408284475288663,-8.988021750486526,1.9101381583866504,0
391,2024-09-20 20:20:06.851604992,TASK_BEGIN,013,-1.5987621312431501,0.58247823474817,-3.3301948781319766,0.754920798726174,-1.634652034581458,0.4306792991654466,-9.291243673570474,1.99078179454163,0
392,2024-09-20 20:20:06.913831936,TASK_BEGIN,013,-1.6526390858386182,0.6035495151162447,-3.3541224088870147,0.7751921749638723,-1.7488419774123334,0.4521255340063842,-9.572008950130952,2.08531869058436,0
393,2024-09-20 20:20:06.975393024,TASK_BEGIN,013,-1.7030046139486428,0.6229631784431616,-3.35386587604271,0.7899900082463234,-1.855570145510163,0.47155681539182204,-9.821906830649283,2.188174163433935,0
394,2024-09-20 20:20:07.922759936,TASK_BEGIN,013,-1.7476956925124951,0.6401352837959512,-3.3265120543515825,0.7980959434568806,-1.9499575630562296,0.48801240231753723,-10.033183123731687,2.293225794668617,0
395,2024-09-20 20:20:07.983924992,TASK_BEGIN,013,-1.7847363466834179,0.6545514721885222,-3.272029576374839,0.798856980740595,-2.0280389055686983,0.5007448764611893,-10.199507000629016,2.394450199772832,0
396,2024-09-20 20:20:08.062033920,TASK_BEGIN,013,-1.8125065560103275,0.665788311221214,-3.193432368600774,0.7922893454610382,-2.0870985448664134,0.509304944087488,-10.316703137960387,2.4865470596962953,0
397,2024-09-20 20:20:08.133519104,TASK_BEGIN,013,-1.8299005448230863,0.6735372933985763,-3.0965835409465368,0.7790955860579912,-2.125843147996205,0.5135821646568332,-10.383228312155937,2.5653868100839285,0
398,2024-09-20 20:20:08.201243904,TASK_BEGIN,013,-1.8364300991109155,0.6776283733243283,-2.989614169568898,0.7605830500108992,-2.144389243495481,0.5137940491950558,-10.400266566423893,2.6282424588526703,0
399,2024-09-20 20:20:08.268987904,TASK_BEGIN,013,-1.8322407598877617,0.6780480879252618,-2.8819663742440005,0.7384893398291815,-2.1440844468822875,0.5104266182378521,-10.371389995947931,2.6738591477989933,0
400,2024-09-20 20:20:08.336731904,TASK_BEGIN,013,-1.8180472879489926,0.6749483814704361,-2.7832414376462675,0.7147596072341801,-2.127202957795345,0.5041445357621258,-10.301932032397772,2.702365154447095,0
401,2024-09-20 20:20:09.268125952,TASK_BEGIN,013,-1.7950281167565845,0.6686434747531761,-2.702124457965673,0.6913359222147234,-2.0965970899787556,0.4957013690001216,-10.198425897361235,2.715007515255652,0
402,2024-09-20 20:20:09.345793024,TASK_BEGIN,013,-1.7647208089181199,0.6595944887675945,-2.645531122651206,0.6699851877254317,-2.0553938919651706,0.4858717893299842,-10.068362236650705,2.713809273901352,0
403,2024-09-20 20:20:09.415829760,TASK_BEGIN,013,-1.7289308529184328,0.6483836958464727,-2.6179926877524293,0.652155619610639,-2.0067591822390107,0.47540346545809525,-9.920156133940154,2.701295354994178,0
404,2024-09-20 20:20:09.483516928,TASK_BEGIN,013,-1.6896393427841874,0.6356803359970957,-2.621271686913238,0.6388522590065115,-1.953698542114136,0.4649769772453372,-9.763072537081472,2.6803400877518624,0
405,2024-09-20 20:20:09.551243776,TASK_BEGIN,013,-1.6489038267323084,0.6222008957125201,-2.654200485059258,0.6305457945857368,-1.8988995464003404,0.45517777163459683,-9.60709367687715,2.6541020190572473,0
406,2024-09-20 20:20:09.618989056,TASK_BEGIN,013,-1.608770791351847,0.60866985995437,-2.712794495373128,0.6271531972837875,-1.8446544037960784,0.4464943872451969,-9.462729168314606,2.6259598230854335,0
407,2024-09-20 20:20:09.686727936,TASK_BEGIN,013,-1.5712149361144747,0.5957875647430741,-2.790773633745834,0.6281284545568683,-1.7928527803290317,0.4393386460109867,-9.340414059598604,2.5993229276981817,0
408,2024-09-20 20:20:10.629921024,TASK_BEGIN,013,-1.5380927827156983,0.5842066804731654,-2.880525406740074,0.632653619773365,-1.7449878372498555,0.4340629533286285,-9.249267921223687,2.577270542759347,0
409,2024-09-20 20:20:10.696761088,TASK_BEGIN,013,-1.5110851417172966,0.5745126594455964,-2.9742951736459577,0.6398594540386077,-1.7021535910865007,0.43095560949027534,-9.195673982604571,2.562160970661782,0
410,2024-09-20 20:20:10.758727168,TASK_BEGIN,013,-1.4916194068044242,0.5672042889333305,-3.0652651579478607,0.648997534512447,-1.6650533807065937,0.4302158680594933,-9.182270208928307,2.555417129458193,0
411,2024-09-20 20:20:10.820751872,TASK_BEGIN,013,-1.480785610762041,0.562676143410199,-3.148295837225163,0.659531258766154,-1.6340309594698381,0.4319280351263509,-9.207456969083655,2.557541731600006,0
412,2024-09-20 20:20:10.897916928,TASK_BEGIN,013,-1.4792661215816405,0.5612052172474685,-3.220285873292113,0.6711546888350302,-1.6091217603149437,0.4360551804621802,-9.265360192717688,2.568245557190049,0
413,2024-09-20 20:20:10.968587776,TASK_BEGIN,013,-1.487290932909449,0.5629411281864166,-3.2801593930802397,0.6837600560869093,-1.5901138958280043,0.4424512981402401,-9.346309045610218,2.586563459414558,0
414,2024-09-20 20:20:11.036300800,TASK_BEGIN,013,-1.50461972954008,0.567900977278133,-3.3284826067875244,0.6973757868061652,-1.5765910982959486,0.45087066994052144,-9.437865929952553,2.6109606961800527,0
415,2024-09-20 20:20:11.969978880,TASK_BEGIN,013,-1.530543481374691,0.575972090596141,-3.366829253604069,0.7120991272997099,-1.5679408294868973,0.46096181326882996,-9.526448495345184,2.6395439517404293,0
416,2024-09-20 20:20:12.047786752,TASK_BEGIN,013,-1.5639010483982458,0.586923207526169,-3.397148059905372,0.728043779686635,-1.5633543304928152,0.47225608321545437,-9.599422303630902,2.6704077433880893,0
417,2024-09-20 20:20:12.115513088,TASK_BEGIN,013,-1.603117296683435,0.6004214742865097,-3.421314592259258,0.7453103013980633,-1.561853182678845,0.4841697626679409,-9.647073735464021,2.7019437001464235,0
418,2024-09-20 20:20:12.183172864,TASK_BEGIN,013,-1.6462694542092575,0.6160512553061851,-3.440850031138795,0.7639702427951001,-1.5623367582882712,0.4960293077126767,-9.663838659453557,2.732941770876624,0
419,2024-09-20 20:20:12.247770112,TASK_BEGIN,013,-1.6911802547435173,0.6333313721092452,-3.4567112664943807,0.7840450140476926,-1.5636227884355485,0.5071160294594528,-9.648674850966298,2.7625209560346065,0
420,2024-09-20 20:20:12.318674944,TASK_BEGIN,013,-1.7355402805938855,0.6517321162132289,-3.4691718111692325,0.8054724550332687,-1.5644789023747683,0.5167221680598942,-9.604657413803553,2.790002870117218,0
421,2024-09-20 20:20:12.371938048,TASK_BEGIN,013,-1.7770647122728322,0.670697837730891,-3.477921088769054,0.8280794144555198,-1.5636729843142605,0.5242146889277783,-9.537746916770068,2.814730359879967,0
422,2024-09-20 20:20:13.299540992,TASK_BEGIN,013,-1.813666226796502,0.6896774434913482,-3.48241241249766,0.8515805744381506,-1.5600566079209912,0.5291013339917325,-9.454891985962574,2.835798286599442,0
423,2024-09-20 20:20:13.362026752,TASK_BEGIN,013,-1.843603043037928,0.7081571882467149,-3.482284279543628,0.8755951704075252,-1.552656789291589,0.5310813166148707,-9.362073398184865,2.851789423101244,0
424,2024-09-20 20:20:13.438917120,TASK_BEGIN,013,-1.8655724071726076,0.725686712023231,-3.477587724338665,0.8996485287895443,-1.540747802802182,0.5300642091868418,-9.26298388928933,2.860687267243736,0
425,2024-09-20 20:20:13.500508928,TASK_BEGIN,013,-1.8787420141976667,0.7418917638841918,-3.468650078483457,0.9231291736413163,-1.5239126528172058,0.5261648985899315,-9.158594266296278,2.8600291991598445,0
426,2024-09-20 20:20:13.562541056,TASK_BEGIN,013,-1.8827249315655825,0.756472550901983,-3.4556383541480877,0.9452075875378878,-1.5021200148762208,0.519695766697334,-9.047409303831559,2.847237640567897,0
427,2024-09-20 20:20:13.642569984,TASK_BEGIN,013,-1.8775214325172265,0.7691936700471045,-3.4380872168900662,0.9647675621951927,-1.4758076640815707,0.5111593975967047,-8.92627011131071,2.8200737573310577,0
428,2024-09-20 20:20:13.710290944,TASK_BEGIN,013,-1.863463938342641,0.7798761679975322,-3.4146634722678435,0.980412633545653,-1.445928860949852,0.5012277492253449,-8.791641293851963,2.777151061102263,0
429,2024-09-20 20:20:14.645645056,TASK_BEGIN,013,-1.8411841032396774,0.7883985043574907,-3.383293262158615,0.9905757127204002,-1.4139325308794577,0.4907008913860101,-8.640958545688745,2.7183504266917295,0
430,2024-09-20 20:20:14.721975040,TASK_BEGIN,013,-1.8115880063614953,0.7947028607648929,-3.341602201802559,0.9937095249826876,-1.3816786098160505,0.4804491614690026,-8.473474883312583,2.644978237781932,0
431,2024-09-20 20:20:14.784442880,TASK_BEGIN,013,-1.775815746916136,0.7987974435459299,-3.287465508733168,0.9885040817667767,-1.3512884292047211,0.4713416496086311,-8.290526745405439,2.559652206342066,0
432,2024-09-20 20:20:14.846476032,TASK_BEGIN,013,-1.7351818753007024,0.8007503323386518,-3.219430877064906,0.9740787588166783,-1.3249275848827669,0.46416824961553405,-8.095483849881594,2.466002589898102,0
433,2024-09-20 20:20:14.925165056,TASK_BEGIN,013,-1.6911055510710915,0.8006780052526168,-3.136951722485302,0.9501173458266174,-1.3045406325295916,0.45956954091580343,-7.8934700047522535,2.3682655937335513,0
434,2024-09-20 20:20:14.992914688,TASK_BEGIN,013,-1.645030329293293,0.7987323254621501,-3.0405922658968296,0.9169383955599217,-1.2915648673177063,0.4579773928529002,-7.690765996660687,2.270812726512685,0
435,2024-09-20 20:20:15.048188928,TASK_BEGIN,013,-1.5983347760239446,0.7950863821616319,-2.9323364278672295,0.875506672096617,-1.286668714785586,0.4595611840832175,-7.493992090998097,2.177681675824728,0
436,2024-09-20 20:20:16.001230848,TASK_BEGIN,013,-1.5522519099001388,0.7899196091295697,-2.8158553313458827,0.8273787596128923,-1.2896190150462414,0.46419401877597566,-7.309482762381894,2.0922238412206626,0
437,2024-09-20 20:20:16.065224192,TASK_BEGIN,013,-1.507816454240692,0.7834051519243914,-2.6964140514304042,0.7745601270547061,-1.2993729003269974,0.4714650301997455,-7.143144686789271,2.0169371814648507,0
438,2024-09-20 20:20:16.125788160,TASK_BEGIN,013,-1.4658388730797165,0.7757022858575364,-2.580263725625422,0.7192791442538226,-1.3143603464869618,0.48073994741782305,-7.000509283446511,1.9534068802411848,0
439,2024-09-20 20:20:16.207283968,TASK_BEGIN,013,-1.4268914089905824,0.7669541000339327,-2.473726133339737,0.663737671291582,-1.332813084535524,0.4912424845865474,-6.886505707994287,1.9022525075181043,0
440,2024-09-20 20:20:16.265029120,TASK_BEGIN,013,-1.391302242384691,0.7572900292615897,-2.3823621519029254,0.6099112896629684,-1.353012479355856,0.5021266677716291,-6.804953868763862,1.8631150204284017,0
441,2024-09-20 20:20:16.328674048,TASK_BEGIN,013,-1.359176397716697,0.7468350098577322,-2.3104361389269377,0.5594311035217259,-1.3734111657924855,0.5125298721182071,-6.758079097038864,1.8347516527899914,0
442,2024-09-20 20:20:16.410440960,TASK_BEGIN,013,-1.3304603783847406,0.7357268941007941,-2.260602154877943,0.51353214999565,-1.3926363452508108,0.5216114276604603,-6.746125684661078,1.8151984156074243,0
443,2024-09-20 20:20:17.328957952,TASK_BEGIN,013,-1.305032494448501,0.7241370332191306,-2.2336897029647904,0.4730444983893395,-1.4094061081493463,0.5285821925362273,-6.767000413863987,1.8019178126439745,0
444,2024-09-20 20:20:17.391443200,TASK_BEGIN,013,-1.282780405933032,0.7122826784054956,-2.2286173122609845,0.4384233689798905,-1.4224214734454035,0.5327324212298028,-6.816099275034242,1.7919002460449591,0
445,2024-09-20 20:20:17.465253120,TASK_BEGIN,013,-1.2636525224289856,0.7004242902538002,-2.242538438067191,0.40981895289393266,-1.4303175078893207,0.5334724465025161,-6.886583263885009,1.7817273662165105,0
446,2024-09-20 20:20:17.530342912,TASK_BEGIN,013,-1.2476989872369606,0.68885154564485,-2.2712217971057718,0.38716272099615506,-1.4317315769387957,0.5303940401751295,-6.970128055220711,1.7676744391148664,0
447,2024-09-20 20:20:17.600784128,TASK_BEGIN,013,-1.235109956045891,0.677866246324694,-2.309514906141735,0.37023191244132964,-1.4254793284495695,0.5233350140571447,-7.057866219746435,1.7460081627365802,0
448,2024-09-20 20:20:17.660708864,TASK_BEGIN,013,-1.226232475618677,0.6677659582825517,-2.3517341207059586,0.3586726775585355,-1.4107661141667975,0.5124136110484211,-7.141098075400101,1.7135302311248573,0
449,2024-09-20 20:20:17.736262912,TASK_BEGIN,013,-1.221542828341624,0.6588268028382717,-2.392009589118293,0.35200087098139526,-1.3873655992214442,0.49801853524790973,-7.211550888643834,1.668187768298742,0
450,2024-09-20 20:20:18.673188864,TASK_BEGIN,013,-1.2215745807924832,0.6512840835178454,-2.4247419698399537,0.34962076117874546,-1.3557421378800443,0.4807731237383609,-7.2614689902387415,1.6095323475525936,0
451,2024-09-20 20:20:18.735248896,TASK_BEGIN,013,-1.2268257945660959,0.645314018622952,-2.445184473617188,0.350876204594356,-1.3170935578108367,0.4614944751491613,-7.284030169796397,1.5389484400237725,0
452,2024-09-20 20:20:18.815339008,TASK_BEGIN,013,-1.2376705985425973,0.6410216775646072,-2.449937287863718,0.35510491217306095,-1.2732751989608593,0.4411451012299616,-7.274228468484069,1.4596532970550622,0
453,2024-09-20 20:20:18.875236096,TASK_BEGIN,013,-1.2542842583256566,0.6384365058282669,-2.437147665919974,0.36166315170017344,-1.2266147615080598,0.4207684489623709,-7.229905711994769,1.3764836859077971,0
454,2024-09-20 20:20:18.937724160,TASK_BEGIN,013,-1.2765819612239937,0.637513564902112,-2.4064201452814205,0.3699200917144544,-1.1796880971003958,0.40141712460817774,-7.152409041616298,1.2954736990588747,0
455,2024-09-20 20:20:19.018532096,TASK_BEGIN,013,-1.3041809539592453,0.6381390579322133,-2.358599454435809,0.3792463361099404,-1.1351033737433833,0.38408876615054655,-7.046394527873289,1.2231695593374172,0
456,2024-09-20 20:20:19.086312960,TASK_BEGIN,013,-1.3363935254472368,0.6401380346484599,-2.2955933770486894,0.38903207932460937,-1.0952827167153054,0.36966806623757203,-6.91864439899667,1.165677721118429,0
457,2024-09-20 20:20:20.029341952,TASK_BEGIN,013,-1.3722367597186202,0.6432812607500953,-2.220343728819404,0.3987611031175894,-1.0622426760351305,0.35886480432762463,-6.776320250141065,1.127668617195351,0
458,2024-09-20 20:20:20.097655040,TASK_BEGIN,013,-1.41044892468817,0.6472935402368157,-2.136988765508081,0.40813183803033876,-1.037439405865807,0.352154138864368,-6.625395122701037,1.1116764728148645,0
459,2024-09-20 20:20:20.153404160,TASK_BEGIN,013,-1.4495357407525329,0.6518710701869072,-2.0511273706153608,0.41717809353270435,-1.0217577404294491,0.3497436984110147,-6.46986657868242,1.1178993338276204,0
460,2024-09-20 20:20:20.233156864,TASK_BEGIN,013,-1.4878720911668861,0.6567090538792388,-1.9699210142162504,0.42632502969090624,-1.015645491605337,0.35158646483057265,-6.311954866153143,1.144476621686984,0
461,2024-09-20 20:20:20.292774912,TASK_BEGIN,013,-1.5238435249459044,0.6615300073538943,-1.9017605325312752,0.43633372978266816,-1.0192859072250828,0.357431369821821,-6.153060680453673,1.1880275149255042,0
462,2024-09-20 20:20:20.355681024,TASK_BEGIN,013,-1.5559858802432778,0.6661032403958735,-1.8554317888288294,0.4481335500858781,-1.0326538808098535,0.36687413892451415,-5.994972665340539,1.2441837264957547,0
463,2024-09-20 20:20:20.433645056,TASK_BEGIN,013,-1.5830956106028593,0.6702538819548486,-1.8389564274565093,0.4625902654506835,-1.0553730055052197,0.37936689395881773,-5.840830047330812,1.3080223332234007,0
464,2024-09-20 20:20:21.373495040,TASK_BEGIN,013,-1.6043066317487746,0.673863928430875,-1.8584408503369167,0.4802880995384146,-1.0864581229372625,0.3941848551075219,-5.695557097176005,1.3744852030512413,0
465,2024-09-20 20:20:21.435981824,TASK_BEGIN,013,-1.6191378442468172,0.6768677670723972,-1.9172691135869229,0.5013928938501044,-1.1241373083793038,0.41039815139876623,-5.565706709897752,1.4388469724691832,0
466,2024-09-20 20:20:21.515497728,TASK_BEGIN,013,-1.627507850213278,0.6792444609563802,-2.0157834237328687,0.5256144729077983,-1.1658708955674049,0.4268981016952521,-5.458869351225894,1.4972042911422139,0
467,2024-09-20 20:20:21.574653952,TASK_BEGIN,013,-1.6297063911690468,0.6810086240230655,-2.151395674959554,0.5522506176175696,-1.208552431705535,0.4424855836047581,-5.382941020674684,1.5469675324673486,0
468,2024-09-20 20:20:21.650974208,TASK_BEGIN,013,-1.626328364953512,0.682201644962854,-2.319033838562402,0.5802949629731844,-1.2488540841883702,0.45599722273690046,-5.345409050895594,1.5873269249691848,0
469,2024-09-20 20:20:21.718714112,TASK_BEGIN,013,-1.618198834881106,0.682885681467418,-2.5117892507597923,0.6085854913115293,-1.283681713882571,0.46643716572703264,-5.3524929509030175,1.6195344552528386,0
470,2024-09-20 20:20:21.781853952,TASK_BEGIN,013,-1.6063078659540369,0.6831413833650769,-2.7215490098381587,0.6359543162558873,-1.310633252475821,0.47308191489421736,-5.407948085385978,1.6467718855701605,0
471,2024-09-20 20:20:22.716629760,TASK_BEGIN,013,-1.5917444370998823,0.6830667583445613,-2.9394872017097784,0.6613493149559253,-1.3283147698577933,0.47553758031095444,-5.511828719630743,1.673549126673161,0
472,2024-09-20 20:20:22.793381888,TASK_BEGIN,013,-1.5756098452138299,0.6827728684420449,-3.156481138120394,0.683923344725316,-1.3364404430845425,0.47375010448657684,-5.659838325975413,1.7048033523511767,0
473,2024-09-20 20:20:22.854904832,TASK_BEGIN,013,-1.5589091717976535,0.6823739559805166,-3.3635737785015305,0.7030958035908348,-1.335737079257715,0.46797572879068366,-5.843455169692773,1.744902919139503,0
474,2024-09-20 20:20:22.932537088,TASK_BEGIN,013,-1.5424456194086011,0.6819736414617846,-3.552513850154973,0.7185851230920837,-1.3277170353394203,0.45871627941081444,-6.050487516888192,1.796741696943974,0
475,2024-09-20 20:20:23.001542912,TASK_BEGIN,013,-1.526757028946717,0.6816515800564668,-3.7162946952670675,0.7304070630560398,-1.3143916336111832,0.4466333831074151,-6.265851512367598,1.861150806396944,0
476,2024-09-20 20:20:23.057059072,TASK_BEGIN,013,-1.512118854718575,0.6814538208924773,-3.849623493661039,0.7388460394193211,-1.297988732639936,0.43246627545463245,-6.4726754845184225,1.9367727498193805,0
477,2024-09-20 20:20:23.137037056,TASK_BEGIN,013,-1.4985997852696884,0.6813876293454434,-3.949345726239835,0.7444229861750907,-1.280717655269502,0.4169706081022063,-6.6537511991445255,2.0203360115006266,0
478,2024-09-20 20:20:24.041284096,TASK_BEGIN,013,-1.48613024776382,0.6814204365913056,-4.01480761006687,0.747875738741349,-1.2646022385545739,0.4008798161110001,-6.793157578904436,2.107142182802119,0
479,2024-09-20 20:20:24.119580160,TASK_BEGIN,013,-1.4745498055369852,0.6814807422709203,-4.048009212587505,0.7501384113521201,-1.2513850431127618,0.3848829855176417,-6.877839687703718,2.191592504408487,0
480,2024-09-20 20:20:24.191184128,TASK_BEGIN,013,-1.4636249377728239,0.6814583793801079,-4.05338077545124,0.75228262832429,-1.2424858741273357,0.36961457658962976,-6.898931935242238,2.267700777854297,0
481,2024-09-20 20:20:24.258810112,TASK_BEGIN,013,-1.4530516191352705,0.6812057352953309,-4.0370628547044225,0.7553862212926205,-1.2389697044593981,0.35565184543982803,-6.852569606419378,2.3296424487314082,0
482,2024-09-20 20:20:24.320826880,TASK_BEGIN,013,-1.4424554302716597,0.6805424785965173,-4.005680461676661,0.7603299504081451,-1.2414765932777334,0.3435102683887184,-6.739936556837679,2.3723244306117754,0
483,2024-09-20 20:20:24.394375936,TASK_BEGIN,013,-1.4313869254707554,0.6792616005396167,-3.9649013618841504,0.7675782332848018,-1.25011572371891,0.3336233816213266,-6.56657865146248,2.3918601907280035,0
484,2024-09-20 20:20:24.462109184,TASK_BEGIN,013,-1.4193192793673715,0.6771345541564996,-3.918345485187241,0.7770337299480568,-1.2643775450085326,0.32630427481985547,-6.341397382244716,2.385894175680459,0
485,2024-09-20 20:20:25.396620032,TASK_BEGIN,013,-1.405672521003856,0.6739174908906412,-3.8672443650212496,0.7880259011486875,-1.2831164871035392,0.3217073160714311,-6.075706754448042,2.3537992203450564,0
486,2024-09-20 20:20:25.458615040,TASK_BEGIN,013,-1.3898717887124858,0.6693599743735026,-3.8107692117941014,0.7994244768169333,-1.3046231211449508,0.3198143959155034,-5.7823929439104,2.2967278155635733,0
487,2024-09-20 20:20:25.541304320,TASK_BEGIN,013,-1.3714157290172655,0.6632144055823532,-3.746744577130052,0.8098321079105409,-1.3267853579253401,0.3204515460195268,-5.475138749493241,2.2174682726279307,0
488,2024-09-20 20:20:25.608966144,TASK_BEGIN,013,-1.3499202861500648,0.6552439194334009,-3.6726105560905564,0.8178182964733928,-1.3473189826554204,0.3233208882649568,-5.16782603029145,2.120109711279661,0
489,2024-09-20 20:20:25.667027712,TASK_BEGIN,013,-1.3251152280297231,0.6452278739159555,-3.586493715756488,0.8221539344355846,-1.364011793412187,0.3280266268226864,-4.874149723209526,2.009551979067977,0
490,2024-09-20 20:20:25.729059072,TASK_BEGIN,013,-1.2968032882301477,0.6329672120115863,-3.4880520223894615,0.8219856136923499,-1.374935658546742,0.334088117964276,-4.607213685467143,1.8909146720984575,0
491,2024-09-20 20:20:25.806674176,TASK_BEGIN,013,-1.2648205099679533,0.6182949494313095,-3.378804353799069,0.8169001918742095,-1.3786422152781652,0.34095835000473995,-4.378823988510902,1.7689664469548838,0
492,2024-09-20 20:20:26.749396992,TASK_BEGIN,013,-1.2290289286642382,0.6010943575068883,-3.261943220698749,0.806878812272352,-1.3743548147773452,0.3480694642007423,-4.198411802887234,1.6477262526947718,0
493,2024-09-20 20:20:26.811024896,TASK_BEGIN,013,-1.1893439173333638,0.5813203313969959,-3.1417970200187724,0.7921853696758828,-1.362093137151309,0.354899162614396,-4.071805719687567,1.530312532961664,0
494,2024-09-20 20:20:26.887752960,TASK_BEGIN,013,-1.145781227430543,0.5590164267050893,-3.023085873299744,0.7732490166107968,-1.3426498364382284,0.36102852961125304,-4.000279270277813,1.4190176952752134,0
495,2024-09-20 20:20:26.949826048,TASK_BEGIN,013,-1.0985091574866668,0.534325004459313,-2.9100669357091307,0.7505795094204395,-1.317408169104262,0.36616799204451234,-3.980285627364708,1.315530431804908,0
496,2024-09-20 20:20:27.011383040,TASK_BEGIN,013,-1.0478933543536815,0.5074931308399626,-2.8056963040250364,0.7247175095647712,-1.2880601523562372,0.37015124363265617,-4.00404257659533,1.2212184071171044,0
497,2024-09-20 20:20:27.094459904,TASK_BEGIN,013,-0.9945122386892546,0.47887353501676894,-2.71105268537056,0.6962025238279349,-1.2563186498167813,0.3729123038730094,-4.060852431583394,1.1374066492741772,0
498,2024-09-20 20:20:27.162185728,TASK_BEGIN,013,-0.9391220875564268,0.4489147378786854,-2.625289689186252,0.6655484267764115,-1.2237048470174594,0.37445533282079657,-4.138871613662354,1.0655783838712638,0
499,2024-09-20 20:20:28.101211904,TASK_BEGIN,013,-0.8825809930436392,0.4181381181001976,-2.546142556930951,0.6332309206929289,-1.191429291487443,0.37481274060955483,-4.22696909269619,1.007387218298706,0
500,2024-09-20 20:20:28.164112128,TASK_BEGIN,013,-0.8257643803078506,0.38710626893592986,-2.4707367424079707,0.5996963790799399,-1.1603343738103953,0.3739895524060744,-4.316303238247786,0.964436707782285,0
501,2024-09-20 20:20:28.226142720,TASK_BEGIN,013,-0.769496502109123,0.35638827325292655,-2.3964093211770923,0.5653968510244167,-1.1308864861101728,0.37191087161057873,-4.401203817829365,0.9379300867326414,0
502,2024-09-20 20:20:28.303353088,TASK_BEGIN,013,-0.7145059302239537,0.326526484392684,-2.3213393167924012,0.5308427626424014,-1.1032400183855795,0.3684022344228347,-4.478965577614353,0.9283099323745274,0
503,2024-09-20 20:20:28.376390912,TASK_BEGIN,013,-0.6614002290534495,0.298007027105824,-2.244840486828893,0.4966428658428578,-1.0773628652460836,0.3632235204540742,-4.548660750106872,0.9349173605884429,0
504,2024-09-20 20:20:28.442521088,TASK_BEGIN,013,-0.6106454250522685,0.2712327478488394,-2.167305632919546,0.4634946069574352,-1.0531474239695495,0.35614579596061896,-4.609874367834798,0.9557263388612677,0
505,2024-09-20 20:20:28.504081152,TASK_BEGIN,013,-0.5625461476549383,0.24649912643100302,-2.0899526036589275,0.43212057663627274,-1.0304392890147596,0.3470319842350209,-4.662308126770141,0.987307987636604,0
506,2024-09-20 20:20:29.414895872,TASK_BEGIN,013,-0.5172442328760901,0.22397934826167218,-2.0145110958551715,0.4031830534042744,-1.0090031677585438,0.33588285842336263,-4.706225667898321,1.0251311423908371,0
507,2024-09-20 20:20:29.493012992,TASK_BEGIN,013,-0.47475058820568555,0.20372458745560235,-1.9428921033309743,0.3772076302745949,-0.9884965019991391,0.32283284812336077,-4.742934006912897,1.064133334838786,0
508,2024-09-20 20:20:29.554579200,TASK_BEGIN,013,-0.4349965957635107,0.1856786913381241,-1.876880278717067,0.35452950579869735,-0.9684892261798627,0.3081076829768434,-4.774678930723083,1.0993678308257042,0
509,2024-09-20 20:20:29.632327936,TASK_BEGIN,013,-0.3978757721320354,0.1697011903828519,-1.8179465796325565,0.33527193517413795,-0.9485177022050892,0.29197523494064187,-4.803895575382151,1.1265234172168261,0
510,2024-09-20 20:20:29.701023232,TASK_BEGIN,013,-0.36326105348463905,0.15559324325542048,-1.767230520557456,0.3193566495709058,-0.9281375286536107,0.2747156312080881,-4.832189874030557,1.1422408537965913,0
511,2024-09-20 20:20:29.768756992,TASK_BEGIN,013,-0.3310021129236377,0.14312312457099788,-1.7255735161818497,0.3065225059200679,-0.9069352525600136,0.2566067162084297,-4.8596697879488016,1.144305653573857,0
512,2024-09-20 20:20:29.836466944,TASK_BEGIN,013,-0.3009128107190718,0.13204711215764445,-1.6934709991119683,0.29633723085651437,-0.8844834192441998,0.23790169520339824,-4.885072882993258,1.1318156136503021,0
513,2024-09-20 20:20:30.772686080,TASK_BEGIN,013,-0.2727698111704398,0.12212284276787123,-1.6710076494677,0.2882267844006494,-0.8602949943161141,0.2187974250364417,-4.9065960045006785,1.1053280910140955,0
514,2024-09-20 20:20:30.847895040,TASK_BEGIN,013,-0.24635152765967233,0.1131177717910269,-1.6578624548233978,0.2815430743125891,-0.8338730615797466,0.19942054702617268,-4.92293429770496,1.066921267831239,0
515,2024-09-20 20:20:30.911894016,TASK_BEGIN,013,-0.2215206973450508,0.10481896689352234,-1.6532906027868752,0.2756408344135111,-0.8048771700596291,0.17984711039329535,-4.934063994854887,1.0201080495913262,0
516,2024-09-20 20:20:30.973422080,TASK_BEGIN,013,-0.19832209110324042,0.09704874995610278,-1.6560153678013312,0.26992003682785215,-0.7733274051903409,0.16014342283235097,-4.941575373315267,0.969580594085653,0
517,2024-09-20 20:20:31.035909888,TASK_BEGIN,013,-0.1770677384981428,0.08968597562194719,-1.664160553005587,0.2638315662920829,-0.7397524341199785,0.1404100388970325,-4.948627300518605,0.9207820591125098,0
518,2024-09-20 20:20:31.118326784,TASK_BEGIN,013,-0.15838960261872734,0.08268701429099834,-1.6753655963494076,0.25687940935878434,-0.7052265128243073,0.12081480447586378,-4.959719066954246,0.8793285169135786,0
519,2024-09-20 20:20:31.175695872,TASK_BEGIN,013,-0.14323337840731884,0.07609710453032797,-1.6870691052836537,0.24864237571297285,-0.6712817045707898,0.10160369890070985,-4.98041818754513,0.8503721792264063,0
520,2024-09-20 20:20:32.129894144,TASK_BEGIN,013,-0.13277475225372765,0.0700459959618115,-1.6968337891394647,0.23880744527958667,-0.6397169570394052,0.08308717090140118,-5.01705951530099,0.8380418376578398,0
521,2024-09-20 20:20:32.197952768,TASK_BEGIN,013,-0.12826647452617737,0.06472941276083621,-1.702570581930536,0.22719710161112433,-0.6123328325226148,0.06560490101956695,-5.076371206764482,0.8450812905672909,0
522,2024-09-20 20:20:32.265644032,TASK_BEGIN,013,-0.13084282945381792,0.060381708593901254,-1.7025954832935684,0.21378703889531303,-0.5906164553123722,0.04946974299743076,-5.165017032655041,0.8727550313071891,0
523,2024-09-20 20:20:32.333358848,TASK_BEGIN,013,-0.14131660552024228,0.05724440256754401,-1.6955667795100404,0.19871896722996543,-0.5754375136204313,0.034900698900865716,-5.289113245491529,0.9209807777427207,0
524,2024-09-20 20:20:32.392759040,TASK_BEGIN,013,-0.16001381496849224,0.05553590782152645,-1.6804038570647455,0.18230868224506472,-0.5668558648097906,0.02197276327971363,-5.453744943777011,0.988537850353915,0
525,2024-09-20 20:20:32.468892160,TASK_BEGIN,013,-0.18668886515424407,0.055428448374227675,-1.6562807516944509,0.16505262300730095,-0.5641022342359525,0.010609891960945394,-5.662438711935847,1.0732420992290845,0
526,2024-09-20 20:20:32.536546816,TASK_BEGIN,013,-0.22054327967816076,0.05703527625765558,-1.6227558618538533,0.14764136427242136,-0.565702036771917,0.0006212899120236915,-5.9165930352350395,1.1721061195052205,0
527,2024-09-20 20:20:33.471254272,TASK_BEGIN,013,-0.2603465689973138,0.06040753551550207,-1.5800087630499642,0.13097027060951086,-0.569671485976198,-0.008241027755759522,-6.214873816537089,1.2815186122308038,0
528,2024-09-20 20:20:33.533737728,TASK_BEGIN,013,-0.30462781086970964,0.06553853318788956,-1.529033361874526,0.11611222242670961,-0.5737546169846783,-0.016225144024558286,-6.552502276114901,1.397412217255987,0
529,2024-09-20 20:20:33.615782912,TASK_BEGIN,013,-0.35188241956979005,0.07237430866371848,-1.4716050905789884,0.10422085601741098,-0.5757053901185867,-0.02353393449892424,-6.920447654671814,1.5153547471692925,0
530,2024-09-20 20:20:33.675890944,TASK_BEGIN,013,-0.40074305954299844,0.08083000711321515,-1.4099384606154821,0.09636100406200819,-0.5735821536915585,-0.03029767581048896,-7.3047948768450555,1.6305091978839537,0
531,2024-09-20 20:20:33.751215872,TASK_BEGIN,013,-0.4500892311989786,0.09080756406144602,-1.3461130382455195,0.09329511107849905,-0.5659735783062888,-0.036566639657942684,-7.686741823859131,1.73752014078156,0
532,2024-09-20 20:20:33.815122944,TASK_BEGIN,013,-0.49909397087526475,0.10220716481910225,-1.2814853489234685,0.09528335798850089,-0.55209466395673,-0.04232123450954789,-8.04364421617856,1.8305440543472993,0
533,2024-09-20 20:20:33.876713216,TASK_BEGIN,013,-0.5472158464235581,0.11492860876699666,-1.2163290805732012,0.10196486532564165,-0.5317552330117339,-0.0474981711534675,-8.351193982317312,1.9036146322502243,0
534,2024-09-20 20:20:34.826135040,TASK_BEGIN,013,-0.5941428902734904,0.12886355522576054,-1.1498078838721086,0.11235623451367047,-0.5052611266820632,-0.0520252902847513,-8.586269362522334,1.9512929520517306,0
535,2024-09-20 20:20:34.888052992,TASK_BEGIN,013,-0.639703672444276,0.143883168004049,-1.0802078449023143,0.12495702922902535,-0.4733339351658299,-0.05584004791389204,-8.729615631529569,1.9693512246484794,0
536,2024-09-20 20:20:34.965889024,TASK_BEGIN,013,-0.6837790100972301,0.1598294120373175,-1.0053180191474502,0.1379385603782275,-0.4371022588936792,-0.058866335514370295,-8.767633433732222,1.955239475369548,0
537,2024-09-20 20:20:35.027839744,TASK_BEGIN,013,-0.726242815408175,0.17651617350355137,-0.9229155479744651,0.149396851310037,-0.3981380277746684,-0.060954050809869,-8.693041945315695,1.9082363911502658,0
538,2024-09-20 20:20:35.089839872,TASK_BEGIN,013,-0.7669317870709891,0.19373784086476672,-0.8313301842813635,0.1576292244929674,-0.3584523667715836,-0.061815122115628014,-8.504705239699355,1.8293840146717248,0
539,2024-09-20 20:20:35.168956160,TASK_BEGIN,013,-0.8056230071328154,0.21127729876119714,-0.7299975833405721,0.16137033686050822,-0.32037749792199566,-0.060997323744469006,-8.207179378122,1.7214177216202144,0
540,2024-09-20 20:20:35.236674048,TASK_BEGIN,013,-0.8420001671252498,0.2289061397530724,-0.6198674971515433,0.15994272308975008,-0.2863293116925804,-0.05792835972505423,-7.810332366424211,1.588812565553972,0
541,2024-09-20 20:20:36.177073920,TASK_BEGIN,013,-0.8756182589248093,0.24637689555727627,-0.5035767602183325,0.15332057070506144,-0.2585254635869782,-0.05203047532866634,-7.3289307717643775,1.4378517810827174,0
542,2024-09-20 20:20:36.247271936,TASK_BEGIN,013,-0.9059141355847369,0.26341810458088855,-0.3853452422554323,0.1421240418528488,-0.23878009380579646,-0.042855150164669016,-6.781920881784905,1.276491519361422,0
543,2024-09-20 20:20:36.315886848,TASK_BEGIN,013,-0.9322973905181048,0.2797460460234947,-0.2705536292629671,0.12754880929993545,-0.22845301496758308,-0.03017109417908925,-6.191223964648937,1.113839587358908,0
544,2024-09-20 20:20:36.383585024,TASK_BEGIN,013,-0.9542882473357434,0.29509364845843844,-0.1650282748839218,0.11123087126284653,-0.2285097613932399,-0.013983323315898409,-5.579932253111699,0.9592318110078013,0
545,2024-09-20 20:20:36.440162816,TASK_BEGIN,013,-0.9716333272447626,0.30924161413991935,-0.07425620232118336,0.09507312361116628,-0.2395695964402282,0.005483913861672897,-4.970139110285473,0.8210973249095745,0
546,2024-09-20 20:20:36.517509888,TASK_BEGIN,013,-0.9843657316789263,0.322037598237464,-0.0028920321157446635,0.08108468561021964,-0.2618638675136211,0.02779813786706958,-4.38126334587887,0.7059596831464482,0
547,2024-09-20 20:20:36.581990912,TASK_BEGIN,013,-0.9928129788737791,0.333399930559884,0.04523744876963519,0.0712631539308067,-0.29513412152234564,0.05231983737310341,-3.829719907078748,0.6178990146572517,0
548,2024-09-20 20:20:37.531038976,TASK_BEGIN,013,-0.9975511475660955,0.34330657883729204,0.0668058847084604,0.06749472957350937,-0.3385510150765858,0.07822671875443604,-3.3298236922539934,0.5585602541227065,0
549,2024-09-20 20:20:37.598775808,TASK_BEGIN,013,-0.9993025783048136,0.3517711413493864,0.058755930013272506,0.0714165679266867,-0.3907030495063274,0.10458038391111153,-2.8948848721322142,0.5275183496323603,0
550,2024-09-20 20:20:37.655886080,TASK_BEGIN,013,-0.9988028444507189,0.35881358710683986,0.018398185910969905,0.08422956059354492,-0.44966339570203545,0.1304165008741542,-2.5374666325254394,0.5227439163113612,0
551,2024-09-20 20:20:37.733993984,TASK_BEGIN,013,-0.99668141403331,0.36443649955110696,-0.056324966559835904,0.10652955457685968,-0.5131421214240257,0.15483390086301818,-2.268581255351798,0.54103482739795,0
552,2024-09-20 20:20:37.795656960,TASK_BEGIN,013,-0.9933887220854892,0.36861315594898064,-0.16665825076090435,0.13823384488162035,-0.5787317345926952,0.1770790140414092,-2.096397531062016,0.5784059625039222,0
553,2024-09-20 20:20:37.869672192,TASK_BEGIN,013,-0.9891815381050278,0.37128967677423974,-0.3129288307133868,0.17861114884408694,-0.6442095929206145,0.1966214824153439,-2.0251648732678094,0.6304743882155789,0
554,2024-09-20 20:20:37.934438912,TASK_BEGIN,013,-0.98416266407541,0.3724011881517813,-0.4943845011560298,0.22637691064736562,-0.7077949876139404,0.2131949656707549,-2.0546219364135796,0.6928364316797431,0
555,2024-09-20 20:20:38.850251008,TASK_BEGIN,013,-0.9783579455264627,0.3718976776873944,-0.7089650317523776,0.2798194628807161,-0.7682566659128612,0.22678068171926288,-2.179743197792575,0.7613521686550637,0
556,2024-09-20 20:20:38.912739072,TASK_BEGIN,013,-0.9718067047038582,0.36977229872225387,-0.9531302540438457,0.33693874404025465,-0.8248595780971671,0.23754669465312345,-2.3906167856343687,0.8322589149631995,0
557,2024-09-20 20:20:38.991662080,TASK_BEGIN,013,-0.9646420309462117,0.3660855629804422,-1.2218529482971858,0.39559572972886464,-0.877240126327504,0.24578038407449387,-2.6724537363612506,0.9021546458405854,0
558,2024-09-20 20:20:39.051970048,TASK_BEGIN,013,-0.9571378983906332,0.3609800899729679,-1.5087517642234807,0.4536684799837045,-0.9253069644252091,0.2518427599465004,-3.0059927765914742,0.967973277219726,0
559,2024-09-20 20:20:39.127022848,TASK_BEGIN,013,-0.9497054364283951,0.35468238098938615,-1.80624515412595,0.5091851302609983,-0.9691852861359611,0.25614868386552914,-3.368657030911479,1.0270428485426788,0
560,2024-09-20 20:20:39.194748928,TASK_BEGIN,013,-0.9428403118928425,0.34749179246845363,-2.105662271238624,0.5604016858035002,-1.0091563464644886,0.25916022714972314,-3.7365614162094203,1.0772521887205742,0
561,2024-09-20 20:20:39.262495232,TASK_BEGIN,013,-0.9370479112982288,0.33976076139587996,-2.3973760483749396,0.6058257101663262,-1.0455565644812508,0.26137690291391596,-4.086990012960639,1.1172911982910896,0
562,2024-09-20 20:20:40.180615936,TASK_BEGIN,013,-0.9327844613539878,0.3318731262889009,-2.671074378903544,0.6442099684740767,-1.0786448399769935,0.2633103693208255,-4.400688866420623,1.1468770388329987,0
563,2024-09-20 20:20:40.246313984,TASK_BEGIN,013,-0.930437655913255,0.3242269910058674,-2.9162149511151414,0.6745357514953725,-1.1084696216654397,0.26544510837236185,-4.663478280528027,1.16687267699223,0
564,2024-09-20 20:20:40.301181952,TASK_BEGIN,013,-0.930331924609355,0.31722145031384263,-3.1226239084125873,0.6959987527424567,-1.1347834437225621,0.26820354534266344,-4.867039512582481,1.1792381284865163,0
565,2024-09-20 20:20:40.379288832,TASK_BEGIN,013,-0.9327166966411976,0.311238254904923,-3.2811879326301425,0.7080089188197773,-1.1570490179944852,0.2719269951922462,-5.008970104408665,1.1867855592054086,0
566,2024-09-20 20:20:40.441303040,TASK_BEGIN,013,-0.9377144991165776,0.30661197761926107,-3.3846245202928866,0.7102126828934238,-1.174533783405865,0.27686162011966925,-5.09231448068756,1.1927569825963,0
567,2024-09-20 20:20:40.518935040,TASK_BEGIN,013,-0.9452444984323912,0.30359343241949355,-3.428349485650797,0.7025479642203546,-1.1864500447039819,0.2831411256622478,-5.124803736403163,1.2003231088669926,0
568,2024-09-20 20:20:40.584664064,TASK_BEGIN,013,-0.9549556780614591,0.3023175184611595,-3.41141646343474,0.6853409079119003,-1.1920899458167866,0.2907719417324454,-5.117924975206573,1.212145202386177,0
569,2024-09-20 20:20:41.530691840,TASK_BEGIN,013,-0.9662064687169504,0.3027850515952766,-3.3372849225597236,0.6594183282116153,-1.1909061456344203,0.2996181562358769,-5.085811543497609,1.230093609146725,0
570,2024-09-20 20:20:41.598458880,TASK_BEGIN,013,-0.9781234478698391,0.3048647941077997,-3.213972967075956,0.626162352711851,-1.1825322582001878,0.30937671207719875,-5.043978699617602,1.2551426284360911,0
571,2024-09-20 20:20:41.653942016,TASK_BEGIN,013,-0.9897416504826347,0.30831660772200603,-3.0533424265665525,0.5874464871374083,-1.1668019963266634,0.3195521235382472,-5.007938399063636,1.2874323249231507,0
572,2024-09-20 20:20:41.733939968,TASK_BEGIN,013,-1.0001789790722087,0.31282763226214727,-2.86973550234247,0.5454643112406329,-1.143804136982449,0.32945443904766664,-4.991652543823108,1.326465352723873,0
573,2024-09-20 20:20:41.793158912,TASK_BEGIN,013,-1.0087782257233142,0.31804896218593454,-2.6784010783736667,0.5025094289334057,-1.1139224797968241,0.3382312658830455,-5.006045533193113,1.3713961905903755,0
574,2024-09-20 20:20:41.869367040,TASK_BEGIN,013,-1.0151819267090771,0.32362572695598507,-2.493989732421086,0.4607594267167033,-1.0777964441776537,0.3449237617924592,-5.058212552962987,1.4213930439869944,0
575,2024-09-20 20:20:41.935858944,TASK_BEGIN,013,-1.0193405701205756,0.32921925171744226,-2.3292166912266694,0.422095701391056,-1.0362209329716554,0.34853194888530253,-5.151696130972732,1.475993388443549,0
576,2024-09-20 20:20:42.865850112,TASK_BEGIN,013,-1.0214611196579395,0.33451953102307264,-2.193784867860306,0.3879721779069082,-0.9900796173040737,0.34808893757551085,-5.287461968935807,1.5352734966402988,0
577,2024-09-20 20:20:42.948556800,TASK_BEGIN,013,-1.021908863801137,0.33924765338027646,-2.0937072731880364,0.3593367676395313,-0.940401789079409,0.3427624839426828,-5.464927844089306,1.5997337270703094,0
578,2024-09-20 20:20:43.005178880,TASK_BEGIN,013,-1.02109510369198,0.3431548484067479,-2.0311465597566754,0.33661827859353266,-0.8885441717869372,0.33199571244615816,-5.68260427266644,1.669984891824866,0
579,2024-09-20 20:20:43.083673088,TASK_BEGIN,013,-1.019381448514963,0.3460270070610959,-2.0047851639113463,0.3197858903853631,-0.8363782960781667,0.3156538836687321,-5.938202353085526,1.7463864329447176,0
580,2024-09-20 20:20:43.145200896,TASK_BEGIN,013,-1.0170043333071932,0.3476957841994912,-2.0105797097616853,0.3084477046309457,-0.786329676786133,0.29411166293417507,-6.228377446804997,1.8287741078380726,0
581,2024-09-20 20:20:43.219482880,TASK_BEGIN,013,-1.0140103551859858,0.3480495264281978,-2.04263227519809,0.30193221369601764,-0.7412179921790816,0.26824453087097466,-6.548382970691453,1.916373318675208,0
582,2024-09-20 20:20:43.283486976,TASK_BEGIN,013,-1.0102085767512838,0.3470384592458407,-2.093967149430843,0.29933348656864694,-0.7039700079717387,0.2393415374952416,-6.891775311281147,2.0078774642563393,0
583,2024-09-20 20:20:44.216062976,TASK_BEGIN,013,-1.0051717651621488,0.34467638559309616,-2.1571899150207847,0.29954922310129883,-0.6773067798404561,0.2089753462673937,-7.250260766934859,2.101560587655902,0
