,time,MARKER,pid,L_O_DSI,L_D_DSI,L_O_DSphi,L_D_DSphi,R_O_DSI,R_D_DSI,R_O_DSphi,R_D_DSphi,trial_id
0,2024-09-20 20:24:59.917119232,TASK_BEGIN,013,-0.3366786083201015,0.16003996482091143,-4.11156503376336,0.6952103819720119,-0.6595640855539482,0.3613486391098976,-8.01951148694518,1.9743430965397426,1
1,2024-09-20 20:24:59.984092928,TASK_BEGIN,013,-0.364516076937309,0.16735710436168008,-4.44636439198138,0.6779421737896223,-0.9588323177985969,0.40035616492204035,-8.194849159422303,1.8799232275907085,1
2,2024-09-20 20:25:00.926335232,TASK_BEGIN,013,-0.3922545192764875,0.17472477251957272,-4.773912207649604,0.662035717518254,-1.2476393220814255,0.4382349218104564,-8.367071233940305,1.7898674680916722,1
3,2024-09-20 20:25:00.996326912,TASK_BEGIN,013,-0.4191538937229761,0.181959134175962,-5.087418107362173,0.6484110482862209,-1.517241066757613,0.4739086521286798,-8.524118857036552,1.7054059313615417,1
4,2024-09-20 20:25:01.057372928,TASK_BEGIN,013,-0.44465210027830443,0.18891301720909268,-5.380052747787981,0.6376241031811853,-1.7609565315956948,0.5065757349724831,-8.655976976200009,1.6269474099025483,1
5,2024-09-20 20:25:01.126380800,TASK_BEGIN,013,-0.4684120691443859,0.19548539601359338,-5.645192374213151,0.629789938944213,-1.9744839754685006,0.5357542059084364,-8.755794899403426,1.5541247466503343,1
6,2024-09-20 20:25:01.201337088,TASK_BEGIN,013,-0.49032437908364696,0.20162157524032104,-5.8769186370096165,0.6246047308394703,-2.1557538596500128,0.5612559535118409,-8.820898473257643,1.4860386963521535,1
7,2024-09-20 20:25:01.266333952,TASK_BEGIN,013,-0.5104683182814878,0.20730454868933085,-6.070577623396417,0.6214405668389852,-2.304507084536739,0.5831211131500885,-8.853486567354585,1.421563433844645,1
8,2024-09-20 20:25:01.336403968,TASK_BEGIN,013,-0.5290337247581991,0.21253770374564934,-6.223128984507838,0.6194541300863101,-2.4218035281826205,0.601544670278125,-8.860642015755833,1.3596124547926358,1
9,2024-09-20 20:25:02.269918976,TASK_BEGIN,013,-0.5462248770182875,0.21732361401185155,-6.333180038800458,0.6176717117133371,-2.5096092621245054,0.6168097827875388,-8.853414617871255,1.2993246963399585,1
10,2024-09-20 20:25:02.346632192,TASK_BEGIN,013,-0.5621727404588104,0.2216441674153005,-6.400820641232915,0.6150668977495304,-2.5705377946713495,0.6292366488347699,-8.845057583665065,1.2401222699007692,1
11,2024-09-20 20:25:02.408785152,TASK_BEGIN,013,-0.5768679658065804,0.22544416411683488,-6.427464943905342,0.6106636661880166,-2.607727919120184,0.6391569400748809,-8.848941238811971,1.1816124798440644,1
12,2024-09-20 20:25:02.470290944,TASK_BEGIN,013,-0.5901195191829874,0.2286203375449517,-6.4158371216535075,0.6036554501897937,-2.6247498785981644,0.6469101628201649,-8.876851031680172,1.1234296288359114,1
13,2024-09-20 20:25:02.551650816,TASK_BEGIN,013,-0.6015475364681279,0.23101847477359075,-6.370049240404458,0.5934917130662217,-2.6254246292021977,0.6528387341649705,-8.937932402282682,1.0651662386857954,1
14,2024-09-20 20:25:02.619399936,TASK_BEGIN,013,-0.6106168255775348,0.23243955806420688,-6.295566246066497,0.5799023188171031,-2.6135360013949516,0.6572622137323995,-9.038052784519008,1.0064492163264682,1
15,2024-09-20 20:25:02.685517056,TASK_BEGIN,013,-0.6166991390223956,0.23265372862318762,-6.198914805873424,0.5628825605950586,-2.5925176816365023,0.660436674375922,-9.179440089467942,0.9471181753803724,1
16,2024-09-20 20:25:03.606336256,TASK_BEGIN,013,-0.6191408560705816,0.23142026187169534,-6.08718687787545,0.5426829435038307,-2.5652173455445797,0.6625204130014717,-9.360697065464795,0.887425475284942,1
17,2024-09-20 20:25:03.667872768,TASK_BEGIN,013,-0.6173331739382143,0.22851246773432382,-5.967493989674867,0.5198171117366008,-2.533797971268396,0.6635628870091159,-9.5772717709779,0.8281736952528969,1
18,2024-09-20 20:25:03.730358016,TASK_BEGIN,013,-0.6108023991712218,0.22374649458487333,-5.846499162122037,0.4950620479552028,-2.499786686846974,0.6635241696848169,-9.822327898234077,0.7707303691991786,1
19,2024-09-20 20:25:03.809572096,TASK_BEGIN,013,-0.5993162049558711,0.21700930472789962,-5.730063965058118,0.46941570459388215,-2.4642246355426622,0.6623202688151493,-10.08769717294599,0.7168892806871339,1
20,2024-09-20 20:25:03.869597952,TASK_BEGIN,013,-0.5829663406058677,0.20827762852811152,-5.622971984108097,0.4439986641630099,-2.4278212656382494,0.6598754962931138,-10.364415439857943,0.6685914945521382,1
21,2024-09-20 20:25:03.945039104,TASK_BEGIN,013,-0.5621884487731841,0.19762322765275508,-5.528720823818662,0.41992581851445343,-2.391036283449095,0.6561593719398002,-10.642794717533489,0.6276073874958297,1
22,2024-09-20 20:25:04.009293056,TASK_BEGIN,013,-0.5377050633728646,0.18520528658378602,-5.449467593807475,0.3981979157225309,-2.3540902961779957,0.6511991041515572,-10.912717562739365,0.5953353081986624,1
23,2024-09-20 20:25:04.954703104,TASK_BEGIN,013,-0.5103988363043858,0.1712520560346227,-5.386156609912597,0.37963150152382413,-2.3169576302607333,0.6450742139216517,-11.164767983488932,0.5727880581201416,1
24,2024-09-20 20:25:05.018002944,TASK_BEGIN,013,-0.4811443895828659,0.1560356140078138,-5.338699208222543,0.36479889573841245,-2.279395535854752,0.6379022466102311,-11.391991934314136,0.5607023354108615,1
25,2024-09-20 20:25:05.078903040,TASK_BEGIN,013,-0.45065146243461085,0.13984676589306505,-5.306114777769362,0.3539634698375902,-2.241020996218231,0.6298190717085749,-11.59153174823483,0.5596814111138457,1
26,2024-09-20 20:25:05.156535808,TASK_BEGIN,013,-0.4193742598398065,0.12297584319027732,-5.286710668665963,0.3470378343805691,-2.2013908892099976,0.6209553023675188,-11.765362052030074,0.5703260944872481,1
27,2024-09-20 20:25:05.226840064,TASK_BEGIN,013,-0.387509493576208,0.10570019632579639,-5.278368233208478,0.3435893751462161,-2.1600563932745405,0.6114151920019769,-11.91964263358166,0.5933095049951929,1
28,2024-09-20 20:25:05.280637952,TASK_BEGIN,013,-0.35506292988545934,0.0882759361410602,-5.278901490375776,0.3428932854291881,-2.1166281931686957,0.6012663054954199,-12.06285074357605,0.6293494007503244,1
29,2024-09-20 20:25:05.362319104,TASK_BEGIN,013,-0.32194270707140177,0.07093140202146493,-5.286440919583885,0.3440310638791335,-2.070886016570367,0.5905390375671455,-12.203514049904966,0.6790755516065721,1
30,2024-09-20 20:25:06.305937920,TASK_BEGIN,013,-0.2880395750170831,0.053860952791043,-5.299743380444912,0.34602756792614126,-2.02290043539347,0.5792297576802214,-12.348357401723282,0.7428275874550203,1
31,2024-09-20 20:25:06.373680128,TASK_BEGIN,013,-0.2532685987911655,0.03721851762543179,-5.318264306411476,0.34799831619529437,-1.9730884082812177,0.5673078300500389,-12.501186335447777,0.8204510189449216,1
32,2024-09-20 20:25:06.441176064,TASK_BEGIN,013,-0.21757494278373166,0.021111475022608836,-5.341961099762334,0.34927423790556894,-1.9221428324820125,0.5547286455088445,-12.662531135039027,0.9111919766681912,1
33,2024-09-20 20:25:06.502717952,TASK_BEGIN,013,-0.18093718660286176,0.005598226288288285,-5.371003830832098,0.34948981708682836,-1.870874213540595,0.5414518646416294,-12.829955403285325,1.0137440250215226,1
34,2024-09-20 20:25:06.564779008,TASK_BEGIN,013,-0.14339921622741772,-0.009305370667599516,-5.4055631995235744,0.34862610187516796,-1.8200801371997837,0.5274668320112279,-12.998732016707573,1.1263759427755873,1
35,2024-09-20 20:25:06.634785024,TASK_BEGIN,013,-0.10512132880539729,-0.023610022726718246,-5.445671866315197,0.34698688119594395,-1.7705237874059805,0.5128282054247273,-13.16242240734136,1.2469938269421335,1
36,2024-09-20 20:25:06.712355072,TASK_BEGIN,013,-0.06641973753113642,-0.037332947478037025,-5.4910688878267795,0.3450971586989903,-1.7230159862788883,0.49769529595639156,-13.312989841037373,1.373050058835335,1
37,2024-09-20 20:25:07.649164800,TASK_BEGIN,013,-0.027788635001946442,-0.050478260624913354,-5.541023532537716,0.343559996831545,-1.6785240497409837,0.4823566671936154,-13.440547430517935,1.5013705177584091,1
38,2024-09-20 20:25:07.711876096,TASK_BEGIN,013,0.010084304569913619,-0.06301947380594043,-5.594208764082701,0.34293017042819296,-1.6382140973571673,0.4672247315808615,-13.533435433777026,1.628083798128621,1
39,2024-09-20 20:25:07.788531968,TASK_BEGIN,013,0.046318855634282105,-0.07488796889066954,-5.6486030418051865,0.3436244607808109,-1.6033952784657235,0.4528010850187126,-13.579362541774474,1.7487800833417082,1
40,2024-09-20 20:25:07.850532096,TASK_BEGIN,013,0.0798839394424921,-0.08597267902690799,-5.701338420202549,0.3458519366990908,-1.575405236981861,0.4396215069795522,-13.567509552107454,1.8588489186032218,1
41,2024-09-20 20:25:07.926000896,TASK_BEGIN,013,0.1096865538145105,-0.09613206489664762,-5.748555684968082,0.3495592661834505,-1.5554861626087013,0.428190943890812,-13.490602041318983,1.953812142860701,1
42,2024-09-20 20:25:07.990295808,TASK_BEGIN,013,0.13468699570725992,-0.1052135991468802,-5.785452908423134,0.3544037998834934,-1.5446660568744683,0.41892388786540646,-13.346081150261925,2.029514359277506,1
43,2024-09-20 20:25:08.052301056,TASK_BEGIN,013,0.15400771797870128,-0.11307324811509105,-5.806652425369196,0.35976800310323126,-1.543621910531929,0.4121019203789065,-13.136328853927187,2.082202425038714,1
44,2024-09-20 20:25:08.979271936,TASK_BEGIN,013,0.16700953441374147,-0.11958913167126127,-5.806898145686834,0.3648332147451122,-1.5525049300940552,0.4078459773541001,-12.86832523444209,2.1086223063958167,1
45,2024-09-20 20:25:09.046853888,TASK_BEGIN,013,0.1733268098063406,-0.12466799693981297,-5.781993936596988,0.3687227343290388,-1.5707673540768663,0.4060994171587788,-12.55298630213975,2.106220586125961,1
46,2024-09-20 20:25:09.115620096,TASK_BEGIN,013,0.17288048264448982,-0.12824944762783658,-5.72974740900845,0.370683306419166,-1.5970839845164349,0.4066283904546991,-12.204349280674371,2.073467272989067,1
47,2024-09-20 20:25:09.183312896,TASK_BEGIN,013,0.1659007313501081,-0.13031630548566667,-5.650613360293092,0.3702427247608375,-1.6294408664940268,0.4090464038938706,-11.838742932920761,2.010266837897901,1
48,2024-09-20 20:25:09.251065856,TASK_BEGIN,013,0.15296524471063272,-0.13091325259672962,-5.547859847803154,0.3672969034196332,-1.6653731844615547,0.4128594829577667,-11.473789678234262,1.9183344173173098,1
49,2024-09-20 20:25:09.318810112,TASK_BEGIN,013,0.13502219795916803,-0.13016508236777272,-5.427251255957455,0.3621091713454215,-1.702235587572292,0.4175162522158948,-11.126933577280598,1.801330272021838,1
50,2024-09-20 20:25:09.386571776,TASK_BEGIN,013,0.11336043751625381,-0.12828286721800336,-5.296343247574416,0.3552218033474632,-1.737372173730745,0.42244402724720814,-10.813600437848466,1.6646322163998981,1
51,2024-09-20 20:25:10.325602048,TASK_BEGIN,013,0.08951921426564882,-0.12555434310818023,-5.163569858099905,0.3473030075329035,-1.76816679622085,0.427067926732618,-10.545559677979117,1.5148432182324196,1
52,2024-09-20 20:25:10.397396992,TASK_BEGIN,013,0.06516827649630323,-0.1223243097456112,-5.037284488259759,0.3389723763067063,-1.792080217410554,0.4308268404729832,-10.3300288639653,1.3592373416734633,1
53,2024-09-20 20:25:10.465132032,TASK_BEGIN,013,0.04199426728696296,-0.11897146472467712,-4.924804533460329,0.33064811882921646,-1.806762405973457,0.4331952977160238,-10.169758851452848,1.2052785045174481,1
54,2024-09-20 20:25:10.527347968,TASK_BEGIN,013,0.021603971768968982,-0.11588346503848222,-4.831575110915376,0.32246467632512305,-1.8102087673090206,0.43370749906362993,-10.06403291157486,1.060237076724624,1
55,2024-09-20 20:25:10.600617984,TASK_BEGIN,013,0.005441973387666561,-0.11343188447607726,-4.760709661862484,0.31430298009818236,-1.8008693113997012,0.4319765703047332,-10.01018544219743,0.9308546287047635,1
56,2024-09-20 20:25:10.663377920,TASK_BEGIN,013,-0.00527204836794056,-0.11195132012708518,-4.712991905818916,0.3059117000070551,-1.7776789633946388,0.4277077853659846,-10.005034422309768,0.8229872692003762,1
57,2024-09-20 20:25:10.725665024,TASK_BEGIN,013,-0.00957660951488512,-0.1117258663801564,-4.687107826116689,0.2970323115523669,-1.7400709858824845,0.4207150012915454,-10.045745519554018,0.7412170301204144,1
58,2024-09-20 20:25:11.678526976,TASK_BEGIN,013,-0.006771120138660813,-0.11298286826015239,-4.679910254695957,0.2874660581785592,-1.6880425990404613,0.4109513180473889,-10.130051307585068,0.6885259001069621,1
59,2024-09-20 20:25:11.747526912,TASK_BEGIN,013,0.0035987449245534955,-0.11589136557867488,-4.686825561247251,0.2771062129174291,-1.6222670148839617,0.39854812875989776,-10.256087520677664,0.6661639217247456,1
60,2024-09-20 20:25:11.802617088,TASK_BEGIN,013,0.021752619270686408,-0.12056119686664636,-4.70259632062023,0.2659981560472675,-1.544203875799389,0.38384071686817667,-10.421990239209329,0.6737279074327784,1
61,2024-09-20 20:25:11.880285952,TASK_BEGIN,013,0.047673623304318985,-0.12703974939601903,-4.722279668074279,0.2544504615053969,-1.456174681264034,0.36736409211460697,-10.625077729275816,0.709324528214345,1
62,2024-09-20 20:25:11.941831168,TASK_BEGIN,013,0.08110187417325496,-0.1353071516704692,-4.742157118191856,0.24316079237315802,-1.361358314983532,0.3498173498005912,-10.860597408227509,0.7697112081390134,1
63,2024-09-20 20:25:12.003832064,TASK_BEGIN,013,0.12153869803467267,-0.1452737964060799,-4.760256558462931,0.23328825950812337,-1.263629031818403,0.33199855364040204,-11.120512384019761,0.8504411266615085,1
64,2024-09-20 20:25:12.086259968,TASK_BEGIN,013,0.1682646671104251,-0.1567838052391639,-4.776417030485287,0.22640440109886378,-1.1672218368279954,0.31471651890388186,-11.392912602786149,0.9461064225734689,1
65,2024-09-20 20:25:13.030330880,TASK_BEGIN,013,0.22035827512901265,-0.16962425429141353,-4.792024472325218,0.2243014941632101,-1.0763515034989604,0.2987043196521938,-11.662309250570212,1.0507406352190725,1
66,2024-09-20 20:25:13.098112000,TASK_BEGIN,013,0.2766968816177442,-0.1835345206236269,-4.809647726084208,0.22871649770228866,-0.9949356427360561,0.28456241543050065,-11.910791997584733,1.1583635503531435,1
67,2024-09-20 20:25:13.152053248,TASK_BEGIN,013,0.3359324786734472,-0.19820929144305954,-4.832720236748412,0.24106055884314617,-0.9264401956429426,0.27273154062724464,-12.119929109364191,1.263563231313581,1
68,2024-09-20 20:25:13.230311936,TASK_BEGIN,013,0.3964551175594553,-0.21329591907401937,-4.865168169950537,0.2621941550297916,-0.8737758831063553,0.26348124489746344,-12.273200541680463,1.3619796949758198,1
69,2024-09-20 20:25:13.301284864,TASK_BEGIN,013,0.4563729735820277,-0.22839389402838506,-4.910822128740734,0.2922425185637481,-0.8392047283084689,0.25691459403556544,-12.358652213636274,1.450622944480217,1
70,2024-09-20 20:25:13.368990976,TASK_BEGIN,013,0.5135436106920158,-0.24306416133025174,-4.972688863107932,0.3304669342141879,-0.8242463470732969,0.25298975822296127,-12.371245118451837,1.5280187692725327,1
71,2024-09-20 20:25:13.431117056,TASK_BEGIN,013,0.5656784526154486,-0.2568513773403227,-5.052333462625518,0.375242871493911,-0.8295675754158116,0.25154307005311577,-12.314059654651137,1.5941554007881316,1
72,2024-09-20 20:25:14.378788096,TASK_BEGIN,013,0.6105093861948299,-0.26931652659359884,-5.14952580019701,0.42417961715036095,-0.8548665282165127,0.2523059112063481,-12.197708050929121,1.650197231223015,1
73,2024-09-20 20:25:14.440357888,TASK_BEGIN,013,0.6459828747107154,-0.28007340671706354,-5.262114230250871,0.47434839793809663,-0.8988055213355519,0.254928937039247,-12.038164374465753,1.6980042978828425,1
74,2024-09-20 20:25:14.501933056,TASK_BEGIN,013,0.6704504947315292,-0.28882208692541184,-5.385996650843381,0.5225325447399307,-0.9590366489220051,0.2590219214787895,-11.853825573946809,1.7395813745740119,1
75,2024-09-20 20:25:14.582614016,TASK_BEGIN,013,0.6828286896337943,-0.29537294203056946,-5.51517050535971,0.565445681640257,-1.032333331741923,0.2641989641914214,-11.662498362479672,1.7766026497739638,1
76,2024-09-20 20:25:14.644718080,TASK_BEGIN,013,0.6826971027128523,-0.29965560754438464,-5.642057481260665,0.5999486976758086,-1.114847690004248,0.2701215292900338,-11.478807477541936,1.8101170603169572,1
77,2024-09-20 20:25:14.719676928,TASK_BEGIN,013,0.6703169137039261,-0.3017107945449602,-5.7582936391715345,0.6233179229546302,-1.2024928099842926,0.27654176346538467,-11.312562475076582,1.8404640611087577,1
78,2024-09-20 20:25:14.783808000,TASK_BEGIN,013,0.6465806529247319,-0.301668900654715,-5.855893237562826,0.6335526801699214,-1.2913594345132786,0.28333993361845133,-11.168398088799355,1.8673316496231114,1
79,2024-09-20 20:25:15.691709952,TASK_BEGIN,013,0.6129273786703722,-0.2997234028278162,-5.9284327269066734,0.6296468026628292,-1.378037708637059,0.2905407265369249,-11.046455668335936,1.8898301558108628,1
80,2024-09-20 20:25:15.768930816,TASK_BEGIN,013,0.5712474103499345,-0.2961049528503779,-5.971855505620807,0.6117390679406649,-1.459798206195043,0.2983034491218852,-10.943644389333807,1.9065189655683696,1
81,2024-09-20 20:25:15.830521856,TASK_BEGIN,013,0.5237749191887552,-0.29105682769055685,-5.984678756584442,0.5810968759822714,-1.5346667909496765,0.3068919775427024,-10.855199671615745,1.9154453872988313,1
82,2024-09-20 20:25:15.892102912,TASK_BEGIN,013,0.47296260528156986,-0.2848116207854339,-5.967697320595766,0.5399501060845736,-1.6014105810575587,0.31662737772770266,-10.776285308860276,1.9142871859944612,1
83,2024-09-20 20:25:15.975426048,TASK_BEGIN,013,0.4213455377599574,-0.2775724558587482,-5.9234642937445,0.4912287768986944,-1.659437370132889,0.3278258182677537,-10.703216301839644,1.9006191250815072,1
84,2024-09-20 20:25:16.031891968,TASK_BEGIN,013,0.3714014130234166,-0.2695018474257971,-5.855731605473365,0.43825138739257447,-1.7086623532343648,0.34073429865217125,-10.633951672931437,1.8722529037745304,1
85,2024-09-20 20:25:16.109145088,TASK_BEGIN,013,0.32540511125022875,-0.26071665213575906,-5.768846014824199,0.38439595041769264,-1.7494048506804984,0.35548105938920693,-10.567898926436019,1.8275758404787326,1
86,2024-09-20 20:25:17.054366208,TASK_BEGIN,013,0.28527320911339593,-0.25128501246634993,-5.667071561990262,0.3327840392799389,-1.7823088060915049,0.3720504667748709,-10.505441670852298,1.7658100330776223,1
87,2024-09-20 20:25:17.121867008,TASK_BEGIN,013,0.2524005289269273,-0.24122292781166624,-5.5539729789594965,0.28601632279760575,-1.8082609510551508,0.3902860447229797,-10.447628810724623,1.6871363296397455,1
88,2024-09-20 20:25:17.184351744,TASK_BEGIN,013,0.2275097180628035,-0.23049086242044303,-5.43210268991111,0.2459983317580986,-1.8283346477246167,0.4099222687202,-10.396162699281106,1.5927014660264232,1
89,2024-09-20 20:25:17.245896960,TASK_BEGIN,013,0.21056009806289125,-0.21899366450386692,-5.303083263137404,0.21386542600969183,-1.8437802242024486,0.4306341310193733,-10.353467265324161,1.4845892465574992,1
90,2024-09-20 20:25:17.322684160,TASK_BEGIN,013,0.2007547305949011,-0.2065886746252951,-5.167959170837366,0.18998789062655233,-1.8559971755972762,0.4520792908128156,-10.322449329180222,1.3657990382555882,1
91,2024-09-20 20:25:17.385168896,TASK_BEGIN,013,0.19663752735132556,-0.1931039877066432,-5.027659740751284,0.17405089918842412,-1.8664166111074292,0.47391374695449906,-10.305763486451864,1.2401996245966518,1
92,2024-09-20 20:25:17.447177984,TASK_BEGIN,013,0.1962455891525376,-0.17836401137066799,-4.883456696318097,0.16521475085749368,-1.8763270130943823,0.49578566460315904,-10.304819457129756,1.1124130335390847,1
93,2024-09-20 20:25:18.396487936,TASK_BEGIN,013,0.19730165327287438,-0.162218235106725,-4.7372791403214105,0.16232715432704523,-1.8867362673158359,0.5173241377525254,-10.318942767798166,0.9875842618385317,1
94,2024-09-20 20:25:18.473332736,TASK_BEGIN,013,0.19744853977631066,-0.14457046530731063,-4.5918014752052025,0.16413112319780487,-1.8983061427113652,0.53813125576601,-10.34495445766732,0.8709960089861111,1
95,2024-09-20 20:25:18.536082944,TASK_BEGIN,013,0.1945133146606257,-0.1254060277972421,-4.450381903276272,0.16942663425307827,-1.9113226613415513,0.5577754515286564,-10.377320962545655,0.7675641508412216,1
96,2024-09-20 20:25:18.608769792,TASK_BEGIN,013,0.1867642354163309,-0.10481345171912373,-4.31697962586246,0.1771710437879877,-1.925670614910518,0.5757872105919472,-10.408939374796553,0.681348308948468,1
97,2024-09-20 20:25:18.671654912,TASK_BEGIN,013,0.17311122521322392,-0.08299641177775977,-4.196055985110522,0.18652211547239056,-1.9408374097655743,0.5916681500766552,-10.432482228000113,0.6152367385615761,1
98,2024-09-20 20:25:18.733709056,TASK_BEGIN,013,0.1532118852045189,-0.06027324825720967,-4.0923763858255064,0.19684545993192668,-1.95599570136248,0.6049208367497387,-10.442063293531255,0.5709070709159318,1
99,2024-09-20 20:25:18.811401984,TASK_BEGIN,013,0.1274741146063157,-0.037065189460564744,-4.010685178904202,0.2077178886687361,-1.9701794786484208,0.6150897741424819,-10.434716279861727,0.5490491841620085,1
100,2024-09-20 20:25:19.720603136,TASK_BEGIN,013,0.09697024219694775,-0.013875577698556374,-3.955318795224752,0.21894282286933275,-1.9825241154446118,0.621799391577532,-10.411071040204215,0.5497211861627168,1
101,2024-09-20 20:25:19.782933760,TASK_BEGIN,013,0.0632818303408655,0.008740475788245865,-3.9298554569465054,0.23056195020679562,-1.9925091689276209,0.6247864883489509,-10.375057423507378,0.5726698878064476,1
102,2024-09-20 20:25:19.866235136,TASK_BEGIN,013,0.028286588283846788,0.03021752590793071,-3.936904913524888,0.24283841746361468,-2.000106591439289,0.62392888674777,-10.333076146364292,0.6175041355317215,1
103,2024-09-20 20:25:19.921329152,TASK_BEGIN,013,-0.006101648794827439,0.050030205260545836,-3.978119284302463,0.2562107263923469,-2.0057441221480397,0.6192659286770154,-10.293176399840512,0.683700177802972,1
104,2024-09-20 20:25:19.998979072,TASK_BEGIN,013,-0.038207340207242584,0.0677454103776909,-4.054353926212647,0.271225428464179,-2.0100906394006963,0.6110047955076978,-10.26432364429181,0.7704573294600473,1
105,2024-09-20 20:25:20.069409024,TASK_BEGIN,013,-0.06682086271551568,0.08306537231193553,-4.165734899995258,0.28844149513515027,-2.0137753327405954,0.5995104368216078,-10.255430978831736,0.8764270054297572,1
106,2024-09-20 20:25:20.122670848,TASK_BEGIN,013,-0.09132116296450639,0.09585051032199145,-4.311490799901201,0.30831106126168584,-2.017161242577728,0.585279392938597,-10.274092942972649,0.999404650993953,1
107,2024-09-20 20:25:21.066363904,TASK_BEGIN,013,-0.1116759221958236,0.10611555734622259,-4.4896647177109745,0.33106980144583903,-2.020226623966015,0.5688966432995769,-10.325574779356364,1.1361758801271955,1
108,2024-09-20 20:25:21.144043008,TASK_BEGIN,013,-0.12834424242760367,0.11400166544040612,-4.696826117090836,0.35665629039008057,-2.022560028959699,0.5509770265433047,-10.412593732678332,1.2826720866196308,1
109,2024-09-20 20:25:21.206084096,TASK_BEGIN,013,-0.14212253751992032,0.11973646550814088,-4.927745961121673,0.3846455479216371,-2.0234616297096566,0.5321033527387667,-10.535695208032967,1.4343671738880286,1
110,2024-09-20 20:25:21.282867968,TASK_BEGIN,013,-0.15396386047742808,0.12359497102435163,-5.175107825150737,0.4141967874049035,-2.0221017641424828,0.5127770783775321,-10.693515200408168,1.5866636518876753,1
111,2024-09-20 20:25:21.345356032,TASK_BEGIN,013,-0.16479171234677714,0.1258668812775855,-5.429594464059555,0.444064677139383,-2.0176518171161852,0.4933882311896189,-10.88257878398714,1.7351023641107526,1
112,2024-09-20 20:25:21.419025920,TASK_BEGIN,013,-0.17533896406146035,0.1268303512252561,-5.6806235852347,0.47272267682128444,-2.0093470576809946,0.474204882316693,-11.097026947139037,1.8754606157933393,1
113,2024-09-20 20:25:21.484645888,TASK_BEGIN,013,-0.18604500526037246,0.12673241802793142,-5.917568476486772,0.4985761095020865,-1.9965095824171473,0.45538343595600045,-11.328760795851695,2.00385445730229,1
114,2024-09-20 20:25:22.430296832,TASK_BEGIN,013,-0.19702226747027457,0.12577702691123926,-6.130959975692924,0.5201847011348248,-1.9785796706394738,0.4369989951980845,-11.567900332338667,2.116829374721864,1
115,2024-09-20 20:25:22.483758080,TASK_BEGIN,013,-0.20808492833985295,0.12412136270308352,-6.313288314320958,0.5364367103303913,-1.9551919449330155,0.41908603484692525,-11.803185422447294,2.2113990105443384,1
116,2024-09-20 20:25:22.565785856,TASK_BEGIN,013,-0.2188338514880973,0.12188133786661826,-6.459411906348254,0.5466733065522942,-1.9263023382993376,0.4016737142353536,-12.022289672533857,2.285083497130305,1
117,2024-09-20 20:25:22.633266944,TASK_BEGIN,013,-0.22878825313161727,0.11914562803653084,-6.566740844854701,0.5507654281061262,-1.8923299165244285,0.38480981520053953,-12.212246486625048,2.3359795131767176,1
118,2024-09-20 20:25:22.700378880,TASK_BEGIN,013,-0.23753397793564976,0.11599391086061794,-6.6352201648928855,0.5491136548931251,-1.8542615590711966,0.3685832739347584,-12.36008469967707,2.3628088280895643,1
119,2024-09-20 20:25:22.762408960,TASK_BEGIN,013,-0.24484390722549976,0.11251297843317792,-6.667066371072361,0.5425608083453011,-1.8136808210949669,0.3531544544349417,-12.453789442552765,2.364927862321354,1
120,2024-09-20 20:25:22.824003840,TASK_BEGIN,013,-0.2507339431467606,0.10880629522766228,-6.666340997650992,0.5322634826808933,-1.7726795482804591,0.3387847399569991,-12.483779429714067,2.3423648090892764,1
121,2024-09-20 20:25:23.778382080,TASK_BEGIN,013,-0.2554413694360425,0.10499599366164289,-6.6385138674550035,0.5195774946435889,-1.7336024732405368,0.3258455718322331,-12.444746920915273,2.295907418469912,1
122,2024-09-20 20:25:23.846167040,TASK_BEGIN,013,-0.2593425667818911,0.10121848641562405,-6.59004423314372,0.5059711604393358,-1.6986432444852932,0.31479242720770206,-12.337133122411437,2.2271404972176465,1
123,2024-09-20 20:25:23.903512064,TASK_BEGIN,013,-0.26284988229469386,0.09761516981491224,-6.52791656603104,0.49295347297158587,-1.6694361349389282,0.30610435878981324,-12.167489016293857,2.138324899376944,1
124,2024-09-20 20:25:23.981673984,TASK_BEGIN,013,-0.26632460456565354,0.09431966470867786,-6.459155393514558,0.48200536863211413,-1.6468122400594927,0.300205974329417,-11.947681537042445,2.032170730140904,1
125,2024-09-20 20:25:24.042717952,TASK_BEGIN,013,-0.2700202220657916,0.09144406695191651,-6.390378916261217,0.47449719096983073,-1.63077801577936,0.2973994044054448,-11.693486506416052,1.9116764127756045,1
126,2024-09-20 20:25:24.117155072,TASK_BEGIN,013,-0.2740550688523742,0.0890674934839169,-6.327319462881305,0.47156894998102994,-1.620680327613527,0.2978326222953656,-11.422948861130067,1.780105239997299,1
127,2024-09-20 20:25:24.181478912,TASK_BEGIN,013,-0.27841377301686393,0.08722936911103174,-6.274235498369223,0.47397722436457423,-1.615493175424598,0.3015115276278802,-11.154667040012006,1.6410362255721205,1
128,2024-09-20 20:25:25.129436160,TASK_BEGIN,013,-0.282971699604328,0.08592812638192567,-6.233397644543115,0.48195970401422533,-1.6141286951134055,0.3083365382985139,-10.90640263398076,1.498462564947331,1
129,2024-09-20 20:25:25.197292032,TASK_BEGIN,013,-0.2875219314474834,0.08512395799470372,-6.205001329303146,0.495182769865736,-1.6156685856683846,0.31813697795180207,-10.694428507781652,1.3569570353770983,1
130,2024-09-20 20:25:25.265025024,TASK_BEGIN,013,-0.29179021642787406,0.0847435538622404,-6.187631775658709,0.5127999536527921,-1.6194718346062729,0.330690595059818,-10.533429400450323,1.2218267877846312,1
131,2024-09-20 20:25:25.332798208,TASK_BEGIN,013,-0.29545313954053193,0.08468777971882537,-6.179003784063402,0.5335895638267049,-1.625193708303036,0.3457297357437896,-10.436311682219987,1.0990864163826954,1
132,2024-09-20 20:25:25.400568832,TASK_BEGIN,013,-0.2981825321890558,0.08484597622323041,-6.176587465930652,0.5561078119159935,-1.6327887792675102,0.36294296998317455,-10.413527666765972,0.9951319272254177,1
133,2024-09-20 20:25:25.468255232,TASK_BEGIN,013,-0.29971542704711057,0.08511756712638852,-6.177982409285057,0.5788178618988804,-1.6425284640936033,0.38197901783777355,-10.472032848989091,0.9161409638514714,1
134,2024-09-20 20:25:25.530947072,TASK_BEGIN,013,-0.2999325894331815,0.08543634321245809,-6.181125471674899,0.6001973117692342,-1.6549987278172424,0.4024502055322395,-10.614167927138862,0.8673321594472401,1
135,2024-09-20 20:25:26.439714816,TASK_BEGIN,013,-0.2989221182246146,0.08578914554809675,-6.184365390960984,0.6188293789122161,-1.6710609938295822,0.4239352283883268,-10.836719915281236,0.8522507921354538,1
136,2024-09-20 20:25:26.517373952,TASK_BEGIN,013,-0.29699874937282683,0.08621973420640794,-6.18635636585124,0.6334689394452454,-1.6918101111823178,0.4459954669805399,-11.130511761661854,0.8722423212289538,1
137,2024-09-20 20:25:26.590637824,TASK_BEGIN,013,-0.2946652794936757,0.08681420808277887,-6.185844730003092,0.6430886572409997,-1.7185414278550846,0.4682164578446893,-11.480941816957397,0.9262511489678787,1
138,2024-09-20 20:25:26.658360832,TASK_BEGIN,013,-0.2925339663197854,0.087674697378632,-6.181546260510625,0.6469268214398637,-1.7526909941654532,0.4902637511478326,-11.869631811676431,1.0110127193972145,1
139,2024-09-20 20:25:26.711117056,TASK_BEGIN,013,-0.2912372709116533,0.08889283155843469,-6.172245190782392,0.6445509607752359,-1.7957154203131829,0.5119274613526857,-12.276807519668367,1.1215662070212233,1
140,2024-09-20 20:25:26.788313088,TASK_BEGIN,013,-0.2913409557468722,0.09052970563106424,-6.157095066477143,0.6359383455794857,-1.8489044869953566,0.5331340774113942,-12.683623866378587,1.2518767864586529,1
141,2024-09-20 20:25:26.850801152,TASK_BEGIN,013,-0.29326039942302795,0.09260279815890217,-6.13597595156775,0.6215597703076855,-1.913145202471745,0.5539182651021872,-13.073696146587286,1.3953589277961858,1
142,2024-09-20 20:25:27.791331072,TASK_BEGIN,013,-0.29719743370365853,0.09507953452042743,-6.10970097929857,0.6024320382385613,-1.988694792033005,0.5743635985044709,-13.433607122284164,1.5452466455126839,1
143,2024-09-20 20:25:27.869787904,TASK_BEGIN,013,-0.303123845467703,0.09787795105909526,-6.079897851835125,0.5800932066562534,-2.0750367064615847,0.5945346176649342,-13.752668031875674,1.6948913509347263,1
144,2024-09-20 20:25:27.940758016,TASK_BEGIN,013,-0.31080473318868285,0.10087248505070212,-6.048516025107981,0.5564687466659639,-2.170830601604261,0.6144209009014239,-14.022235849020314,1.83804771841751,1
145,2024-09-20 20:25:28.007939840,TASK_BEGIN,013,-0.3198264569715873,0.10390125826712916,-6.017118225635745,0.533641360990431,-2.2738919201099095,0.6338969823618515,-14.234739242494785,1.9691243413085813,1
146,2024-09-20 20:25:28.069998080,TASK_BEGIN,013,-0.3296077678948948,0.10677284199934299,-5.98626870825044,0.5135836628498306,-2.3811758019112337,0.6526942846496846,-14.382781062801216,2.08337526533673,1
147,2024-09-20 20:25:28.132302080,TASK_BEGIN,013,-0.33939556245077046,0.10927212390224272,-5.955239457023066,0.49791394460662725,-2.488826960470834,0.6703894546687743,-14.45886145537039,2.177047227783704,1
148,2024-09-20 20:25:28.209984000,TASK_BEGIN,013,-0.3482585324823676,0.11116559027171963,-5.9220468945251845,0.4877083692801546,-2.5923487171969875,0.6864181669525293,-14.45584881108356,2.2474628705950837,1
149,2024-09-20 20:25:29.155312128,TASK_BEGIN,013,-0.3551016232232117,0.11220680035573898,-5.883781472682935,0.4834008125729183,-2.6868899821930516,0.7001179979931703,-14.367779130612568,2.2929857408944136,1
150,2024-09-20 20:25:29.214474240,TASK_BEGIN,013,-0.35872099953132086,0.11214309102432109,-5.837242474066861,0.48480366733387503,-2.767628313481858,0.7107954218672929,-14.190570867807976,2.312898060988437,1
151,2024-09-20 20:25:29.290817024,TASK_BEGIN,013,-0.3578986529661919,0.11072527295314638,-5.779813148025703,0.49124413051701565,-2.830198416042532,0.7178044511147457,-13.922586817858928,2.3073042626368805,1
152,2024-09-20 20:25:29.354176000,TASK_BEGIN,013,-0.35152003854004954,0.10772185353365965,-5.710331832666796,0.5017591651753374,-2.8710822051012395,0.7206205967565993,-13.565124260665003,2.2771092670836155,1
153,2024-09-20 20:25:29.415756032,TASK_BEGIN,013,-0.3387004714046956,0.10293751895712225,-5.629663367262813,0.5152801498811059,-2.887902277198972,0.7188974599836401,-13.122906734590709,2.2240225843722867,1
154,2024-09-20 20:25:29.493384960,TASK_BEGIN,013,-0.3189129309294812,0.09623529279039687,-5.54085092157006,0.5307685043263614,-2.879612324549794,0.712503174561572,-12.604601336072854,2.150520771661067,1
155,2024-09-20 20:25:29.555872000,TASK_BEGIN,013,-0.29210269499759683,0.08756117468859002,-5.448920681592277,0.5473004716810863,-2.8465787801488642,0.7015386416185546,-12.023186761258621,2.05972398975549,1
156,2024-09-20 20:25:30.478435072,TASK_BEGIN,013,-0.25875644108044404,0.07696503576623673,-5.360390299357046,0.564103480365536,-2.7905262013161374,0.6863367555771324,-11.395910564597893,1.9551980976630392,1
157,2024-09-20 20:25:30.548162048,TASK_BEGIN,013,-0.21989092399879204,0.0646081324517768,-5.2824436905367245,0.5805306040073804,-2.714344924209425,0.6674448367051663,-10.743866762604023,1.840778720056486,1
158,2024-09-20 20:25:30.615873024,TASK_BEGIN,013,-0.17695386842613425,0.05075319048098493,-5.221848958635613,0.5959786409726132,-2.621812091647778,0.6455981865152269,-10.091441859494287,1.720522100200916,1
159,2024-09-20 20:25:30.677794048,TASK_BEGIN,013,-0.13166813677821076,0.03574266376854217,-5.183910852609935,0.6098027040130695,-2.517287560104272,0.6216859309679005,-9.46559975252116,1.5987595555536696,1
160,2024-09-20 20:25:30.751291136,TASK_BEGIN,013,-0.08587069500776719,0.019975677260207134,-5.171765379282997,0.6212903384214359,-2.405418059000621,0.5967017974655612,-8.894644234077665,1.4800999195413882,1
161,2024-09-20 20:25:30.817894912,TASK_BEGIN,013,-0.04139073377439493,0.0038922070674714225,-5.186103295257459,0.6297124919403246,-2.2908724952452952,0.571680980385678,-8.406282071284812,1.369256632571924,1
162,2024-09-20 20:25:30.879417088,TASK_BEGIN,013,2.0835666964333453e-05,-0.012034102071391902,-5.225183718431843,0.6344117070007477,-2.178127862592108,0.547636972241835,-8.025330160331515,1.2707351414312862,1
163,2024-09-20 20:25:31.830500864,TASK_BEGIN,013,0.036734865691439016,-0.027301851066718064,-5.284982268564777,0.6348731492036752,-2.0712910843635037,0.5255087687565974,-7.771608428681005,1.1885081633157233,1
164,2024-09-20 20:25:31.898191872,TASK_BEGIN,013,0.06728779823066643,-0.041397172718616135,-5.359489365472571,0.630760320445873,-1.973926641534242,0.5061172303691555,-7.658270429940744,1.1257731587690807,1
165,2024-09-20 20:25:31.965918976,TASK_BEGIN,013,0.0904253196492163,-0.05382277576897795,-5.441316041508275,0.6219404434587688,-1.888898579071171,0.49012631596714995,-7.690590377443599,1.084816481079865,1
166,2024-09-20 20:25:32.033633024,TASK_BEGIN,013,0.10513422749873899,-0.06413485825277819,-5.522691100005955,0.6085320421025221,-1.8182593948051744,0.4780090285664045,-7.86529478276438,1.0669259887233715,1
167,2024-09-20 20:25:32.087796992,TASK_BEGIN,013,0.11066784403761101,-0.07197604959389596,-5.596676064152598,0.5909716773006752,-1.7631929099372305,0.47001890254447876,-8.170587960343358,1.0722464786724988,1
168,2024-09-20 20:25:32.164637184,TASK_BEGIN,013,0.10657800488692874,-0.07709397560571021,-5.658212651546573,0.5700508856758012,-1.724008103442728,0.4661691405283001,-8.586945599449251,1.0995648542830065,1
169,2024-09-20 20:25:32.226172160,TASK_BEGIN,013,0.0927527398059425,-0.07934288349490923,-5.704637366063402,0.546870322184995,-1.700210654726779,0.46623289480703733,-9.08863409297076,1.14615270877474,1
170,2024-09-20 20:25:33.179895040,TASK_BEGIN,013,0.0694502136185395,-0.07867519545231233,-5.735528702733944,0.5227041839264427,-1.6906770111748353,0.4697833243196584,-9.645795441768374,1.2078071821695104,1
171,2024-09-20 20:25:33.236226048,TASK_BEGIN,013,0.03731980811908223,-0.07513248544938872,-5.752048802130277,0.49882107552167315,-1.6938900686465246,0.4762691236307184,-10.226864870984206,1.2791574438507756,1
172,2024-09-20 20:25:33.313912064,TASK_BEGIN,013,-0.0026032721564852243,-0.068840033177105,-5.756124736635763,0.47632779657846613,-1.7081367719340956,0.485090685168924,-10.801119082366148,1.3542377824068437,1
173,2024-09-20 20:25:33.376412160,TASK_BEGIN,013,-0.048937492384265924,-0.06000372844767264,-5.74978540272628,0.4560818128893325,-1.731584149244412,0.4956419984577107,-11.341205698508087,1.4272294565106556,1
174,2024-09-20 20:25:33.442035968,TASK_BEGIN,013,-0.10002152394883798,-0.048905851817059635,-5.73480476306022,0.43868070477366533,-1.7622368418335204,0.5073155839611879,-11.825410021556172,1.493164411253134,1
175,2024-09-20 20:25:33.518591744,TASK_BEGIN,013,-0.1540064114604426,-0.03589535676709273,-5.712657779106282,0.4245122083738699,-1.7978676133513831,0.5194959760831924,-12.2392834413201,1.548397935570661,1
176,2024-09-20 20:25:33.581094912,TASK_BEGIN,013,-0.20898346861220815,-0.021369983591311432,-5.68473903538681,0.4138367968164268,-1.836030421140728,0.5315645559550685,-12.576339410779891,1.5908045771434696,1
177,2024-09-20 20:25:34.525936896,TASK_BEGIN,013,-0.2631432524263369,-0.005751704694808773,-5.652736615225531,0.40686504430405396,-1.874217151169411,0.5429212649921178,-12.837700308090723,1.6197661524133697,1
178,2024-09-20 20:25:34.597758976,TASK_BEGIN,013,-0.31493113027231356,0.010538868672513836,-5.6189340230092055,0.40379161426890525,-1.9101424861664515,0.553021022128796,-13.030659616534008,1.6359979161749145,1
179,2024-09-20 20:25:34.665497088,TASK_BEGIN,013,-0.36315103282628153,0.027101279682919577,-5.586188502018336,0.40476950469094447,-1.942059272415025,0.5614182347048695,-13.166311164401371,1.6412185709173468,1
180,2024-09-20 20:25:34.720608000,TASK_BEGIN,013,-0.4069901522079921,0.04356336523578509,-5.557531392863378,0.4098437124388252,-1.968973883430083,0.5678021525178101,-13.256781064195982,1.6377170582656138,1
181,2024-09-20 20:25:34.798238976,TASK_BEGIN,013,-0.44597820333089744,0.0595833938683009,-5.535572612910322,0.4188816343198224,-1.990684266946741,0.5720012349234136,-13.31276562279786,1.6279048801143607,1
182,2024-09-20 20:25:34.868687104,TASK_BEGIN,013,-0.47991545470611363,0.07485309028251191,-5.521934182555036,0.431525878533388,-2.007651940583046,0.5739525140838276,-13.341887943745567,1.6139360685128306,1
183,2024-09-20 20:25:34.936497152,TASK_BEGIN,013,-0.5088019696240634,0.08910423221558969,-5.516822310895957,0.44717697608705764,-2.020777679303881,0.5736602364903903,-13.348172911130815,1.5975003644231311,1
184,2024-09-20 20:25:35.880687104,TASK_BEGIN,013,-0.5327924195091679,0.10211931840023905,-5.518754685944661,0.465002164900401,-2.0311556066095657,0.5711690904083374,-13.332664044896218,1.5798653649202459,1
185,2024-09-20 20:25:35.948345088,TASK_BEGIN,013,-0.5521725905829709,0.11374427364522387,-5.524488280711357,0.483961692755677,-2.039858530606631,0.5665531199018946,-13.2947583036735,1.562104758382328,1
186,2024-09-20 20:25:36.009495040,TASK_BEGIN,013,-0.5673213963568075,0.12389588989389563,-5.529249235421084,0.5028495299594533,-2.047797066502636,0.5599155488177009,-13.23361172156204,1.545340339043748,1
187,2024-09-20 20:25:36.071080704,TASK_BEGIN,013,-0.5786379898473506,0.13255726192817585,-5.527283030523615,0.5203495692400587,-2.055670155536304,0.5514033243749977,-13.14910708030353,1.5308456180032914,1
188,2024-09-20 20:25:36.151720960,TASK_BEGIN,013,-0.5864646061228037,0.13976349724639167,-5.512604980519781,0.5351074592121828,-2.063978307296857,0.541231247533877,-13.042135613943827,1.5199750319919512,1
189,2024-09-20 20:25:36.219495168,TASK_BEGIN,013,-0.5910501254429212,0.14558665709929922,-5.479804681957987,0.5458182008370275,-2.0730720689402338,0.5297008364840248,-12.9142946578002,1.5139864138023518,1
190,2024-09-20 20:25:36.272360960,TASK_BEGIN,013,-0.5925610550399962,0.15012503928443252,-5.424759155854529,0.5513186430875131,-2.08324150777648,0.5172081855678532,-12.767363541238197,1.5138232603038788,1
191,2024-09-20 20:25:37.190829056,TASK_BEGIN,013,-0.5911111339334221,0.15349389471835453,-5.345111672264493,0.5506654140245646,-2.0948321512933927,0.504240958653164,-12.60276047348093,1.5198699741742328,1
192,2024-09-20 20:25:37.268482816,TASK_BEGIN,013,-0.5867824174099869,0.15581338445394874,-5.240499752773703,0.5432008746394485,-2.1083260539104556,0.49135789600141055,-12.42091421833939,1.531695834352574,1
193,2024-09-20 20:25:37.330507008,TASK_BEGIN,013,-0.5796319747297769,0.15719483615761923,-5.112655970402641,0.5286315424960325,-2.1243331578439375,0.4791446883096059,-12.220627625826157,1.5478508379480111,1
194,2024-09-20 20:25:37.408909056,TASK_BEGIN,013,-0.5696956760131859,0.1577301850878516,-4.965467857229406,0.5071222390803618,-2.14348019881649,0.4681511760109846,-11.99879041594857,1.5658002962917974,1
195,2024-09-20 20:25:37.476665088,TASK_BEGIN,013,-0.5570060640093172,0.15748921568114632,-4.804955224698766,0.47937393115415655,-2.166213215574644,0.4588234159566864,-11.75071507714172,1.582062520458805,1
196,2024-09-20 20:25:37.531366912,TASK_BEGIN,013,-0.5416355834430645,0.15652714897104464,-4.639065712847916,0.4466506984050462,-2.192558876599292,0.4514469637465312,-11.471084603897573,1.5925555489540293,1
197,2024-09-20 20:25:37.612195072,TASK_BEGIN,013,-0.5237601284939571,0.15490062006681116,-4.477186282112539,0.4107330062501893,-2.22192427537735,0.44611425200265487,-11.155339560391116,1.5931031763657064,1
198,2024-09-20 20:25:38.555840000,TASK_BEGIN,013,-0.5037161145333044,0.1526831511937318,-4.329289556495746,0.37377493445232196,-2.253012496633334,0.4427199573444333,-10.80119885913816,1.5800097279012686,1
199,2024-09-20 20:25:38.623624960,TASK_BEGIN,013,-0.4820214635911031,0.1499699322218307,-4.204751549973596,0.33806609317990055,-2.2838940809176425,0.4409828828876059,-10.409817369449712,1.550566935262092,1
200,2024-09-20 20:25:38.687212800,TASK_BEGIN,013,-0.4593570038316982,0.14687062532521736,-4.111080931152305,0.3057524490471035,-2.312237420830527,0.44049155036908527,-9.986114690883806,1.5033688618450203,1
201,2024-09-20 20:25:38.759064832,TASK_BEGIN,013,-0.4365204779098865,0.14349657135485477,-4.052931140636688,0.2785991314666888,-2.335649875299609,0.44076389365657664,-9.538218556652359,1.438418872847886,1
202,2024-09-20 20:25:38.811760128,TASK_BEGIN,013,-0.4143538539435745,0.1399469013147538,-4.031695478959234,0.25786087420470316,-2.3520232719884513,0.4413038311391904,-9.076408193678851,1.3570841844087906,1
203,2024-09-20 20:25:38.888492288,TASK_BEGIN,013,-0.3936503632823419,0.1362961833475991,-4.04572790999178,0.24427899824734148,-2.3597745510534276,0.4416409577292693,-8.612041016679315,1.2619313398138634,1
204,2024-09-20 20:25:38.951790080,TASK_BEGIN,013,-0.3750709140789743,0.13258841719862233,-4.090960172023152,0.23816157149250508,-2.357930812235776,0.4413505551228844,-8.156707125829572,1.156470490327299,1
205,2024-09-20 20:25:39.892591104,TASK_BEGIN,013,-0.35908638754060046,0.12883837441787546,-4.161622986683312,0.2394693754176839,-2.346078851272364,0.4400592976068358,-7.721520982733568,1.0448524446172602,1
206,2024-09-20 20:25:39.970748928,TASK_BEGIN,013,-0.34593150273244894,0.12503355342429173,-4.250935549710236,0.24786020630386502,-2.3242467478147533,0.4374450062241666,-7.316353960661679,0.9315328990173647,1
207,2024-09-20 20:25:40.032826880,TASK_BEGIN,013,-0.33556806460094424,0.12113202509643144,-4.351747826136822,0.26269551344592534,-2.292788759040028,0.43323905765103277,-6.949078763283147,0.8209129756806192,1
208,2024-09-20 20:25:40.094901248,TASK_BEGIN,013,-0.3276859134731498,0.11706017933903304,-4.457081102975163,0.2830339280477367,-2.252311598777161,0.4272381801754227,-6.625206194061055,0.7170199697404988,1
209,2024-09-20 20:25:40.172581120,TASK_BEGIN,013,-0.3217615939032899,0.11271612647977651,-4.56049127533539,0.30763507102387505,-2.2036398145878113,0.4193263764134754,-6.3482299135248015,0.6232928495781372,1
210,2024-09-20 20:25:40.234117888,TASK_BEGIN,013,-0.3171621837411007,0.10798025748119519,-4.656268536975898,0.33499668318986,-2.147805128069729,0.4095023519661528,-6.120575260465355,0.5424550565436986,1
211,2024-09-20 20:25:40.312431104,TASK_BEGIN,013,-0.31326518242686385,0.10273209202125962,-4.739558690730081,0.36344357704449076,-2.086075427610046,0.39791011603443976,-5.944643594857006,0.4764135551186293,1
212,2024-09-20 20:25:41.243516160,TASK_BEGIN,013,-0.3095662642579107,0.09687075639114452,-4.8064890698340195,0.3912706787741339,-2.020055457119702,0.38487207521334965,-5.8233952351545195,0.4261723416853038,1
213,2024-09-20 20:25:41.320313088,TASK_BEGIN,013,-0.30574936985101087,0.09033367716368346,-4.854345031493933,0.4169205419716487,-1.9518436880765329,0.3709174277311125,-5.76018940158248,0.3917878218425558,1
214,2024-09-20 20:25:41.382336000,TASK_BEGIN,013,-0.30169757716715323,0.08310839114821071,-4.881773834240625,0.43915533637987164,-1.884182011544126,0.35679632059674976,-5.75790876871975,0.3723538820444783,1
215,2024-09-20 20:25:41.459076864,TASK_BEGIN,013,-0.29744158094285406,0.07523667666276149,-4.8889335309857795,0.4571732054472217,-1.8205304495997041,0.34347547454075394,-5.817698439194812,0.3659935415672623,1
216,2024-09-20 20:25:41.526932736,TASK_BEGIN,013,-0.29307116482696527,0.06681347188653128,-4.877522417319841,0.47063709426384653,-1.7649931944704733,0.3321077536116497,-5.937923388384702,0.36990627408362503,1
217,2024-09-20 20:25:41.594686976,TASK_BEGIN,013,-0.28864995278775807,0.05798178370475497,-4.850679543475404,0.4796278648948108,-1.72202792344872,0.3239600904792581,-6.113807204978424,0.38053050406213945,1
218,2024-09-20 20:25:41.662488064,TASK_BEGIN,013,-0.28416955827612966,0.04892326993941125,-4.812755862415893,0.4845601279335456,-1.6959397618883292,0.3202925116403516,-6.337687041305951,0.3937884303063681,1
219,2024-09-20 20:25:42.577220864,TASK_BEGIN,013,-0.279562412593804,0.03984677690013152,-4.76892330077157,0.48607986106908885,-1.6902412287405828,0.3222019418101499,-6.599618791448606,0.4053685823652566,1
220,2024-09-20 20:25:42.647859200,TASK_BEGIN,013,-0.2747613480102201,0.030978846476142106,-4.724594252952848,0.4849353367701336,-1.7069887745067782,0.33045899604303686,-6.888308361350581,0.41111202733266317,1
221,2024-09-20 20:25:42.714791936,TASK_BEGIN,013,-0.2697636081171797,0.022556017882919947,-4.684722965070853,0.4818321659884585,-1.7462357488076783,0.3453720747516791,-7.192297861424989,0.4075706426798613,1
222,2024-09-20 20:25:42.783291904,TASK_BEGIN,013,-0.2646562109973479,0.014813671059644805,-4.653153946874484,0.477321385356391,-1.8057768675641939,0.36671360839990935,-7.500923886963744,0.39260775217353666,1
223,2024-09-20 20:25:42.838353152,TASK_BEGIN,013,-0.25959164590169587,0.007967616121640436,-4.632127622893673,0.4717518015715214,-1.8812945696277166,0.39372928155855225,-7.804603604927406,0.36576841373410635,1
224,2024-09-20 20:25:42.915545856,TASK_BEGIN,013,-0.25474095460792967,0.0021920020414570767,-4.6219669848016425,0.46526321153281275,-1.9668492938195525,0.4252192172486747,-8.094631310884537,0.32827103375760025,1
225,2024-09-20 20:25:42.977543168,TASK_BEGIN,013,-0.2502605065130849,-0.002398502640611726,-4.621012552254219,0.4577922546577963,-2.0555460245886086,0.4596542070533002,-8.36310212572922,0.2827146513512824,1
226,2024-09-20 20:25:43.929611776,TASK_BEGIN,013,-0.2462853946796129,-0.005757253030383659,-4.625883627096262,0.44910316861355326,-2.140243533766122,0.49529666949962176,-8.603382751392084,0.23269071826795668,1
227,2024-09-20 20:25:43.995422208,TASK_BEGIN,013,-0.24294224426063002,-0.007904118361711903,-4.6319708012572764,0.4388570491996794,-2.2142326958534926,0.5303200096358277,-8.810967186652062,0.18239587944072286,1
228,2024-09-20 20:25:44.058597888,TASK_BEGIN,013,-0.24036682310705657,-0.008916378948510736,-4.633923801581295,0.4266893591968029,-2.2718021225977565,0.5629278387868422,-8.984136009551039,0.1362282404334889,1
229,2024-09-20 20:25:44.122579200,TASK_BEGIN,013,-0.23870613738523874,-0.008917371965422975,-4.626026421619011,0.41225723226861105,-2.308617881697974,0.5914678769417949,-9.124018481096053,0.09833798379561792,1
230,2024-09-20 20:25:44.197729024,TASK_BEGIN,013,-0.2380986759695468,-0.008066165793993251,-4.602577591523397,0.3952601971497133,-2.3219186118501054,0.6145337228457959,-9.234162104234544,0.07216889246206781,1
231,2024-09-20 20:25:44.259729920,TASK_BEGIN,013,-0.2386515334682049,-0.006546673724076736,-4.558391384708157,0.37545862650273043,-2.310569812485733,0.6310493496486352,-9.319899097639162,0.060089208963322746,1
232,2024-09-20 20:25:44.336028928,TASK_BEGIN,013,-0.2404334785315865,-0.004553954977689809,-4.48934106469956,0.35269637929297715,-2.2750026272412107,0.6403291109466913,-9.387679983023412,0.06322459709917608,1
233,2024-09-20 20:25:45.276377856,TASK_BEGIN,013,-0.24348596973126002,-0.002278066188996482,-4.392811781726618,0.3269269011913269,-2.217064765946965,0.6421047499885684,-9.444517595589463,0.08155591716745905,1
234,2024-09-20 20:25:45.340691200,TASK_BEGIN,013,-0.24784080060266395,0.00011175741509202292,-4.268025363430495,0.29824866106786757,-2.1398275331842753,0.6365140510957463,-9.497618652157147,0.11421912980558997,1
235,2024-09-20 20:25:45.401559040,TASK_BEGIN,013,-0.2535241928660333,0.002478948666696947,-4.1162492383412745,0.2669444540891478,-2.047351068188898,0.6240519173987474,-9.553972541107507,0.15982075111371286,1
236,2024-09-20 20:25:45.482796800,TASK_BEGIN,013,-0.2605292013225074,0.004724906400876079,-3.940837983475311,0.233503825218454,-1.9443580362184207,0.6054927788614144,-9.619593223871838,0.21662339366649158,1
237,2024-09-20 20:25:45.550551040,TASK_BEGIN,013,-0.26875876665227505,0.00678688549354147,-3.7470438683602607,0.1986234141185298,-1.8358177800138897,0.5818033929386436,-9.698603529172875,0.2826495633613494,1
238,2024-09-20 20:25:45.618268160,TASK_BEGIN,013,-0.2779690278808133,0.008630358380220549,-3.541653181641479,0.16320664600266985,-1.7265530590947922,0.5540716546902315,-9.792678797758319,0.35584023260180925,1
239,2024-09-20 20:25:45.680866048,TASK_BEGIN,013,-0.28775103283532555,0.010241179493070103,-3.3325784005203936,0.1283723705686304,-1.6209854232109635,0.5234677771411569,-9.90091616323727,0.43426490208320495,1
240,2024-09-20 20:25:46.630758912,TASK_BEGIN,013,-0.2975616174510739,0.011621633366512375,-3.128447328549383,0.09544612510430253,-1.523014802356279,0.49122903315752975,-10.019793521694343,0.5162373056219689,1
241,2024-09-20 20:25:46.697045248,TASK_BEGIN,013,-0.3067757154615466,0.012788008585726618,-2.938152642989699,0.06590734897676202,-1.4359343069591715,0.45863898037653666,-10.143247117376038,0.6002618463625534,1
242,2024-09-20 20:25:46.758021888,TASK_BEGIN,013,-0.31473271122504975,0.01376557731287953,-2.7703703047208723,0.04129918627207573,-1.3623107272070272,0.42697732971317853,-10.2631375975935,0.6848826874664314,1
243,2024-09-20 20:25:46.833678080,TASK_BEGIN,013,-0.3207830963517821,0.01458286296072159,-2.63307323165382,0.023120424798882766,-1.3038433638900022,0.3974401278695979,-10.369914126899863,0.7685267049101873,1
244,2024-09-20 20:25:46.896163072,TASK_BEGIN,013,-0.32434731232969516,0.015269015890965559,-2.5330078017558204,0.012705027541655686,-1.2612347623006523,0.3710432996251629,-10.453073755562146,0.8493844680838222,1
245,2024-09-20 20:25:46.969481984,TASK_BEGIN,013,-0.32497096583034274,0.01585202055116887,-2.4751313220850326,0.011094975685249872,-1.2341013830460998,0.3485220575797333,-10.501430535405387,0.9253491802567745,1
246,2024-09-20 20:25:47.037224192,TASK_BEGIN,013,-0.3223601101994774,0.01635454970261318,-2.4621391245214523,0.01893094357989513,-1.2209876887486215,0.33024732708405435,-10.503500296674426,0.9940114210634736,1
247,2024-09-20 20:25:47.974726144,TASK_BEGIN,013,-0.3164050513529162,0.016791027851166845,-2.4942377633887554,0.03638280391141791,-1.2195354731247028,0.31619119381007643,-10.448231185097525,1.0527077438576269,1
248,2024-09-20 20:25:48.037156096,TASK_BEGIN,013,-0.30719521077203815,0.0171699032383985,-2.569201785189005,0.06311955315923155,-1.2267655214405635,0.3059576709595036,-10.326104859687375,1.098628699043419,1
249,2024-09-20 20:25:48.114337792,TASK_BEGIN,013,-0.2950122020047221,0.017498982540267095,-2.6826491815734768,0.09832035200467269,-1.2393920590982241,0.29886545222738675,-10.130405823363363,1.1289655055061507,1
250,2024-09-20 20:25:48.183613952,TASK_BEGIN,013,-0.2803084775319125,0.017791435365462845,-2.828435517888625,0.1407437718422683,-1.2541396554540523,0.2940577383173362,-9.858357220114145,1.141073781645478,1
251,2024-09-20 20:25:48.251383040,TASK_BEGIN,013,-0.2636975011714318,0.0180747225386706,-2.9990630252674833,0.18885190990428996,-1.268037383850523,0.2906168248382779,-9.511802119187543,1.1326685808870391,1
252,2024-09-20 20:25:48.315102976,TASK_BEGIN,013,-0.24596543647942562,0.01840406388471488,-3.1860754827225155,0.24094965644097033,-1.2786199236307532,0.28766188928350217,-9.097149086934438,1.1020714808954566,1
253,2024-09-20 20:25:48.377137920,TASK_BEGIN,013,-0.22808873298378388,0.018875094150267068,-3.380516483911427,0.2953025982390986,-1.2839780506893474,0.28441197333717677,-8.624672958303517,1.0485099970405094,1
254,2024-09-20 20:25:49.298427904,TASK_BEGIN,013,-0.21122640561090547,0.01962570137094006,-3.5735226371529754,0.35022871976325226,-1.2826903410128727,0.28021143189076053,-8.107734328852063,0.9724399127604625,1
255,2024-09-20 20:25:49.371971072,TASK_BEGIN,013,-0.1966616326942393,0.020822083845525783,-3.7569958446290195,0.40417061486287476,-1.2737428288806538,0.27453380382625026,-7.5623659847779665,0.8758137358197968,1
256,2024-09-20 20:25:49.439693824,TASK_BEGIN,013,-0.18569600754957008,0.022634452565823884,-3.924179293656534,0.45574164593158506,-1.256515528206687,0.26698466248653935,-7.006978703095526,0.7621752321243893,1
257,2024-09-20 20:25:49.499650816,TASK_BEGIN,013,-0.17952141294880303,0.025212525065807647,-4.069955054147898,0.5037293062943021,-1.2308212296725245,0.25731471414897783,-6.461519633225705,0.6364823321675727,1
258,2024-09-20 20:25:49.561256960,TASK_BEGIN,013,-0.17909486207889205,0.028667520218557268,-4.190783784364175,0.5470515778540304,-1.1969530112139133,0.24544599575118445,-5.945850884927747,0.5046818947343789,1
259,2024-09-20 20:25:49.631839232,TASK_BEGIN,013,-0.185039465012507,0.0330620005919076,-4.28437738016186,0.5846964518200047,-1.1557440591791657,0.23150734593084554,-5.477850842311037,0.3731738650163814,1
260,2024-09-20 20:25:49.710607872,TASK_BEGIN,013,-0.19758982022456376,0.038406043481429654,-4.349349100424457,0.6156944617531396,-1.1086415547795248,0.21586352588013827,-5.07188911308242,0.2482836814817562,1
261,2024-09-20 20:25:50.654284032,TASK_BEGIN,013,-0.21658207678289593,0.04465771977881655,-4.385042655108086,0.6391420145301553,-1.057730865696094,0.1991145477668319,-4.737971637397162,0.135790343856165,1
262,2024-09-20 20:25:50.707449856,TASK_BEGIN,013,-0.2414755555651931,0.051726753350656185,-4.391512250906839,0.6542499752063573,-1.0056412488627329,0.18205098601500488,-4.481573589705086,0.04054657673695182,1
263,2024-09-20 20:25:50.784668928,TASK_BEGIN,013,-0.2713962783244374,0.05948211081824364,-4.369523855215749,0.6604039763861048,-0.9553517404081325,0.16557279752461754,-4.303959761768217,-0.03380148137425462,1
264,2024-09-20 20:25:50.846476032,TASK_BEGIN,013,-0.3051977583416375,0.06776502331161774,-4.320570804948513,0.6572545515891404,-0.9099900284989872,0.15059627521182672,-4.202511042586441,-0.08507667822343654,1
265,2024-09-20 20:25:50.925138944,TASK_BEGIN,013,-0.3415333956749427,0.07640594705920925,-4.246956949935768,0.6448341608897059,-0.8726828777504072,0.13797094388195347,-4.1706350073516285,-0.11288488038342573,1
266,2024-09-20 20:25:50.992865024,TASK_BEGIN,013,-0.3789356971339649,0.08524013104983533,-4.1519031763751,0.6236576523840162,-0.8464111925915938,0.12840966383617888,-4.197453319832579,-0.11886121240116052,1
267,2024-09-20 20:25:51.060608000,TASK_BEGIN,013,-0.41590408217361,0.09411743364058256,-4.039611786604249,0.5947661905086284,-0.8337854173267943,0.12242580902527002,-4.267950974354626,-0.10660079599805729,1
268,2024-09-20 20:25:52.004175872,TASK_BEGIN,013,-0.4510049322636513,0.10290596031910289,-3.9153093227617783,0.5597040431815234,-0.8367348832625878,0.12028126200692894,-4.363977747252301,-0.08119434182028042,1
269,2024-09-20 20:25:52.066474752,TASK_BEGIN,013,-0.4829771930181356,0.11149075639145323,-3.7852679629541686,0.5204376391135067,-0.8561991007195995,0.12195968331147275,-4.465954266250002,-0.048553980179734335,1
270,2024-09-20 20:25:52.139852032,TASK_BEGIN,013,-0.5108285236169504,0.11976911836022486,-3.6566878887082472,0.47923513533044276,-0.8919349005716793,0.12717723403540085,-4.5550602470068595,-0.014725524340840727,1
271,2024-09-20 20:25:52.207601152,TASK_BEGIN,013,-0.5339114178254275,0.12764490452810398,-3.5373164074425087,0.43851739380718624,-0.9425117635288699,0.13543205574909073,-4.61569795165815,0.014789963212632777,1
272,2024-09-20 20:25:52.275324928,TASK_BEGIN,013,-0.5519741216658463,0.13502426918526242,-3.4348120484229216,0.40067822369142236,-1.005495529977247,0.14607938971014678,-4.637793992552315,0.03572889049605099,1
273,2024-09-20 20:25:52.328837888,TASK_BEGIN,013,-0.5651783599632316,0.14181463159835025,-3.3559972125449162,0.36788565552846164,-1.077754825961121,0.15840802788967973,-4.618334782772848,0.045670066012702626,1
274,2024-09-20 20:25:52.405974016,TASK_BEGIN,013,-0.5740721799038533,0.14792788010432525,-3.3061861878104053,0.3419059703951839,-1.155798725515137,0.171699242100457,-4.561580545883898,0.0443576405094718,1
275,2024-09-20 20:25:53.317380864,TASK_BEGIN,013,-0.5795101602929588,0.15328676500345062,-3.288707146867659,0.32398791706585534,-1.23608025545372,0.18526836670382524,-4.4777327712831445,0.03362199508496678,1
276,2024-09-20 20:25:53.395058176,TASK_BEGIN,013,-0.5825228152346662,0.15783092050200312,-3.304620695731255,0.3147978833523502,-1.3152412362141541,0.1984987963700003,-4.38046960184086,0.01694078749712098,1
277,2024-09-20 20:25:53.465732096,TASK_BEGIN,013,-0.5841500787013408,0.16151861995970376,-3.3525813095809727,0.31436548286031046,-1.3902906142303508,0.21086963514345888,-4.284294805398893,-0.0012102172449732734,1
278,2024-09-20 20:25:53.519166976,TASK_BEGIN,013,-0.5852733302881357,0.16432262567956782,-3.4288385058342867,0.32203117271330445,-1.4587159786449613,0.22196967762076777,-4.202554696198067,-0.016057868375517485,1
279,2024-09-20 20:25:53.601214208,TASK_BEGIN,013,-0.5864947573065517,0.16622189514159624,-3.5274623286467683,0.3364439635267321,-1.5185476918231886,0.23149730622928072,-4.146268621981684,-0.02318557007938919,1
280,2024-09-20 20:25:53.668909056,TASK_BEGIN,013,-0.5880978785146374,0.1671939880899276,-3.6408689410088684,0.35566131799533185,-1.5684020557332388,0.23925637061968832,-4.123261145438479,-0.019118114158595084,1
281,2024-09-20 20:25:53.736334848,TASK_BEGIN,013,-0.5900798985018779,0.16721242007827145,-3.7606030456121404,0.3773509492538549,-1.6074954177739091,0.24515430508889297,-4.1371736697531025,-0.0018327298632388636,1
282,2024-09-20 20:25:54.675318784,TASK_BEGIN,013,-0.5922120318028514,0.16624840342664068,-3.8782322556143902,0.39904851294489924,-1.6355779730620534,0.24919664063871172,-4.186564339591126,0.028863097548408663,1
283,2024-09-20 20:25:54.735814912,TASK_BEGIN,013,-0.594091609019489,0.16427381929351895,-3.9861953454024857,0.4184252687335043,-1.6527608030767156,0.25146935914303364,-4.264689552760036,0.07119841095817,1
284,2024-09-20 20:25:54.814808064,TASK_BEGIN,013,-0.595186231345609,0.16126447909102967,-4.0784890040886985,0.4335399646783976,-1.659309304081736,0.25211346533671725,-4.3603487208289105,0.12163831538952684,1
285,2024-09-20 20:25:54.883470848,TASK_BEGIN,013,-0.5948864870483939,0.15720406353267283,-4.151122807799821,0.443045757446543,-1.6555355014722426,0.2513092797495876,-4.4596488462057025,0.17540074057172134,1
286,2024-09-20 20:25:54.937999104,TASK_BEGIN,013,-0.5925633510468215,0.1520867184355363,-4.202305807398968,0.44630807950618745,-1.6418438485439604,0.24927702338832058,-4.548183590557447,0.22715180392617293,1
287,2024-09-20 20:25:55.015281920,TASK_BEGIN,013,-0.5876111089942383,0.14591472232865282,-4.232377171352782,0.44340784490077073,-1.618847194839931,0.24627478838756614,-4.6131523164397255,0.2717009483496234,1
288,2024-09-20 20:25:55.076809728,TASK_BEGIN,013,-0.579474448751339,0.13869147812566462,-4.243566154488288,0.4350518868526754,-1.5874283390623614,0.24257131758057998,-4.645198246802192,0.30460000675840265,1
289,2024-09-20 20:25:56.030226176,TASK_BEGIN,013,-0.5676793082816707,0.1304167753379779,-4.239725154618517,0.4224450917527646,-1.5486993914159128,0.23839360474027826,-4.6398149822359205,0.3226271316163058,1
290,2024-09-20 20:25:56.094835968,TASK_BEGIN,013,-0.5518817183145632,0.12109222731211558,-4.2261186653835106,0.40716493633904705,-1.503898650122679,0.23387127255341145,-4.597936785369891,0.3240909797888032,1
291,2024-09-20 20:25:56.157350144,TASK_BEGIN,013,-0.5319269411195708,0.1107359212090882,-4.209149245021066,0.39102969623125283,-1.4542857779836416,0.22900347231465001,-4.525348199278451,0.3088665423182063,1
292,2024-09-20 20:25:56.221774080,TASK_BEGIN,013,-0.5078970170774808,0.09939639068804033,-4.195814291156306,0.3759266894350962,-1.4010579594384358,0.22366021873874375,-4.431227384849454,0.278212350721081,1
293,2024-09-20 20:25:56.296440064,TASK_BEGIN,013,-0.48013075459405263,0.08715850410933453,-4.1928943904191955,0.36360291476353307,-1.3452709293872813,0.21761089728837127,-4.326759985532115,0.23453917412069442,1
294,2024-09-20 20:25:56.358822144,TASK_BEGIN,013,-0.4492148219336911,0.07414287741527108,-4.206087700113582,0.35546549879008427,-1.2877583890420887,0.21056345573844845,-4.224405779065993,0.18121027605100815,1
295,2024-09-20 20:25:56.436468992,TASK_BEGIN,013,-0.4159525858967716,0.060504529751784976,-4.239231572939869,0.3524361714106425,-1.2290739929524876,0.20220230829194008,-4.137420029959632,0.1222840258882459,1
296,2024-09-20 20:25:57.375503872,TASK_BEGIN,013,-0.38131954705286636,0.04643418750377319,-4.293616500927869,0.3548741334538164,-1.1694823455084509,0.19222213443759187,-4.078845022396381,0.06208965882984584,1
297,2024-09-20 20:25:57.437299968,TASK_BEGIN,013,-0.34641348891884083,0.03216123350233742,-4.367500276187504,0.3625629537628146,-1.1090212470134446,0.18036228603047072,-4.059805476513669,0.004667574157332285,1
298,2024-09-20 20:25:57.515806976,TASK_BEGIN,013,-0.31240211596552214,0.017953836429885205,-4.456072204925415,0.37474952577227866,-1.0476549516765867,0.16644997569636852,-4.087673504955923,-0.04676553912053454,1
299,2024-09-20 20:25:57.576679936,TASK_BEGIN,013,-0.28046523477107876,0.004111422092758286,-4.551951432497035,0.39022153915198443,-0.9854901452378704,0.15045340796780204,-4.1647058991470365,-0.09016921024649896,1
300,2024-09-20 20:25:57.651279104,TASK_BEGIN,013,-0.2517254670948019,-0.00905278408215182,-4.6459907860084835,0.40741029450383626,-0.9229682942510296,0.13253206561446926,-4.287392473553734,-0.1247898451770941,1
301,2024-09-20 20:25:57.719032064,TASK_BEGIN,013,-0.22715970607573552,-0.021238287845574213,-4.7281218459052745,0.42450836517225027,-0.8609560097181308,0.11306473984983502,-4.446561838298493,-0.15108157347400789,1
302,2024-09-20 20:25:57.786801920,TASK_BEGIN,013,-0.20750086681040933,-0.032187096964411695,-4.788174182452551,0.43960709148935045,-0.8007064783490241,0.09264210399945028,-4.628255751295813,-0.17054839723228898,1
303,2024-09-20 20:25:58.718822912,TASK_BEGIN,013,-0.19317549563148698,-0.04170458441494767,-4.816673362598157,0.4508663684789566,-0.7437105669666576,0.07202404901708048,-4.8152376441795335,-0.1855772612713622,1
304,2024-09-20 20:25:58.798714112,TASK_BEGIN,013,-0.18431406400312397,-0.04966187572175339,-4.8055533320536865,0.4566996767942111,-0.6914839907561953,0.05207199951415237,-4.98880721546422,-0.19923741382745996,1
305,2024-09-20 20:25:58.866466048,TASK_BEGIN,013,-0.1808034207514121,-0.05598364690311848,-4.748718765528546,0.45592515486451884,-0.6453422977436213,0.03366846622027725,-5.1307161501964975,-0.21496950431487766,1
306,2024-09-20 20:25:58.934176000,TASK_BEGIN,013,-0.18231921474909243,-0.060633576582831604,-4.642486703310151,0.4478524874670837,-0.6062144626964914,0.017638841964093138,-5.225292089981745,-0.2361097539641552,1
307,2024-09-20 20:25:59.001894912,TASK_BEGIN,013,-0.1883217141228983,-0.06360470271690731,-4.4859899242294485,0.43232118400211983,-0.5745495104811921,0.004693901982322393,-5.2616495820775,-0.2652978350217249,1
308,2024-09-20 20:25:59.069648896,TASK_BEGIN,013,-0.19804896992533644,-0.06491455281273086,-4.281493431358898,0.40970412470697204,-0.5503511189646269,-0.004597947507661494,-5.235254598757064,-0.3039441787970141,1
309,2024-09-20 20:25:59.135897088,TASK_BEGIN,013,-0.21054576270106262,-0.0646033519830827,-4.0343853886140115,0.38085217759164425,-0.5333292764518308,-0.009817520474178434,-5.148243355776574,-0.35193135148834614,1
310,2024-09-20 20:26:00.055072000,TASK_BEGIN,013,-0.2247455848468611,-0.06273339297580663,-3.7527108222334933,0.34697169611711076,-0.5231177547595177,-0.01069796793035305,-5.008788208477963,-0.40758377969287884,1
311,2024-09-20 20:26:00.119170816,TASK_BEGIN,013,-0.23959908325615598,-0.05938650595771802,-3.4464551728719184,0.3094894405566103,-0.5194765331791314,-0.0071365823926008085,-4.830188063548099,-0.4678443097554651,1
312,2024-09-20 20:26:00.190589952,TASK_BEGIN,013,-0.25421968441007853,-0.05465886363916244,-3.126887516011271,0.2699655646153571,-0.5223992379429852,0.0007854727556143141,-4.629795480971449,-0.5286211767838705,1
313,2024-09-20 20:26:00.258266880,TASK_BEGIN,013,-0.26800303715890905,-0.04865761130667218,-2.8060387143123413,0.2300500915937206,-0.5321084172009805,0.012789473771476982,-4.427409016801492,-0.585275511084314,1
314,2024-09-20 20:26:00.325970944,TASK_BEGIN,013,-0.28067990588789327,-0.041505180394468696,-2.4961648722342304,0.19142787736888497,-0.5489747592382809,0.028403870453952325,-4.243205782513336,-0.6331281371273073,1
315,2024-09-20 20:26:00.393724160,TASK_BEGIN,013,-0.29228479133629404,-0.03335057897864247,-2.2090796947928513,0.15571395019004347,-0.5733783213674657,0.046986541913041094,-4.09593325162947,-0.6678200283798821,1
316,2024-09-20 20:26:00.460827904,TASK_BEGIN,013,-0.30306062681862683,-0.02437812313389615,-1.955446437972937,0.12432034067697134,-0.6055274924573923,0.06775989845136082,-4.001841589586972,-0.6854763760249966,1
317,2024-09-20 20:26:01.405117952,TASK_BEGIN,013,-0.3133466316150889,-0.01480424457166889,-1.7442571980938122,0.09835744547905535,-0.6452989591566446,0.08986089836838002,-3.9740989252067904,-0.6827793756765087,1
318,2024-09-20 20:26:01.463449088,TASK_BEGIN,013,-0.323486438779743,-0.004862497923677734,-1.5826429495467302,0.078615956654734,-0.6921602379576515,0.112406399149926,-4.02219181709969,-0.6570860927683699,1
319,2024-09-20 20:26:01.540615936,TASK_BEGIN,013,-0.3337720699751187,0.005217406744391968,-1.475920443844806,0.06561716748518194,-0.745180651869431,0.13456400237241842,-4.151140617289116,-0.6066335312123661,1
320,2024-09-20 20:26:01.604965120,TASK_BEGIN,013,-0.3444369445495605,0.015234106360083814,-1.4276091095135763,0.05967617507998329,-0.8031133931327649,0.1556150815364957,-4.360725072941236,-0.5307766654547299,1
321,2024-09-20 20:26:01.668462080,TASK_BEGIN,013,-0.3556997605719045,0.02504151199525402,-1.439201477569714,0.06092212926542327,-0.8645408480625579,0.1750022069058342,-4.645067197019603,-0.4301839462026626,1
322,2024-09-20 20:26:01.743865088,TASK_BEGIN,013,-0.3678203016724623,0.03456968853077204,-1.5096961379697782,0.06925430110934522,-0.9280733031910129,0.19236155155798115,-4.992921380019305,-0.30692449773336256,1
323,2024-09-20 20:26:01.807461888,TASK_BEGIN,013,-0.38110869659153734,0.04382720044996578,-1.635132168892243,0.08426672693412737,-0.9925662637279223,0.20754270885465256,-5.3888577283386985,-0.1643861665876123,1
324,2024-09-20 20:26:02.744987136,TASK_BEGIN,013,-0.39586715805195094,0.052881137189846404,-1.8084370126957594,0.10520589498782909,-1.057285171609948,0.22060847030503522,-5.815051673053131,-0.007010407144576875,1
325,2024-09-20 20:26:02.822667008,TASK_BEGIN,013,-0.4122922209443803,0.061822269520857696,-2.0197214720597416,0.1309911584138119,-1.1219458667645086,0.23180648744883378,-6.252944411714475,0.16007688363528091,1
326,2024-09-20 20:26:02.890906112,TASK_BEGIN,013,-0.43037675464316305,0.07072601372519656,-2.25688266905634,0.16026820167092132,-1.186614204000615,0.24152318547148258,-6.6842874000671415,0.33141915053543153,1
327,2024-09-20 20:26:02.946210048,TASK_BEGIN,013,-0.4498383654389969,0.07961782925595794,-2.506314719926818,0.1914605843518513,-1.2514982838751425,0.25023593627359336,-7.091787553249319,0.5015091480643286,1
328,2024-09-20 20:26:03.026364928,TASK_BEGIN,013,-0.47009439124602914,0.08844989312598839,-2.7536617399668786,0.22281879380346137,-1.3166908172496514,0.25846309947710255,-7.459736957567797,0.6650029247273727,1
329,2024-09-20 20:26:03.094132736,TASK_BEGIN,013,-0.49029528531174305,0.09709409367800961,-2.9846391605452847,0.2524845556951091,-1.3819572984580768,0.2667071520080983,-7.7745992632679295,0.8168850713263511,1
330,2024-09-20 20:26:03.160988160,TASK_BEGIN,013,-0.5094043680926602,0.10535142350717694,-3.1859399953358754,0.2785844962053177,-1.4466850383157017,0.2754031384522466,-8.025423383091283,0.9526204916480611,1
331,2024-09-20 20:26:04.080306176,TASK_BEGIN,013,-0.5262969033544524,0.11297239354057922,-3.3461709655515572,0.29935227317563634,-1.5100343689647446,0.2848913619883616,-8.204306265036305,1.0683532843207166,1
332,2024-09-20 20:26:04.148075264,TASK_BEGIN,013,-0.5398628296410178,0.11968242784853698,-3.4566899465501915,0.3132667018401412,-1.5711996270818342,0.29541231443954374,-8.307194849027802,1.1611639082032543,1
333,2024-09-20 20:26:04.215799040,TASK_BEGIN,013,-0.5491078443691806,0.12520754952384003,-3.512240661267008,0.3191956417469928,-1.6296140809008695,0.3070999467678746,-8.334890984952583,1.2293186244379966,1
334,2024-09-20 20:26:04.280309760,TASK_BEGIN,013,-0.5532396515748995,0.12929520270177278,-3.5113339654873434,0.31652629518790093,-1.6849829358639,0.31995630613419956,-8.293778985678816,1.272438660524445,1
335,2024-09-20 20:26:04.337663744,TASK_BEGIN,013,-0.5517223379368382,0.13172645477841788,-3.456293074241119,0.3052417025140657,-1.7371510766934175,0.3338154140797073,-8.195909558044944,1.2915483532342575,1
336,2024-09-20 20:26:04.418985984,TASK_BEGIN,013,-0.5442917944822924,0.13232104103059025,-3.352885455772525,0.28591568743481677,-1.7859033541853844,0.348319039166089,-8.058417433862433,1.2889824267561163,1
337,2024-09-20 20:26:04.476457984,TASK_BEGIN,013,-0.5309355374594018,0.13094056641500967,-3.2095965289784694,0.2596396112851796,-1.8308038985679334,0.3629266290397977,-7.902460206305685,1.2681646869192038,1
338,2024-09-20 20:26:05.430360064,TASK_BEGIN,013,-0.5118503101569137,0.12749400163083835,-3.0367082244065875,0.22791483328175946,-1.871140273401888,0.3769730315466763,-7.751792592495186,1.2332985086511212,1
339,2024-09-20 20:26:05.498139904,TASK_BEGIN,013,-0.4873998986799073,0.12194605470386993,-2.8453571229642463,0.1925400307933525,-1.905986129066159,0.38976887403858745,-7.6308837437816335,1.1889917888183918,1
340,2024-09-20 20:26:05.565897984,TASK_BEGIN,013,-0.45808618453383715,0.11432628370002794,-2.646717014891654,0.15550916320114105,-1.9343464440249425,0.40071378604652497,-7.562521550925459,1.1398057149933671,1
341,2024-09-20 20:26:05.633609984,TASK_BEGIN,013,-0.4245210167729888,0.10473521852573901,-2.451359907246519,0.11891168253519462,-1.9553231792238537,0.4093828419955682,-7.565176520459737,1.0897313618325124,1
342,2024-09-20 20:26:05.695275264,TASK_BEGIN,013,-0.38737869356740434,0.09334313155908318,-2.268738568458709,0.0848089591672825,-1.9682449788711673,0.41556495163319973,-7.650616974868833,1.0416753218189678,1
343,2024-09-20 20:26:05.757051136,TASK_BEGIN,013,-0.34733290346245416,0.08037912756449002,-2.106715971782522,0.05507375000783736,-1.9727332946534593,0.4192621514931032,-7.82218923457175,0.997100493098363,1
344,2024-09-20 20:26:05.835294976,TASK_BEGIN,013,-0.30500934873799934,0.06611380685260411,-1.9711512939027052,0.031214290716293138,-1.9687154382572734,0.42067119032393707,-8.073993944722174,0.9559241614954649,1
345,2024-09-20 20:26:06.774294016,TASK_BEGIN,013,-0.26097937974317625,0.050842638431765126,-1.865657273530352,0.014234558693117728,-1.9564098432847026,0.42015670490807444,-8.391098389771694,0.9166905785354206,1
346,2024-09-20 20:26:06.836864000,TASK_BEGIN,013,-0.2157854673317395,0.03487466298104558,-1.791612149231193,0.00457431649747958,-1.9362810788594775,0.4182106202192246,-8.750862419418604,0.8770227114967599,1
347,2024-09-20 20:26:06.914854912,TASK_BEGIN,013,-0.16997159698404785,0.018527114615592578,-1.7483080954473842,0.002126334443640887,-1.9089418597054513,0.4153940830878538,-9.12521460230351,0.834310483111058,1
348,2024-09-20 20:26:06.983112960,TASK_BEGIN,013,-0.12410706676400568,0.002125018672042977,-1.7330420116183833,0.006295457275013972,-1.875017570634643,0.41227145202017274,-9.483420026644687,0.7864487086876322,1
349,2024-09-20 20:26:07.037337856,TASK_BEGIN,013,-0.0788080354103185,-0.013997479551259314,-1.7411692739051416,0.016071730830442665,-1.8350372282694927,0.4093538592122019,-9.79485636251071,0.7323810994884787,1
350,2024-09-20 20:26:07.114538752,TASK_BEGIN,013,-0.03475778093715887,-0.029499870209243533,-1.7663537318144333,0.03011791991147835,-1.789398177710338,0.4070632521177405,-10.031536930571269,0.6723173308828485,1
351,2024-09-20 20:26:07.186336000,TASK_BEGIN,013,0.007287440065347348,-0.044047095292442655,-1.8011779642839272,0.0468912389401132,-1.7384012981665566,0.4057152082684248,-10.170348346832998,0.6076436782448934,1
352,2024-09-20 20:26:08.123350016,TASK_BEGIN,013,0.046529735562485686,-0.0573320184922262,-1.8380189490145882,0.06479657034096105,-1.682351683117546,0.40551630200320765,-10.195020088942384,0.5406344401514892,1
353,2024-09-20 20:26:08.185009920,TASK_BEGIN,013,0.08220552634079754,-0.06910509104876107,-1.8699023794126324,0.08232155440320682,-1.6217415253276941,0.40657590552955447,-10.097739874670786,0.4740767877562852,1
354,2024-09-20 20:26:08.265517056,TASK_BEGIN,013,0.113680727623468,-0.07920254677745511,-1.891067143565236,0.09810341859220947,-1.557482784131578,0.40892603568901553,-9.880249571003883,0.41089988227561486,1
355,2024-09-20 20:26:08.333259008,TASK_BEGIN,013,0.14052973306266608,-0.08756432167050536,-1.8971713504283823,0.11093235794792018,-1.49106798239498,0.4125324378880111,-9.554128101316014,0.3538702978738045,1
356,2024-09-20 20:26:08.400907008,TASK_BEGIN,013,0.16257901893494897,-0.09423766223042213,-1.8852980040659308,0.11974498792964688,-1.4245380309472806,0.4172861258186543,-9.139846953409654,0.3053548322594857,1
357,2024-09-20 20:26:08.463233024,TASK_BEGIN,013,0.1799084056897707,-0.09936617373995278,-1.8539661405270034,0.12366064442789859,-1.360239361754593,0.42298146984715407,-8.664491065493584,0.26711528916309685,1
358,2024-09-20 20:26:08.525639936,TASK_BEGIN,013,0.19280849806450584,-0.1031657413828878,-1.803206598172077,0.12207305098439793,-1.300454318494733,0.4292948197899813,-8.158637656350558,0.2401606557214157,1
359,2024-09-20 20:26:09.478117888,TASK_BEGIN,013,0.20170676005864477,-0.10589138551995228,-1.734640152785084,0.11476956384948299,-1.2470278040955178,0.43577631432215835,-7.653115875325662,0.22474284566005234,1
360,2024-09-20 20:26:09.540602112,TASK_BEGIN,013,0.20709276243511954,-0.10780299697715584,-1.6514592620931614,0.10202423243285523,-1.201088365251808,0.4418634039674812,-7.176108045726496,0.2204966010506503,1
361,2024-09-20 20:26:09.616107008,TASK_BEGIN,013,0.20947627315260375,-0.10913962032260746,-1.5581607090717977,0.08459711474347097,-1.1629053746878726,0.44691732224673036,-6.750735760896312,0.22657701499821192,1
362,2024-09-20 20:26:09.675952896,TASK_BEGIN,013,0.2093870299837508,-0.11010796838733519,-1.4599128467675198,0.06360370268094545,-1.1318985075869419,0.450279094810245,-6.393184668447571,0.24164961865643222,1
363,2024-09-20 20:26:09.751577856,TASK_BEGIN,013,0.2073889693714908,-0.11088275373443034,-1.3616864700070326,0.040301472021880495,-1.1068084804299458,0.45134130728214167,-6.111542297130665,0.26374986586966276,1
364,2024-09-20 20:26:09.819340032,TASK_BEGIN,013,0.20407815114132463,-0.11161205705488027,-1.2675167594012722,0.015895740889427776,-1.085985402185108,0.4496261617495881,-5.9056592988638945,0.2901739454358978,1
365,2024-09-20 20:26:09.887079168,TASK_BEGIN,013,0.20006677296756697,-0.11242396068849206,-1.1802026554276566,-0.008565496366869417,-1.0676931274382002,0.444849843766274,-5.768229879148684,0.3175630902044198,1
366,2024-09-20 20:26:10.805741056,TASK_BEGIN,013,0.19596914758996442,-0.11343374182171558,-1.101427994807735,-0.03221153144850252,-1.0503375452087749,0.436950554131738,-5.68692513620726,0.3422111755407909,1
367,2024-09-20 20:26:10.866159872,TASK_BEGIN,013,0.19238045321401634,-0.11474919043704011,-1.0320509263657895,-0.0543279678149983,-1.0325963937133558,0.4260740617257783,-5.647050257695289,0.36047166394430674,1
368,2024-09-20 20:26:10.928224000,TASK_BEGIN,013,0.18983025361673983,-0.11647087546730091,-0.9723665967048915,-0.07433358708794258,-1.013493725687883,0.4125373140916681,-5.6340155899224165,0.36910379667579324,1
369,2024-09-20 20:26:11.006331136,TASK_BEGIN,013,0.1887232902443817,-0.11868742721342808,-0.9223248981322317,-0.09177228210912543,-0.9924519058413659,0.39679558747859617,-5.635014006967547,0.36549099865755774,1
370,2024-09-20 20:26:11.068450048,TASK_BEGIN,013,0.18929887085875347,-0.12146780612934927,-0.8817501309908856,-0.10631864954388971,-0.9692995757960432,0.3794156680632013,-5.639651323698575,0.3477424307060325,1
371,2024-09-20 20:26:11.144449024,TASK_BEGIN,013,0.1916184914184218,-0.12485115334289494,-0.8505613178489895,-0.1177856523398251,-0.9442202435985255,0.3610408730870301,-5.6397476265464235,0.3147078896702607,1
372,2024-09-20 20:26:11.212191232,TASK_BEGIN,013,0.19556968076292738,-0.12883474713730908,-0.828906746817986,-0.12612903274204845,-0.9176808431616407,0.3423428470067611,-5.62888915190955,0.26597971256657565,1
373,2024-09-20 20:26:12.152867072,TASK_BEGIN,013,0.2008808319425467,-0.1333628889424913,-0.8170930729593119,-0.13145287323115235,-0.8903950625602088,0.32397226437886323,-5.602236889365574,0.2019609602757068,1
374,2024-09-20 20:26:12.215374080,TASK_BEGIN,013,0.20714977457186268,-0.13832006262442006,-0.8153066386174924,-0.1340115530443109,-0.8633428859118792,0.3065232974379403,-5.556674777662056,0.12396994538039159,1
375,2024-09-20 20:26:12.291264768,TASK_BEGIN,013,0.21388130617375795,-0.14353007894923644,-0.8233265608793021,-0.134189538261653,-0.8378205773961617,0.2905150201461122,-5.491095135174208,0.03427825151534972,1
376,2024-09-20 20:26:12.355256064,TASK_BEGIN,013,0.2205228925232685,-0.14876186519843257,-0.8404892689563459,-0.1324463121808203,-0.8154637518450961,0.27638314612094844,-5.4065818465686295,-0.06396131993579808,1
377,2024-09-20 20:26:12.417741824,TASK_BEGIN,013,0.2264911592493484,-0.1537413909575736,-0.8659772720139828,-0.12923578705340294,-0.7981963104407324,0.26447726943032174,-5.3063054356043144,-0.16688300286295923,1
378,2024-09-20 20:26:12.479335936,TASK_BEGIN,013,0.23119142000633022,-0.1581672117249459,-0.8992357737242528,-0.12493170931293063,-0.7880910504769588,0.2550656091718382,-5.19509762418821,-0.27016684239159106,1
379,2024-09-20 20:26:12.557444096,TASK_BEGIN,013,0.2340378959380578,-0.16172573053440492,-0.9402296462688993,-0.11979166963663221,-0.7871525654697668,0.24834708467620467,-5.078787571496879,-0.36937455094118166,1
380,2024-09-20 20:26:13.493940224,TASK_BEGIN,013,0.23447035771584504,-0.16410289700122374,-0.9894110346604597,-0.1139658309219299,-0.797066679889044,0.24445997228941418,-4.963367607836013,-0.46030928476477345,1
381,2024-09-20 20:26:13.571329024,TASK_BEGIN,013,0.23195817871144805,-0.1649931224898912,-1.047473921769801,-0.10753327830954593,-0.8189924045155234,0.2434760556681586,-4.854173522968107,-0.5393260063876619,1
382,2024-09-20 20:26:13.625829888,TASK_BEGIN,013,0.22600792254214555,-0.16411073601829662,-1.1150354173380914,-0.10054681299977795,-0.8534372610628774,0.24538064756633193,-4.75542595588147,-0.603535925302494,1
383,2024-09-20 20:26:13.703099136,TASK_BEGIN,013,0.21619927641146688,-0.16120757856918608,-1.1923641141541255,-0.09306329180971515,-0.9001827251444539,0.25004622069914806,-4.670346001603114,-0.6508796739321291,1
384,2024-09-20 20:26:13.765099008,TASK_BEGIN,013,0.20223850405443378,-0.15609377538604424,-1.2792655091777285,-0.08512828598586135,-0.9582376748172996,0.2572127762515381,-4.601814067337202,-0.6800611206590401,1
385,2024-09-20 20:26:13.843851008,TASK_BEGIN,013,0.18399829019007746,-0.14865569244074914,-1.3751584380719413,-0.07670610383155192,-1.025872895851645,0.26649257386097164,-4.553333428907986,-0.6903756866197689,1
386,2024-09-20 20:26:13.912283904,TASK_BEGIN,013,0.1615409946846196,-0.13886750559249433,-1.4792147732098504,-0.06760033324462175,-1.1007754244069463,0.27740412308258366,-4.529732308294426,-0.6815599700318034,1
387,2024-09-20 20:26:14.849728000,TASK_BEGIN,013,0.13514569166603105,-0.12679659945391356,-1.5903877744293915,-0.057429163289604644,-1.1802727143299816,0.28941874408338303,-4.5369576669202925,-0.6538020331906891,1
388,2024-09-20 20:26:14.912487936,TASK_BEGIN,013,0.10533521715653567,-0.11260410710814929,-1.7073169857673123,-0.045671564615265274,-1.261550875534726,0.3020009730911537,-4.580887198128658,-0.6079076987100235,1
389,2024-09-20 20:26:14.991444992,TASK_BEGIN,013,0.07286025914957506,-0.0965387780717724,-1.828206031486984,-0.031755392646964156,-1.3418305179341137,0.31463998919176095,-4.665762878164402,-0.5454812019855859,1
390,2024-09-20 20:26:15.059170048,TASK_BEGIN,013,0.03860898619538333,-0.07892137363445133,-1.9506858699469742,-0.015166306921409405,-1.4184978759316902,0.32687895610893275,-4.7929049279031055,-0.4689836903220698,1
391,2024-09-20 20:26:15.113808128,TASK_BEGIN,013,0.0034749744809511097,-0.06012322500613672,-2.0716611959299507,0.004428876285237646,-1.4892121877353879,0.3383455052386315,-4.959989626712879,-0.38161512115427826,1
392,2024-09-20 20:26:15.190580992,TASK_BEGIN,013,-0.03174917833369933,-0.0405471103324398,-2.1872658888215604,0.02706618650981823,-1.552015828063608,0.3487787754734641,-5.160922848744004,-0.2870403073831774,1
393,2024-09-20 20:26:15.252134912,TASK_BEGIN,013,-0.06641827628516146,-0.020613281674762785,-2.293051268116199,0.052415768557479175,-1.6054336737565318,0.35804259351133,-5.386228682149933,-0.189041750568229,1
394,2024-09-20 20:26:16.169863936,TASK_BEGIN,013,-0.10002920005356218,-0.0007466105882153312,-2.384370811275475,0.07979177964332403,-1.6485112621410407,0.36611573098590133,-5.62376899287356,-0.091207258521992,1
395,2024-09-20 20:26:16.248781056,TASK_BEGIN,013,-0.1321878137968977,0.018639617990186878,-2.456850569765589,0.10824253547392158,-1.6807817446452797,0.3730634756765941,-5.859664134123881,0.003281045098257218,1
396,2024-09-20 20:26:16.316529152,TASK_BEGIN,013,-0.16257812669464944,0.037164698446957606,-2.506830586296663,0.1366844541754829,-1.7022108208811935,0.3790068658025199,-6.079382596867231,0.09175486780575186,1
397,2024-09-20 20:26:16.384247040,TASK_BEGIN,013,-0.19095955336591494,0.054505404908966076,-2.531621933448088,0.16401953349392606,-1.7131406949163417,0.3840971530780705,-6.268804786732072,0.17209789890561947,1
398,2024-09-20 20:26:16.447902720,TASK_BEGIN,013,-0.2171953363704872,0.07042128079278448,-2.529522150011959,0.189203742121987,-1.7141965627079578,0.38848477116532637,-6.414920135737239,0.24275320249676582,1
399,2024-09-20 20:26:16.509441792,TASK_BEGIN,013,-0.2412885167327747,0.08477208176246288,-2.4997474096412984,0.21128908318886166,-1.7061566114474336,0.39227570504033193,-6.506132309354414,0.30272450326953876,1
400,2024-09-20 20:26:16.576566016,TASK_BEGIN,013,-0.2633922646847186,0.09751812382785596,-2.4424453258692718,0.22947185571207146,-1.6898598493281118,0.39549164424956357,-6.532507217232419,0.35154284483016174,1
401,2024-09-20 20:26:17.530062080,TASK_BEGIN,013,-0.2837751957468364,0.10870211105214177,-2.358797153994357,0.24314697623504267,-1.6661870775294982,0.39805591046909167,-6.486117631261259,0.38912717797941376,1
402,2024-09-20 20:26:17.597810944,TASK_BEGIN,013,-0.30274489525745846,0.11841920504378008,-2.251151151671662,0.25194898154600176,-1.6360490427124388,0.399803540073435,-6.361357688229374,0.4155222671636014,1
403,2024-09-20 20:26:17.652402176,TASK_BEGIN,013,-0.3205482676466959,0.12678291842342745,-2.1230891893820902,0.25576088054593615,-1.6003118503077793,0.4004955917004331,-6.155237090513197,0.43059961984222206,1
404,2024-09-20 20:26:17.733280000,TASK_BEGIN,013,-0.33727356985636725,0.1338930957173097,-1.9792978859014998,0.2546838450500676,-1.5596686575581307,0.3998256799200407,-5.8678425113485595,0.43384987807852854,1
405,2024-09-20 20:26:17.791888896,TASK_BEGIN,013,-0.35277941259447565,0.13981261436826187,-1.825211592001701,0.2489869835800032,-1.5145174215823436,0.3974231418821938,-5.502980409066153,0.424364967818937,1
406,2024-09-20 20:26:17.868784896,TASK_BEGIN,013,-0.36667517205348993,0.14455791527395667,-1.666515778444006,0.23907059870721983,-1.4649023811433481,0.39286628667192536,-5.0686719534044995,0.401010035042577,1
407,2024-09-20 20:26:17.936503808,TASK_BEGIN,013,-0.37837462821188156,0.14810429032747666,-1.5086116651593184,0.22545450295758113,-1.4105417551395942,0.3857206143495656,-4.577059174529052,0.3626732648841794,1
408,2024-09-20 20:26:18.877958912,TASK_BEGIN,013,-0.3872261326492983,0.1504024717689592,-1.3561084768027596,0.2087685064724084,-1.3509259719397475,0.37560710133822983,-4.043527542603201,0.3084691346521066,1
409,2024-09-20 20:26:18.939101952,TASK_BEGIN,013,-0.3926822184243267,0.1513988633948683,-1.2124077900035601,0.1897162693532401,-1.2854590038902778,0.36228326913082814,-3.4852044528685737,0.23785754870141576,1
410,2024-09-20 20:26:19.001224192,TASK_BEGIN,013,-0.3944418754688936,0.15105087289189367,-1.07948206844512,0.16901588233935816,-1.213610841302153,0.3457028699316868,-2.9192893988288473,0.15073853531112155,1
411,2024-09-20 20:26:19.083439104,TASK_BEGIN,013,-0.39251667424873415,0.14933506530958898,-0.9579526595784025,0.14734919271872846,-1.1350440505793007,0.3260301869443281,-2.3617797690349223,0.04760544983644218,1
412,2024-09-20 20:26:19.141346048,TASK_BEGIN,013,-0.3872162295405625,0.146251882416546,-0.8474356600514705,0.1253339937015822,-1.04970158935846,0.3036136169760197,-1.8268554391795888,-0.07025034457337131,1
413,2024-09-20 20:26:19.204006144,TASK_BEGIN,013,-0.3790740297089671,0.14182827255364652,-0.7469562673110945,0.10349756003797746,-0.9578705570453049,0.27893940893536406,-1.3267318951863116,-0.20057254179619208,1
414,2024-09-20 20:26:19.281265152,TASK_BEGIN,013,-0.3687415531319829,0.13611600999909673,-0.6552594612110201,0.08223682566971341,-0.8602207911877502,0.2525796263750832,-0.8716800692641027,-0.3400574114650169,1
415,2024-09-20 20:26:20.230208000,TASK_BEGIN,013,-0.3568837034578584,0.1291863148300159,-0.5710055189771901,0.06178519888644031,-0.7577895476837253,0.2251378972683443,-0.47008182376347013,-0.4843563483563281,1
416,2024-09-20 20:26:20.283377920,TASK_BEGIN,013,-0.3441046407556911,0.12112483912509114,-0.4929130231370425,0.042211800908604685,-0.6518974018529936,0.19719732636664858,-0.1285609111585275,-0.6282016983653401,1
417,2024-09-20 20:26:20.362512128,TASK_BEGIN,013,-0.33091607418920593,0.11203044612814703,-0.41989576632735615,0.02345718709636794,-0.5440334991572837,0.16927961411528247,0.14772155899052433,-0.7656985028668601,1
418,2024-09-20 20:26:20.433436928,TASK_BEGIN,013,-0.3177417952359857,0.10201867824578081,-0.35123927778683384,0.005392634655807484,-0.43578131143073606,0.1418220337757315,0.3547312433033743,-0.8907674638885894,1
419,2024-09-20 20:26:20.486121728,TASK_BEGIN,013,-0.3049415882085349,0.09122753592097206,-0.28683048617896045,-0.012118805948569603,-0.32881177915747395,0.1151712641984666,0.4895631732887703,-0.9976883727315439,1
420,2024-09-20 20:26:20.564230912,TASK_BEGIN,013,-0.2928374508006335,0.07982121293108414,-0.22732006386166054,-0.02918304841403572,-0.22489376593691057,0.08959054387301309,0.5509376099260986,-1.0816595889944605,1
421,2024-09-20 20:26:20.635247104,TASK_BEGIN,013,-0.28172806463492145,0.06798880189843609,-0.17404000836837774,-0.045862734921844686,-0.12586581799955399,0.0652819485813048,0.539811979378565,-1.1392486285214354,1
422,2024-09-20 20:26:21.575060992,TASK_BEGIN,013,-0.2718771508892698,0.05593687178751837,-0.1286658432716946,-0.06217467325419374,-0.03357182356927295,0.042422347663039116,0.45964711836884503,-1.16865724391006,1
423,2024-09-20 20:26:21.635871744,TASK_BEGIN,013,-0.263474148883735,0.04387650551094139,-0.09276607541002287,-0.07808834380573978,0.05020912069973888,0.021193829273710964,0.31633424286373724,-1.1698296396983783,1
424,2024-09-20 20:26:21.713167872,TASK_BEGIN,013,-0.25659358215379163,0.03200904654490513,-0.06735029568672185,-0.09353773789651741,0.12383092453991643,0.0017864193593666547,0.11809220577233705,-1.144446816024232,1
425,2024-09-20 20:26:21.774668032,TASK_BEGIN,013,-0.25118172151297574,0.020516579091168056,-0.05249178508545769,-0.10845210247063329,0.18585512809516963,-0.015621993580422542,-0.1245961078553835,-1.095801858647455,1
426,2024-09-20 20:26:21.836677120,TASK_BEGIN,013,-0.24706650033859484,0.009559385548558131,-0.04710936743660729,-0.12279748122445926,0.23512976838188368,-0.03088237097869501,-0.39927153111888664,-1.0285375868768665,1
427,2024-09-20 20:26:21.913813248,TASK_BEGIN,013,-0.24397039123872308,-0.0007218943833874707,-0.048926739741160956,-0.13662272615543158,0.2708689113809746,-0.04387723668175754,-0.6922388698240058,-0.9482311935630163,1
428,2024-09-20 20:26:21.986756096,TASK_BEGIN,013,-0.2415259253120032,-0.010202471767602523,-0.05458382420564391,-0.1500964755364438,0.2927468664248354,-0.054523286898836565,-0.9896995028754019,-0.8608379339612857,1
429,2024-09-20 20:26:22.891613952,TASK_BEGIN,013,-0.2393095483621953,-0.018770377291229944,-0.05995104412887901,-0.1635066760315792,0.3010057302709369,-0.06278253307300205,-1.2790726006401745,-0.7720632954921844,1
430,2024-09-20 20:26:22.971941888,TASK_BEGIN,013,-0.23689532765940005,-0.026326755737835265,-0.06072109116151048,-0.17720723956970857,0.2965169867391859,-0.06867143348967927,-1.550403754169748,-0.6867639966447244,1
431,2024-09-20 20:26:23.039657984,TASK_BEGIN,013,-0.2339077363431377,-0.032790862788942166,-0.05321842220803259,-0.19152731022638597,0.28071615070781397,-0.07225820096292195,-1.7977261710475476,-0.6084910999900544,1
432,2024-09-20 20:26:23.092645888,TASK_BEGIN,013,-0.23005313464907093,-0.03810800453114692,-0.0352211513615914,-0.20666529684404875,0.2553874776767831,-0.07365219575753101,-2.0199551376261398,-0.5392725544815298,1
433,2024-09-20 20:26:23.175147008,TASK_BEGIN,013,-0.22512778846552628,-0.04225753015364571,-0.006553566103302786,-0.22258006195326266,0.22237474652603303,-0.07299621674644509,-2.2208675804128286,-0.47962726002003264,1
434,2024-09-20 20:26:23.231345920,TASK_BEGIN,013,-0.21901245145930412,-0.04525922686220057,0.030732226452851688,-0.2389016998891016,0.18335564917352204,-0.07047175416844044,-2.4081247065910785,-0.4287105557848444,1
435,2024-09-20 20:26:23.309004032,TASK_BEGIN,013,-0.21166498531316497,-0.04717679970787124,0.07264034135223935,-0.25489993910636033,0.13975873682121265,-0.06631814283090406,-2.5916508255096966,-0.3845385471567962,1
436,2024-09-20 20:26:24.254300160,TASK_BEGIN,013,-0.20311662497049504,-0.04811708415102696,0.11389967003498438,-0.2695333126843546,0.09276649835541871,-0.06084972698984294,-2.7817229652277695,-0.34430551261377745,1
437,2024-09-20 20:26:24.318921216,TASK_BEGIN,013,-0.19346432522266105,-0.048224827086277185,0.14887099845195126,-0.2815717026600601,0.04331082310946881,-0.05444990115943952,-2.987141745102082,-0.30477462979765,1
438,2024-09-20 20:26:24.389784064,TASK_BEGIN,013,-0.1828467354051236,-0.04767370909828145,0.17253680932481286,-0.28976827475007993,-0.00793714785696135,-0.047540051662333736,-3.213946083225799,-0.26269195699807096,1
439,2024-09-20 20:26:24.457544960,TASK_BEGIN,013,-0.17141140984061562,-0.04665335395203352,0.18138299490314072,-0.29304585884903006,-0.06051509954412487,-0.040541970690956455,-3.4649236016417064,-0.2152064814099525,1
440,2024-09-20 20:26:24.525282048,TASK_BEGIN,013,-0.15930381235732483,-0.04535112701126956,0.173961152026424,-0.2906538999761653,-0.11402894708878271,-0.033848386985387904,-3.739674750914594,-0.16027414958640337,1
441,2024-09-20 20:26:24.584782848,TASK_BEGIN,013,-0.1466965551711281,-0.04392938197062373,0.15102307268967893,-0.2822699987342991,-0.16796313431808324,-0.027800660313620107,-4.034869672036208,-0.09695492914749253,1
442,2024-09-20 20:26:24.649275904,TASK_BEGIN,013,-0.13383719725180843,-0.04250364759000064,0.1152800431832286,-0.26805619422757954,-0.22152108453312755,-0.02266662583969785,-4.344653830713994,-0.025505770436411983,1
443,2024-09-20 20:26:25.604308224,TASK_BEGIN,013,-0.12106962267219054,-0.04113080926406368,0.07089127193900381,-0.2486850294933425,-0.2735826892599297,-0.018612126062991594,-4.661208156676252,0.052702656496241805,1
444,2024-09-20 20:26:25.663138048,TASK_BEGIN,013,-0.10880145377530552,-0.039813272259969654,0.022772645726899667,-0.22532455533762752,-0.3228071161070638,-0.015666002817245613,-4.975206800431267,0.13531100002563104,1
445,2024-09-20 20:26:25.725158912,TASK_BEGIN,013,-0.09742804619292612,-0.03851731996003856,-0.02411734622293175,-0.19956647853189474,-0.3678111215288635,-0.013694542864348404,-5.275992637362701,0.21906126611087723,1
446,2024-09-20 20:26:25.807326208,TASK_BEGIN,013,-0.08724657539233868,-0.03719906939359745,-0.0653119489936406,-0.17330210920029684,-0.40731833352476987,-0.012411596861556662,-5.55169996455755,0.2999014980158266,1
447,2024-09-20 20:26:25.865747968,TASK_BEGIN,013,-0.07838858739762458,-0.035830933462077046,-0.0971158979197798,-0.1485644781568054,-0.44022231349317203,-0.011438195741314666,-5.789715638395301,0.37320588328637705,1
448,2024-09-20 20:26:25.942586880,TASK_BEGIN,013,-0.07078122657874666,-0.03442195469517679,-0.11674242728778228,-0.12735406619087697,-0.4655742595893038,-0.010398222827698202,-5.977689903127562,0.4341786254129751,1
449,2024-09-20 20:26:26.004612096,TASK_BEGIN,013,-0.06413487180529302,-0.03302800452846511,-0.12249033479271675,-0.11145243454833924,-0.482560537064025,-0.009014727421265313,-6.10499917796327,0.47842204170873104,1
450,2024-09-20 20:26:26.916429056,TASK_BEGIN,013,-0.057956388939376165,-0.03175303510981418,-0.11406769067516476,-0.10222456360174939,-0.49053536686909277,-0.007171093001165266,-6.16423183279999,0.5025413168356307,1
451,2024-09-20 20:26:26.997844992,TASK_BEGIN,013,-0.05159970268057667,-0.030744294675108856,-0.09295780159732991,-0.10044554250836579,-0.4891091902753629,-0.004921803035310878,-6.1522061989919745,0.5046126730530555,1
452,2024-09-20 20:26:27.065591040,TASK_BEGIN,013,-0.0443682755017591,-0.03018080300310528,-0.06251510691555646,-0.10622066992168866,-0.4782489658255631,-0.0024612003684298923,-6.070327821863288,0.4843932279959396,1
453,2024-09-20 20:26:27.133428992,TASK_BEGIN,013,-0.03565623569950147,-0.030253551104085032,-0.027538347838648586,-0.11903350322977896,-0.45836219715769955,-7.127913473372417e-05,-5.924312075283085,0.4432360476629364,1
454,2024-09-20 20:26:27.201088768,TASK_BEGIN,013,-0.025079182820318745,-0.03114138229411285,0.006596868096578374,-0.13787742533991754,-0.43033815773878537,0.0019293359199430576,-5.7233086036966965,0.3837546980381336,1
455,2024-09-20 20:26:27.268847872,TASK_BEGIN,013,-0.012551454510501438,-0.032988777202600184,0.03489716972755905,-0.16139332860497257,-0.39549420805628804,0.0032192476541689496,-5.478613724788721,0.30937367690092027,1
456,2024-09-20 20:26:27.334696960,TASK_BEGIN,013,0.001695238107517936,-0.03588662454772564,0.0534803961514329,-0.1879742777425646,-0.3554078019337004,0.0034881291859545686,-5.202435345421933,0.2239434471814383,1
457,2024-09-20 20:26:28.280634112,TASK_BEGIN,013,0.017144801222936837,-0.03985548479653709,0.059922021947949364,-0.21584452583874542,-0.31170632246257396,0.002443502338820105,-4.907146936385381,0.13149985148742008,1
458,2024-09-20 20:26:28.347816960,TASK_BEGIN,013,0.033087721280385035,-0.04483689591936937,0.053215226574629404,-0.24313937784625955,-0.26591442090736067,-0.00017490570219020496,-4.604967069897988,0.03608852999302992,1
459,2024-09-20 20:26:28.416139008,TASK_BEGIN,013,0.048765405977305214,-0.0507003736713241,0.03351874661177312,-0.2680189620835409,-0.21937224107861192,-0.004574173631149555,-4.307544163397388,-0.05844239766073891,1
460,2024-09-20 20:26:28.470935040,TASK_BEGIN,013,0.0635324500786552,-0.057266699933776,0.001972609206969109,-0.2888286189050406,-0.17316007715735005,-0.010889827509419059,-4.025205292407012,-0.14863877862881744,1
461,2024-09-20 20:26:28.550417920,TASK_BEGIN,013,0.0769893155867554,-0.06434007780940704,-0.039329373849975494,-0.30426729260602425,-0.12800970599465272,-0.01917091304080264,-3.766361976293876,-0.2315024640346426,1
462,2024-09-20 20:26:28.619324928,TASK_BEGIN,013,0.08904419557859966,-0.0717382055154281,-0.08738017497645566,-0.31351018776574985,-0.08427153840903626,-0.029364324976442074,-3.537669488871072,-0.30438261741026323,1
463,2024-09-20 20:26:28.676173824,TASK_BEGIN,013,0.09987796078095819,-0.07930982477767375,-0.13841234964818117,-0.31627669304264533,-0.04200489080979038,-0.04129862077922201,-3.3447796145150845,-0.36480300331671317,1
464,2024-09-20 20:26:29.628524288,TASK_BEGIN,013,0.10982217460201449,-0.08693580258116144,-0.1880808069136068,-0.3128566630029836,-0.0011829806570091024,-0.05466934293008488,-3.1928625257008827,-0.4104038163291445,1
465,2024-09-20 20:26:29.698985984,TASK_BEGIN,013,0.11920513686421512,-0.09452073853547736,-0.231675400905746,-0.30407772823699414,0.03805679894679919,-0.0690302807575272,-3.0863582963802614,-0.4391023710681717,1
466,2024-09-20 20:26:29.766748160,TASK_BEGIN,013,0.12823461139605402,-0.10198700969659878,-0.26449071970010846,-0.2911923532876929,0.07519289722350966,-0.0837994889864092,-3.028390890654034,-0.4493728971974463,1
467,2024-09-20 20:26:29.834484992,TASK_BEGIN,013,0.13695358410718694,-0.10927607451912004,-0.28236425656076997,-0.2757127075433166,0.10917049681366835,-0.09828360461680095,-3.020669310403781,-0.44042334280954687,1
468,2024-09-20 20:26:29.902177024,TASK_BEGIN,013,0.14525366764358189,-0.1163507129949313,-0.28220745546401066,-0.2592528572574498,0.13835024384888597,-0.11171621269581791,-3.0639547005152337,-0.41217286280676513,1
469,2024-09-20 20:26:29.968998144,TASK_BEGIN,013,0.15290072133162397,-0.12318892583409659,-0.2623373087842812,-0.24340940082888132,0.16059938832645967,-0.12331016835486322,-3.1583976681401693,-0.36514091898330514,1
470,2024-09-20 20:26:30.030569984,TASK_BEGIN,013,0.15953805249978753,-0.12976726485593165,-0.22255356232495296,-0.22966668863724105,0.17355648787341996,-0.132331625172967,-3.3032038935095467,-0.30040186847746553,1
471,2024-09-20 20:26:30.981424128,TASK_BEGIN,013,0.16466740009947234,-0.13603911514016412,-0.16402925731003853,-0.21930782687700015,0.17503787978719698,-0.13819615603341454,-3.4957201958372424,-0.21965472565545827,1
472,2024-09-20 20:26:31.043920896,TASK_BEGIN,013,0.1676389731660906,-0.141915951089714,-0.08907770259241476,-0.21334275641578446,0.16347486234822567,-0.1405624652603098,-3.730452081869303,-0.1253554830773704,1
473,2024-09-20 20:26:31.105951232,TASK_BEGIN,013,0.16768857101336113,-0.14725866264592596,-0.0008124629097884244,-0.21247672261375936,0.13823838964996704,-0.13938434374106334,-3.9985915614300787,-0.020809907299448187,1
474,2024-09-20 20:26:31.183613952,TASK_BEGIN,013,0.16403464064036083,-0.15188223539255696,0.0972588262675228,-0.21711489271549614,0.0997768033352463,-0.1349011508604738,-4.288355996640491,0.08986926796645694,1
475,2024-09-20 20:26:31.245670144,TASK_BEGIN,013,0.15601268030443508,-0.1555717186675178,0.20161059282111546,-0.22737235637487116,0.04960250076519263,-0.1275812531415358,-4.585980682056898,0.20196848545019544,1
476,2024-09-20 20:26:31.320060160,TASK_BEGIN,013,0.14320545818642044,-0.1581046409058088,0.30895130472421584,-0.2430705905152227,-0.009807164922773021,-0.11804623213360338,-4.877063164694148,0.3105067457717125,1
477,2024-09-20 20:26:31.385422848,TASK_BEGIN,013,0.12552277364864486,-0.15927352161157277,0.41633388774772445,-0.26372973531762195,-0.07518456939157135,-0.10699562234944679,-5.148120080848042,0.4106496299985384,1
478,2024-09-20 20:26:32.326991872,TASK_BEGIN,013,0.10319978141749467,-0.15890114762267585,0.5211581210836806,-0.288569443777524,-0.14273812180360493,-0.09514230812459497,-5.388039991643745,0.49812532222733413,1
479,2024-09-20 20:26:32.387364096,TASK_BEGIN,013,0.07673070386985426,-0.15684608574281322,0.6210668560742423,-0.31651912903391577,-0.2084902232840506,-0.08316142268704746,-5.588750132178246,0.5695180247784536,1
480,2024-09-20 20:26:32.466480896,TASK_BEGIN,013,0.046790922212859125,-0.15300328080224912,0.7137629391283481,-0.3462496275448745,-0.26863568017384093,-0.07164938471218828,-5.744702329586215,0.6223700927710737,1
481,2024-09-20 20:26:32.534201856,TASK_BEGIN,013,0.01418145964810221,-0.14730501723543601,0.7968780683769484,-0.37625414238210864,-0.31986906283684463,-0.06109007499913642,-5.851573423865348,0.6551418550133558,1
482,2024-09-20 20:26:32.601993984,TASK_BEGIN,013,-0.02020373738628201,-0.1397240585179581,0.8680006415432193,-0.4049756977323066,-0.3596459139707379,-0.051827758956496446,-5.905103443609712,0.6671443837836594,1
483,2024-09-20 20:26:32.657540096,TASK_BEGIN,013,-0.055394893304353265,-0.1302803868036161,0.9248318903120047,-0.4309315247497175,-0.3863656333795149,-0.044046426551021874,-5.90090799116876,0.6585381249363436,1
484,2024-09-20 20:26:32.735165952,TASK_BEGIN,013,-0.09036216119359998,-0.11905095739886651,0.9654148446936324,-0.45279804196531703,-0.39948230201681095,-0.03775789953777483,-5.835286309634433,0.6303661650126542,1
485,2024-09-20 20:26:33.641242880,TASK_BEGIN,013,-0.12405527428026912,-0.1061763103508182,0.988439432333712,-0.4694754027971989,-0.39955173443579384,-0.032803316258473124,-5.706200398762844,0.5845030565563304,1
486,2024-09-20 20:26:33.723796992,TASK_BEGIN,013,-0.1554711566062534,-0.09185776143924296,0.9935939092080462,-0.4801659304744993,-0.3881948480787691,-0.02886820323262341,-5.5138381038199435,0.5235095879162588,1
487,2024-09-20 20:26:33.780920832,TASK_BEGIN,013,-0.18372108241452537,-0.0763452949712003,0.9818409596620106,-0.48446020391773703,-0.36793464087236427,-0.025506381959099125,-5.260937252144309,0.45050854859217715,1
488,2024-09-20 20:26:33.858067200,TASK_BEGIN,013,-0.20807521368044685,-0.05992004538169821,0.9555130478509779,-0.4823893784196317,-0.34189595736049166,-0.022171701423799418,-4.953048445599071,0.3691133668740021,1
489,2024-09-20 20:26:33.920071936,TASK_BEGIN,013,-0.22798829498680562,-0.04287463851377589,0.9182673728256812,-0.4744218209151705,-0.3134011498159568,-0.018266755434512463,-4.598561024078063,0.28331697859743826,1
490,2024-09-20 20:26:33.981668096,TASK_BEGIN,013,-0.2431181881889279,-0.025494012936479904,0.8749895796999279,-0.46141853791804,-0.2855167245552228,-0.013217409058877578,-4.208423372558932,0.19728903929223296,1
491,2024-09-20 20:26:34.059372032,TASK_BEGIN,013,-0.2533446138215812,-0.008038979829275504,0.8315797881502771,-0.444555092886259,-0.2606418845903451,-0.006562000330283264,-3.7956850641006903,0.11512857339621721,1
492,2024-09-20 20:26:34.989486080,TASK_BEGIN,013,-0.258787966765095,0.009266358131160073,0.7944583115765153,-0.42519870107159385,-0.24025017088207504,0.0019753019460164063,-3.374966826180852,0.040623989906768104,1
493,2024-09-20 20:26:35.067595008,TASK_BEGIN,013,-0.25982060348713604,0.026242918110996858,0.7697613624191962,-0.4047513785017293,-0.22483948385547323,0.012451317829963697,-2.9619179340646333,-0.02297098024892688,1
494,2024-09-20 20:26:35.140040960,TASK_BEGIN,013,-0.2570642905535787,0.04275926221314728,0.7623777537161089,-0.3845012812414224,-0.21404789597370735,0.02470929146040386,-2.5726296259169374,-0.07313620425418854,1
495,2024-09-20 20:26:35.206924032,TASK_BEGIN,013,-0.2513714902417812,0.05872646024557654,0.7750507016024977,-0.3655124445918918,-0.2068332776491584,0.03840409959447494,-2.222887675511118,-0.10822545026495353,1
496,2024-09-20 20:26:35.268961024,TASK_BEGIN,013,-0.2437835783005723,0.0740854867304226,0.8077648246362393,-0.34854757974089207,-0.20163686955071805,0.05303340935415834,-1.9272629471804303,-0.12751477681505832,1
497,2024-09-20 20:26:35.343298048,TASK_BEGIN,013,-0.2354578565723234,0.08879071823481496,0.8575927208651306,-0.33401255469398533,-0.19653523490800243,0.0679760171709448,-1.6981345890752355,-0.13114991039246765,1
498,2024-09-20 20:26:35.411012864,TASK_BEGIN,013,-0.22757479228502378,0.102794535977358,0.9190795806279757,-0.32193645012949584,-0.18944488607603707,0.08254570312344585,-1.5446178589169597,-0.12002286015857837,1
499,2024-09-20 20:26:36.350808064,TASK_BEGIN,013,-0.22125681911000472,0.11603747350763376,0.9851098436992516,-0.3120120480219253,-0.17840706754322816,0.09606148526419207,-1.4714136014061772,-0.09563573176919236,1
500,2024-09-20 20:26:36.422907904,TASK_BEGIN,013,-0.21751715455075127,0.12844522328649094,1.0480535707802128,-0.30369663034295363,-0.16190006483274944,0.10792245115185908,-1.4778175659076216,-0.060013802857384904,1
501,2024-09-20 20:26:36.489095936,TASK_BEGIN,013,-0.21722998080211822,0.13993064138138042,1.1008827424941627,-0.2963395151839232,-0.13910448953464766,0.11766903773054575,-1.5569855469505964,-0.015715147101866205,1
502,2024-09-20 20:26:36.551099136,TASK_BEGIN,013,-0.22111129887193018,0.15040010254601488,1.137995370081102,-0.289299344254602,-0.1100755506888405,0.12501282966821517,-1.69536355207557,0.03409933761685647,1
503,2024-09-20 20:26:36.622013184,TASK_BEGIN,013,-0.22971207315327066,0.1597660278618698,1.1556958548920133,-0.28203728912802767,-0.07579465956968992,0.12982599178602044,-1.872603151878748,0.08566974916686411,1
504,2024-09-20 20:26:36.684039168,TASK_BEGIN,013,-0.24341762202056927,0.16796399521985178,1.1524084390936697,-0.27417884947827154,-0.03808585650761808,0.1321034311250617,-2.062690067551608,0.13478836233296354,1
505,2024-09-20 20:26:36.746527744,TASK_BEGIN,013,-0.2624300596469453,0.17496635650821862,1.1286032108753008,-0.2655195605947388,0.0005880002029959263,0.13192766760456087,-2.23658102245919,0.17702216109568486,1
506,2024-09-20 20:26:37.669487104,TASK_BEGIN,013,-0.28672426268103685,0.18078579190016555,1.0863455432443518,-0.2559580504283015,0.03741076950971477,0.12945630568939007,-2.3658375823538935,0.20794137319323683,1
507,2024-09-20 20:26:37.747458048,TASK_BEGIN,013,-0.31600382877718697,0.1854716957263662,1.028595178501124,-0.24539400389620722,0.06954565687578282,0.12492499141904777,-2.4264401602337666,0.22341686272238365,1
508,2024-09-20 20:26:37.809827840,TASK_BEGIN,013,-0.34968952946414805,0.18910570794285264,0.9586319842554362,-0.23366769857689365,0.0944861952069606,0.1186447217602716,-2.4021037040089483,0.2200511261712185,1
509,2024-09-20 20:26:37.871414784,TASK_BEGIN,013,-0.38694680263691317,0.19179678999022962,0.8798384585418424,-0.2205787976369976,0.11036935184619182,0.11098511799643179,-2.2865625386717543,0.19568793865769213,1
510,2024-09-20 20:26:37.951164928,TASK_BEGIN,013,-0.42674362558770623,0.1936739317569977,0.7956649871077798,-0.20594488141585193,0.11617208011334827,0.10235362949035112,-2.084450950752344,0.14987836934744717,1
511,2024-09-20 20:26:38.010752000,TASK_BEGIN,013,-0.46792743933493885,0.1948788842746737,0.709495252404632,-0.1896393198889961,0.11176592582062966,0.09317603796171586,-1.810702122105577,0.08418364332588024,1
512,2024-09-20 20:26:38.072397056,TASK_BEGIN,013,-0.5093018095506405,0.1955621713871006,0.6244136736012795,-0.1715991031412932,0.09788494358033012,0.08386984769769815,-1.4887249936375817,0.002206870072276804,1
513,2024-09-20 20:26:39.030298880,TASK_BEGIN,013,-0.5496876376513855,0.19588272861852563,0.5431200999250528,-0.151847048297448,0.07605188225288767,0.07481026698657763,-1.1478091219931021,-0.09070411721017371,1
514,2024-09-20 20:26:39.089070080,TASK_BEGIN,013,-0.5879760548134659,0.19601147837043245,0.46813340613522475,-0.1305713494858842,0.048433273600090185,0.06630611540993814,-0.820190401302814,-0.18802024362973754,1
515,2024-09-20 20:26:39.165786880,TASK_BEGIN,013,-0.6231845217110936,0.19613805561525552,0.4021253551440737,-0.10825046748811273,0.01758501848136276,0.058601141979792354,-0.538063362832347,-0.2827031310254939,1
516,2024-09-20 20:26:39.233545216,TASK_BEGIN,013,-0.6545073768691133,0.19647368861796038,0.348100034364361,-0.08575615757601951,-0.013883476800666688,0.051898279454711586,-0.3306471469655674,-0.3678742577844833,1
517,2024-09-20 20:26:39.290412800,TASK_BEGIN,013,-0.6813472165672397,0.19724126660877567,0.30928408151022835,-0.06436024914929757,-0.04364557287082124,0.04638902008376199,-0.22138792535584262,-0.43746996463122406,1
518,2024-09-20 20:26:39.369033216,TASK_BEGIN,013,-0.7033261367178125,0.19865112018019918,0.28875138840767256,-0.045608988546613355,-0.06991578899250123,0.042269084972471616,-0.22558169311159584,-0.48684838472981423,1
519,2024-09-20 20:26:39.436794880,TASK_BEGIN,013,-0.7202760715719306,0.20086855783470262,0.28888117420579357,-0.031096895784001398,-0.09159299188704742,0.039734222835572056,-0.3488603134807845,-0.5132229790687541,1
520,2024-09-20 20:26:40.373163776,TASK_BEGIN,013,-0.7322061434443032,0.20398147972026895,0.3108918400947828,-0.022238088362523903,-0.10829066488020067,0.03896084181901952,-0.586828425993011,-0.515815688628872,1
521,2024-09-20 20:26:40.435649024,TASK_BEGIN,013,-0.7392571378475286,0.2079763238467588,0.35474208622741293,-0.020125749949274158,-0.12026596660873731,0.040075590304554966,-0.925753361579837,-0.49575307414548153,1
522,2024-09-20 20:26:40.515897088,TASK_BEGIN,013,-0.741658925140566,0.21272747606383968,0.419416256795332,-0.02548345076983651,-0.12825220488179884,0.04311591909422796,-1.3439973585293148,-0.4558256059947334,1
523,2024-09-20 20:26:40.574812928,TASK_BEGIN,013,-0.7397002662139596,0.21800057623466979,0.5033134314284926,-0.038646816047070695,-0.1332164393118968,0.04799115374208871,-1.8139809766065709,-0.4002177415478805,1
524,2024-09-20 20:26:40.650411008,TASK_BEGIN,013,-0.7337155101900229,0.22346880739999803,0.6044980222614148,-0.05953699742893073,-0.13610325195582806,0.054461798955476766,-2.304528126824862,-0.3342341655664719,1
525,2024-09-20 20:26:40.713053952,TASK_BEGIN,013,-0.7240862209019745,0.22874051058589112,0.7207673768043658,-0.08763874444048322,-0.13762688127158462,0.06214599476621259,-2.7833765072543533,-0.2639637944921596,1
526,2024-09-20 20:26:40.786753792,TASK_BEGIN,013,-0.7112461246967432,0.23339271891275462,0.8495841270753357,-0.12200436411474053,-0.13814057452730746,0.07054738877576876,-3.21967698522054,-0.19581026656061085,1
527,2024-09-20 20:26:41.730408960,TASK_BEGIN,013,-0.6956760589346872,0.2370031591828476,0.9879695341056869,-0.16129483278881288,-0.13760820571629728,0.07910090636867195,-3.5863926629786684,-0.1358900117203051,1
528,2024-09-20 20:26:41.789179136,TASK_BEGIN,013,-0.6778824100885232,0.23917666463641496,1.1324866711353558,-0.2038706765432647,-0.13568909749307867,0.08723410048870381,-3.862501247437008,-0.08937604537075147,1
529,2024-09-20 20:26:41.852466944,TASK_BEGIN,013,-0.6583615023429276,0.23956696200988267,1.2793441568289143,-0.24792932257471686,-0.13187748385627815,0.09442415459433609,-4.034794453767544,-0.059911518403359704,1
530,2024-09-20 20:26:41.932768000,TASK_BEGIN,013,-0.6375575920208806,0.23789534107492422,1.4245323295465087,-0.29165660079675493,-0.1256117861380911,0.10022451794839476,-4.098804698627361,-0.049264033847964905,1
531,2024-09-20 20:26:42.000577024,TASK_BEGIN,013,-0.6158207017434106,0.23396409497446466,1.5639736674167695,-0.3333647255142735,-0.1163441513744905,0.10425951570202917,-4.0582362052006475,-0.05738811064622416,1
532,2024-09-20 20:26:42.069135104,TASK_BEGIN,013,-0.5933729108438403,0.22766228465368338,1.693802339746107,-0.371616512171181,-0.10364015085439708,0.10621204353581012,-3.9227906783446715,-0.0829033679543577,1
533,2024-09-20 20:26:42.130584064,TASK_BEGIN,013,-0.5702989221506127,0.21896620825312785,1.8107897347004178,-0.4053276036000934,-0.08736232170664056,0.10583045825335724,-3.7052594030644492,-0.1237464169951105,1
534,2024-09-20 20:26:43.080539136,TASK_BEGIN,013,-0.5465729994732563,0.2079397815529571,1.9126859088911934,-0.4338080575311679,-0.06788735004284344,0.10295800696521783,-3.4191556999974093,-0.177665294086008,1
535,2024-09-20 20:26:43.148303872,TASK_BEGIN,013,-0.5221167247386258,0.19473715924751042,1.9982546746678915,-0.4567245271450029,-0.04621786095251614,0.09756396159918597,-3.0775300875862,-0.24240876789612606,1
536,2024-09-20 20:26:43.212416000,TASK_BEGIN,013,-0.49686361173189547,0.17960527902489545,2.0670874739272884,-0.4740217229840926,-0.02388358579393215,0.08975194518907655,-2.6927442065983667,-0.31572101704817696,1
537,2024-09-20 20:26:43.283266048,TASK_BEGIN,013,-0.470807131927433,0.16288261408127933,2.1194685642923683,-0.4858563814518527,-0.0026621461213701876,0.07974050746361937,-2.2767970477412254,-0.39531466898722406,1
538,2024-09-20 20:26:43.336723200,TASK_BEGIN,013,-0.4440301565673958,0.14499293097944496,2.1564167355525066,-0.49256237065645203,0.015749137317855155,0.06783426645540004,-1.8420820912763631,-0.4788503931227317,1
539,2024-09-20 20:26:43.413991936,TASK_BEGIN,013,-0.41672337186286557,0.12643459876404414,2.1797853188879106,-0.4946315900831806,0.02998350549588846,0.054408177698978835,-1.4023447315022612,-0.5638601812676809,1
540,2024-09-20 20:26:43.475599104,TASK_BEGIN,013,-0.3891884877019757,0.10776423765467195,2.1922581059631434,-0.4926892518169333,0.039120896193697546,0.03991038007458865,-0.9732216599800837,-0.6476487685909094,1
541,2024-09-20 20:26:44.404993280,TASK_BEGIN,013,-0.36182396624275637,0.08957286136956229,2.1972306666698955,-0.48746312607967524,0.0426994076873657,0.024869792300414716,-0.5719572707754068,-0.7272846662422089,1
542,2024-09-20 20:26:44.471710976,TASK_BEGIN,013,-0.33510422861131717,0.07245540367943336,2.1986493861980994,-0.4797574238499976,0.04070081979663176,0.009891709526102627,-0.21650782749231348,-0.7997002139093641,1
543,2024-09-20 20:26:44.530632960,TASK_BEGIN,013,-0.30955281888011477,0.056975431281271874,2.200777601004221,-0.47041699090401157,0.03355949763484351,-0.004364536819769683,0.0756855584705274,-0.8618423310622749,1
544,2024-09-20 20:26:44.608256000,TASK_BEGIN,013,-0.28569440560766235,0.04362619492871274,2.207760601193008,-0.4602501725174707,0.022177152959101457,-0.017222744190750528,0.2892995019880723,-0.9108720533905877,1
545,2024-09-20 20:26:44.675992832,TASK_BEGIN,013,-0.26398487950445926,0.0327926686735912,2.2229391278974187,-0.44990907014263054,0.007904078849381588,-0.028037893143782314,0.41306500999405693,-0.9444390774116643,1
546,2024-09-20 20:26:44.743705088,TASK_BEGIN,013,-0.24473822152747046,0.024722571615586213,2.248054698273231,-0.4397674128495899,-0.007526475581984805,-0.03625179583217155,0.4415717361873625,-0.9609844121959379,1
547,2024-09-20 20:26:44.798707968,TASK_BEGIN,013,-0.22806583275157488,0.01951077890704648,2.2826090861022896,-0.42984211361242974,-0.022107382173082033,-0.04144735926982729,0.3763265960328001,-0.9599761406997049,1
548,2024-09-20 20:26:45.755404032,TASK_BEGIN,013,-0.2138423905815538,0.017097240277691727,2.323591735741225,-0.41978508416447924,-0.033710265724236146,-0.04338728151722828,0.225749665126677,-0.9419969464758192,1
549,2024-09-20 20:26:45.823118848,TASK_BEGIN,013,-0.20171789106063923,0.01727921398345084,2.365671858965781,-0.4089528225458858,-0.04026677511588753,-0.04203195189218448,0.004218221663285769,-0.9086278534956875,1
550,2024-09-20 20:26:45.880156928,TASK_BEGIN,013,-0.1911813354862209,0.01973823755936195,2.4018476181280732,-0.39654172356393963,-0.039935945909293745,-0.03754502610115697,-0.26952837263194995,-0.8621328728282411,1
551,2024-09-20 20:26:45.956793088,TASK_BEGIN,013,-0.181657462345962,0.024077231193800303,2.4244385577617344,-0.3817569365353805,-0.031238358920189873,-0.030291499643645477,-0.5743052595846365,-0.8050463086174764,1
552,2024-09-20 20:26:46.026403840,TASK_BEGIN,013,-0.17260801870333725,0.029858371211767435,2.4262282932560884,-0.3639767954673014,-0.013190583413191355,-0.020819690924929975,-0.888364799535981,-0.7398206313395876,1
553,2024-09-20 20:26:46.080470016,TASK_BEGIN,013,-0.16360900861185312,0.03663321769438941,2.401531286972787,-0.34288201273139896,0.01454896576766796,-0.009820113556616262,-1.190924025531599,-0.668675894943811,1
554,2024-09-20 20:26:46.161403904,TASK_BEGIN,013,-0.1543901702163877,0.04396419898560369,2.3469658249935637,-0.31852395404245254,0.05157771472346084,0.0019332189077421306,-1.4632046876267488,-0.5937180338536493,1
555,2024-09-20 20:26:47.105725952,TASK_BEGIN,013,-0.1448585103171935,0.051445403945741784,2.2618321895755322,-0.29132010716885015,0.09673641525179608,0.013651220112368682,-1.6890143523855847,-0.5172571487205689,1
556,2024-09-20 20:26:47.172964096,TASK_BEGIN,013,-0.13514197566639685,0.058730589057512696,2.1481702480481064,-0.261995370411685,0.14817723101450167,0.024606023508908666,-1.8549794360902692,-0.44213254333358754,1
557,2024-09-20 20:26:47.241281024,TASK_BEGIN,013,-0.12564758687690336,0.0655651200192726,2.0106309824894835,-0.2315070841680124,0.20347660198828088,0.034210850718168734,-1.9506065966018917,-0.37186601640165945,1
558,2024-09-20 20:26:47.308963072,TASK_BEGIN,013,-0.11708486846113113,0.07180911646166988,1.8562600167880579,-0.2009878138637903,0.2597590468318319,0.04208700179584108,-1.9684514668124096,-0.31056594459350795,1
559,2024-09-20 20:26:47.375809792,TASK_BEGIN,013,-0.11041780004867177,0.0774420104727714,1.6942398101877236,-0.1717208110746609,0.3138492021563008,0.0480917160330432,-1.9046951078727958,-0.2625728482215577,1
560,2024-09-20 20:26:47.443721984,TASK_BEGIN,013,-0.1067414276422733,0.08254681475541603,1.535523943304091,-0.14512656453181835,0.3625289528038395,0.0522878229748904,-1.7600517844236327,-0.23192111384636352,1
561,2024-09-20 20:26:47.511286016,TASK_BEGIN,013,-0.1071008055753113,0.08727693301471963,1.3921833327718576,-0.12270786009407132,0.402912571473756,0.05486500283138491,-1.540432081639921,-0.22178829011704115,1
562,2024-09-20 20:26:48.456257024,TASK_BEGIN,013,-0.1122955056885165,0.09181182961674168,1.2763592057046298,-0.10591577914575315,0.43281100513870346,0.0560500114698954,-1.256933636419701,-0.2340685354463064,1
563,2024-09-20 20:26:48.508851200,TASK_BEGIN,013,-0.12272245408619735,0.096311671927795,1.1989837499599034,-0.09595806989568208,0.4509339568757237,0.05604228390963366,-0.9253552711019725,-0.26908347963513757,1
564,2024-09-20 20:26:48.591931136,TASK_BEGIN,013,-0.13828679791936166,0.10088187647468039,1.1686005731437206,-0.09362092930645631,0.45690245690883097,0.05498950658196809,-0.5655806748261768,-0.32540568159758193,1
565,2024-09-20 20:26:48.658710016,TASK_BEGIN,013,-0.15838890322118382,0.10555468190546073,1.1904803330065652,-0.09916381473295983,0.4511608245046727,0.05299718136189008,-0.20079269742867958,-0.39980917946724853,1
566,2024-09-20 20:26:48.720792064,TASK_BEGIN,013,-0.1819882245720663,0.11028825975130534,1.2659975989657477,-0.11229226586363615,0.4348697735341201,0.050153656165438605,0.14373186370890453,-0.48740084872930856,1
567,2024-09-20 20:26:48.782337024,TASK_BEGIN,013,-0.2077373243028477,0.11498044900037664,1.392240725687926,-0.13218453721496057,0.40976772573984505,0.046552391741951554,0.4423380782400999,-0.5820049453278054,1
568,2024-09-20 20:26:48.860250112,TASK_BEGIN,013,-0.23417022884036762,0.11949517972193385,1.5620054969215946,-0.157561907104582,0.3779323443442755,0.04231084726269408,0.6710830880892527,-0.6768091769832655,1
569,2024-09-20 20:26:49.767280896,TASK_BEGIN,013,-0.25991471723962467,0.12369759585792153,1.7643658843977996,-0.18680276641557073,0.3414276980251921,0.03759966383891296,0.8099334332055232,-0.765129168722594,1
570,2024-09-20 20:26:49.848688896,TASK_BEGIN,013,-0.2838825643376179,0.12748869375915362,1.9858405505637682,-0.21809284908748838,0.3019388736072035,0.032679578764733645,0.8447581764764562,-0.8410635369399889,1
571,2024-09-20 20:26:49.916462848,TASK_BEGIN,013,-0.3053981701184395,0.1308308397340175,2.211948037435985,-0.2496011311647691,0.2605589918878527,0.02791541704803192,0.7688884493938426,-0.8999088320597282,1
572,2024-09-20 20:26:49.984163072,TASK_BEGIN,013,-0.3242487286264229,0.13376127708613086,2.4287753459207178,-0.27965745729309754,0.21781742885285438,0.023741070014442433,0.584158930199291,-0.9383965042735273,1
