,time,MARKER,pid,L_O_DSI,L_D_DSI,L_O_DSphi,L_D_DSphi,R_O_DSI,R_D_DSI,R_O_DSphi,R_D_DSphi,trial_id
0,2024-09-20 20:31:15.972278076,TASK_BEGIN,013,0.12198528469241961,-0.07652201856988455,1.1300602761914198,-0.4261123228132703,-1.3809129789557457,0.28142486398456923,0.3582361348243084,-0.6618627782778694,2
1,2024-09-20 20:31:16.040805176,0,013,0.12582594242760659,-0.07709795055710757,1.3141680505060354,-0.45140877639075544,-1.3588913215974718,0.2834503523106352,0.7203463313746049,-0.7310064555632462,2
2,2024-09-20 20:31:16.095899170,0,013,0.12931117734911085,-0.07821908687372306,1.5099472745964253,-0.48144745315624426,-1.3386976526883865,0.28647976140661635,1.0793724808066703,-0.7967828299668506,2
3,2024-09-20 20:31:16.176239014,0,013,0.13267082813787545,-0.07991002028496495,1.7071689897039244,-0.514602930995271,-1.3203059469146912,0.2904319890178386,1.421660773781521,-0.8557513928734286,2
4,2024-09-20 20:31:16.237291992,0,013,0.13613862827100398,-0.08218837367283542,1.8959226890920082,-0.549232448824236,-1.3034911420646584,0.295220960948134,1.7336543590370594,-0.9048664295357719,2
5,2024-09-20 20:31:16.311616943,0,013,0.13989223105148413,-0.08506614507624301,2.067541912550292,-0.5838169353479528,-1.287882780501862,0.3007472824584223,2.0022515948608395,-0.9416741811146394,2
6,2024-09-20 20:31:17.254083008,0,013,0.14397880078050307,-0.08855115882699058,2.2151610897497958,-0.6170332994858045,-1.2730075508651664,0.30687969691796296,2.2151837145141364,-0.9644584541331208,2
7,2024-09-20 20:31:17.321585938,0,013,0.14826628521994875,-0.09264921000247135,2.33393704955175,-0.647769551237439,-1.258351250987302,0.3134352694235102,2.3616171712812277,-0.9723457874932058,2
8,2024-09-20 20:31:17.385636963,0,013,0.15244088491517774,-0.09736645144837539,2.421081672136818,-0.6751179299063652,-1.2434709257470586,0.3201707233728309,2.4330602395857976,-0.9653636675537208,2
9,2024-09-20 20:31:17.451583984,0,013,0.15603550245324493,-0.1027085336151225,2.4757852199854344,-0.6983547312154185,-1.2281265551762166,0.3267874527351246,2.4243882885599577,-0.9444313467260368,2
10,2024-09-20 20:31:17.524070068,0,013,0.1584621463593505,-0.10867353308191091,2.4990449793640512,-0.7169001293259735,-1.212361160289066,0.3329405732320271,2.3345823805206365,-0.9112459445474853,2
11,2024-09-20 20:31:17.592864990,0,013,0.15904069068353932,-0.11524131508225405,2.4934145282918405,-0.7302746290063973,-1.1964854692302813,0.33824369560530104,2.166812867992248,-0.8680483631577001,2
12,2024-09-20 20:31:17.662372070,0,013,0.15703810979857913,-0.12236565322927634,2.462668682022404,-0.7380785926803594,-1.180984051144879,0.34227531507308884,1.9278992213230512,-0.817329349861271,2
13,2024-09-20 20:31:18.580276855,0,013,0.15172694712632812,-0.12997130311935065,2.4113370125339286,-0.7399910528616542,-1.1663939806460724,0.34460167346346354,1.6275651371438704,-0.7615796796696701,2
14,2024-09-20 20:31:18.645261963,0,013,0.1424506455966573,-0.13795150260508582,2.3441142301518756,-0.7357709334611955,-1.1532016929180255,0.34482328682439384,1.2778331671655327,-0.70313993792158,2
15,2024-09-20 20:31:18.713254883,0,013,0.12867622691205324,-0.14616105797935747,2.265300250153603,-0.7252698688963761,-1.141784412605344,0.34263622710331804,0.8925993880630011,-0.6441274850496134,2
16,2024-09-20 20:31:18.783679932,0,013,0.11002169138903173,-0.15440524138588502,2.1784440116568597,-0.7084700196774341,-1.1324029760393706,0.3378903611752493,0.4872869662642786,-0.5863894017370895,2
17,2024-09-20 20:31:18.851424072,0,013,0.08625987460997632,-0.16242904379904902,2.0862043133257795,-0.6855289445490845,-1.1252320939549096,0.33063066867967966,0.07838109651149612,-0.531453035562715,2
18,2024-09-20 20:31:18.919173096,0,013,0.05732244930807151,-0.1699131617667566,1.9903485132422427,-0.6568061397703479,-1.1203941057909308,0.3211159879058506,-0.3174106971393242,-0.4804819220614329,2
19,2024-09-20 20:31:18.986871094,0,013,0.023330226194814743,-0.17648136000716932,1.891900423479201,-0.6228748790646172,-1.117961989424406,0.3098148389016081,-0.6843673721900574,-0.43426917215128397,2
20,2024-09-20 20:31:19.929941895,0,013,-0.015356260569107199,-0.18171923492839318,1.7914838028339426,-0.5845372613929694,-1.1179319741717098,0.2973812910422752,-1.0089153596990894,-0.3933027421453077,2
21,2024-09-20 20:31:19.997726074,0,013,-0.05809879992075395,-0.18520154875216646,1.6897653567178046,-0.5428398209077234,-1.1201981538947896,0.2846145271057817,-1.2802945694285344,-0.3578959663252665,2
22,2024-09-20 20:31:20.064503905,0,013,-0.10397965853815218,-0.18652489278966006,1.5877988166376353,-0.49906681178483814,-1.1245477816883056,0.27240472124761433,-1.4907353107753536,-0.32830969607039456,2
23,2024-09-20 20:31:20.132829834,0,013,-0.15183126027667157,-0.18534258991589925,1.4871312868899595,-0.45469066582955364,-1.13066070902711,0.2616681809238964,-1.6355410878512444,-0.30478674764127656,2
24,2024-09-20 20:31:20.194859131,0,013,-0.20027529434750344,-0.18140013525465373,1.3896269945659563,-0.4112728282584994,-1.1380888668459668,0.25327436906179573,-1.7132977805908622,-0.2874986906365191,2
25,2024-09-20 20:31:20.257345947,0,013,-0.24775865083635593,-0.17456942799516886,1.2970724459171878,-0.3703293714888226,-1.1462225336570333,0.24796901676212557,-1.7260160560370923,-0.2764707760351835,2
26,2024-09-20 20:31:20.335915039,0,013,-0.29259883286486477,-0.16487616569989663,1.210808201493634,-0.3332004561221507,-1.1542819086094818,0.2463035906331477,-1.6789676774586593,-0.271532778158672,2
27,2024-09-20 20:31:21.280044922,0,013,-0.33305969760705606,-0.15251312217670104,1.1316843848091374,-0.30096377534945123,-1.1613638547686829,0.2485828822611345,-1.5802185596115481,-0.27228917511610834,2
28,2024-09-20 20:31:21.347060059,0,013,-0.3674616691024125,-0.13783640668643302,1.0603689080190344,-0.27440046313658545,-1.1665407705983233,0.2548371785377498,-1.4399723098842474,-0.2780900933337121,2
29,2024-09-20 20:31:21.415272949,0,013,-0.3943101674171636,-0.1213469602855232,0.9977230890194869,-0.25399359399359445,-1.168986306944582,0.26482075664902943,-1.269800437844501,-0.28801089404926034,2
30,2024-09-20 20:31:21.483316895,0,013,-0.4124167069190855,-0.10366136835744513,0.9449884039484112,-0.23994587753002758,-1.1680912184847094,0.2780350297286549,-1.0818767048065292,-0.30084777346433206,2
31,2024-09-20 20:31:21.550236084,0,013,-0.42099283608527044,-0.08547537475609294,0.9038302332531285,-0.23222988788191434,-1.1635345002554849,0.2937711160855528,-0.8883766120071173,-0.31511967655272655,2
32,2024-09-20 20:31:21.618795898,0,013,-0.4197132843363563,-0.06752213886028784,0.8764555125466821,-0.23069141608182772,-1.1552976673364357,0.3111645209948381,-0.7010533199930996,-0.3290930772850124,2
33,2024-09-20 20:31:21.686292969,0,013,-0.4087524508266945,-0.05052672202199755,0.8658455255670622,-0.2351887188765038,-1.1436322896482238,0.3292551917602935,-0.5308625210588638,-0.3408759135305059,2
34,2024-09-20 20:31:22.630041992,0,013,-0.3887844168426741,-0.03516010966606787,0.8758530639208401,-0.24569567752833,-1.1289879434114025,0.3470481559070467,-0.38756486642999716,-0.34859380438770854,2
35,2024-09-20 20:31:22.695118896,0,013,-0.3609240012536493,-0.021999423213634208,0.9108887939472877,-0.26229751484010677,-1.1118972593528824,0.36357075473826095,-0.2792581455297681,-0.35060594296792524,2
36,2024-09-20 20:31:22.766201904,0,013,-0.3266073713403126,-0.01149971761031311,0.9751897045621535,-0.28507988775855225,-1.092835209622055,0.37792533407986384,-0.21172073986006007,-0.34571055749604496,2
37,2024-09-20 20:31:22.819285889,0,013,-0.2874461567340402,-0.003976164608641688,1.0718957061682903,-0.313974316933612,-1.0720980929074004,0.38934067282669543,-0.1875852084399007,-0.3333132661524416,2
38,2024-09-20 20:31:22.901617920,0,013,-0.245095810997981,0.0004069436801740356,1.2021861205213042,-0.34861663790270564,-1.0497311318620333,0.39722075471819096,-0.2057273973308431,-0.3135244350435848,2
39,2024-09-20 20:31:22.957534912,0,013,-0.2011577765358318,0.0016399233263709972,1.364674334293642,-0.3882459884639741,-1.025503832490467,0.4011803746551866,-0.2613262565730065,-0.28714058265767967,2
40,2024-09-20 20:31:23.034688965,0,013,-0.1571097747925992,-0.00013882692625985475,1.5551876802084552,-0.4316659907157668,-0.9989378424647611,0.4010607617016565,-0.34658594341124727,-0.25551430783640966,2
41,2024-09-20 20:31:23.941940186,0,013,-0.11424267185089253,-0.0046617836863570685,1.7669188537632377,-0.47728284608643906,-0.9693948437078971,0.39692799321006916,-0.45172658237211427,-0.22037744737771156,2
42,2024-09-20 20:31:24.020041992,0,013,-0.07359214401424755,-0.01156312180660189,1.9908358815256524,-0.5232126957444678,-0.9362067882219505,0.38905592966663705,-0.5659671031617465,-0.1836760103153044,2
43,2024-09-20 20:31:24.090100098,0,013,-0.035885910681445934,-0.020415349493569258,2.2162717497638424,-0.5674332360742291,-0.8988236416166792,0.37789431759857567,-0.678438870714728,-0.14743233175046747,2
44,2024-09-20 20:31:24.157787109,0,013,-0.0015397887306027073,-0.030762364219670588,2.431642054928226,-0.6079451814629014,-0.8569662694304161,0.36403142950067774,-0.7789543221900114,-0.11363036383568369,2
45,2024-09-20 20:31:24.225562012,0,013,0.029290909637356703,-0.04214391167383642,2.6251950922730263,-0.6429096225978425,-0.810754910548558,0.3481587983234547,-0.8584672903144148,-0.08413379453701049,2
46,2024-09-20 20:31:24.293295898,0,013,0.05662476223490203,-0.0541136180002364,2.7857010567182114,-0.670745543131858,-0.760763290808684,0.3310281961782101,-0.9091786915369502,-0.06064399953733867,2
47,2024-09-20 20:31:24.360147949,0,013,0.08055058456630872,-0.06625413467856679,2.9030689643404783,-0.6901906221977386,-0.7079845208121809,0.31338986972571564,-0.9245749166887282,-0.04464932411367986,2
48,2024-09-20 20:31:25.291857910,0,013,0.10111924431739767,-0.07818876524196304,2.968934855741367,-0.7003340999182809,-0.6537439950705267,0.2959228866873365,-0.8997638379084647,-0.03729821905997565,2
49,2024-09-20 20:31:25.373593994,0,013,0.11825636145797871,-0.08958741479130936,2.9772172252793903,-0.7006319196372848,-0.5995874225943258,0.27917838354781205,-0.8321044661699041,-0.03921215242603017,2
50,2024-09-20 20:31:25.431611084,0,013,0.13172920650301664,-0.10016881057704573,2.92456526589073,-0.6909110090047605,-0.5471487705121213,0.26354473651916993,-0.7218128789203825,-0.050328619566535907,2
51,2024-09-20 20:31:25.508729004,0,013,0.1411829657455986,-0.10970404871761456,2.81063564610512,-0.6713597474799999,-0.4980194466842801,0.24923498929233448,-0.5722630148452804,-0.06984332687908597,2
52,2024-09-20 20:31:25.570738037,0,013,0.14623283303867268,-0.11802380575520721,2.6381893947611315,-0.642502650885886,-0.45365140945072513,0.23629590102242617,-0.3898999226971556,-0.09625953270969542,2
53,2024-09-20 20:31:25.630304199,0,013,0.14657791129633124,-0.12502671639348262,2.413033599500114,-0.605172805281434,-0.4152890686994672,0.22463217769255212,-0.1838047567655928,-0.12751872755957133,2
54,2024-09-20 20:31:25.708038086,0,013,0.14209975663688534,-0.1306846193201389,2.1438210699778892,-0.5605027906243769,-0.38388948552694047,0.21403317356535156,0.03508197274486553,-0.16119325604672854,2
55,2024-09-20 20:31:26.656038086,0,013,0.1329191564934113,-0.13504121800811514,1.8416708276517475,-0.5099384738343382,-0.36000996235640653,0.20419318497434447,0.2550967335557607,-0.19474497138638408,2
56,2024-09-20 20:31:26.708501221,0,013,0.1193954291944226,-0.13820135431771477,1.5195614850286672,-0.455253737098942,-0.3436980699535339,0.19472950346587925,0.46523124667947624,-0.22585047989924084,2
57,2024-09-20 20:31:26.785653076,0,013,0.10206923402631399,-0.14030976491203537,1.191534796235838,-0.39853230009619617,-0.33444763662689014,0.1852103841462954,0.6564189396930383,-0.25272997847981754,2
58,2024-09-20 20:31:26.847941895,0,013,0.08157820340798551,-0.14152330262982005,0.871804022545234,-0.3420871684286497,-0.33123833777238443,0.17519494954658618,0.8223285389363786,-0.2743459579282618,2
59,2024-09-20 20:31:26.925577881,0,013,0.058584887059958894,-0.14198518004137686,0.5737993382140608,-0.2883005762374728,-0.3326225019752047,0.164274884099914,0.9594321333819982,-0.29036491376039514,2
60,2024-09-20 20:31:26.994653076,0,013,0.03373108103744901,-0.1418078031145046,0.3091838506260624,-0.2393999860957592,-0.33685194963385057,0.1521146871803989,1.0663686276130138,-0.3009021364662488,2
61,2024-09-20 20:31:27.048724121,0,013,0.007603943589535385,-0.1410645357318492,0.08703823734076487,-0.19723318355984354,-0.34208071955649,0.13849672957494455,1.142939616151639,-0.3061976116698724,2
62,2024-09-20 20:31:27.999377930,0,013,-0.019296628615257043,-0.13978758225524215,-0.08653785607916643,-0.1631128748358126,-0.3466367269917566,0.1233695554842221,1.1893609012423618,-0.3063987484017539,2
63,2024-09-20 20:31:28.060256836,0,013,-0.04657188102078474,-0.13797131121034448,-0.20838773239327454,-0.13774688747531644,-0.34928107442820655,0.10688455266519452,1.2062463124422114,-0.3015221240397244,2
64,2024-09-20 20:31:28.137891113,0,013,-0.07389328906613984,-0.13558332602449802,-0.278023611844798,-0.1212245787538504,-0.3493597024414055,0.0894027114757488,1.1952003228971977,-0.29152887609129,2
65,2024-09-20 20:31:28.209217041,0,013,-0.10093353750218916,-0.13258319790944303,-0.2972961481401588,-0.11304595223964341,-0.34681019723933443,0.07146337421333442,1.1593817072331924,-0.2764014085989337,2
66,2024-09-20 20:31:28.276948975,0,013,-0.12730397533277815,-0.12894187208720503,-0.2700667470103758,-0.11220530084808358,-0.34206333803739053,0.053724288618775484,1.1034251227342613,-0.2561641708653107,2
67,2024-09-20 20:31:28.338869141,0,013,-0.15253583370174303,-0.12465309476021906,-0.20187898689494366,-0.11732652049760664,-0.33589534389251596,0.03688983902985458,1.0326365686741292,-0.23087232683210193,2
68,2024-09-20 20:31:28.412380859,0,013,-0.17609640127461373,-0.11973573259486996,-0.09961301950082345,-0.12682124184832116,-0.32924804348026315,0.021639335530361528,0.9519274756311321,-0.20062685495071378,2
69,2024-09-20 20:31:29.326339111,0,013,-0.1974091310184186,-0.11423215127619318,0.02887343200181339,-0.13903621054675358,-0.3230363649263479,0.008565733121376942,0.8650512081465404,-0.16564158845428417,2
70,2024-09-20 20:31:29.388823975,0,013,-0.21587522453041771,-0.10820489967154087,0.17509815803562936,-0.15237109143844837,-0.3180060546438272,-0.001862653971382001,0.7743654030118591,-0.12632113216835014,2
71,2024-09-20 20:31:29.466548096,0,013,-0.2309125338225756,-0.10172993625933097,0.33029286336943525,-0.16536696242808832,-0.3146930908247726,-0.009311825111603639,0.6809664444100362,-0.08328388247822477,2
72,2024-09-20 20:31:29.529145020,0,013,-0.24200216237709954,-0.09488647384766082,0.4857037754013866,-0.176769924364166,-0.3134777901480938,-0.013569166855456321,0.5849291395215787,-0.037317163235559364,2
73,2024-09-20 20:31:29.602032959,0,013,-0.24872539402990787,-0.08774527081599534,0.6328113184152392,-0.1855638283331154,-0.3146955800135945,-0.014518994631578248,0.4854741895907877,0.01069311394068338,2
74,2024-09-20 20:31:29.659367920,0,013,-0.2508012830805992,-0.08035687068329506,0.7634965028086537,-0.19096896559826135,-0.31875417745424495,-0.012118623643750043,0.3810323446957164,0.059825894697975106,2
75,2024-09-20 20:31:29.737476074,0,013,-0.24814015644971915,-0.07274247310790669,0.8702728034918918,-0.1924244179165247,-0.3261964543219956,-0.006386019773640422,0.26934619481661093,0.10917615136045823,2
76,2024-09-20 20:31:30.680613037,0,013,-0.2409053706675036,-0.06488958433869013,0.946640060718965,-0.1895745313676654,-0.3376690129081621,0.002597161543849183,0.14782096247129314,0.15788377883913574,2
77,2024-09-20 20:31:30.747620117,0,013,-0.22956154091291053,-0.056751522174092385,0.9874864348944583,-0.1822593041882,-0.3538008596972595,0.014671854651860806,0.014137245020543317,0.20513104100775012,2
78,2024-09-20 20:31:30.815677002,0,013,-0.2148861301780664,-0.04825035747313408,0.9894516312309379,-0.17050039247709858,-0.375031135665838,0.02958467976981106,-0.1331141661727774,0.25012226780086877,2
79,2024-09-20 20:31:30.883837891,0,013,-0.19793041747315718,-0.03928559257632022,0.9512051227720868,-0.15448413913523523,-0.4014371244160821,0.04697455583689281,-0.29397839524058833,0.2920590258177363,2
80,2024-09-20 20:31:30.937483887,0,013,-0.1799358323886354,-0.02974896609884335,0.8736161576771634,-0.13455143892832688,-0.4325995759771712,0.06636724484726468,-0.4668578049406098,0.3300988762584474,2
81,2024-09-20 20:31:31.019324951,0,013,-0.1622295118709016,-0.01954085565492801,0.7598311631227921,-0.11120280394272938,-0.46752047535088775,0.08717999784973775,-0.6483142417437532,0.3632921284048381,2
82,2024-09-20 20:31:31.076302979,0,013,-0.14612794202419102,-0.008582595550160098,0.615256444518472,-0.08511397947616982,-0.5046136229596072,0.10873935729941363,-0.8329400575022096,0.39053471276967455,2
83,2024-09-20 20:31:32.029635010,0,013,-0.13286415572229957,0.0031768836443684116,0.44736197865168265,-0.0571449948677707,-0.5418135251403142,0.1303162112340961,-1.0134612790028077,0.41060424057262823,2
84,2024-09-20 20:31:32.086239990,0,013,-0.12353340859982914,0.01575768712560975,0.26521656985043573,-0.02832271302424005,-0.5768336486176188,0.15117832913183463,-1.1813106785362468,0.422326730391243,2
85,2024-09-20 20:31:32.165123047,0,013,-0.1190484496283903,0.029147156939893688,0.07876424753408194,0.00022097318383096048,-0.607521045237537,0.17065230590210184,-1.3276835558361322,0.4248451593327348,2
86,2024-09-20 20:31:32.225476074,0,013,-0.12010024269003945,0.04329939382576264,-0.10205001801485455,0.027362150491371452,-0.6321778428911333,0.18817912228840836,-1.4447097095863324,0.4178622813790947,2
87,2024-09-20 20:31:32.300572021,0,013,-0.12711945072266959,0.05813430770830351,-0.2681461952321394,0.052128901699376756,-0.6497538993327442,0.2033489408854233,-1.5262350943976444,0.4017208254589103,2
88,2024-09-20 20:31:32.365451172,0,013,-0.1402449270237203,0.0735348721818362,-0.41198795173144853,0.07382416540018863,-0.659926559696361,0.21591442238628553,-1.5679610749116384,0.37731082563113894,2
89,2024-09-20 20:31:32.427511962,0,013,-0.15931676163877476,0.08934453378052545,-0.5279598926439754,0.09207335729708223,-0.6631346364649131,0.2257944885664132,-1.5671079014734213,0.3459133245544167,2
90,2024-09-20 20:31:33.376209961,0,013,-0.18389036119082205,0.10536596541694597,-0.6124892712025554,0.10678757853078312,-0.6605781179687443,0.23307625341180077,-1.522093618401046,0.3090818714447771,2
91,2024-09-20 20:31:33.438695068,0,013,-0.21324491640542065,0.1213590846263955,-0.6640529499917732,0.11807881423681701,-0.6541360308283748,0.238008548837948,-1.432774256528137,0.268598697152817,2
92,2024-09-20 20:31:33.514857910,0,013,-0.24638359289524017,0.1370384066482154,-0.6831327963655541,0.1261651237676453,-0.6461831754850295,0.2409777164389328,-1.3013275623143488,0.22648785731990115,2
93,2024-09-20 20:31:33.582487061,0,013,-0.28205786666461985,0.15207471917718451,-0.6720527135446025,0.13128299016879494,-0.6393518184764281,0.24246661981406056,-1.1331145706782622,0.18500948270381465,2
94,2024-09-20 20:31:33.639360107,0,013,-0.3188371280931367,0.16610605806045342,-0.6346136922422102,0.13361619002239733,-0.636288705601321,0.24300245914873397,-0.9367377728829888,0.14655159661505274,2
95,2024-09-20 20:31:33.718028076,0,013,-0.3552125281165595,0.17875956528593268,-0.5755769287838427,0.1332578104687734,-0.6394128269143968,0.2430957105325896,-0.7232494067894066,0.11342174215698045,2
96,2024-09-20 20:31:33.778030029,0,013,-0.3897126151209759,0.18968185554397862,-0.5001855608540842,0.1302224781417518,-0.6506660541496697,0.2431749788604898,-0.5050702600736084,0.0876202198274911,2
97,2024-09-20 20:31:34.700490967,0,013,-0.42100928361989787,0.1985710020404068,-0.41387497169569154,0.12450423327780781,-0.6712815232535762,0.24353058121405388,-0.29502420402032586,0.07065472477063955,2
98,2024-09-20 20:31:34.762545898,0,013,-0.4479963969525054,0.20520299134767317,-0.32215820224388325,0.11615611752683686,-0.7016195321250245,0.24428123406071825,-0.1054664346762137,0.0633888514622325,2
99,2024-09-20 20:31:34.840655029,0,013,-0.46983041286342164,0.2094499407418502,-0.23056370498271364,0.10537058946003536,-0.7410948065632199,0.24536781675324856,0.052589805541240195,0.06590355058946117,2
100,2024-09-20 20:31:34.902676025,0,013,-0.4859298782143755,0.21128923386813997,-0.14447467743786058,0.09254010888243201,-0.7881797409637041,0.24656700502755843,0.17026783640196888,0.07738247487762734,2
101,2024-09-20 20:31:34.964229980,0,013,-0.4959466672686942,0.21080244568441145,-0.06881231898318366,0.07827223823554347,-0.8404868692942101,0.24752209307561013,0.2414279602082117,0.09606006026159483,2
102,2024-09-20 20:31:35.044085938,0,013,-0.4997380842038028,0.20816539776928636,-0.007699315004644265,0.06334985975270217,-0.894968641597471,0.24779789434822888,0.26303259832463893,0.11929768472303882,2
103,2024-09-20 20:31:35.103436035,0,013,-0.49735700532298693,0.20363263654384647,0.035725340720738914,0.04864974622857476,-0.9482309163617156,0.24695636568486354,0.23525004900475396,0.1438470518700595,2
104,2024-09-20 20:31:36.043024902,0,013,-0.4890509459429908,0.197518545763935,0.059345769910573644,0.03504130445743137,-0.9968774843637321,0.24462931924539882,0.1612740923965887,0.16627441084181901,2
105,2024-09-20 20:31:36.123224854,0,013,-0.4752635005919031,0.19017727864178666,0.06205753947399862,0.0232942614865638,-1.0377875348192,0.2405624654814095,0.04689123447784121,0.18342484566889805,2
106,2024-09-20 20:31:36.182774170,0,013,-0.45664804276889487,0.18198426433241402,0.04371927750133571,0.014026808324311912,-1.068287264839717,0.23462184020058063,-0.1000935134805306,0.19280259016823495,2
107,2024-09-20 20:31:36.258678955,0,013,-0.4340907397503638,0.1733196252397449,0.005065232342172893,0.007705747775858991,-1.0862485280557708,0.22677325853140368,-0.27043679701717854,0.19280823197500022,2
108,2024-09-20 20:31:36.322024170,0,013,-0.4087162612163276,0.1645517536372455,-0.05233168615379618,0.004675709450583289,-1.090169146773256,0.21705598129503828,-0.4539786663732081,0.18283024480808224,2
109,2024-09-20 20:31:36.384037109,0,013,-0.38185498200820894,0.15602140412087245,-0.1259869838269795,0.005179051235667817,-1.0792531971304347,0.20556628535244803,-0.6401476396952407,0.16321883053973557,2
110,2024-09-20 20:31:36.446520996,0,013,-0.35497366777735706,0.14802927148476205,-0.2124407898966222,0.009348730511647056,-1.0534683893480894,0.19245231924739256,-0.8185332371245952,0.13517812794733264,2
111,2024-09-20 20:31:37.394913818,0,013,-0.3295835351704307,0.14082924695702073,-0.30738059510510757,0.017185865196051447,-1.013550742246821,0.17791403173568224,-0.9795349196639229,0.10059778588834536,2
112,2024-09-20 20:31:37.472129149,0,013,-0.30714281062188664,0.13462772472312226,-0.40598830771253247,0.028537818346037323,-0.9609371077047979,0.1622021890197687,-1.1150351769873779,0.06184493140235978,2
113,2024-09-20 20:31:37.534194092,0,013,-0.2889717501176498,0.12958771893390952,-0.5034041461877902,0.04308270402110148,-0.8976190526622299,0.14561224047924495,-1.219087288017209,0.021564728890665977,2
114,2024-09-20 20:31:37.608712891,0,013,-0.2761835078210695,0.12583291351555775,-0.5951895244267706,0.06033410315497459,-0.8259414889174049,0.12847273769302778,-1.288513562892238,-0.0174725629391769,2
115,2024-09-20 20:31:37.676427979,0,013,-0.26961545635177314,0.12344498499050383,-0.677766501028095,0.07969217701328846,-0.7483996912283909,0.11113201798465466,-1.3231455629235416,-0.05249285432442539,2
116,2024-09-20 20:31:37.744178955,0,013,-0.26975541162791095,0.12245318876453797,-0.7488438269116414,0.10054443792179803,-0.6674763617524934,0.09394501555204565,-1.3256834272368014,-0.08082564681821573,2
117,2024-09-20 20:31:37.811035889,0,013,-0.27668320167535604,0.12282245629160542,-0.8077296234679847,0.12237647293042964,-0.5855156265731464,0.07725729873776979,-1.3015081045705263,-0.09997779342779899,2
118,2024-09-20 20:31:38.755239990,0,013,-0.290048702600184,0.12444600303247767,-0.8553570660182607,0.14484136261554237,-0.5046017950123898,0.06138269379127099,-1.2585263402584113,-0.10768702435064653,2
119,2024-09-20 20:31:38.823399902,0,013,-0.30908601715591305,0.12714298023970802,-0.8939605030079958,0.16776321012007459,-0.42642819070106375,0.046575358964618604,-1.206638079292766,-0.10203953769099194,2
120,2024-09-20 20:31:38.891177979,0,013,-0.33265277181801156,0.1306592576989352,-0.9265175628138835,0.19108467627294387,-0.35219871326115465,0.03300514860140598,-1.156494630562283,-0.0817134958348006,2
121,2024-09-20 20:31:38.958880859,0,013,-0.35928889542265446,0.13467128794347166,-0.956122335249263,0.21478441397566914,-0.28263535088661523,0.020749939491220344,-1.11774978756679,-0.04630499344586657,2
122,2024-09-20 20:31:39.026604980,0,013,-0.38729600950819154,0.1387946947258594,-0.9853700073347614,0.2387808420784912,-0.21810721494341787,0.009810499998557832,-1.0974043666178233,0.0033901107800166754,2
123,2024-09-20 20:31:39.094327881,0,013,-0.41484020486198164,0.14259869570874203,-1.0157888671226754,0.2628300810662545,-0.1588107868713166,0.00013763906365190108,-1.0988050553797264,0.06526555582864489,2
124,2024-09-20 20:31:39.162080078,0,013,-0.4400740268881525,0.14562598509448593,-1.047412493867217,0.2864412593357541,-0.10492671612313258,-0.008342693486613682,-1.1215017094630164,0.1360114768598675,2
125,2024-09-20 20:31:40.080673828,0,013,-0.4612579308237195,0.1474167459341465,-1.078598379300198,0.3088438539863727,-0.05674186045417629,-0.015709157090907307,-1.161840029360203,0.21139295414509301,2
126,2024-09-20 20:31:40.148442871,0,013,-0.4768536135577549,0.14753458077778067,-1.1061219033514726,0.3290218199038547,-0.014750469344644107,-0.022025291031741452,-1.213966027864357,0.28662343943768803,2
127,2024-09-20 20:31:40.216171143,0,013,-0.4855789085906012,0.145591160314264,-1.1255291845594146,0.3458022100840719,0.020287766184093694,-0.02732430043698424,-1.2708091873849143,0.3567719695691153,2
128,2024-09-20 20:31:40.283886963,0,013,-0.4864432123402278,0.14126797416450015,-1.1317285525759946,0.3579771897655758,0.047377729154419956,-0.03160967520478831,-1.3247502488952965,0.41716234576002587,2
129,2024-09-20 20:31:40.351457031,0,013,-0.4787867129334567,0.13433675244521256,-1.119740593086671,0.3644408647889451,0.06542521324769004,-0.034874039294495014,-1.3679344806093512,0.4637251066507959,2
130,2024-09-20 20:31:40.419034912,0,013,-0.4623181879938701,0.12467882200530095,-1.0854239504711003,0.3643224537914075,0.07346035881917636,-0.03712513029026475,-1.3922723504016572,0.49325632164069994,2
131,2024-09-20 20:31:40.486249023,0,013,-0.4371245332307991,0.1122980281838665,-1.025978406770191,0.357093200391528,0.0709008242564152,-0.03840624337600869,-1.389316819130203,0.503576601203077,2
132,2024-09-20 20:31:41.430333984,0,013,-0.4036385186138886,0.09732005491503909,-0.9401827786217599,0.3426316328667482,0.057778514624020616,-0.03880478325534506,-1.3504975485608,0.49365629368820624,2
133,2024-09-20 20:31:41.498479004,0,013,-0.36257508681422684,0.07997665839808084,-0.8284964290331458,0.3212517119755292,0.03485435701869749,-0.03844802520641913,-1.2681210902526476,0.4637589753499085,2
134,2024-09-20 20:31:41.565515136,0,013,-0.31485056967027636,0.060580407385068785,-0.6931070537617419,0.2937007734323691,0.0036075930435018316,-0.037491564475935865,-1.1370571522098971,0.4155577905438178,2
135,2024-09-20 20:31:41.634052002,0,013,-0.2614946516519853,0.03949785808559049,-0.5378547006980532,0.26111834474007134,-0.03383946220035901,-0.036111703322107544,-0.9565492163377056,0.3521247509241868,2
136,2024-09-20 20:31:41.701787109,0,013,-0.2035727037868156,0.01712773558344161,-0.3679631768963208,0.22494851690023585,-0.07478900001509486,-0.03451023191903521,-0.7313148678286927,0.2777150170802972,2
137,2024-09-20 20:31:41.769548828,0,013,-0.14214392205270604,-0.006111354077680601,-0.18961478024294176,0.18681844972683853,-0.1160166268421799,-0.032928098538554156,-0.4712885080810871,0.19734451973346903,2
138,2024-09-20 20:31:41.837301025,0,013,-0.07826550560283005,-0.02978235786605374,-0.009447082854603116,0.1484057895649884,-0.15385936185098575,-0.03165408925305826,-0.19011739554425572,0.11627075657974269,2
139,2024-09-20 20:31:42.780306152,0,013,-0.013023330977478337,-0.05342462651983901,0.16595326597392232,0.11131347007977298,-0.18440246433361476,-0.031016816662173218,0.0968172156193878,0.039530331233237216,2
140,2024-09-20 20:31:42.848077148,0,013,0.052446506141976566,-0.07655152926478251,0.33048125445241566,0.07696656373555036,-0.20377075443099862,-0.03135794133758523,0.37415768902746754,-0.028397753189209365,2
141,2024-09-20 20:31:42.915795166,0,013,0.11697315568097665,-0.09865956388357175,0.4787980375810634,0.04654583730598174,-0.20848745359291693,-0.032990474358905404,0.6279023599205037,-0.08383055557826494,2
142,2024-09-20 20:31:42.982630859,0,013,0.17940952070113228,-0.119251547368053,0.6064616957680328,0.0209634518181931,-0.1958412046767161,-0.036151826572789265,0.8463902874057312,-0.12406193685954696,2
143,2024-09-20 20:31:43.051266846,0,013,0.23871632276514324,-0.1378701474023231,0.7100005877828004,0.0008657621973720224,-0.16418971574036112,-0.04096818875572745,1.0209566360534328,-0.14749482691021157,2
144,2024-09-20 20:31:43.119014893,0,013,0.29404168671470754,-0.15413476862295106,0.7870437699569156,-0.013365400186665004,-0.11314799064889955,-0.047443454161197454,1.146181663339839,-0.1537048367026787,2
145,2024-09-20 20:31:43.186767090,0,013,0.3447704348906027,-0.16777392010491118,0.8365105148125411,-0.021636615705654415,-0.0436410298172388,-0.055472675826190206,1.2198115186642755,-0.14341865460006975,2
146,2024-09-20 20:31:44.122728027,0,013,0.3905283510305731,-0.17864534584948527,0.8587661139650268,-0.024195731949432746,0.04218428349939232,-0.06486970505994398,1.2426206683207326,-0.11842943324657718,2
147,2024-09-20 20:31:44.198149902,0,013,0.43114120902950104,-0.18673938801362322,0.8556598321079354,-0.02168672817549132,0.14117556729472205,-0.07539823375399339,1.2183269363886176,-0.08147418713792724,2
148,2024-09-20 20:31:44.265903076,0,013,0.46657233305072443,-0.19216874578065804,0.8304138087870672,-0.015157658171099798,0.24948152557837372,-0.08680178740313728,1.1533572902225036,-0.036051625699958435,2
149,2024-09-20 20:31:44.322912109,0,013,0.4968719966806526,-0.19515232031978436,0.7873985710455336,-0.00599387424891121,0.3628971896143322,-0.09882982431312223,1.056219742215176,0.01385243478030414,2
150,2024-09-20 20:31:44.401396973,0,013,0.5221470903261136,-0.19599591757912727,0.731877437175286,0.004199096770869384,0.4771922111955222,-0.11125155595774898,0.936420372858831,0.06412339742303516,2
151,2024-09-20 20:31:44.462124023,0,013,0.5425379382358689,-0.1950675191909378,0.6697413639851661,0.013718408277837926,0.5883750559102553,-0.12385186863707622,0.803028950446035,0.11092236642532104,2
152,2024-09-20 20:31:44.524193115,0,013,0.5581975179905864,-0.19276784588517398,0.6071402018430845,0.020881075548685072,0.6928769583181297,-0.1364190672374544,0.6631270638852768,0.15109508624187698,2
153,2024-09-20 20:31:45.445305176,0,013,0.5692766678680075,-0.18950036719815327,0.5499281487588562,0.024154899484859226,0.787662472580729,-0.1487404324671745,0.5205639898637383,0.182520089939771,2
154,2024-09-20 20:31:45.523634033,0,013,0.5759143047793603,-0.18564335376526017,0.5029958445835199,0.022305265249229028,0.8702657118792968,-0.16060682578790145,0.3755659838329605,0.20429993047453662,2
155,2024-09-20 20:31:45.589545898,0,013,0.5782367547249673,-0.18152621029562424,0.46969309828987843,0.014521583607212351,0.9387544373893036,-0.17181333579198113,0.225478779324379,0.21673020563396841,2
156,2024-09-20 20:31:45.645217041,0,013,0.5763784313609396,-0.17741366952030863,0.45152670980768844,0.0004820820657413363,0.9916569586878753,-0.18215012888096876,0.06635753474750673,0.22107075676113175,2
157,2024-09-20 20:31:45.722845947,0,013,0.5705181771654158,-0.17349790373146953,0.44816556805448626,-0.01964448956106906,1.027900441565698,-0.19139299417331965,-0.10523975617577139,0.21920758784022745,2
158,2024-09-20 20:31:45.784925049,0,013,0.5609018902128431,-0.16989413277874657,0.4576856809076799,-0.04523189374059943,1.0467855392073357,-0.19930341977067442,-0.2908584196033735,0.21329574830487502,2
159,2024-09-20 20:31:45.847409912,0,013,0.5478376128938736,-0.16663847985706914,0.47705122581907244,-0.07525916247106883,1.0479998886739976,-0.2056371519008188,-0.4895225701950831,0.20545134329556372,2
160,2024-09-20 20:31:46.806602051,0,013,0.5316829806701936,-0.1636923640736295,0.5028469579346719,-0.1084230683854351,1.0316713848174335,-0.21015743939077616,-0.6980225807512422,0.19755131041082036,2
161,2024-09-20 20:31:46.874352051,0,013,0.5128456843056274,-0.16095682645640652,0.5320873098768294,-0.14329094136610723,0.9984613917506543,-0.21265590828210376,-0.9120153883753922,0.19117444194784852,2
162,2024-09-20 20:31:46.942128906,0,013,0.4917951902419556,-0.15829643511136718,0.562773264485988,-0.17844444480965874,0.9496760916095538,-0.2129846476024404,-1.1274484752218163,0.18763371155023292,2
163,2024-09-20 20:31:47.009843018,0,013,0.4690745126281405,-0.15556971274581885,0.5940169772326565,-0.2125754278270687,0.8873450088162446,-0.21109290597617233,-1.3415787595144384,0.1879817570443913,2
164,2024-09-20 20:31:47.076506104,0,013,0.4453015681082903,-0.15265859959582906,0.6258458273603542,-0.24453447559329738,0.8142176760747316,-0.20705352459158166,-1.5531997669529722,0.19292620556113543,2
165,2024-09-20 20:31:47.138992920,0,013,0.4211469536696117,-0.14948668855318728,0.6589184900591329,-0.2733527946639425,0.7336591600707965,-0.2010682209708454,-1.7622551566526343,0.20270229285087044,2
166,2024-09-20 20:31:47.212927979,0,013,0.397282010925676,-0.1460214581959632,0.6942933398992114,-0.298258123058531,0.6494441274875015,-0.1934510468494474,-1.969174033228013,0.21697655128830826,2
167,2024-09-20 20:31:48.156166016,0,013,0.3743139498465059,-0.1422648379483369,0.7332296365004684,-0.3186986909629178,0.5654545762931357,-0.18459294808403398,-2.1740995957566716,0.23480929930199676,2
168,2024-09-20 20:31:48.223923828,0,013,0.35273378785028864,-0.13823955476391261,0.7769029599322236,-0.33437042029433883,0.4853123716722102,-0.17491018702408467,-2.3761611566243186,0.2546801763215143,2
169,2024-09-20 20:31:48.278652832,0,013,0.3328805660023785,-0.133975332620684,0.8259650201116047,-0.34522151218011554,0.412028502387922,-0.16478919292286323,-2.5730807323841374,0.2745935302186991,2
170,2024-09-20 20:31:48.359363037,0,013,0.31490602019216657,-0.12949555511359118,0.8800463765030058,-0.35141333205811154,0.347769345902511,-0.15455077158282743,-2.761312663269568,0.2922804158758631,2
171,2024-09-20 20:31:48.427140869,0,013,0.2987393229508479,-0.12480572014149126,0.937406604799537,-0.35324442699801456,0.29378441225553453,-0.1444449532835081,-2.936543324379109,0.305477824954177,2
172,2024-09-20 20:31:48.480285889,0,013,0.28407590988073766,-0.11988828198360188,0.9948564761480201,-0.3510614122071888,0.2504629233605908,-0.13466465850065357,-3.094178049460249,0.3122181957892835,2
173,2024-09-20 20:31:48.561683838,0,013,0.27040913287116125,-0.11470852459809851,1.0479290589413772,-0.3451757999534671,0.21746921618871345,-0.12536080672364225,-3.2295975295367203,0.3110498548960128,2
174,2024-09-20 20:31:49.505238037,0,013,0.25709779665298926,-0.10923018925763832,1.0912265671466117,-0.3357981584538981,0.19393971134714869,-0.11665273162474384,-3.3381883997525055,0.3011520367984201,2
175,2024-09-20 20:31:49.573008057,0,013,0.24345027183805684,-0.10343320107369021,1.1189027625629924,-0.3230010633976548,0.17873089322217228,-0.10863650610373317,-3.4152425359773586,0.28236797133569175,2
176,2024-09-20 20:31:49.640270020,0,013,0.22881385191993184,-0.09732617070308776,1.1252546314799767,-0.3067246417923005,0.17067803443149474,-0.1013955597347001,-3.4558448637584105,0.25520061970238994,2
177,2024-09-20 20:31:49.708440186,0,013,0.21266604486075488,-0.09095222028707776,1.105366673584781,-0.28682901056491916,0.1688089463497987,-0.09501477633702611,-3.4549048619647005,0.22079592297838016,2
178,2024-09-20 20:31:49.776164062,0,013,0.19469962391852702,-0.08439079289896494,1.0557549007893403,-0.2631798279400011,0.17246503291952528,-0.08959171486231629,-3.4074862030862687,0.1809120573310717,2
179,2024-09-20 20:31:49.841756104,0,013,0.17488515018253145,-0.07775659531025447,0.9749971416471548,-0.23574938582897,0.18130664245513625,-0.08523629588181683,-3.3094399300010147,0.13784205289914567,2
180,2024-09-20 20:31:49.911616943,0,013,0.1534967550773596,-0.07119340951455339,0.8642722537575238,-0.20472099396634053,0.1952224288514008,-0.08205674223933919,-3.158093030319565,0.09422789084999442,2
181,2024-09-20 20:31:50.849285889,0,013,0.13109657503282668,-0.06486121613828373,0.7276022270541257,-0.1705784495567453,0.2141873435011341,-0.08013432291016392,-2.9526827123596324,0.0527378074258186,2
182,2024-09-20 20:31:50.923620117,0,013,0.10847856831150997,-0.0589194479038908,0.5716236357150813,-0.13415658071486783,0.23810598608835326,-0.07949226490336045,-2.694471056718137,0.01567396735206044,2
183,2024-09-20 20:31:50.991358154,0,013,0.08657570966443835,-0.05351169330369151,0.40490659495735054,-0.09663657643536572,0.2666767463063977,-0.08007177424062832,-2.3867096477866365,-0.015365638644117767,2
184,2024-09-20 20:31:51.059066162,0,013,0.06634573526968408,-0.04875548763468321,0.23698196784584918,-0.059482227087879154,0.29931752648513527,-0.08173007750234035,-2.034582801904873,-0.03967144945427054,2
185,2024-09-20 20:31:51.126836914,0,013,0.04866133893150942,-0.044737018356584224,0.07727757598834775,-0.02432695074382565,0.33516380196244017,-0.08426023217251326,-1.6450764489265008,-0.057417747947081134,2
186,2024-09-20 20:31:51.189353027,0,013,0.034226692784366936,-0.04150820208246406,-0.06582129215260495,0.0071650074286949824,0.3730980932020799,-0.08741502870921859,-1.2266752845653435,-0.06951058292000066,2
187,2024-09-20 20:31:51.251837891,0,013,0.023529042101638524,-0.039084697829170366,-0.18563033206265295,0.0334412191277156,0.41175910260342663,-0.09091836394555547,-0.7888969974517317,-0.07738413156702909,2
188,2024-09-20 20:31:52.180388916,0,013,0.01682391616285921,-0.037445560611755496,-0.27757917672404375,0.053205290851667975,0.44952299696367304,-0.09446319309147362,-0.3417527170436854,-0.08282071724838722,2
189,2024-09-20 20:31:52.248148926,0,013,0.014143284841890204,-0.03653501396973711,-0.3395481140490744,0.06557051291571118,0.48449477749171677,-0.097708841976107,0.10471742405776668,-0.08778489629551259,2
190,2024-09-20 20:31:52.315119141,0,013,0.015308593041622114,-0.03626520267329289,-0.3721661816692581,0.07020492274594686,0.514549157354393,-0.1002914689201888,0.5406381724313238,-0.0942151325248553,2
191,2024-09-20 20:31:52.382512206,0,013,0.01993688881002233,-0.0365185015760202,-0.37888712130447544,0.0674159547908615,0.5374320198285505,-0.10185051268133685,0.9561689315869406,-0.10376971556010632,2
192,2024-09-20 20:31:52.438993896,0,013,0.02744542328443122,-0.037149368783838954,-0.36564424301153625,0.0581319341767867,0.5509165226678351,-0.10206366882715431,1.341245542787563,-0.11759289105656823,2
193,2024-09-20 20:31:52.516625977,0,013,0.037071483733330766,-0.0379878767343058,-0.34005597764553125,0.043782727004811575,0.5530069767722006,-0.10068193055811843,1.6854278155016345,-0.13614693608512257,2
194,2024-09-20 20:31:52.581628174,0,013,0.04792040202575198,-0.03884825712687325,-0.3103465174454853,0.026119134730505877,0.5421682780912094,-0.09755873002231498,1.9779212255044298,-0.15909637709319063,2
195,2024-09-20 20:31:53.529877930,0,013,0.059036797445056216,-0.03954398001429684,-0.2842615737599148,0.00702009561629679,0.5175309009003636,-0.09266778290944604,2.2077904844695526,-0.18524203353681973,2
196,2024-09-20 20:31:53.597165039,0,013,0.06947810185159425,-0.03990663275202637,-0.26821370106534675,-0.011677196982109655,0.47901718008853233,-0.08610603202740509,2.3645179177416953,-0.21255647124775745,2
197,2024-09-20 20:31:53.652789062,0,013,0.07837302451830477,-0.0398029514156231,-0.2667522874732798,-0.028306497225791778,0.42736033016247227,-0.07808286935616167,2.4390779246959546,-0.2383756623201802,2
198,2024-09-20 20:31:53.733138184,0,013,0.0849626749179594,-0.03914572896022318,-0.282396238895549,-0.04145301672843465,0.3640198879223304,-0.06890083995561293,2.4254140386873493,-0.2597502144243529,2
199,2024-09-20 20:31:53.800648926,0,013,0.08863041250090456,-0.03789839374388222,-0.31583374661328634,-0.049995467732257486,0.2910201419905157,-0.05893214694070101,2.321835621978413,-0.2738843233154386,2
200,2024-09-20 20:31:53.868078857,0,013,0.08892917044697993,-0.036075428299253094,-0.36634589286006153,-0.05314060407963227,0.21075017884551356,-0.04858891228697969,2.1317902543747986,-0.278525214303042,2
201,2024-09-20 20:31:53.936337891,0,013,0.08561627406471649,-0.0337403602162809,-0.43220839968943503,-0.05046850647836763,0.12576899329606717,-0.03828243554540657,1.8638065248907434,-0.272182539231828,2
202,2024-09-20 20:31:54.879908203,0,013,0.07869753663302854,-0.031002051004499993,-0.5109429934411577,-0.04197071890048668,0.038650420686236545,-0.028377006952179297,1.5307260887937197,-0.25415443230124735,2
203,2024-09-20 20:31:54.947748779,0,013,0.06846382482007027,-0.02800850216649755,-0.5994598213020335,-0.028054279030331423,-0.04812543584727809,-0.01915473348086181,1.1484439777329056,-0.22442192868852906,2
204,2024-09-20 20:31:55.014695801,0,013,0.055491838279524745,-0.024935375412397962,-0.6941584192447267,-0.009505439365697138,-0.13225073616343952,-0.010801751117425517,0.7344922220056308,-0.18350637678396325,2
205,2024-09-20 20:31:55.076762939,0,013,0.0405921447234803,-0.021967059429378242,-0.7910290997718675,0.01258140709216172,-0.21164829070212401,-0.003412794099240413,0.3067707752085483,-0.13235577229008272,2
206,2024-09-20 20:31:55.139553955,0,013,0.02471263812106702,-0.019272536374013296,-0.8858350632255274,0.03690749234301777,-0.2845049550287857,0.0029906259322212162,-0.11761445976136119,-0.0722539679603872,2
207,2024-09-20 20:31:55.218732178,0,013,0.00882129438706517,-0.01698273762551714,-0.9744443006782171,0.06209840022263465,-0.3492774734854914,0.00842732839809489,-0.5235632972573121,-0.004727511521609744,2
208,2024-09-20 20:31:55.279103027,0,013,-0.006207631207646137,-0.015175668833682257,-1.0532607156654865,0.08683960196745558,-0.4046745873949966,0.01290997143172436,-0.8991141352053772,0.06853832581373201,2
209,2024-09-20 20:31:56.195470947,0,013,-0.01968237601650056,-0.013870490770669893,-1.1196324676875886,0.11000447189226036,-0.44962255197199663,0.016397382629600585,-1.2361793679515583,0.14575548919713857,2
210,2024-09-20 20:31:56.268997070,0,013,-0.031140060561236187,-0.013028118431688033,-1.1721172214384956,0.13075494790569245,-0.4832284444092129,0.018763813068519104,-1.530623534890633,0.22505143708639652,2
211,2024-09-20 20:31:56.331063964,0,013,-0.04035143796892499,-0.012556637492647718,-1.210476098146395,0.14857562400696364,-0.5047594171068555,0.019794571292761104,-1.7815783752687016,0.30443980463583065,2
212,2024-09-20 20:31:56.407625000,0,013,-0.047308615875769254,-0.012320715283247432,-1.2353581040371386,0.16322612371393588,-0.5136582789936377,0.01920875607949597,-1.9901017943271178,0.38174147361720406,2
213,2024-09-20 20:31:56.475383057,0,013,-0.05221832027761621,-0.012153246903605646,-1.247836634402076,0.174654560187383,-0.5096136827981734,0.01671105140348307,-2.157555126869082,0.45446878851739997,2
214,2024-09-20 20:31:56.543060059,0,013,-0.05548815067526385,-0.011868827331201077,-1.2490240307278848,0.1829245017739333,-0.4926692763955245,0.012067325877935797,-2.2843409679765787,0.519736655424274,2
215,2024-09-20 20:31:56.610802979,0,013,-0.05767067947071572,-0.011282095358931746,-1.239842583965916,0.18816434723320294,-0.463309784410015,0.005177615855806012,-2.3696450266618436,0.5743334978811749,2
216,2024-09-20 20:31:57.543034912,0,013,-0.05935738570198615,-0.010232367543687339,-1.2208896283737514,0.1905161367442715,-0.4224723210427394,-0.003884616761074444,-2.41227337538277,0.615037684319768,2
217,2024-09-20 20:31:57.621313965,0,013,-0.06105366228832924,-0.00860966407776907,-1.192362550888292,0.19007268826837237,-0.37149656205214066,-0.014874364486531679,-2.4119455956553746,0.6390935400600737,2
218,2024-09-20 20:31:57.681660889,0,013,-0.06306722936400007,-0.006375775319458028,-1.1540973106164427,0.186823104812492,-0.3120600515930651,-0.027403667953059936,-2.370290234216957,0.6446677155083125,2
219,2024-09-20 20:31:57.757642090,0,013,-0.06542474862338649,-0.003578201175706924,-1.105756309447424,0.18063788085528068,-0.24610978450297713,-0.04098355704386698,-2.2913145036346614,0.6311726745548214,2
220,2024-09-20 20:31:57.825367920,0,013,-0.06782811897200104,-0.0003564127158435769,-1.0471216896697273,0.1713149014261706,-0.1757672960573379,-0.05507475005894127,-2.1815271228920157,0.5994213571212441,2
221,2024-09-20 20:31:57.882955078,0,013,-0.06965775545748962,0.0030614311808534744,-0.9784138592504228,0.15868695316456533,-0.10320478023554501,-0.06914136712747677,-2.0498820401621978,0.5515905248648372,2
222,2024-09-20 20:31:57.960133057,0,013,-0.07001671114205933,0.006371911488296367,-0.9005464879311261,0.14275570847333802,-0.03051954952962975,-0.08269855223505071,-1.9075507568970584,0.4909895711792834,2
223,2024-09-20 20:31:58.890634033,0,013,-0.06780742520424517,0.00921767506109238,-0.8152413354803616,0.12379718957932913,0.040373941327750094,-0.09535117445385337,-1.7673321898981913,0.4216753451666228,2
224,2024-09-20 20:31:58.972343018,0,013,-0.06183840382102428,0.01121385320114762,-0.7249816094100283,0.10240551808800515,0.10782851985431975,-0.10682558218502504,-1.6423816070130661,0.3479751492724878,2
225,2024-09-20 20:31:59.029994873,0,013,-0.05095270254863248,0.01197773314609608,-0.632817303969605,0.07946679095988111,0.1705060785238686,-0.11698868809890843,-1.5441486147978343,0.27396515413628086,2
226,2024-09-20 20:31:59.107121094,0,013,-0.03416243183165785,0.011159922986050987,-0.5420254903799103,0.05606287267519254,0.2273545111384088,-0.12584295108391028,-1.4799248872789184,0.20295195084199585,2
227,2024-09-20 20:31:59.175527100,0,013,-0.010776581184208878,0.00847444929409718,-0.4556632689181506,0.03332487567422238,0.27753845627155277,-0.13349614189236697,-1.4508441304236226,0.1370628543757176,2
228,2024-09-20 20:31:59.243263916,0,013,0.019484951683906664,0.003725240680873847,-0.3761485370129043,0.012284881028883917,0.32038626752441496,-0.14012108121579273,-1.4512088480249545,0.07708540730584205,2
229,2024-09-20 20:31:59.308069824,0,013,0.056400896766053546,-0.0031723813066271878,-0.3050526307107943,-0.006224386941200026,0.3554045617935182,-0.145925538882372,-1.4695018228668897,0.022611317682617284,2
230,2024-09-20 20:32:00.254179932,0,013,0.09919889294325901,-0.01217637080769317,-0.2431894137011746,-0.02160772286468895,0.3823606880232678,-0.15114205719426543,-1.4905743335898616,-0.02760902182714227,2
231,2024-09-20 20:32:00.317014893,0,013,0.14656374378353176,-0.02311130566288691,-0.1908811388819891,-0.03351047624230077,0.4013904550911083,-0.15603142896661637,-1.4979665659737922,-0.07526806511856346,2
232,2024-09-20 20:32:00.382166992,0,013,0.1967110444538961,-0.03567316727733151,-0.14818801346276447,-0.04181864083290133,0.4130757530191394,-0.1608856126248484,-1.4756546156147605,-0.1221595263086879,2
233,2024-09-20 20:32:00.457233887,0,013,0.24752478828463195,-0.049446822230576386,-0.11502802616504418,-0.046655795938319256,0.41845878348283294,-0.16602037885222648,-1.4092561726412505,-0.16989090431169568,2
234,2024-09-20 20:32:00.519797119,0,013,0.29675067985441717,-0.06393597733856128,-0.09127467256840917,-0.048355990117180316,0.41899708752383247,-0.1717567091457258,-1.2869749611996208,-0.21965302367793357,2
235,2024-09-20 20:32:00.584800049,0,013,0.3422193516215852,-0.07860278044500506,-0.07688795164354861,-0.04740735376757802,0.4164840799849436,-0.17839556174665405,-1.1003294931810175,-0.2721081553175122,2
236,2024-09-20 20:32:00.648982910,0,013,0.38205399672453844,-0.09291082973015916,-0.07201846058061612,-0.044382077047428296,0.4129517278491088,-0.18619244215038505,-0.8445873742929748,-0.32741423229817773,2
237,2024-09-20 20:32:01.605990967,0,013,0.4148246248021962,-0.10636539380135872,-0.07700659290240779,-0.03987138798103394,0.4105491908862025,-0.19533536440029065,-0.5189064138535522,-0.38531089206123975,2
238,2024-09-20 20:32:01.673733887,0,013,0.4396427829038392,-0.11854789973883631,-0.09226857468140989,-0.034436623913592285,0.4113841784030477,-0.20592654790613002,-0.12621580423322126,-0.44519663025584766,2
239,2024-09-20 20:32:01.740044189,0,013,0.4562019847368516,-0.1291423886725797,-0.11811200069825709,-0.028576271254444122,0.41733525392187176,-0.21797136691259797,0.32707684799439657,-0.5061881857968851,2
240,2024-09-20 20:32:01.802054932,0,013,0.4647519482883894,-0.13794892329998767,-0.15453721146782962,-0.022698420711578512,0.4298674719067127,-0.23137934610983216,0.831320777849866,-0.5671705141612388,2
241,2024-09-20 20:32:01.876895996,0,013,0.46599688366450215,-0.1448798362313247,-0.20109939141858918,-0.017089547133742996,0.4498931969281968,-0.24597315623287097,1.3736584151390578,-0.6268340756055605,2
242,2024-09-20 20:32:01.941703125,0,013,0.4609449165900821,-0.1499418687593263,-0.25687345612463525,-0.011889202425473417,0.47771907087489035,-0.26149565783846945,1.9381160263851969,-0.6837080576917292,2
243,2024-09-20 20:32:02.003293945,0,013,0.45076330709186435,-0.1532135110534928,-0.3204615627715138,-0.0070961722388774295,0.5130959118863874,-0.27761271993111675,2.5062043048927922,-0.7362144257500267,2
244,2024-09-20 20:32:02.917865967,0,013,0.43667647950999694,-0.15482571826912475,-0.38996714786100833,-0.002616753997429735,0.5553410653852622,-0.29391958240845584,3.058221928103007,-0.7827526176116445,2
245,2024-09-20 20:32:02.998802002,0,013,0.41989693303368986,-0.15494745970035706,-0.4629642753452324,0.0016686282104713846,0.6034721748318189,-0.3099569454017479,3.5749719299450207,-0.8217888398518733,2
246,2024-09-20 20:32:03.066552002,0,013,0.40155877992718186,-0.15377273574448963,-0.5365428497047819,0.0058562520689900656,0.6563025967906942,-0.3252336030242393,4.039278141232376,-0.8519014837059776,2
247,2024-09-20 20:32:03.119123047,0,013,0.3826490195590117,-0.15150695273445763,-0.6074576299326213,0.010002995314829679,0.7124900758477842,-0.33925082157668895,4.436760176439786,-0.8717489026620052,2
248,2024-09-20 20:32:03.195856934,0,013,0.36395494578569965,-0.14835386475707124,-0.6723385950118452,0.014131269955248943,0.7705690989076553,-0.3515302685170754,4.755694483564605,-0.8799749138469999,2
249,2024-09-20 20:32:03.257458984,0,013,0.3460454507976984,-0.14450616895517895,-0.7278629746354613,0.018225047939272623,0.8290008952965371,-0.36164701401978766,4.986208269818955,-0.875115154582982,2
250,2024-09-20 20:32:03.334616943,0,013,0.3292988860156626,-0.14014331324138476,-0.7708001116156921,0.022193652924199416,0.8862471224921549,-0.36926173835351944,5.119383628092615,-0.8555699948384736,2
251,2024-09-20 20:32:04.280542969,0,013,0.31397476726546386,-0.13543685059465646,-0.797968774156372,0.025816830400004258,0.9408448629370488,-0.37414386932833943,5.146864652775438,-0.8196655766215853,2
252,2024-09-20 20:32:04.337641113,0,013,0.3002989437338105,-0.1305577590704997,-0.8062665190624791,0.028718196433559568,0.9914516497071261,-0.37617965956801097,5.061133683915298,-0.7657846206338502,2
253,2024-09-20 20:32:04.414810791,0,013,0.28852125500618625,-0.12567831543679117,-0.7928944519091184,0.030403007640865364,1.0368427514913887,-0.37536125161275524,4.856196989579838,-0.6925495471144484,2
254,2024-09-20 20:32:04.476862793,0,013,0.2789264529438128,-0.12096589600576091,-0.7557499572373841,0.030346290190825832,1.0758717955722876,-0.371758872728352,4.5284569726029495,-0.5990621126014316,2
255,2024-09-20 20:32:04.539351074,0,013,0.27181445296746587,-0.11657282100949427,-0.6938425883463872,0.02808056206176126,1.107431122256651,-0.3654898414340166,4.077792568155814,-0.48520617799235277,2
256,2024-09-20 20:32:04.619278809,0,013,0.2674822217859181,-0.11262876724382417,-0.6075795410676516,0.02324275859534252,1.1304501737776103,-0.35670333739858856,3.5088147152051237,-0.3519741722177373,2
257,2024-09-20 20:32:04.675291992,0,013,0.2662260865540349,-0.10923892662123716,-0.49883778970499154,0.015578058376692683,1.143949273852579,-0.3455879784191758,2.8319936038575872,-0.2017139554437341,2
258,2024-09-20 20:32:05.627779053,0,013,0.26835905019348816,-0.10648632169719403,-0.3708448768534083,0.004929314105453749,1.147145184725398,-0.3323897953113867,2.0643226502964374,-0.03820690792454378,2
259,2024-09-20 20:32:05.698393066,0,013,0.2742182459864393,-0.10443396124816305,-0.2279651558523732,-0.00875817816200903,1.1396079418617333,-0.317424982959825,1.2293444868597998,0.13342190117608566,2
260,2024-09-20 20:32:05.766140869,0,013,0.28413210023080826,-0.10312281285689211,-0.07546130390237774,-0.02541186434502408,1.1214693396023365,-0.3010864108198546,0.3563648453173639,0.3069275429541793,2
261,2024-09-20 20:32:05.833986084,0,013,0.2983383866638359,-0.10256511509391046,0.0807577501918876,-0.04479774672087992,1.093629917703477,-0.2838486805617815,-0.5213050635862623,0.4753177138619095,2
262,2024-09-20 20:32:05.901637939,0,013,0.3168801003620593,-0.10273657408328758,0.23437837952852558,-0.06648352644942951,1.0578593104522447,-0.26626611503359315,-1.3688589694294073,0.6313832313508906,2
263,2024-09-20 20:32:05.968229980,0,013,0.3395191363583895,-0.10357198569534111,0.3788901577434847,-0.08981023847341928,1.0167319479536787,-0.24895368041699323,-2.1526140503785736,0.7683014814859687,2
264,2024-09-20 20:32:06.029791016,0,013,0.36569292557547106,-0.10496652994371351,0.507808512390925,-0.11389514635586975,0.9734243627875813,-0.2325490327590236,-2.8421723218501875,0.8801829749186747,2
265,2024-09-20 20:32:06.976943848,0,013,0.39452610381784003,-0.10678162864572613,0.6149850907446059,-0.1376835699864258,0.931418754782455,-0.2176607356657548,-3.412012219257262,0.9624934316697187,2
266,2024-09-20 20:32:07.038935791,0,013,0.4249071916145397,-0.10885343477309169,0.6950218236240601,-0.16004726408693548,0.8941554598670888,-0.20481101057410286,-3.842662170448888,1.0123397631307864,2
267,2024-09-20 20:32:07.104548096,0,013,0.4556234663383952,-0.11100383474325302,0.7437216890948091,-0.17989870579513625,0.8647007705901666,-0.19438600108341808,-4.1215346598742055,1.0286046825614261,2
268,2024-09-20 20:32:07.184048096,0,013,0.4855097629225263,-0.11305341199457068,0.7584258049197563,-0.19626384305314817,0.8454860417843492,-0.1866055427213122,-4.243383391695898,1.0119242856911574,2
269,2024-09-20 20:32:07.251761963,0,013,0.5135540619548344,-0.11483346414585624,0.738088694322304,-0.208271831775252,0.8381220195877257,-0.18151225362618822,-4.210375008604174,0.9645393564169646,2
270,2024-09-20 20:32:07.319192871,0,013,0.5389421339980813,-0.11619569024961675,0.6831039850863022,-0.2150929019246331,0.8432762166611292,-0.17896932366340962,-4.03181767743401,0.8900644762872733,2
271,2024-09-20 20:32:07.387182861,0,013,0.5610685053062996,-0.11702221311306753,0.5950921867993175,-0.2159137541782881,0.8606260982180921,-0.17866143520519895,-3.7235190497746213,0.7932100148087414,2
272,2024-09-20 20:32:08.305139893,0,013,0.579540916743576,-0.11723788212199056,0.4768634426627033,-0.21000954322706716,0.8888958440979357,-0.18010407133993356,-3.306694073876879,0.6794813803064229,2
273,2024-09-20 20:32:08.362020020,0,013,0.5941758406784137,-0.11682094793765847,0.33253610870339156,-0.19688408105841734,0.925945283284578,-0.1826675474557178,-2.806540637428087,0.5548745579872596,2
274,2024-09-20 20:32:08.439670166,0,013,0.6049656031908579,-0.11580479549241991,0.16759464621220158,-0.17640196480204087,0.9688790819825276,-0.18561731900658113,-2.250830566745716,0.4255859078312877,2
275,2024-09-20 20:32:08.501260986,0,013,0.6120114365276154,-0.11426728417719714,-0.011314736564710196,-0.14885636128569224,1.0141968875979765,-0.18816963563247252,-1.668697046959527,0.2977415630629332,2
276,2024-09-20 20:32:08.564194824,0,013,0.615448752454058,-0.11231207474718678,-0.1969036464096939,-0.1149581952071311,1.058027864486594,-0.1895581477246446,-1.0894286242865416,0.1771326568308308,2
277,2024-09-20 20:32:08.642368164,0,013,0.6154012498541627,-0.11005010157497377,-0.3819348569853797,-0.07576897692882785,1.0964359947389433,-0.1891001057216776,-0.5410195665452421,0.06894165157212835,2
278,2024-09-20 20:32:08.703917969,0,013,0.6119672173852349,-0.10758459234895572,-0.5598077066812484,-0.03262407779681293,1.1257225209111785,-0.18624841823748903,-0.04847251685654033,-0.02254381793258032,2
279,2024-09-20 20:32:09.640290039,0,013,0.6052080936874655,-0.10499659717663833,-0.7248024949238169,0.012913894281116577,1.142680864838083,-0.18062541200067372,0.3678802397236549,-0.09421291186853029,2
280,2024-09-20 20:32:09.717981201,0,013,0.5951262852063903,-0.10233005123335479,-0.8719500109802185,0.059070370737034174,1.1448253240250807,-0.17204572663848525,0.6935779139833713,-0.14433718462052958,2
281,2024-09-20 20:32:09.780527100,0,013,0.5816583931486042,-0.09958285475300828,-0.9966733300848454,0.10387518270872444,1.1306061338400721,-0.16053434930224567,0.9203378082385096,-0.1725879946301016,2
282,2024-09-20 20:32:09.857726074,0,013,0.5647063085005705,-0.09671053463556939,-1.0944391676172884,0.14521785486209418,1.0995578833771096,-0.1463348086646177,1.0454648733175704,-0.17983397707384016,2
283,2024-09-20 20:32:09.926413086,0,013,0.5441867104841344,-0.09363955397207052,-1.1606494219704864,0.18096228051136903,1.0523074927264107,-0.129895001670917,1.0708235621226843,-0.16783286454883783,2
284,2024-09-20 20:32:09.981328857,0,013,0.5200648387493488,-0.09028044872204573,-1.190887532095876,0.2091123176464127,0.9904277566324835,-0.11182251935476202,1.0019106366512351,-0.13897218719388812,2
285,2024-09-20 20:32:10.061862061,0,013,0.49236670615727024,-0.08653476176129296,-1.181485141107375,0.22799634451185086,0.9162086207027124,-0.09281836553434474,0.8473189887320596,-0.09611677157400514,2
286,2024-09-20 20:32:10.994902100,0,013,0.4611879557612114,-0.08229823029931604,-1.1302872663636043,0.23643585846242804,0.8324425356086477,-0.0736110018133629,0.6185838947867555,-0.042520881999383135,2
287,2024-09-20 20:32:11.072357910,0,013,0.4267105920415784,-0.07746553802314396,-1.037424809926985,0.23387107223020626,0.7422632376249186,-0.05490610127860292,0.33020637232178807,0.018244900782068918,2
288,2024-09-20 20:32:11.141110840,0,013,0.3892192412142658,-0.07193726301809436,-0.9058275327263431,0.22042098966839208,0.649020773340689,-0.03735317216109937,-0.00040094715739702144,0.08236775373138064,2
289,2024-09-20 20:32:11.208813965,0,013,0.3491074100927481,-0.06562688246925959,-0.7412635973634858,0.19686751428565546,0.5561643647527131,-0.021524132945124928,-0.3532732978543462,0.14589021784252526,2
290,2024-09-20 20:32:11.276534180,0,013,0.306880317988127,-0.05846962805296864,-0.5518996800203005,0.16457574068385863,0.46710058238972885,-0.00789860160519552,-0.7067410435059381,0.20487787294260681,2
291,2024-09-20 20:32:11.334206055,0,013,0.2631594775461073,-0.05043540204187729,-0.3475214762251815,0.1253666641919974,0.38499841022618886,0.0031472657757421535,-1.0388240369227546,0.25568275624210074,2
292,2024-09-20 20:32:11.411978027,0,013,0.21867794902056806,-0.04154141994216209,-0.13853776455879585,0.08134183006214614,0.31255369168063163,0.011348231216590328,-1.3290001934645455,0.2952764352307446,2
293,2024-09-20 20:32:12.341976807,0,013,0.17425981714677613,-0.03185848034339095,0.06511395506590162,0.03466746035468358,0.251766185701188,0.01655521909200808,-1.5599132714802335,0.32158421979431734,2
294,2024-09-20 20:32:12.423289062,0,013,0.13079136999342011,-0.021509636261838782,0.25495022916657806,-0.012634580695856486,0.20378667672952297,0.018742895998341568,-1.7185195736640748,0.33373267836956283,2
295,2024-09-20 20:32:12.481302979,0,013,0.08918656905938237,-0.01066250020978489,0.4245769730617519,-0.05882742805663553,0.168876441847137,0.01801681940430497,-1.79650391734406,0.33213977923544497,2
296,2024-09-20 20:32:12.543790039,0,013,0.050341154028576855,0.0004836198574617164,0.5698922854061268,-0.10250829794395475,0.14649383586942188,0.01460752405485078,-1.7902336386800204,0.3184242044867858,2
297,2024-09-20 20:32:12.626434082,0,013,0.015074463862855542,0.011713497444840484,0.6889613673806227,-0.14259070231438412,0.13547803327831054,0.008845045871634434,-1.7005286215945972,0.2951478781825885,2
298,2024-09-20 20:32:12.684808105,0,013,-0.015931369409248854,0.022811577744139503,0.7817000854579712,-0.17825669695461085,0.1342684811369239,0.0011219170711659569,-1.5322380003812288,0.2654342795453176,2
299,2024-09-20 20:32:12.746856934,0,013,-0.04217627578478268,0.03357401320233633,0.8494052540858468,-0.20889659562877336,0.14111229131343345,-0.008144053074855034,-1.293601615981372,0.2325513710907255,2
300,2024-09-20 20:32:13.670943115,0,013,-0.06335861674320406,0.043814726120636895,0.8941561198142917,-0.23404051637152537,0.1542365445641787,-0.018538923944588562,-0.9955628041390258,0.19955258979417057,2
301,2024-09-20 20:32:13.746153076,0,013,-0.07937128483653194,0.0533666031444381,0.9182328691759277,-0.25329890265069166,0.17195278763423805,-0.029664347014441362,-0.6511596275611278,0.16898422621759537,2
302,2024-09-20 20:32:13.807320068,0,013,-0.09028975400486393,0.06208160364161338,0.9237414584455341,-0.26633593813584616,0.19266002500809556,-0.041126080306583684,-0.27494971616534297,0.14260461276785794,2
303,2024-09-20 20:32:13.869358154,0,013,-0.0963490806096076,0.06983234897052566,0.9124949381765644,-0.27287480098043276,0.21477015061476626,-0.05250723307975397,0.11757243730656515,0.12112067537835738,2
304,2024-09-20 20:32:13.946599121,0,013,-0.09790775086638845,0.07651478002647888,0.8860601049271675,-0.2727161309344571,0.23663995765104176,-0.06334641416315963,0.5104692209251964,0.10404683153749328,2
305,2024-09-20 20:32:14.008656982,0,013,-0.09541239542458188,0.08204961552108443,0.845871384494522,-0.2657685793460742,0.25658229845057895,-0.07313882890668146,0.8876797284983975,0.08979815449366385,2
306,2024-09-20 20:32:14.087531006,0,013,-0.08937868910658028,0.0863815723947495,0.7933615049327787,-0.25209903752731916,0.2729628936325662,-0.08136287136449492,1.2333334162486551,0.0760321794388481,2
307,2024-09-20 20:32:15.026214111,0,013,-0.0803895398025147,0.08947896621630727,0.7300990060927484,-0.23199202983490547,0.2843296176263402,-0.0875189076171963,1.5323858706343443,0.06014765254787655,2
308,2024-09-20 20:32:15.098469971,0,013,-0.0691031707974043,0.09133763682059265,0.657957546904398,-0.20600120110187567,0.28950952742002223,-0.09116370114584652,1.771690248766076,0.039810181572079585,2
309,2024-09-20 20:32:15.165864014,0,013,-0.05626684476603215,0.09198935028433718,0.579302550341954,-0.17498138417699965,0.28766301826854324,-0.0919368780278897,1.9412626081436466,0.013390809508078104,2
310,2024-09-20 20:32:15.227441895,0,013,-0.042731460541992186,0.0915096948818307,0.4970738380183886,-0.1400845808753746,0.2783488571334983,-0.0895894535647291,2.03531793042363,-0.019752214345550214,2
311,2024-09-20 20:32:15.288597168,0,013,-0.029448803792357987,0.09001928343189348,0.4146232252735692,-0.10270197945703415,0.26163214963895437,-0.08401747963777886,2.0526534666710443,-0.05915554379151245,2
312,2024-09-20 20:32:15.366736816,0,013,-0.01742496371060746,0.08767537383358442,0.335307294606873,-0.06435411724837344,0.23818067387696384,-0.07528549016049078,1.996158637464494,-0.10326861573119343,2
313,2024-09-20 20:32:15.437104004,0,013,-0.007625259491411091,0.08465642548481953,0.2620216900496316,-0.026561768776065427,0.20926081295249277,-0.06362224046976477,1.8716567640120567,-0.14959201665507332,2
314,2024-09-20 20:32:16.371678955,0,013,-0.000865325281811198,0.08114658892495882,0.19689080990712335,0.009260350731612214,0.1765919669056054,-0.04938636918033978,1.6866234721487086,-0.19493332735243774,2
315,2024-09-20 20:32:16.448544922,0,013,0.0022659133926838924,0.07732662184098005,0.14115856198194263,0.04187393860411022,0.1420838469360527,-0.033012769577694764,1.4493075064362038,-0.23576326450457447,2
316,2024-09-20 20:32:16.512000000,0,013,0.0014336201531947202,0.0733719205513824,0.09520039973299332,0.07026749669258676,0.10753219041785897,-0.014956088345862196,1.168481985064241,-0.26862706554985777,2
317,2024-09-20 20:32:16.574485107,0,013,-0.0034541154260508194,0.06945320484883417,0.05863525077371641,0.093692827869231,0.0743781817263285,0.004349378210167652,0.8536611381749082,-0.2905363348817368,2
318,2024-09-20 20:32:16.650471924,0,013,-0.012279120218219705,0.06573594026483989,0.030567148077013336,0.11167743939996787,0.04360722015662949,0.02450042005646656,0.5153792098957921,-0.29926172779089855,2
319,2024-09-20 20:32:16.719504150,0,013,-0.024757114691444048,0.062378984427753005,0.009873885835816646,0.12402084785490064,0.015775026104943482,0.045113467826454506,0.16519814632107196,-0.29347606701363793,2
320,2024-09-20 20:32:16.774500000,0,013,-0.04048566846374247,0.05953527215108457,-0.004634652482894949,0.1307999510467707,-0.008909995101790818,0.0658135084755456,-0.18467090039725736,-0.272740683279541,2
321,2024-09-20 20:32:17.727835938,0,013,-0.05898766282883247,0.05735480372612071,-0.014228867941245124,0.13238034665171453,-0.030502858721165867,0.08624001144572538,-0.522052444086193,-0.237385556268337,2
322,2024-09-20 20:32:17.798969971,0,013,-0.07974206087918094,0.055985820987854526,-0.020270189994899542,0.12939704188131385,-0.049257262580742825,0.10607125888858403,-0.835605136976091,-0.18838668396876768,2
323,2024-09-20 20:32:17.866681885,0,013,-0.10219852115374141,0.05556901666323879,-0.024062553364442883,0.12268577455030627,-0.06558682910886673,0.1250582335343046,-1.1155506360495533,-0.12732146206185427,2
324,2024-09-20 20:32:17.934372803,0,013,-0.12577787984719366,0.05622377164150611,-0.026612393076589868,0.11318985666963241,-0.08004052899540244,0.14305405871713683,-1.354234543554091,-0.05637580390132173,2
325,2024-09-20 20:32:18.002069092,0,013,-0.14986093304051973,0.05803026657978679,-0.028495877037306997,0.10187805663185037,-0.09326602521763229,0.16002534239725527,-1.5464793320041288,0.021699610674483807,2
326,2024-09-20 20:32:18.069811035,0,013,-0.17376897566871766,0.06101243429548809,-0.02991262399103906,0.08968333371477909,-0.10595532277426119,0.17603772258252054,-1.6896669277800371,0.10373804120520613,2
327,2024-09-20 20:32:18.129416992,0,013,-0.19675106896162653,0.06512614359128809,-0.030846413089646963,0.07745157462526979,-0.11879360110839177,0.19121702990184147,-1.7834613351537616,0.1863632580667168,2
328,2024-09-20 20:32:19.051034912,0,013,-0.21799973860034078,0.07025635165505612,-0.03125013431426731,0.06588923844840468,-0.13241798942746622,0.2056989452226508,-1.8291730831649715,0.26617753338513334,2
329,2024-09-20 20:32:19.123766113,0,013,-0.2367039914524156,0.07622456980679138,-0.031206623649065915,0.05550589010046299,-0.14735464611514368,0.21958417900263555,-1.8289041473720555,0.33988983060141986,2
330,2024-09-20 20:32:19.190709961,0,013,-0.25213130674210055,0.08280516500025278,-0.031011903957495212,0.046563603902620085,-0.1638989546564911,0.23290667163737194,-1.7846907364182325,0.40438303335824555,2
331,2024-09-20 20:32:19.252718018,0,013,-0.2637187972078805,0.08974803099021247,-0.031174690858824017,0.039065491613571375,-0.18196592059415842,0.24561581151450287,-1.6979753758156735,0.45677316509967936,2
332,2024-09-20 20:32:19.314344971,0,013,-0.27114697980805674,0.09680453908658042,-0.03238146789397694,0.03281024826735965,-0.20100928877298885,0.2575786589092426,-1.5697634614666627,0.49454712693258135,2
333,2024-09-20 20:32:19.392024902,0,013,-0.274375158200557,0.10375150493821216,-0.03544337315027752,0.027501141999602796,-0.22009222800790806,0.26860766371739014,-1.4014620749136957,0.515799426043735,2
334,2024-09-20 20:32:19.454083008,0,013,-0.27363331030001065,0.110406987170991,-0.04120979853533774,0.022861236594019254,-0.23809913412906672,0.2785080824635465,-1.1959349579864833,0.5194864519521222,2
335,2024-09-20 20:32:20.392975098,0,013,-0.26937782430480556,0.11663607285502406,-0.05048414499780768,0.0187077891646172,-0.25400507487565205,0.28713054818005096,-0.9582282030252941,0.5055946739950758,2
336,2024-09-20 20:32:20.470202881,0,013,-0.2622244197177926,0.12235108172561697,-0.06396262325215533,0.014969189914288557,-0.26710542888205024,0.2944127606450148,-0.6956507458108316,0.4751538536525906,2
337,2024-09-20 20:32:20.532210205,0,013,-0.25287561824964727,0.12751163586663622,-0.08209095613626519,0.011653285680156066,-0.27713737159453244,0.3003969107835619,-0.4171340856619273,0.4300667399120436,2
338,2024-09-20 20:32:20.609263916,0,013,-0.24206133693691886,0.1321257641157197,-0.1047782533712825,0.008795197707462286,-0.2842820404738906,0.30521770905207024,-0.13202837180907373,0.3727923778766358,2
339,2024-09-20 20:32:20.677025879,0,013,-0.2305029214849541,0.13624956970620897,-0.13116879258323588,0.006430106878591971,-0.28908419431453325,0.30906883349913256,0.15119689406853737,0.30600481147305336,2
340,2024-09-20 20:32:20.739811035,0,013,-0.21889157693251676,0.13998220289415098,-0.1597380155953497,0.004621965618052769,-0.2923324524790615,0.3121632018095456,0.4256869355372755,0.23237328074077893,2
341,2024-09-20 20:32:20.802297119,0,013,-0.20786180074442429,0.14345376262797493,-0.1887124286583879,0.003534481424448711,-0.2949260862230829,0.3146992335217591,0.6860442057802402,0.15451705243534858,2
342,2024-09-20 20:32:21.756158203,0,013,-0.1979581945218546,0.1468070278667656,-0.21656698030317548,0.003501506262903415,-0.2977485571529768,0.3168390704155868,0.927669183701613,0.07505780580220844,2
343,2024-09-20 20:32:21.820250000,0,013,-0.1896146196410064,0.15017798588581402,-0.24232530173051342,0.005050479601647281,-0.30157183635323304,0.31870056698081184,1.1462604249731234,-0.003339172718452813,2
344,2024-09-20 20:32:21.881618896,0,013,-0.183154237667157,0.1536799719789752,-0.2654964474603167,0.00884256447255226,-0.30700038872671614,0.32035795854492743,1.337678429306468,-0.07798353090684015,2
345,2024-09-20 20:32:21.959377930,0,013,-0.1787993472711002,0.1573925209451111,-0.2856811507256958,0.015523899883268308,-0.3144329006509695,0.32183829295675764,1.4979321087622466,-0.1462394479635344,2
346,2024-09-20 20:32:22.020481201,0,013,-0.17668868006284286,0.16135494193303845,-0.3020595499285709,0.025523683688440563,-0.32401391498600196,0.32310407807215574,1.6231197751950306,-0.2056559206732432,2
347,2024-09-20 20:32:22.082964844,0,013,-0.1769155267780638,0.16556652569419256,-0.3129801638091682,0.03886178377847367,-0.33558185795323314,0.3240302830381931,1.7094309546440045,-0.25412937754503956,2
348,2024-09-20 20:32:22.160090820,0,013,-0.17957968979269756,0.16999314165457016,-0.315790063886661,0.05503591825866807,-0.3486542088645645,0.3243969898409261,1.7534158421003014,-0.29007619412558644,2
349,2024-09-20 20:32:23.106219971,0,013,-0.18481171427572424,0.17457418594563334,-0.3069909335241482,0.07303615323195996,-0.36247505256866863,0.3239086134059599,1.7525968557161482,-0.31259030492764955,2
350,2024-09-20 20:32:23.163127929,0,013,-0.19273932430238047,0.17922552052778687,-0.28272989514829394,0.09148114880194283,-0.37610351691680893,0.3222300277196707,1.7062742272670148,-0.3215583476112827,2
351,2024-09-20 20:32:23.241697021,0,013,-0.2034193725449948,0.18384305462676045,-0.23954885990678046,0.10882780070892631,-0.388507885054986,0.31902561146803277,1.6162746985293965,-0.3177208509365636,2
352,2024-09-20 20:32:23.309415039,0,013,-0.21678466505274668,0.18831322993408375,-0.17524718298659545,0.12360099562664116,-0.39865560641179615,0.3139969683730454,1.4874257557154338,-0.30268359848129756,2
353,2024-09-20 20:32:23.364373047,0,013,-0.23262518345000271,0.1925283400295071,-0.08961617077808016,0.1345990419015434,-0.40561385725591104,0.3069212491554361,1.327649641225583,-0.27886654408173694,2
354,2024-09-20 20:32:23.444962891,0,013,-0.25058760830747073,0.1963993567893373,0.01522305604568557,0.14103572918920596,-0.4086792955947477,0.2976918303546445,1.1477411341649875,-0.2493626555041044,2
355,2024-09-20 20:32:23.504124023,0,013,-0.27018067823456376,0.19986236570166888,0.1349813360996474,0.14259273382004062,-0.40752797245750655,0.2863586100755132,0.9608935030757964,-0.2176925238709562,2
356,2024-09-20 20:32:24.426350098,0,013,-0.29079380247299186,0.20288008378133662,0.2637314701689437,0.1393809175599803,-0.40232488366768443,0.27315526886748737,0.7818411079201147,-0.1874638548934721,2
357,2024-09-20 20:32:24.489219971,0,013,-0.3117357332869057,0.20544124916007822,0.39456076791848627,0.13184066767526445,-0.3937134379912717,0.25849517793373905,0.6255568235218386,-0.16198905776300287,2
358,2024-09-20 20:32:24.565800049,0,013,-0.3322911368361059,0.2075591613386705,0.5201519049775547,0.12063188286761924,-0.3826612860695546,0.2429290789079091,0.5058155565889224,-0.1439556746432583,2
359,2024-09-20 20:32:24.627545898,0,013,-0.3517945197779981,0.20926975332458722,0.6332611382478321,0.10654916867323955,-0.3702347858439486,0.2270799439581766,0.4340209123368687,-0.13520506604999558,2
360,2024-09-20 20:32:24.701773926,0,013,-0.369713788324901,0.2106285899529304,0.7271709064931642,0.09046673554885773,-0.357418809278181,0.21158110399974162,0.4183713048519564,-0.13659752289884258,2
361,2024-09-20 20:32:24.766810791,0,013,-0.38571122312278594,0.21170342225494063,0.7961089541531354,0.07331092740381645,-0.3450374353783692,0.19703169497152404,0.46322821792922325,-0.14794091218221245,2
362,2024-09-20 20:32:24.828962158,0,013,-0.3996443527355794,0.21255847000358807,0.8355036758218111,0.056060431841335585,-0.33373479834031594,0.1839659546097588,0.5686720069041591,-0.1680070279732521,2
363,2024-09-20 20:32:25.780337158,0,013,-0.4115048549347976,0.21323256250066358,0.8420215867950032,0.039753314813456245,-0.3239620304961306,0.17283084272170762,0.730399858842537,-0.1946692586099961,2
364,2024-09-20 20:32:25.847750977,0,013,-0.4213348040560136,0.21371990538994187,0.8135302142490595,0.025460557108868926,-0.3159734478683046,0.16397275693154897,0.940088602607006,-0.22516784011835517,2
365,2024-09-20 20:32:25.915821045,0,013,-0.42916264507625385,0.21396076000307584,0.7491821571691574,0.014203724411895885,-0.3098492729066988,0.15763119102842127,1.186175513466664,-0.25646968715279583,2
366,2024-09-20 20:32:25.970076172,0,013,-0.43496994129722977,0.21384156662597617,0.649664935338882,0.0068352655524736485,-0.30551281207943964,0.1539295265491408,1.4548602099704384,-0.2856525319984242,2
367,2024-09-20 20:32:26.047246094,0,013,-0.4386770598425874,0.2132005866809505,0.5174881044007899,0.003925131285865126,-0.30269620345863696,0.15285753175179398,1.731154945606232,-0.3102374519927615,2
368,2024-09-20 20:32:26.109733154,0,013,-0.44014284045472857,0.21183896577393924,0.3571228028306748,0.005691745220086554,-0.3008717358379498,0.15425501847348663,2.0000111732883936,-0.32842492993286104,2
369,2024-09-20 20:32:26.171366943,0,013,-0.4391836002896078,0.20953894454077157,0.1748556431885594,0.011989389036669363,-0.2992186171406034,0.15781242932569642,2.2475711691161933,-0.33921638175982927,2
370,2024-09-20 20:32:27.125860840,0,013,-0.43561411450244825,0.20608707450823444,-0.021689358641455613,0.022344157984979903,-0.2966708989745871,0.16309495527946596,2.462312661673413,-0.34241098921315344,2
371,2024-09-20 20:32:27.198181885,0,013,-0.4293053828877865,0.20129774641503706,-0.22430260723682305,0.03603359122150311,-0.29203165996198005,0.16958445996795493,2.635779797986917,-0.33849649057217784,2
372,2024-09-20 20:32:27.265958008,0,013,-0.42023462104222076,0.1950322026277037,-0.4250649633778692,0.05220827244784716,-0.2841102588272408,0.1767295277914358,2.762943931704312,-0.32850211169187754,2
373,2024-09-20 20:32:27.333635986,0,013,-0.4084860886597724,0.18720719863955507,-0.6171637908058609,0.07003413317529762,-0.27185832723960424,0.1839979763972794,2.8424690435413673,-0.3138840945966321,2
374,2024-09-20 20:32:27.401393799,0,013,-0.3941875907159518,0.17778965349131873,-0.7954811308621025,0.08881195281289994,-0.2545020433564227,0.1909282477907281,2.8768922170320055,-0.29644706893382855,2
375,2024-09-20 20:32:27.464698975,0,013,-0.37741979249022084,0.16678103014999968,-0.9568048580612241,0.10803507133727688,-0.23165174753897513,0.19716952259519183,2.8723595925774013,-0.27823521112495875,2
376,2024-09-20 20:32:27.526710938,0,013,-0.3581512186922206,0.1542006269768229,-1.0995923174572892,0.1273794750850186,-0.20334108651107746,0.2024950142727783,2.8376344516494663,-0.2613288064479555,2
377,2024-09-20 20:32:28.480544189,0,013,-0.3362233087690445,0.1400753166576859,-1.2234007880006654,0.14665618066428793,-0.169968367171522,0.20678170044544042,2.782584811080073,-0.24756130134791685,2
378,2024-09-20 20:32:28.548305908,0,013,-0.31138207470823437,0.1244376502266682,-1.3282321617461368,0.1657653531098458,-0.13218181330266496,0.2099670344936769,2.7167010120820025,-0.2382532998490269,2
379,2024-09-20 20:32:28.608467041,0,013,-0.2833457268597323,0.10733082720110364,-1.414006250801993,0.18467508363971272,-0.09078893435707718,0.21200127198841626,2.6480331053138055,-0.23406085275851576,2
380,2024-09-20 20:32:28.672876953,0,013,-0.25189568991924627,0.08881993111942421,-1.4802650036362601,0.20341863982047284,-0.04672890833508761,0.2128066466198964,2.5825666765683857,-0.2349701882544699,2
381,2024-09-20 20:32:28.751019043,0,013,-0.216973508878801,0.06900936740630392,-1.526101369608712,0.22207736008712786,-0.0010781189875298984,0.2122449993494254,2.523905621666027,-0.24040465465477914,2
382,2024-09-20 20:32:28.812120850,0,013,-0.1787656624774243,0.048063085122438884,-1.5502515873371785,0.24072445204057566,0.044957094939902846,0.21009745295054322,2.47322551627182,-0.24937644379609547,2
383,2024-09-20 20:32:28.874175049,0,013,-0.13775948413645372,0.026220377022660647,-1.5513017946337624,0.25934714159652894,0.090063459125469,0.20606654488856144,2.429588435792791,-0.2606266994760997,2
384,2024-09-20 20:32:29.795233887,0,013,-0.09475432389535109,0.0038004763816276614,-1.5279725493355467,0.277789812990623,0.1328243645771783,0.1998068388270905,2.3907029211513184,-0.2727357626393266,2
385,2024-09-20 20:32:29.872447021,0,013,-0.05082983649430534,-0.018805404489806637,-1.4794537563773775,0.2957465505931616,0.1716850104840602,0.19097580178478263,2.354038893950105,-0.28421822867733154,2
386,2024-09-20 20:32:29.934093018,0,013,-0.007297546289010766,-0.041149381028932244,-1.4057708191568232,0.31279815601742106,0.20490571830240178,0.1792901534322806,2.3179780201584252,-0.29363069036318235,2
387,2024-09-20 20:32:29.996578857,0,013,0.03434753868209435,-0.06274288705457731,-1.3081196087951246,0.3284634723368084,0.2305497242150555,0.1645800004598647,2.2825795421459034,-0.2996971147819171,2
388,2024-09-20 20:32:30.074210938,0,013,0.0724898071042056,-0.08307125421613112,-1.189079389160259,0.3422412843038295,0.24653290241680248,0.14684065700806054,2.2497026759709065,-0.3014105517222811,2
389,2024-09-20 20:32:30.136277832,0,013,0.10548575767180339,-0.10160915155499967,-1.0526620558998883,0.3536458193853025,0.25072881782253287,0.1262811627941104,2.222539299186693,-0.2980700722944447,2
390,2024-09-20 20:32:30.212672119,0,013,0.1317740928609607,-0.11783888995412124,-0.9041744083383798,0.36224602786335663,0.2411028182346749,0.10336233763085241,2.204793904341286,-0.2892695908654454,2
391,2024-09-20 20:32:31.154210938,0,013,0.14998126461004316,-0.1312703978166173,-0.7498342003794912,0.3677009896786995,0.2158669762673647,0.0788103714569802,2.1997910893926376,-0.27489620077580246,2
392,2024-09-20 20:32:31.212814209,0,013,0.15901590782364253,-0.14145977530015155,-0.596162181533042,0.3697783364413812,0.17367596289887607,0.0535935056960345,2.2098616695840847,-0.25518245966573083,2
393,2024-09-20 20:32:31.289707031,0,013,0.15815142739847385,-0.1480248994249352,-0.44935439378346353,0.3683634956834382,0.11385766831062447,0.028864626160894274,2.2362377424056534,-0.2307963857211914,2
394,2024-09-20 20:32:31.352564941,0,013,0.1470875742852574,-0.15065942454983866,-0.3148538077256929,0.36348015603751593,0.03661797107396157,0.005883879843102709,2.2792218330129654,-0.20288663679185093,2
395,2024-09-20 20:32:31.414606201,0,013,0.12598674927786296,-0.14914779145743617,-0.197175468545176,0.35532793916670835,-0.05682818734924369,-0.014072134402749722,2.3381452580687947,-0.17301164446805006,2
396,2024-09-20 20:32:31.492951904,0,013,0.09549426134679756,-0.1433828035933616,-0.09992356185187834,0.3443250750138801,-0.16420045457386073,-0.029815469387288504,2.4109307759174854,-0.14295334293761244,2
397,2024-09-20 20:32:31.560674805,0,013,0.05674294553511722,-0.13338393903443965,-0.02588152334577684,0.33113416897643916,-0.28217858267739043,-0.04035852723012077,2.4934626809773577,-0.11445204110743204,2
398,2024-09-20 20:32:32.500355957,0,013,0.011319873000898652,-0.11931037154954333,0.022979089225637434,0.31664523337124423,-0.40652323668845514,-0.04501600102248717,2.5791400199037606,-0.08890920305194272,2
399,2024-09-20 20:32:32.562371094,0,013,-0.038825509978867724,-0.10146166956773683,0.04562703158107254,0.3019012281745289,-0.5322733440918519,-0.04348110800697717,2.658964930287131,-0.06712941280854859,2
400,2024-09-20 20:32:32.637033936,0,013,-0.09152304731724707,-0.08026396879851648,0.04215471853462346,0.28797338393836774,-0.6540076156468215,-0.03586037572892059,2.722248342509476,-0.04917199573537541,2
401,2024-09-20 20:32:32.697441895,0,013,-0.14454212720598505,-0.056246584075832384,0.013937618823971588,0.2758112954016355,-0.7662047856437152,-0.022653866199004776,2.7577083907178905,-0.03434293857347618,2
402,2024-09-20 20:32:32.775222900,0,013,-0.1957430283983503,-0.0300164947218418,-0.03625952769945961,0.2661080110535959,-0.8637299034478764,-0.004681181894116083,2.7547108360898798,-0.02132344323971816,2
403,2024-09-20 20:32:32.843010010,0,013,-0.24320801727583757,-0.0022340234665506804,-0.1042577195357028,0.25922044771590286,-0.9423851038700036,0.017027785430767592,2.7045534766124026,-0.008422556970563629,2
404,2024-09-20 20:32:32.910728027,0,013,-0.28535383499558364,0.026412114866947247,-0.18452546637939662,0.2551513880875734,-0.9993786739426813,0.04134667351288239,2.6017380637039396,0.006070587011409323,2
405,2024-09-20 20:32:33.853727051,0,013,-0.32102776131629424,0.05523196412737105,-0.2703229656035399,0.25356641563586035,-1.0335855370080886,0.06714557963611106,2.44508306133761,0.02349623545105916,2
406,2024-09-20 20:32:33.916315186,0,013,-0.34957360300449436,0.08355991589861846,-0.35397613854614535,0.25382885585671683,-1.0455771344058689,0.09335922674974527,2.238467215142211,0.04449305546638856,2
407,2024-09-20 20:32:33.990208984,0,013,-0.3708411123899277,0.11077229093408282,-0.427346949559808,0.2550629917078472,-1.03747148023259,0.1190409598425914,1.9909942386164508,0.06882143182021287,2
408,2024-09-20 20:32:34.055136963,0,013,-0.3851238569976246,0.13629494164757425,-0.4825184421803505,0.25625863052138187,-1.0126498991126505,0.14340387064422755,1.7164321076292168,0.0953802526054808,2
409,2024-09-20 20:32:34.117192871,0,013,-0.39303555090890363,0.15960484558836568,-0.5126380783328162,0.2564071324159799,-0.9753733967562693,0.1658398710978543,1.4319584725708991,0.12238583141379725,2
410,2024-09-20 20:32:34.179678955,0,013,-0.3953538121666373,0.18023089661934155,-0.5127592047507628,0.2546343387203343,-0.9303418940255366,0.18591608636047316,1.1564132706687824,0.14765893261872687,2
411,2024-09-20 20:32:34.256954102,0,013,-0.39286710899985083,0.19775686526193703,-0.48046360555025813,0.2502918327340846,-0.88223732475715,0.2033582069863782,0.9082987228633467,0.16897697350694896,2
412,2024-09-20 20:32:35.194947021,0,013,-0.3862536832303277,0.21182705601440047,-0.4161339694287019,0.24298991864989966,-0.835284970639618,0.21802874937402372,0.7038557805468323,0.18441608211993818,2
413,2024-09-20 20:32:35.273620117,0,013,-0.3760078935516241,0.2221538447187675,-0.322897639576758,0.2325898075054434,-0.7928925658551687,0.22990491501890453,0.555665243508672,0.19257426716237164,2
414,2024-09-20 20:32:35.339847168,0,013,-0.36242059252178815,0.22852636880988056,-0.20634122562268095,0.21919056356706684,-0.7574426837322158,0.23906034055008854,0.47201814285125804,0.19263781399733002,2
415,2024-09-20 20:32:35.396804932,0,013,-0.3456106816754659,0.23081991189750403,-0.07405637291346022,0.20312523188826362,-0.7302624038680824,0.24565283974164379,0.4568872930613847,0.1843470806861781,2
416,2024-09-20 20:32:35.473943848,0,013,-0.3255864197363627,0.22900385830794284,0.06503165692185271,0.1849393437336733,-0.7117205251480493,0.24991669793773755,0.5101689439470012,0.1679158260617155,2
417,2024-09-20 20:32:35.535970947,0,013,-0.3023057009816901,0.22314490017322863,0.20162821776338818,0.165316823863198,-0.7013985047460588,0.2521561522597339,0.6279891402937964,0.14393201955209528,2
418,2024-09-20 20:32:35.612299805,0,013,-0.2757289890658804,0.21340615644864164,0.32720515184089055,0.14496272924843343,-0.6983252771137853,0.2527368853176623,0.8030683609029698,0.1132705892212382,2
419,2024-09-20 20:32:36.526593018,0,013,-0.2458892921793545,0.20004714100219595,0.4349621296460689,0.12449775994929703,-0.7012488171023294,0.2520694578120609,1.025248854020828,0.07702379212657749,2
420,2024-09-20 20:32:36.591177979,0,013,-0.21298954159549574,0.18342556812549388,0.5203632978180951,0.10440691603385867,-0.7088581783256303,0.2505741800090034,1.2821907294261903,0.03643587629508817,2
421,2024-09-20 20:32:36.666614014,0,013,-0.17749638587498529,0.16399514497319545,0.5812808448130017,0.08503707373626614,-0.7198956548222644,0.24862612888906502,1.5600511841759728,-0.007135764898162424,2
422,2024-09-20 20:32:36.726105957,0,013,-0.14018863498501957,0.14229448113068865,0.6178480075410601,0.06662324683558989,-0.7331887677909323,0.24649786190751088,1.8439924960443772,-0.052211289812008184,2
423,2024-09-20 20:32:36.802076172,0,013,-0.10214175479294944,0.11892855021241175,0.6320476279711955,0.04933879994416117,-0.7476615296255027,0.2443210719964397,2.118668213594824,-0.09719540330855349,2
424,2024-09-20 20:32:36.869848877,0,013,-0.06465329414348632,0.09454691916890717,0.6271306072948868,0.03335743337972006,-0.7623492159310014,0.24207492819568252,2.368992014673803,-0.1404927035369683,2
425,2024-09-20 20:32:36.927082031,0,013,-0.029130748188466504,0.06982204517753897,0.6070856042508592,0.018891267577542458,-0.776406367097501,0.2395951159353404,2.5811874873577136,-0.18070892852582882,2
426,2024-09-20 20:32:37.873944092,0,013,0.003023712622190004,0.04543000614309345,0.5762963641345465,0.006183535987208474,-0.7890792914610599,0.23659164785701675,2.7437971585107257,-0.21682760230830814,2
427,2024-09-20 20:32:37.935944092,0,013,0.030503322994025795,0.022033474865026607,0.5392702332689046,-0.004518706057908555,-0.7996180266045225,0.23266750314193616,2.848520782695225,-0.24831099424153882,2
428,2024-09-20 20:32:38.016689941,0,013,0.05215884679952789,0.00026330450609551767,0.5002200521357708,-0.01296860761566179,-0.8071456332170813,0.22733954559374187,2.891026233377564,-0.27514700499056727,2
429,2024-09-20 20:32:38.084384033,0,013,0.06704390175870692,-0.019302876640737644,0.46247220465547806,-0.018889303564491727,-0.8105555584492168,0.22006810056985246,2.8716714398133867,-0.29783996966317855,2
430,2024-09-20 20:32:38.151462158,0,013,0.07444834399816921,-0.0361609304704657,0.4279152026191379,-0.021936903849451656,-0.8085090140529674,0.21029953893117095,2.79581518827122,-0.3173108771563871,2
431,2024-09-20 20:32:38.213948975,0,013,0.07392606021575454,-0.049895254688631784,0.39673577605259025,-0.02169421817281669,-0.7995460190412413,0.19751718151841746,2.673553335226614,-0.3347153025851997,2
432,2024-09-20 20:32:38.275991943,0,013,0.06533223959495006,-0.06019015826532581,0.3675476928281399,-0.017718242782144077,-0.7822649448522276,0.18128639877859587,2.5189173795832174,-0.3512463639958157,2
433,2024-09-20 20:32:39.231239990,0,013,0.04887011670476641,-0.06684098459046843,0.33784210588356467,-0.009633027952237722,-0.7555130271967595,0.16128551823527626,2.3484972983518158,-0.367978698397459,2
434,2024-09-20 20:32:39.299041992,0,013,0.02511755722436607,-0.0697638372131718,0.3045663076301233,0.002768997322863455,-0.7185533458946683,0.13732935801425317,2.1794706222697355,-0.3857545970373043,2
435,2024-09-20 20:32:39.366758057,0,013,-0.004996080825985993,-0.06899904378184663,0.2646407477568887,0.019454080727494244,-0.671193978526146,0.10939513993691083,2.0273557007032905,-0.40509851025416865,2
436,2024-09-20 20:32:39.420435791,0,013,-0.0402586963328673,-0.06470603269210794,0.21533033211949726,0.04011925364726732,-0.6138641494023461,0.07765124970648507,1.904109980200908,-0.4261852980042019,2
437,2024-09-20 20:32:39.497596924,0,013,-0.07926572363723532,-0.057151078052435286,0.1544983773410277,0.06420554478149211,-0.5476213174041076,0.0424823128767093,1.817143081773912,-0.44891811003858106,2
438,2024-09-20 20:32:39.559645996,0,013,-0.12052211888545797,-0.0466886352126818,0.08082917468255003,0.09093428267721171,-0.47409447968648627,0.004504898664735145,1.7693831703208607,-0.4731140305059998,2
439,2024-09-20 20:32:39.637749023,0,013,-0.16255633182988688,-0.03373598524215989,-0.0059043311672536125,0.11934956008610383,-0.39538648243010777,-0.03542787282763622,1.7600029566721604,-0.4986786700492512,2
440,2024-09-20 20:32:40.550967041,0,013,-0.2040326250427072,-0.01874436961671222,-0.10451667072322021,0.14836324280152458,-0.3139381766232734,-0.0762381905869182,1.7852395113025874,-0.5256334493757102,2
441,2024-09-20 20:32:40.624097900,0,013,-0.24383995709349868,-0.0021736350812192966,-0.21212739016500096,0.17680485923338413,-0.2323331924558263,-0.11666743354863539,1.839001787459654,-0.5539858397468375,2
442,2024-09-20 20:32:40.691843018,0,013,-0.2811477084163731,0.015524548727872782,-0.32410373207852083,0.20347090843260243,-0.1530589559774896,-0.15536228031430097,1.913336854900166,-0.5835581786043145,2
443,2024-09-20 20:32:40.753656006,0,013,-0.3154314770740208,0.03391684307529621,-0.43437821032612267,0.22716807284152182,-0.0783072814739862,-0.19098852448106654,1.999004158775986,-0.6139030830393725,2
444,2024-09-20 20:32:40.815645996,0,013,-0.3464684092339268,0.05259714784827637,-0.5361599049200743,0.24676380536723244,-0.009875324437664527,-0.22234655592805685,2.0861862729159406,-0.6443422087221077,2
445,2024-09-20 20:32:40.895072021,0,013,-0.37428838050012625,0.07119492309426428,-0.6228994045228649,0.2612604228798607,0.05088371261115101,-0.24847672130939158,2.1650444009259204,-0.674053225043595,2
446,2024-09-20 20:32:40.954510009,0,013,-0.39907345518162257,0.08937857818283029,-0.6892249639250443,0.2698768967401563,0.10314015082879376,-0.2687509387781349,2.2259281663075066,-0.7021043494835543,2
447,2024-09-20 20:32:41.897501953,0,013,-0.42102701803068965,0.10685132047329177,-0.7315661967760126,0.27210754766723066,0.14667337295378838,-0.28293231949122305,2.2593756894068755,-0.7274068589606115,2
448,2024-09-20 20:32:41.965138916,0,013,-0.44025090761490876,0.12334149959773603,-0.7483467794058138,0.26775531753605303,0.18186922649454268,-0.2911770911745273,2.2561090721994366,-0.7486286885444396,2
449,2024-09-20 20:32:42.037231934,0,013,-0.45665903248457623,0.13859151083173843,-0.7397814789286388,0.2569574671731902,0.2096024508701259,-0.29397810294302573,2.2071340768698295,-0.764132973076008,2
450,2024-09-20 20:32:42.099783936,0,013,-0.4699437978188645,0.15234972065169877,-0.707387558611476,0.24020431366544917,0.23107289657266722,-0.29208021294512104,2.10398284200003,-0.7719852797644892,2
451,2024-09-20 20:32:42.161809082,0,013,-0.47961189083606515,0.16437193605688813,-0.65340444799339,0.21833396963660032,0.24766838445286884,-0.28639556369008484,1.9390808290406993,-0.7700365988823785,2
452,2024-09-20 20:32:42.239434082,0,013,-0.4850966134194568,0.17443870310405207,-0.5803704499007573,0.19249635218372949,0.26087114874521805,-0.2779236106666723,1.7063045211649246,-0.7560819961367685,2
453,2024-09-20 20:32:42.311743896,0,013,-0.485918375246366,0.18238606887446984,-0.49100427290889326,0.16409841059126762,0.2721874090484834,-0.2676744495954243,1.40189780960399,-0.7281113317186054,2
454,2024-09-20 20:32:43.245060059,0,013,-0.4818351485400524,0.18813714112646682,-0.38832010170963194,0.13474002043446004,0.28306376905025316,-0.2566010336904897,1.0256287405712872,-0.6846297324094316,2
455,2024-09-20 20:32:43.307181885,0,013,-0.47293597640969254,0.1917216337895779,-0.2757763228275314,0.10613419739997997,0.29475912620920847,-0.2455435354051264,0.5816988869721029,-0.6249490343178966,2
456,2024-09-20 20:32:43.390341064,0,013,-0.4596655305611111,0.19327874022350983,-0.15734162749069408,0.08000730844007234,0.3081874644613519,-0.2351836510277511,0.0790647789966303,-0.5493527828953604,2
457,2024-09-20 20:32:43.458093018,0,013,-0.44279223374042503,0.1930448472082857,-0.037497803768980285,0.05799058287872818,0.32378810953612985,-0.2260107345917643,-0.46879200416488204,-0.4591274908123058,2
458,2024-09-20 20:32:43.525839111,0,013,-0.42333956063553174,0.1913291760297425,0.07880636099802325,0.041514216919574534,0.3414641916254566,-0.21830808595640905,-1.044528931844968,-0.35652304369395293,2
459,2024-09-20 20:32:43.593612793,0,013,-0.40249410455229856,0.18848178974537863,0.18629850389381092,0.031702898812833634,0.36059577819883526,-0.2121673889321168,-1.6279802745370489,-0.2446895383108523,2
460,2024-09-20 20:32:43.661350098,0,013,-0.381494712275029,0.18486032252725068,0.2796551115180783,0.02927138988697617,0.38012060072657294,-0.2075310431387274,-2.197409345634883,-0.1275867624434883,2
461,2024-09-20 20:32:44.605000000,0,013,-0.36151339417469786,0.18080143557414818,0.3538778086443208,0.0344351277560595,0.398664997349816,-0.20424985613709676,-2.730699337827055,-0.009836479661846633,2
462,2024-09-20 20:32:44.658592041,0,013,-0.34355404160293973,0.17660001985361207,0.40471557572450617,0.04686530339211582,0.41469490603734216,-0.2021379678876711,-3.2063202364450767,0.103534239675606,2
463,2024-09-20 20:32:44.736721924,0,013,-0.3283898315661549,0.17249582826355284,0.4290640253928338,0.06571153348539711,0.4266554284392445,-0.2010123183618249,-3.6041966027172356,0.20751520874088716,2
464,2024-09-20 20:32:44.798752930,0,013,-0.31653904081795115,0.16866600146386854,0.42529528583418297,0.08968851471448366,0.4330793196550289,-0.200712323956906,-3.906757849048348,0.2976718020899077,2
465,2024-09-20 20:32:44.875994873,0,013,-0.3082673566076313,0.16522276758969615,0.3935225180291642,0.11719565265197938,0.43266962075024273,-0.2011023028408496,-4.100258594318975,0.3706829749772036,2
466,2024-09-20 20:32:44.943707031,0,013,-0.3036063039119652,0.162216272238866,0.33580434516164775,0.14643260236372133,0.4243822020927913,-0.20206422090805126,-4.176044441873309,0.4246709347012723,2
467,2024-09-20 20:32:44.999641846,0,013,-0.30238719717966345,0.15964256273019284,0.2562142945474469,0.17549573203066976,0.4075164810565337,-0.20348761056682602,-4.131269408688507,0.45923505252598107,2
468,2024-09-20 20:32:45.946506104,0,013,-0.3042943005073765,0.157455935280536,0.16064294126711476,0.20246965010331883,0.38178368795270223,-0.205257968934373,-3.9689147343632922,0.47525161832758295,2
469,2024-09-20 20:32:46.023363037,0,013,-0.30892089362631603,0.15558196590196838,0.05628904604937044,0.22552940830976326,0.3473244129381436,-0.20724194608268867,-3.6974160404591365,0.47458366292262155,2
470,2024-09-20 20:32:46.085016846,0,013,-0.3157936432156924,0.1539257518333402,-0.049025524238046084,0.24304387543416825,0.3046935893584786,-0.20927063999613874,-3.3302158261858374,0.45979264672394005,2
471,2024-09-20 20:32:46.146557129,0,013,-0.32436159117033436,0.15237487460163635,-0.14752540270679562,0.2536607464367492,0.25484981716748834,-0.21112838077794935,-2.885238892350073,0.4338404221601919,2
472,2024-09-20 20:32:46.224232910,0,013,-0.3339965158799544,0.15080423742427265,-0.23205724806502184,0.2563715501562135,0.19915222044055667,-0.21255679788163262,-2.384136175492865,0.39975460322493284,2
473,2024-09-20 20:32:46.294370117,0,013,-0.34404058875851395,0.14908841399507375,-0.29659121981681436,0.2505665611187011,0.13934217498714935,-0.21327699911782502,-1.8512572562622507,0.36029543018217813,2
474,2024-09-20 20:32:46.348899902,0,013,-0.3538743867441733,0.14711732830844074,-0.33664879152073734,0.23607640939380287,0.07750434293678955,-0.21302328246999622,-1.312483773904343,0.3177188746684372,2
475,2024-09-20 20:32:47.280635986,0,013,-0.36295378094985303,0.1448065155877852,-0.34959472638875505,0.2131819724795614,0.01601659413006161,-0.21158140654179314,-0.7941071799085786,0.2737252067159851,2
476,2024-09-20 20:32:47.342051025,0,013,-0.37080161646277293,0.14209793971214746,-0.3347162381823379,0.1825805166274915,-0.04252682164552479,-0.20882636188033993,-0.3217785229431089,0.22957977114307646,2
477,2024-09-20 20:32:47.416094971,0,013,-0.37697662240258073,0.13895292929424388,-0.2930623285100123,0.14531517203158328,-0.09545127439933204,-0.2047502651006414,0.08063610845470057,0.186274453956522,2
478,2024-09-20 20:32:47.483820068,0,013,-0.3810409459099199,0.1353405337257328,-0.22708465487124813,0.10268261904721872,-0.14018434209071842,-0.19947081479075315,0.39240343765371705,0.14461891342026237,2
479,2024-09-20 20:32:47.542931152,0,013,-0.38253752616599185,0.13122554343401913,-0.1401724576078299,0.05613305400493734,-0.1744253855277138,-0.193220147600952,0.5973424788450707,0.10526870210333651,2
480,2024-09-20 20:32:47.607930908,0,013,-0.3809933127164509,0.1265618598216198,-0.03620727428962846,0.007184418515222034,-0.1962632829272577,-0.18632307783460803,0.6850590823502136,0.06875306316711681,2
481,2024-09-20 20:32:47.672541016,0,013,-0.37596517345250074,0.12129546599400703,0.08074731737882337,-0.0426253005053143,-0.20424847123851714,-0.17917503725734998,0.6517760147020533,0.035537628609531906,2
482,2024-09-20 20:32:48.630736084,0,013,-0.3671212491840929,0.11537518161114044,0.20657338307768472,-0.09174874942683797,-0.19744433089736899,-0.17222349017775573,0.5005979803778581,0.006107410286296246,2
483,2024-09-20 20:32:48.698491211,0,013,-0.3543196533707558,0.10876350643510907,0.33708037639411825,-0.13863291599884237,-0.17548603950186764,-0.1659489105384539,0.24112119868932558,-0.01897743062313102,2
484,2024-09-20 20:32:48.766215088,0,013,-0.33764885145724644,0.10144189760481453,0.46793238355380257,-0.18174696687274597,-0.13865986617408393,-0.16084019865654534,-0.11152377957205216,-0.039089521110537775,2
485,2024-09-20 20:32:48.826726807,0,013,-0.3174276427867206,0.09341250065576354,0.5946072994058225,-0.2196423734508058,-0.0879780744791308,-0.15736397959972817,-0.5379127723982362,-0.053597674632743196,2
486,2024-09-20 20:32:48.901708008,0,013,-0.2941788337321124,0.08470006919021454,0.7124323874741163,-0.2510337229266449,-0.02520045795519439,-0.15593010371279484,-1.0155819670314143,-0.061954023533227515,2
487,2024-09-20 20:32:48.969465088,0,013,-0.26857943455120015,0.07535276959077783,0.8167025648780436,-0.27488273494253784,0.047230343745123166,-0.15685463459165178,-1.520193138565403,-0.06379690129506979,2
488,2024-09-20 20:32:49.037221924,0,013,-0.24138683096561425,0.06543891080690523,0.9028295814182266,-0.29046149144525363,0.12634124623317314,-0.16032501600075313,-2.0266636243907596,-0.05906569425624652,2
489,2024-09-20 20:32:49.975361084,0,013,-0.2133490109137474,0.05504001620758298,0.9664409790246935,-0.29736925115304774,0.20885246852832656,-0.16637799364967937,-2.5104060636444148,-0.04807767188030521,2
490,2024-09-20 20:32:50.037233887,0,013,-0.1851102169228024,0.044242884745801486,1.0034740833819566,-0.2955088467337138,0.2914452003126903,-0.17489582388939864,-2.9487349088987758,-0.03152718173583477,2
491,2024-09-20 20:32:50.116436035,0,013,-0.15712613396971764,0.03313288255599841,1.0104623481657569,-0.2850694993320522,0.3710333302536953,-0.18561697712488454,-3.322300566779441,-0.010445108655921596,2
492,2024-09-20 20:32:50.184176025,0,013,-0.12960839125927476,0.021789946997470847,0.9850935304976117,-0.26654964184457874,0.4449914271722383,-0.19815584469438458,-3.6163731560570667,0.013839337116705933,2
493,2024-09-20 20:32:50.237677979,0,013,-0.10251427189677777,0.010287836549201682,0.9268395969112673,-0.2408000527396133,0.5112990429569769,-0.21202479357970117,-3.821814650651955,0.03974381874031735,2
494,2024-09-20 20:32:50.315783936,0,013,-0.075582168301075,-0.0013046181609427331,0.8374095419899429,-0.2090469066996191,0.5685928140937302,-0.22665054974195595,-3.935480053429302,0.0654907742794437,2
495,2024-09-20 20:32:50.383318848,0,013,-0.04840333087635081,-0.012922371310765719,0.7209479819612449,-0.17287156380529448,0.6161433410411484,-0.24138200946264313,-3.959833791370983,0.0891799405121255,2
496,2024-09-20 20:32:51.316320801,0,013,-0.020522794131381413,-0.024503366249672243,0.5839914200526709,-0.13413833454251187,0.6537702385497723,-0.25549533055654805,-3.90190520267727,0.10891319501885582,2
497,2024-09-20 20:32:51.393549072,0,013,0.008440475959089545,-0.0359858465688656,0.4351535770383447,-0.09486960692824437,0.6817104017658704,-0.26821092440725225,-3.77198730842114,0.12299483673099702,2
498,2024-09-20 20:32:51.456035889,0,013,0.038678887204340144,-0.04730246663535268,0.28447956471503577,-0.05708075860518762,0.7004708894452384,-0.27873703329872546,-3.5824157654368394,0.13016076224888537,2
499,2024-09-20 20:32:51.533667969,0,013,0.07011587640260082,-0.05837378761889279,0.14247947241002332,-0.022603561586704696,0.7106970794872111,-0.2863387686033432,-3.346535007909901,0.12975200291533115,2
500,2024-09-20 20:32:51.601985840,0,013,0.10237286662698004,-0.06910561424757006,0.019027963678800653,0.0070615021610013155,0.7130723168165506,-0.2904137374551807,-3.077842828547715,0.12176451333527372,2
501,2024-09-20 20:32:51.666333008,0,013,0.1347818136818182,-0.0793921963721304,-0.0775638859876909,0.030830540724640282,0.7082564314788892,-0.2905508771896124,-2.789317265271728,0.10675786083434588,2
502,2024-09-20 20:32:51.728818115,0,013,0.16643884113814886,-0.0891232605100247,-0.14111499674235628,0.04805498449804937,0.6968731425879292,-0.2865584474394923,-2.4929756743128095,0.08566775478275235,2
503,2024-09-20 20:32:52.649490234,0,013,0.1962909774507694,-0.09819077265592065,-0.16785461032281704,0.05850401038097472,0.6795579476339052,-0.2784643520228083,-2.1997266428306808,0.05959733824815606,2
504,2024-09-20 20:32:52.723740967,0,013,0.2232438438489231,-0.10649299156103925,-0.1565990834612857,0.0623493370757652,0.6570507605908118,-0.26650347790017,-1.9195011904109878,0.029650052981873374,2
505,2024-09-20 20:32:52.789191895,0,013,0.24628302858293896,-0.11393742636511317,-0.10884437968984893,0.06015776512803083,0.6302856326611322,-0.25110210415609246,-1.661495446471746,-0.0031567522310251774,2
506,2024-09-20 20:32:52.851679199,0,013,0.26460514434016036,-0.12044694958067846,-0.028630464862055317,0.05285918456376288,0.6004368321080952,-0.23285572841966432,-1.4342652959900437,-0.03788779816312901,2
507,2024-09-20 20:32:52.913274170,0,013,0.27774181953958094,-0.1259710006321797,0.07790992432135915,0.0416615011861655,0.5688980181172696,-0.21248992165762728,-1.2455267613352017,-0.07362587140387013,2
508,2024-09-20 20:32:52.994694092,0,013,0.28564499264501797,-0.13049777656937003,0.20326642217188576,0.027917072063046396,0.5371813583764978,-0.19080269461926236,-1.1017312588098145,-0.10940583785168867,2
509,2024-09-20 20:32:53.052086182,0,013,0.2887067288749476,-0.13406029787887713,0.339405848389693,0.012970507659834643,0.5067600016674331,-0.1686008155410392,-1.007641535052839,-0.14418406491978397,2
510,2024-09-20 20:32:54.005513916,0,013,0.2877066474130172,-0.13673301230670773,0.47859319263538674,-0.0019753574672586685,0.4789117141103667,-0.1466446200540125,-0.9661304775569347,-0.1768316075191404,2
511,2024-09-20 20:32:54.062552002,0,013,0.2836987880471338,-0.13862126332529515,0.6139773658591478,-0.015942687981766727,0.45459776346211483,-0.12560766417881075,-0.9781848151636199,-0.2061324536598002,2
512,2024-09-20 20:32:54.139703125,0,013,0.27786151001009324,-0.13984763931158448,0.7398425210255499,-0.028198792907619615,0.43436555432012003,-0.10604939999513413,-1.0428903379919259,-0.2307924287505513,2
513,2024-09-20 20:32:54.202187988,0,013,0.27133552263447064,-0.1405373306599526,0.8516351116830582,-0.038239649793732185,0.41825163289995354,-0.08839295504330813,-1.1573511385840056,-0.24945636188260314,2
514,2024-09-20 20:32:54.263758057,0,013,0.26507139591461254,-0.14080314183931186,0.9459623956847546,-0.045782243408906624,0.40568087729163377,-0.07290069975579029,-1.3167846541810593,-0.26070939513819313,2
515,2024-09-20 20:32:54.341392090,0,013,0.259709526108296,-0.14073162991780575,1.0206108878609104,-0.050778754809843424,0.395400136564198,-0.059651918944512106,-1.5149813106458692,-0.26303997008418806,2
516,2024-09-20 20:32:54.411989990,0,013,0.25551280727509673,-0.14037239031325388,1.0744646637686062,-0.053419761522259294,0.3855178244619507,-0.048536299055366466,-1.7450080878521586,-0.25476981090151773,2
517,2024-09-20 20:32:55.346902100,0,013,0.25235878522992217,-0.13973162665911235,1.1072434797791553,-0.05409030336511744,0.37368741990292925,-0.039271021474346635,-1.9998153511754997,-0.23401935367790452,2
518,2024-09-20 20:32:55.423343994,0,013,0.24979016709447363,-0.13877165081416587,1.1191647578363784,-0.05328399117616408,0.3574003085958103,-0.03143779352516155,-2.2724420366869253,-0.19881951776751897,2
519,2024-09-20 20:32:55.485824951,0,013,0.24711506920247342,-0.13741820872816873,1.110686534344066,-0.05151570952146127,0.33432138112728516,-0.02453222071266981,-2.555819909282549,-0.1474088744216348,2
520,2024-09-20 20:32:55.548312988,0,013,0.24352930805206238,-0.1355747208015034,1.0823420262796317,-0.049260686652223155,0.30261606405799185,-0.01801927035764911,-2.8424977613435005,-0.078632379155003,2
521,2024-09-20 20:32:55.616801025,0,013,0.23823009741127157,-0.1331409811812392,1.0346106594227271,-0.0469161784594282,0.261230571637619,-0.011389382629582692,-3.1245120125320307,0.007663934463156228,2
522,2024-09-20 20:32:55.679313965,0,013,0.23051983036910348,-0.1300352568578809,0.9678866998049889,-0.044779980003981756,0.21007871689541174,-0.004210150121296083,-3.3932916780482807,0.11030236103958072,2
523,2024-09-20 20:32:55.756947021,0,013,0.2199195093926595,-0.12621802171003257,0.8826313591541096,-0.04305006691630367,0.15009490278332477,0.003829336914042155,-3.639504190310231,0.22658296516372284,2
524,2024-09-20 20:32:56.695442871,0,013,0.20628700399042058,-0.12171216469724379,0.7796412251676405,-0.04184163840374558,0.08314896777534778,0.012882734625548101,-3.8529806929414185,0.35232141208122053,2
525,2024-09-20 20:32:56.773086914,0,013,0.18989407721408655,-0.11661327058975941,0.6602665458578356,-0.04120680997030002,0.011839856616660167,0.02292420898162116,-4.022806413783839,0.48210407569859876,2
526,2024-09-20 20:32:56.841730225,0,013,0.17141441167965416,-0.11108668669786428,0.5264667151644151,-0.041142492461123094,-0.06081239635556791,0.03374900622316091,-4.137541260162429,0.6096490633909152,2
527,2024-09-20 20:32:56.896743164,0,013,0.1518179427660859,-0.10535294346591823,0.3806911204648338,-0.04157673905172809,-0.13172614702868138,0.04500057681131746,-4.185654875737379,0.728196442898593,2
528,2024-09-20 20:32:56.977152100,0,013,0.13220832512770384,-0.09966591066904171,0.2256387403080034,-0.042333671222444476,-0.19808035054763276,0.05621520802656017,-4.156358944696487,0.8309441442618626,2
529,2024-09-20 20:32:57.035572021,0,013,0.1136489713165911,-0.09428796345486602,0.06395536779531119,-0.043092738863281736,-0.25753515466528726,0.06687029198356922,-4.040896166676169,0.9115602379147001,2
530,2024-09-20 20:32:57.112659912,0,013,0.0970113736598466,-0.089465418208728,-0.10207169420798755,-0.04337212135524425,-0.3083546230730051,0.07642975174680801,-3.8341713783491334,0.964742825250114,2
531,2024-09-20 20:32:58.031917969,0,013,0.08287125934391208,-0.08540738974193596,-0.270675758775955,-0.042570542176212894,-0.3494611103966649,0.08438818374374399,-3.536435783250388,0.986740430864309,2
532,2024-09-20 20:32:58.099581055,0,013,0.07147153581128439,-0.08227135016582852,-0.4404667680172876,-0.04007526720697245,-0.3804333326949595,0.09031480844208972,-3.154468100208235,0.9757125398148817,2
533,2024-09-20 20:32:58.167335938,0,013,0.06275191607678735,-0.08015730464321401,-0.6100490805063005,-0.03539143507969007,-0.4014561028535153,0.09389256031763464,-2.701667248297903,0.9318408302154548,2
534,2024-09-20 20:32:58.228540039,0,013,0.056422622218389375,-0.07910966243569334,-0.7776623272928362,-0.028234658927858296,-0.41323832078699274,0.09494727198748686,-2.1969940191584016,0.8572148146114505,2
535,2024-09-20 20:32:58.290570068,0,013,0.052054835259331654,-0.07912316812570155,-0.9409786430030045,-0.018574130409219528,-0.41691026921706553,0.09346703510309637,-1.6632611205766623,0.7555973591018447,2
536,2024-09-20 20:32:58.368677979,0,013,0.04917354559775291,-0.08014909472492283,-1.0969908232092114,-0.006646941923271904,-0.41389804614046394,0.08961023303578433,-1.125314173414361,0.6321541458879121,2
537,2024-09-20 20:32:58.430298096,0,013,0.04734774403851259,-0.082100892762546,-1.2419137271802296,0.007040987925537122,-0.4057756170759421,0.08369521806866784,-0.6083645662779787,0.4931808747441999,2
538,2024-09-20 20:32:59.379077881,0,013,0.04626768420213722,-0.08486074159988022,-1.3711105317216226,0.02171804853541601,-0.39411849130343,0.07617002758142326,-0.13648071207647555,0.34582577390797575,2
539,2024-09-20 20:32:59.448147949,0,013,0.04579510790367724,-0.08828748681846249,-1.4791546305185574,0.03635159054561833,-0.3803987319615,0.06757322339480624,0.2688645922641161,0.19777047608448306,2
540,2024-09-20 20:32:59.503673096,0,013,0.0459803372564854,-0.09222501091696883,-1.5601868215433783,0.04967541698142542,-0.3659379770188616,0.05849895564051645,0.590229840845035,0.05682263447863972,2
541,2024-09-20 20:32:59.583136963,0,013,0.04704433267782716,-0.09650947727709247,-1.608599657613749,0.060270989690337395,-0.3518968527417427,0.04956739894172901,0.8154478891830947,-0.0695910230103713,2
542,2024-09-20 20:32:59.645487061,0,013,0.049319426739582346,-0.10097316652489147,-1.6198492358524794,0.06670602085898895,-0.33927912757236567,0.04139252918595356,0.9382865930114193,-0.1749786730883817,2
543,2024-09-20 20:32:59.707972168,0,013,0.05315076725349956,-0.10544397468282384,-1.5911256676047443,0.06769981244564283,-0.3289557724875539,0.03454481090024935,0.9582955712519579,-0.2542844207302545,2
544,2024-09-20 20:32:59.785162109,0,013,0.05878213300088954,-0.10974331321962387,-1.521731464508264,0.06227028721837876,-0.3217091007580774,0.029515607688696176,0.8801580769798113,-0.30425640705663115,2
545,2024-09-20 20:33:00.730477051,0,013,0.0662545421634934,-0.1136855058343798,-1.413138152727965,0.04982667429068483,-0.3182624168451793,0.026686827571655667,0.7131026552636376,-0.323667429993921,2
546,2024-09-20 20:33:00.798259033,0,013,0.07532936985536272,-0.1170783647910574,-1.2687946521051714,0.030206589467539943,-0.3192553248340119,0.026300705975804174,0.47050022548797543,-0.3133997463336712,2
547,2024-09-20 20:33:00.862665039,0,013,0.08544052721983418,-0.1197239761189067,-1.0938478499065258,0.003691164398099767,-0.32516845196337363,0.028429302726675657,0.16931611496709373,-0.27637937575597404,2
548,2024-09-20 20:33:00.924658936,0,013,0.09569265231274918,-0.12142130148064302,-0.8948844279795029,-0.028978774523083718,-0.3362394551357801,0.03295743272155096,-0.1708561724673421,-0.2173280813381797,2
549,2024-09-20 20:33:00.986298096,0,013,0.10492851378822975,-0.12197350734141277,-0.6796577770682198,-0.06660586581260705,-0.3523988628587582,0.03959664815908661,-0.5291122513041975,-0.14232404977587354,2
550,2024-09-20 20:33:01.069165039,0,013,0.11186501037495951,-0.1212011919935404,-0.4567140387941493,-0.10759543047401746,-0.37322747322860195,0.047934095102763134,-0.8846226344278169,-0.058215439496570834,2
551,2024-09-20 20:33:01.129877930,0,013,0.11525463241731217,-0.11895786183631445,-0.23489017188164024,-0.15008296229953663,-0.39794606315601666,0.0575000885090964,-1.2178314754424315,0.02801459402636434,2
552,2024-09-20 20:33:02.076509032,0,013,0.11401739532862794,-0.11514058206524136,-0.02271901401351942,-0.19211216053289532,-0.42546812671975565,0.06783335045149856,-1.5113725000832128,0.10982986220548634,2
553,2024-09-20 20:33:02.148240967,0,013,0.10732686184972302,-0.10969236274478628,0.17217833933675428,-0.23182863989284389,-0.45452933993216177,0.0785361858614348,-1.7507498614361638,0.18162407561722826,2
554,2024-09-20 20:33:02.215912109,0,013,0.09466651628155773,-0.10259879428141441,0.3436162479429697,-0.2676456378845478,-0.4838583037581362,0.08931936061859153,-1.9248567503492544,0.23909158348538634,2
555,2024-09-20 20:33:02.278399902,0,013,0.07585996213655308,-0.09388237999470378,0.48722345611131157,-0.2983457623911271,-0.5123243601132009,0.10002974998388917,-2.0262757218622376,0.2794454095923568,2
556,2024-09-20 20:33:02.340884033,0,013,0.05106375446166339,-0.0835970066906082,0.6006282085717358,-0.3231112549010463,-0.539021866248205,0.11065215889333736,-2.0512079168330906,0.30143609872942084,2
557,2024-09-20 20:33:02.418991211,0,013,0.020728714105920077,-0.07182579210218733,0.6833992930798978,-0.3415054606371915,-0.5632979591371291,0.12128581888875917,-1.9990607600441315,0.30518697992909427,2
558,2024-09-20 20:33:02.481476074,0,013,-0.014448227088583614,-0.058684634009392486,0.7368035606459457,-0.35344342656695066,-0.584758981511551,0.13210391872430685,-1.8719941933326334,0.2919242716009239,2
559,2024-09-20 20:33:03.404388916,0,013,-0.05356961659456266,-0.0443295648912424,0.7635527641602038,-0.3591787758181481,-0.6032836737563344,0.14330684480843536,-1.6746802579919655,0.2636922023612451,2
560,2024-09-20 20:33:03.472152100,0,013,-0.09558154107537536,-0.02896257396930443,0.7676283010354594,-0.35930091947324094,-0.6190360658463264,0.15507794107792766,-1.4142252391725918,0.2231147336994631,2
561,2024-09-20 20:33:03.536093018,0,013,-0.13931125076144119,-0.012832279900558602,0.7540982896729354,-0.35471350937275004,-0.6324351311989005,0.1675446263401362,-1.1000275190804856,0.1732108210945751,2
562,2024-09-20 20:33:03.607606934,0,013,-0.18349000040790142,0.0037691827609178767,0.7287945603955878,-0.3465715424710908,-0.6440432924451007,0.18074279897626658,-0.7434452217756062,0.11722819478967389,2
563,2024-09-20 20:33:03.672539062,0,013,-0.22677290733917652,0.020511228683601408,0.6978070329731483,-0.3361738398041995,-0.6543896451196338,0.1945850726083903,-0.35731018683130256,0.05846998825597229,2
564,2024-09-20 20:33:03.743072998,0,013,-0.2677777813792241,0.037033487876645683,0.6668361679088819,-0.3248190280034756,-0.6637930536400016,0.20884084676047177,0.04465456542464568,0.0001183344479335582,2
565,2024-09-20 20:33:03.796593018,0,013,-0.3051396185010651,0.05295832547484135,0.6404655825198282,-0.3136426535563362,-0.672246339607116,0.2231388704984313,0.4485037593799244,-0.054927104674075855,2
566,2024-09-20 20:33:04.754139893,0,013,-0.3375595735986283,0.06790346633804507,0.6214824548865783,-0.3034745499130275,-0.6793883112132268,0.2369974311011971,0.8408399384394541,-0.1041837203636076,2
567,2024-09-20 20:33:04.814420898,0,013,-0.3638467364492808,0.08149331478699344,0.6104840837750848,-0.29476847359547115,-0.6845702685640721,0.24987862387153217,1.2096972348929356,-0.14570259058469787,2
568,2024-09-20 20:33:04.889592773,0,013,-0.3829700884878493,0.09337270949955508,0.6059566977565006,-0.2876270670163474,-0.687006839275093,0.26125297611958265,1.5454245754019158,-0.17817536072092224,2
569,2024-09-20 20:33:04.953718018,0,013,-0.3941252860839689,0.10322588091359652,0.6047730625973635,-0.28189179256099844,-0.6859618636860744,0.2706513774732566,1.8412608187942952,-0.20100417148855246,2
570,2024-09-20 20:33:05.015724121,0,013,-0.3967998904925828,0.11079778628871828,0.6028889900552843,-0.2772437868538096,-0.6808930834413265,0.2776848599150914,2.0933092951918675,-0.21428865281833964,2
571,2024-09-20 20:33:05.077761963,0,013,-0.3908222494141189,0.11591288825912505,0.5960318456291448,-0.27328248346398865,-0.671513364192711,0.28203457535621773,2.299911195961697,-0.2187146059211503,2
572,2024-09-20 20:33:05.155868164,0,013,-0.3763932929719718,0.11848959582738319,0.5802752021397544,-0.2695827437232195,-0.657791013746157,0.2834364670794773,2.460795974069531,-0.2153895909356497,2
573,2024-09-20 20:33:06.091259033,0,013,-0.35409742626543717,0.11855000885413199,0.5525216019361975,-0.2657480055816058,-0.6399310920077493,0.28168415977721445,2.5765505678644702,-0.2057096586443718,2
574,2024-09-20 20:33:06.169362061,0,013,-0.3248781851124292,0.11622160562454181,0.5109675840435451,-0.2614666742782131,-0.6183521334566933,0.27665178239579974,2.648617692497289,-0.19129403859878175,2
575,2024-09-20 20:33:06.236473145,0,013,-0.28997982623374713,0.1117276901808278,0.45551021241727296,-0.256555631173092,-0.5936571714669274,0.26832032275952633,2.679457492173773,-0.17391852152900947,2
576,2024-09-20 20:33:06.293041016,0,013,-0.25087891807224366,0.10536900037524849,0.38788007951384734,-0.2509606509907538,-0.5666022923012125,0.2567919971788839,2.672400638530742,-0.15536075925466655,2
577,2024-09-20 20:33:06.371149902,0,013,-0.20921696833981743,0.0975018334307663,0.3113133972989004,-0.2446964138219756,-0.5380636229182758,0.24229179903236198,2.631163935925686,-0.13717748446868577,2
578,2024-09-20 20:33:06.433634033,0,013,-0.16671732357947688,0.08851562293215015,0.22987987506929972,-0.23775308858675023,-0.5089936666557746,0.2251666281615688,2.5592994310392965,-0.12051153722582356,2
579,2024-09-20 20:33:06.507716797,0,013,-0.125078572612637,0.07881071437043977,0.14780763912992098,-0.23002874251756558,-0.4803563481571473,0.2058866962307331,2.4597397519491757,-0.1059947960913681,2
580,2024-09-20 20:33:07.454611084,0,013,-0.08586869624151845,0.06877789381188182,0.0690137112945454,-0.22132357446389322,-0.4530504498316749,0.1850406805977479,2.3344735249426383,-0.09374797743502293,2
581,2024-09-20 20:33:07.509293945,0,013,-0.05044304678182306,0.05878124928242212,-0.0031794944452503506,-0.21138571494859743,-0.42784822265563827,0.163313034100929,2.184387581837267,-0.08344422288576472,2
582,2024-09-20 20:33:07.589479980,0,013,-0.019880536376590187,0.04914364645398729,-0.06621326403717853,-0.19997635574059952,-0.4053521839484054,0.14143806926722843,2.0092861089871996,-0.07439762812014107,2
583,2024-09-20 20:33:07.654674072,0,013,0.005064947325246652,0.04013466859090219,-0.11840331888798898,-0.18692213821529768,-0.3859489858616445,0.12013612581994923,1.8080908460796936,-0.0656495868806322,2
584,2024-09-20 20:33:07.716744873,0,013,0.023971744650784808,0.031964744013038074,-0.15905063181867543,-0.17213609514888142,-0.3697649739604971,0.10004947337259473,1.5792836771858556,-0.056053223532159746,2
585,2024-09-20 20:33:07.778785889,0,013,0.03669801688046513,0.024788511924777143,-0.18852507188529435,-0.15561787181508963,-0.35664910760316654,0.08169451859648102,1.3215762006892275,-0.04438213101882818,2
586,2024-09-20 20:33:07.856400879,0,013,0.043295760054967034,0.01871402936600775,-0.20818352613605537,-0.1374640236258846,-0.3461805594710794,0.06543098460965689,1.0346527161219985,-0.02948651272069995,2
587,2024-09-20 20:33:08.795135010,0,013,0.04393606073734814,0.013810582805841406,-0.22008486018816012,-0.11789436782172445,-0.3376819134806555,0.05144146414590839,0.7198790490351304,-0.010476444456212722,2
588,2024-09-20 20:33:08.872459961,0,013,0.038868303446683586,0.010110749950158123,-0.22666864877507784,-0.09726271499088729,-0.3302412457173719,0.03972297148705327,0.3809261665963811,0.013137734507314772,2
589,2024-09-20 20:33:08.934874023,0,013,0.02841201452793354,0.007607886872803037,-0.23052010272359855,-0.0760325561022791,-0.3227479560206412,0.030098186233109524,0.02417919563585405,0.0414066891640954,2
590,2024-09-20 20:33:08.997370850,0,013,0.01297606848195411,0.006253079091584227,-0.23414848893700976,-0.05473561015122301,-0.3139242950837728,0.02224869775901272,-0.34119575837460675,0.07399467708714577,2
591,2024-09-20 20:33:09.075689941,0,013,-0.006900095871475524,0.005953780740554515,-0.23970819636651353,-0.03392933367920251,-0.30234420631864045,0.015762653514992828,-0.7035589495204702,0.11026812825427197,2
