,time,MARKER,pid,L_O_DSI,L_D_DSI,L_O_DSphi,L_D_DSphi,R_O_DSI,R_D_DSI,R_O_DSphi,R_D_DSphi,trial_id
0,2024-09-20 20:18:51.669117920,TASK_BEGIN,013,-0.23125953227401466,-0.060408223700785926,4.699434786589815,-0.9810374741569102,-0.9954086430760557,-0.05670493611224848,2.7684410519608993,2.498241150650777,0
1,2024-09-20 20:18:51.730580078,0,013,-0.22611241575121685,-0.055068614936025335,4.603744259964832,-0.981918539250737,-0.9528313819179283,-0.05088158648024299,2.5631426344367734,2.491438098577698,0
2,2024-09-20 20:18:52.677937012,0,013,-0.23011100288997494,-0.04892772340871608,4.517367432054195,-0.9830125534783013,-0.9127128226931989,-0.046245862892877215,2.387669285765462,2.4966694532712532,0
3,2024-09-20 20:18:52.747409180,0,013,-0.24344002648074337,-0.04201033679242437,4.437570790018845,-0.9826101518920329,-0.8749418828700126,-0.04342268257864834,2.24361232956311,2.511882669629932,0
4,2024-09-20 20:18:52.812918945,0,013,-0.2657334606133686,-0.034395360807382674,4.361519672768369,-0.9791489509656963,-0.8398761282650844,-0.04286344168090735,2.129312888004113,2.535090704705534,0
5,2024-09-20 20:18:52.877938965,0,013,-0.29611130048040946,-0.02620101639650939,4.286677016498704,-0.9714034308841036,-0.8084282011198984,-0.04480625001538823,2.040244140970966,2.564657525448332,0
6,2024-09-20 20:18:52.947472168,0,013,-0.33323786431958224,-0.017572294004820157,4.211210344946474,-0.9586393472794679,-0.7820299575180433,-0.04927040071681852,1.9701059455147838,2.5992419182571864,0
7,2024-09-20 20:18:53.018931885,0,013,-0.37540074199995876,-0.00867043546688372,4.134378817356033,-0.9407082222028862,-0.7624582173328894,-0.056082353019512365,1.912319022258279,2.6374307621955677,0
8,2024-09-20 20:18:53.082416016,0,013,-0.4206016766138085,0.0003348248550552074,4.056750377451275,-0.918049462800055,-0.7515616924643446,-0.0649148744954378,1.8614118058510123,2.6772553712841383,0
9,2024-09-20 20:18:54.029438965,0,013,-0.46666369461635143,0.009270536214089766,3.980112980885785,-0.891586354194336,-0.7509658840052178,-0.07532158107225949,1.813818867451624,2.7158908048825894,0
10,2024-09-20 20:18:54.091456787,0,013,-0.5113688305495218,0.01796687109241694,3.9070950953381947,-0.8625418012880923,-0.7618276698251188,-0.08676282108824687,1.768005135243495,2.749715308532681,0
11,2024-09-20 20:18:54.166574951,0,013,-0.5526177776056737,0.026265978121797994,3.8406263651317025,-0.8322224071051875,-0.7846685063813199,-0.09863298444715128,1.7241236879588655,2.7746772498269094,0
12,2024-09-20 20:18:54.234304932,0,013,-0.5885773322686835,0.03402912696087072,3.783397640976234,-0.8018177473368252,-0.8192801237172688,-0.11030146558620123,1.6834120877487238,2.7868025369361966,0
13,2024-09-20 20:18:54.302081055,0,013,-0.6177887276980146,0.041137062956975126,3.7374364302935583,-0.7722488248962694,-0.86470266864014,-0.12116559947922788,1.6475458574723894,2.7826643133754536,0
14,2024-09-20 20:18:54.369788818,0,013,-0.6392332017402411,0.047483553051882565,3.7038330025941715,-0.7440844018048454,-0.9192950727877006,-0.13069750732584207,1.6181660907460238,2.759676458480062,0
15,2024-09-20 20:18:54.437587891,0,013,-0.6523615096694173,0.05296694506144203,3.682629542989345,-0.7175379261850914,-0.9809028727590239,-0.13846713956167053,1.5966325841520574,2.716194071477607,0
16,2024-09-20 20:18:55.345444824,0,013,-0.6570917047382145,0.05748474603712388,3.6728897316006406,-0.6925521825142023,-1.0470812292480984,-0.14413916687491266,1.5839346532666712,2.6515243457783018,0
17,2024-09-20 20:18:55.422645996,0,013,-0.6537801443055055,0.06093397371051844,3.6728885164888223,-0.668946565367445,-1.1153105913712296,-0.1474544276917877,1.5806828393967984,2.5659566976241326,0
18,2024-09-20 20:18:55.491083008,0,013,-0.6431756635411089,0.06321837097147716,3.680300814971692,-0.6465667544475818,-1.1831710519618608,-0.1482100875290887,1.5870477338779494,2.460849401687622,0
19,2024-09-20 20:18:55.546245117,0,013,-0.6263636314630487,0.06426136660490157,3.6923581977054156,-0.6253883522269899,-1.2484666055160785,-0.14624994121256715,1.6024909520113557,2.3387306310094473,0
20,2024-09-20 20:18:55.617600098,0,013,-0.6046970426148358,0.06402122173845592,3.7060462055530192,-0.6055648746888421,-1.3092915099801932,-0.14147141834973234,1.6253167169163127,2.2033048244913322,0
21,2024-09-20 20:18:55.685273926,0,013,-0.5797112812833942,0.0625050160527411,3.718345651773955,-0.5874235927679677,-1.364038981714032,-0.1338500456063437,1.6523236210767343,2.0592442311194556,0
22,2024-09-20 20:18:55.757353027,0,013,-0.5530256976813244,0.05977937932287964,3.7264086417768407,-0.5714078539887569,-1.4113701230169426,-0.12347240219528778,1.6788228151121267,1.911737816309908,0
23,2024-09-20 20:18:56.705018066,0,013,-0.5262374770658019,0.0559749926687891,3.72762894845891,-0.5579779888398106,-1.4501647527256079,-0.11055874415182712,1.6989668075488267,1.765920927156066,0
24,2024-09-20 20:18:56.757543945,0,013,-0.5008161608812632,0.05128248263001169,3.7197011969886122,-0.5475060208347649,-1.4794713325116968,-0.0954597489516673,1.706131430192243,1.6263924770257723,0
25,2024-09-20 20:18:56.840572021,0,013,-0.4780123249936135,0.0459424009780139,3.7007526219439866,-0.5401976866420855,-1.4984844246918445,-0.07862651196815722,1.6933018396005293,1.4969608503987877,0
26,2024-09-20 20:18:56.908323975,0,013,-0.45879260084793105,0.040235105693298266,3.669555879695596,-0.5360477675124014,-1.506589842559299,-0.06056190399472195,1.653649049621864,1.3805974638449097,0
27,2024-09-20 20:18:56.973527832,0,013,-0.44380767327760384,0.03447254662034431,3.6257837004723763,-0.5348168398673009,-1.503488115542599,-0.04176471896590404,1.581364990881276,1.27946468551541,0
28,2024-09-20 20:18:57.036012939,0,013,-0.4333957124537359,0.0289892794447151,3.570177498074973,-0.5360276405515713,-1.489344529817646,-0.022682838634309366,1.4725926082699528,1.1949109998959462,0
29,2024-09-20 20:18:57.098017090,0,013,-0.42761525575840964,0.02413042516756674,3.5044566145116867,-0.5389923999988977,-1.4648773245184663,-0.003687621523279683,1.3262085171406963,1.1274255829275983,0
30,2024-09-20 20:18:58.055141846,0,013,-0.42628683334419537,0.020235787064872356,3.430924469341452,-0.542872847368191,-1.431316924556003,0.014930571575445823,1.1442346544896023,1.0766197570289304,0
31,2024-09-20 20:18:58.122910889,0,013,-0.42902015269328064,0.017618653646876304,3.3518921206704904,-0.5467530582682679,-1.390231513539414,0.03295062997279976,0.9317413798109461,1.0413242463059738,0
32,2024-09-20 20:18:58.190659912,0,013,-0.4352276933088441,0.016539827849384785,3.2691018323075163,-0.5497013195187694,-1.3432835551146838,0.050196780732632965,0.6962248105160092,1.0198465851715284,0
33,2024-09-20 20:18:58.258385010,0,013,-0.4441509960160645,0.017183048573509656,3.183345380811482,-0.5508164191688838,-1.292015308560718,0.06650862825830815,0.44650038089434535,1.0103484843521537,0
34,2024-09-20 20:18:58.317764893,0,013,-0.454918869686995,0.019639332025569563,3.094415405352964,-0.5492710986872246,-1.2377269912186617,0.08171400873426592,0.19122162676411938,1.0112443584168789,0
35,2024-09-20 20:18:58.380381104,0,013,-0.4666253731987811,0.023901800431344804,3.0013712193511277,-0.5443635518749549,-1.1814432910807695,0.09561283221742661,-0.06264393511156564,1.0215045417714337,0
36,2024-09-20 20:18:58.457596924,0,013,-0.4784001470233417,0.029867160074973552,2.902966418635417,-0.5355750254781612,-1.1239360854130584,0.10797701225627028,-0.31082815392827345,1.040765008137276,0
37,2024-09-20 20:18:59.404006104,0,013,-0.48946406630342343,0.037342234598224056,2.7980976969016313,-0.5226255961532423,-1.0657840356495383,0.1185698971107784,-0.5518785839761864,1.0692151379685428,0
38,2024-09-20 20:18:59.462418945,0,013,-0.49918551857762444,0.04605896553352666,2.686241071340893,-0.5055270748113934,-1.0074461389793539,0.12718425610556638,-0.7865107769107349,1.1073266536360178,0
39,2024-09-20 20:18:59.539697998,0,013,-0.5071423178519626,0.05569986291947191,2.5678626536918334,-0.4846313423604501,-0.9493118118847799,0.13368639562900278,-1.0166544203618753,1.1555457780698373,0
40,2024-09-20 20:18:59.609077881,0,013,-0.5131761978770891,0.06592972622835727,2.444694019848801,-0.46065348931227595,-0.8917093114108048,0.1380463595304115,-1.2445405843172257,1.214061545959836,0
41,2024-09-20 20:18:59.661873047,0,013,-0.5174282575834266,0.07642650059451683,2.3197240174426423,-0.43463942283044127,-0.8348915799610206,0.14034121621734189,-1.4719455375755806,1.2826698257167835,0
42,2024-09-20 20:18:59.744573975,0,013,-0.520345343789895,0.08690520970518996,2.196855714378711,-0.40786539805857813,-0.7790271799250217,0.14073294781351503,-1.6995929267469647,1.360649557622583,0
43,2024-09-20 20:18:59.801059082,0,013,-0.5226418317951772,0.09713144470756024,2.08031701501018,-0.38168767207072274,-0.7242106036502238,0.1394336452762475,-1.9266898004714192,1.446587231793882,0
44,2024-09-20 20:19:00.742139160,0,013,-0.5252089570886651,0.10692481387414042,1.9740082760357798,-0.3573843253173495,-0.6705072050751564,0.13667643347686095,-2.150649315467734,1.5382186645550064,0
45,2024-09-20 20:19:00.820247803,0,013,-0.5289835460635116,0.11615597391077788,1.8809819673362782,-0.33603260978047755,-0.618043964662826,0.1327047493373263,-2.3671875689113264,1.6324282779013561,0
46,2024-09-20 20:19:00.890541992,0,013,-0.534801561316023,0.12474052171541292,1.8031869155574318,-0.31844155432595495,-0.5671107013816864,0.12777205090775542,-2.570909330515816,1.7254555329826788,0
47,2024-09-20 20:19:00.943927979,0,013,-0.5432651111605991,0.1326307279043657,1.7414882930489644,-0.3051258012857074,-0.5181986113429567,0.1221303851558211,-2.7561611908628207,1.8132233025775142,0
48,2024-09-20 20:19:01.022035889,0,013,-0.554650515042344,0.13980536674823313,1.6958254038603813,-0.29628411819107425,-0.4719478413597389,0.11600090298351642,-2.917682080627124,1.8916614983058193,0
49,2024-09-20 20:19:01.083635010,0,013,-0.5688780704914941,0.14625951434599138,1.6653231967572166,-0.2917593399013894,-0.42904960308341067,0.10954403457355501,-3.050684185652224,1.9569338100925313,0
50,2024-09-20 20:19:01.161520020,0,013,-0.585544055586363,0.15199708985307597,1.6483127920302574,-0.29100107161546357,-0.3901543002938055,0.10284856512564816,-3.1503280876629236,2.0055451785425213,0
51,2024-09-20 20:19:02.080010986,0,013,-0.6039914968989774,0.1570267883811167,1.6423945714720012,-0.29308110769288226,-0.35580857359955587,0.09594076308698718,-3.2108881873172503,2.0344103318860163,0
52,2024-09-20 20:19:02.147747070,0,013,-0.6233883878429265,0.16135941862802033,1.6447111613657714,-0.2967974705927716,-0.3264434447541674,0.08880250516839323,-3.2251095872282898,2.041009917328257,0
53,2024-09-20 20:19:02.215468994,0,013,-0.6427919946659534,0.16500398069620512,1.6524803681714197,-0.3008618344136878,-0.3024144038806929,0.0813846756890603,-3.184222252708568,2.0236649480780855,0
54,2024-09-20 20:19:02.275077148,0,013,-0.6611952668686775,0.1679606039905845,1.6636621073896547,-0.3041202198418454,-0.28403704221732967,0.073604412202205,-3.0787657953946668,1.9818129874127652,0
55,2024-09-20 20:19:02.336592041,0,013,-0.6775709840621099,0.17021123651458372,1.6775045181951511,-0.30573788846016475,-0.27156481402611576,0.06532924992099517,-2.8999708385749674,1.9161213843188596,0
56,2024-09-20 20:19:02.414840820,0,013,-0.6909369012529497,0.17171315146775296,1.6947239118734203,-0.3053014995363218,-0.2651374337487104,0.05637171362982513,-2.6412433792803345,1.8283681412991082,0
57,2024-09-20 20:19:02.476364014,0,013,-0.7004437393848131,0.17240045843507723,1.7172245883318658,-0.3028283613059748,-0.2647779858887911,0.046520109655298104,-2.2994129667217518,1.7211732720078192,0
58,2024-09-20 20:19:03.430074951,0,013,-0.7054590949811735,0.1721926559721277,1.747458697502152,-0.2986960449118586,-0.27047213880797055,0.03560686864732161,-1.875607998656642,1.5977249877441237,0
59,2024-09-20 20:19:03.496496826,0,013,-0.7056219651696296,0.17100407540581258,1.787637377341759,-0.29351517608159555,-0.2822793337886722,0.023586677333700932,-1.3756994116754768,1.461584248783859,0
60,2024-09-20 20:19:03.558557129,0,013,-0.7008604875587117,0.16874941719332254,1.8389931258881862,-0.2879725020365876,-0.30038135441626856,0.0105895142258075,-0.8102977759196496,1.3165764727756069,0
61,2024-09-20 20:19:03.626938965,0,013,-0.6913666114202207,0.16534474803469465,1.9012219679498104,-0.28267607965444996,-0.3250058151573631,-0.0030695720814742115,-0.19439704835623764,1.1667396288936331,0
62,2024-09-20 20:19:03.689437988,0,013,-0.6775216065132683,0.16070641553416662,1.9721830082582288,-0.2780367720340903,-0.3562449214620561,-0.016922164844566014,0.45324563182432387,1.016260894554922,0
63,2024-09-20 20:19:03.766632080,0,013,-0.6597895833888541,0.15475229198925095,2.047944416270978,-0.27421455385023763,-0.3938453073774673,-0.0304091027259432,1.1110967945440335,0.8693141151864471,0
64,2024-09-20 20:19:03.836577881,0,013,-0.6386178265493588,0.14740898093443766,2.1232500007731474,-0.2711420088489785,-0.43703823649258344,-0.042960313239191965,1.7563522435010765,0.7297442725163584,0
65,2024-09-20 20:19:04.767934082,0,013,-0.6143698890144973,0.13862383671908995,2.1923179210254693,-0.26860974192519893,-0.48445504099750447,-0.054073817996636284,2.3668381828052256,0.6006234372480451,0
66,2024-09-20 20:19:04.845587891,0,013,-0.587289779501646,0.12837648466491933,2.249712966056958,-0.2663761613212345,-0.5341605700310617,-0.06337594905967779,2.9229129469382684,0.48380099967081425,0
67,2024-09-20 20:19:04.915890869,0,013,-0.5574908572708157,0.1166864648479165,2.2910773321313727,-0.26426791422488105,-0.5838146312769459,-0.07065336972899117,3.4089387938588778,0.3796408319349376,0
68,2024-09-20 20:19:04.970082031,0,013,-0.5249699023012447,0.10361788007910228,2.3136669869588067,-0.26225196595914185,-0.6309263089394693,-0.07585644876865547,3.81398602424289,0.28708627040185125,0
69,2024-09-20 20:19:05.047298828,0,013,-0.4896422105703296,0.08928199280043465,2.316695274160073,-0.2604651799276155,-0.6731277877793176,-0.07907764221965595,4.131679855941909,0.20402977038913953,0
70,2024-09-20 20:19:05.109787109,0,013,-0.45139608084001936,0.07383812868811152,2.30145015401372,-0.2591994387179425,-0.7083940197498371,-0.0805121256172096,4.359495370163182,0.1278522721395961,0
71,2024-09-20 20:19:05.186633057,0,013,-0.41017667054014867,0.05749493518968151,2.271179860089829,-0.2588671759704508,-0.7351693525322218,-0.08041092908310621,4.49795783416522,0.05600644722534357,0
72,2024-09-20 20:19:06.104005127,0,013,-0.3660907664898177,0.040511610570220506,2.230793159656999,-0.25997530357012566,-0.7523926647083727,-0.07904002120696399,4.549989225713827,-0.013458499188235756,0
73,2024-09-20 20:19:06.171720947,0,013,-0.31948660096666176,0.023193199224065677,2.186370092726532,-0.26310394298638257,-0.7594238144765425,-0.0766611311080992,4.520413228035962,-0.0815298187694105,0
74,2024-09-20 20:19:06.239422119,0,013,-0.27096730160668103,0.005875090257264752,2.1444341433473824,-0.26886433589769565,-0.7559062169850087,-0.07353538035065003,4.415517916449749,-0.14807477187600013,0
75,2024-09-20 20:19:06.297404053,0,013,-0.22134257563728227,-0.011100741902354565,2.111036020490628,-0.2778186860602039,-0.7416469077912492,-0.06992476316327066,4.242567915347513,-0.21189203075316274,0
76,2024-09-20 20:19:06.374650879,0,013,-0.1715548872642927,-0.02740978278103825,2.090823686297286,-0.29036506336398493,-0.7165915084283032,-0.06606624372924227,4.009350409797861,-0.2709555891229886,0
77,2024-09-20 20:19:06.442635986,0,013,-0.12261267440627227,-0.042762084104389,2.086294846064362,-0.30661103147570784,-0.6809053051444554,-0.062125335318271496,3.7239879072045747,-0.32279973195762707,0
78,2024-09-20 20:19:06.498224854,0,013,-0.07554148792953914,-0.0569106873901206,2.0974002715766753,-0.3262739684495051,-0.6350961602397561,-0.058163938618190046,3.3950785355015745,-0.36493132191616284,0
79,2024-09-20 20:19:07.444281006,0,013,-0.03134191686307505,-0.0696550391513419,2.1216041416033256,-0.3486456457504886,-0.5801000744152373,-0.05415179483877398,3.031984549400778,-0.3951644256196738,0
80,2024-09-20 20:19:07.506958008,0,013,0.009063038961599467,-0.08084396204753327,2.1543937238696778,-0.37264629019270673,-0.5173108863741858,-0.05001934882851146,2.645096666921217,-0.41183958864243114,0
81,2024-09-20 20:19:07.589541992,0,013,0.04489160616097354,-0.090379325860031,2.1901477598109294,-0.3969734434109412,-0.4485878436602454,-0.04571971880254948,2.246006224069206,-0.4139287439032428,0
82,2024-09-20 20:19:07.657292969,0,013,0.07555865936016304,-0.098218304649679,2.2232042451113547,-0.42031740280317287,-0.3762570155783235,-0.04125990506857448,1.8474744935332046,-0.40103153458870927,0
83,2024-09-20 20:19:07.717025146,0,013,0.10070671452309304,-0.10437265542756378,2.2488458113018077,-0.4415783348808444,-0.3030758407024044,-0.03668422468607871,1.4630778299459477,-0.37329125132442414,0
84,2024-09-20 20:19:07.792807129,0,013,0.12021736401912482,-0.10890639756424206,2.263892968794498,-0.46001595520510635,-0.23210835282786954,-0.03203358791433666,1.1066256163478185,-0.33130792860317376,0
85,2024-09-20 20:19:07.860503905,0,013,0.13422083685123773,-0.11193415937761633,2.266794559306191,-0.47529799739540685,-0.1664785339280021,-0.027324567619886348,0.791618310484598,-0.2761489758143443,0
86,2024-09-20 20:19:08.799331787,0,013,0.14311103108501202,-0.11361986370596916,2.257365701897478,-0.4874515025082514,-0.10902407375989892,-0.02256958486544702,0.530887397481863,-0.20950624839517493,0
87,2024-09-20 20:19:08.861408936,0,013,0.14755306369551446,-0.1141731095404736,2.236406122326923,-0.4967419541472423,-0.0619278648715214,-0.017823621480463084,0.33631519236174817,-0.13393154657292206,0
88,2024-09-20 20:19:08.938654785,0,013,0.14846308433055377,-0.11384182543204663,2.20533418269463,-0.5035228396494023,-0.026424474469641912,-0.013231858855946237,0.21844998835056623,-0.05298608379599832,0
89,2024-09-20 20:19:09.000646973,0,013,0.14694874983751344,-0.11290159512614015,2.1658706078341234,-0.5081083542369921,-0.0026561877656580126,-0.009061618128476253,0.18600044438379837,0.028810307832421538,0
90,2024-09-20 20:19:09.075128174,0,013,0.14421253395978872,-0.11164135295768209,2.1197699911999646,-0.5107034811708779,0.01030387282009533,-0.005710217981297778,0.2453840740281637,0.10618758685733214,0
91,2024-09-20 20:19:09.140343994,0,013,0.14143384665262668,-0.11034526035526039,2.06858060030234,-0.5113883314255341,0.014303654572835904,-0.0036846105003624967,0.40040439160505303,0.1734145745352835,0
92,2024-09-20 20:19:09.202336182,0,013,0.13965457268605527,-0.10927327074123047,2.0134210228882856,-0.5101335206888199,0.011888677194206552,-0.0035505542740720563,0.6518864575806605,0.22470705501537058,0
93,2024-09-20 20:19:10.139431885,0,013,0.1396936879635736,-0.10864434230171885,1.9548010988546154,-0.5068300920705153,0.00601029078088193,-0.005853031793690394,0.9971212424255653,0.2548179307831036,0
94,2024-09-20 20:19:10.218531982,0,013,0.14211163888731446,-0.10862548805362683,1.8925248761057687,-0.5013261181338369,-0.0003391437595613043,-0.011023401411652853,1.429209799769381,0.25974700003081364,0
95,2024-09-20 20:19:10.289720947,0,013,0.14722357640687936,-0.10932776330434232,1.8256870778442245,-0.49346114619181075,-0.0045236405386657975,-0.019301350331877014,1.936529606714737,0.2374016110153913,0
96,2024-09-20 20:19:10.343175049,0,013,0.15512968544193395,-0.11080692586803066,1.7527734246951931,-0.48309562055633065,-0.004615323602498115,-0.030691097278159735,2.502547501336508,0.18802792781814998,0
97,2024-09-20 20:19:10.420845947,0,013,0.16573360030336678,-0.11306580771420624,1.6718903754047136,-0.47014423276986234,0.0003722302367952693,-0.04495061692386043,3.1061511728447666,0.1143019986408937,0
98,2024-09-20 20:19:10.482844971,0,013,0.17875808894165393,-0.11605855849558681,1.5811141905562027,-0.45461652531253705,0.0104092148968359,-0.06160671036498328,3.72248323794224,0.021101422486517328,0
99,2024-09-20 20:19:10.560625977,0,013,0.19378266995351023,-0.11969765948784784,1.4788772716632754,-0.4366485059385742,0.02452953705943232,-0.0799939551424845,4.324040109642289,-0.0849164901928261,0
100,2024-09-20 20:19:11.500243896,0,013,0.21030143382947755,-0.12386170179648413,1.3642583916407955,-0.4164994458650217,0.04103236902229443,-0.09931027047852835,4.881807765809198,-0.19581743549925118,0
101,2024-09-20 20:19:11.561800049,0,013,0.22777555024976348,-0.12840075212507468,1.2370521832244477,-0.39449786422915073,0.05777609173827231,-0.11867772977713155,5.366474255135268,-0.3029758930784135,0
102,2024-09-20 20:19:11.640997803,0,013,0.2456626387128832,-0.133138423305562,1.0976149825633457,-0.37095030632610493,0.07254011878837766,-0.13721043394826551,5.749980760556902,-0.3978241874552762,0
103,2024-09-20 20:19:11.698971924,0,013,0.26342659944124297,-0.13787278980336537,0.9466628676227933,-0.34605906328507335,0.08340382871243272,-0.15409726376792712,6.007522644746498,-0.47274843622923873,0
104,2024-09-20 20:19:11.776460938,0,013,0.2805398463137301,-0.14237906113979557,0.7852060524328771,-0.31988876242511527,0.08906556941908336,-0.16869139577407172,6.119716416064799,-0.5219336157689701,0
105,2024-09-20 20:19:11.837997803,0,013,0.29647974020900675,-0.1464148218660196,0.6145787617455979,-0.29237276673086693,0.08903366542993504,-0.18058506275201983,6.074475169090775,-0.5419264288182811,0
106,2024-09-20 20:19:11.911917969,0,013,0.31070790606940757,-0.14972597698800275,0.43636713479667744,-0.26332078384496893,0.08365270992490055,-0.1896507236387971,5.868265545404297,-0.5318089728965881,0
107,2024-09-20 20:19:12.830589111,0,013,0.32262800314729956,-0.1520516453058045,0.2521662085786528,-0.2324151190052421,0.07396918336854479,-0.1960374097564001,5.506547517562836,-0.4929830796014914,0
108,2024-09-20 20:19:12.888659912,0,013,0.33154502040565786,-0.15313023741458998,0.06331665003726021,-0.19922136175804006,0.06148872749608612,-0.2001188781000529,5.003300434724313,-0.42864093467413733,0
109,2024-09-20 20:19:12.966104980,0,013,0.3366626127485893,-0.15271204149657625,-0.12918055924150187,-0.16324179943538256,0.04790740127281545,-0.20240283648129906,4.379785587190691,-0.3431176241546489,0
110,2024-09-20 20:19:13.027468018,0,013,0.3371355211739042,-0.1505795426908056,-0.32450602120204747,-0.12401205682371186,0.03487741369960289,-0.20342276857708966,3.662913880537446,-0.24136335616001883,0
111,2024-09-20 20:19:13.101582031,0,013,0.33216398696301463,-0.14656788261610004,-0.5216981396995969,-0.08121436397568148,0.023815654744800206,-0.20363599224238227,2.883502614564226,-0.12860360713594604,0
112,2024-09-20 20:19:13.169331055,0,013,0.3210997193353324,-0.14057513918251424,-0.7192806647440256,-0.034773675412736904,0.015753313754672624,-0.2033464280153452,2.0744641712055096,-0.010049684372039559,0
113,2024-09-20 20:19:13.237085938,0,013,0.3035379992835135,-0.13256102558027882,-0.9149351676103314,0.015082491518799073,0.011252555712515391,-0.20266391084624358,1.2688996804225325,0.10945009645147477,0
114,2024-09-20 20:19:14.180662109,0,013,0.2793854809860613,-0.1225418137259724,-1.1052957437194537,0.06779820488453976,0.010402820022419523,-0.20150092362906177,0.49815018540265166,0.2257321206935795,0
115,2024-09-20 20:19:14.248428223,0,013,0.24889235457680325,-0.11058571620913216,-1.2859461292158134,0.12248989729822067,0.012866242049507282,-0.1995951500065955,-0.21007314281587852,0.3354571247108852,0
116,2024-09-20 20:19:14.316194092,0,013,0.21263474164009608,-0.09680551195068826,-1.4517040611937606,0.1779816906585199,0.017936457712352957,-0.1965432507893585,-0.8332231593856335,0.43603298676713864,0
117,2024-09-20 20:19:14.378681885,0,013,0.17145388984554763,-0.08134738165799288,-1.5972114591391315,0.2328898652443471,0.024601131840547096,-0.19183903925664142,-1.3547782156621895,0.5254147002635975,0
118,2024-09-20 20:19:14.440270996,0,013,0.12637948657319287,-0.06438004078961387,-1.7176658695337512,0.2857435841194109,0.03162153237769781,-0.18491733912074393,-1.764384585802182,0.6019290903484033,0
119,2024-09-20 20:19:14.519402100,0,013,0.07856017509963678,-0.046087068263830834,-1.8093979718808584,0.33509661705588084,0.03764824501010628,-0.17520544591664683,-2.0575991528359077,0.6642579270188366,0
120,2024-09-20 20:19:14.587153809,0,013,0.029206110467749583,-0.02666198274969657,-1.8701133278763613,0.37959529117266516,0.04137047418909866,-0.16218024342936058,-2.2354906110301913,0.7116102467746727,0
121,2024-09-20 20:19:15.524275146,0,013,-0.020465991304020877,-0.006304726224243986,-1.8988294869562716,0.4180056608277917,0.041662519729657746,-0.14542807246056347,-2.3041404745488663,0.743981032086572,0
122,2024-09-20 20:19:15.590296875,0,013,-0.06929159508965324,0.014780928798363048,-1.8956119594947476,0.44921856826537865,0.03768080288362018,-0.12470360598701118,-2.274099350583547,0.7623657700400257,0
123,2024-09-20 20:19:15.663879883,0,013,-0.11621016013931475,0.03638767461847581,-1.861187545668211,0.4722429407765702,0.02889113744301615,-0.09997734244034026,-2.1598599623322077,0.7688737406756669,0
124,2024-09-20 20:19:15.725992920,0,013,-0.1602962529127749,0.05830034421071107,-1.79653037896725,0.4861979409651085,0.015037107050914234,-0.07145712004794573,-1.9792586313057725,0.7667135850236241,0
125,2024-09-20 20:19:15.801803223,0,013,-0.20077301525005886,0.08028675118135505,-1.7025545974838279,0.49032652111102165,-0.003931078360430707,-0.039578040557958744,-1.7526363194505887,0.7599877483737822,0
126,2024-09-20 20:19:15.864983887,0,013,-0.2370227378022668,0.1020870977545732,-1.5800027602803932,0.48404631512130813,-0.02793331883850967,-0.00497253879244132,-1.501625168286799,0.7532444953815357,0
127,2024-09-20 20:19:15.926488037,0,013,-0.2686050261567221,0.12340736232242984,-1.42950551215608,0.46702587978261745,-0.05679009883030328,0.03156045613707189,-1.2475465308448188,0.7508460263300003,0
128,2024-09-20 20:19:16.851115967,0,013,-0.29527813371260025,0.14392047067305633,-1.2517587571984912,0.4392632451707881,-0.09019262491582503,0.06908028939781592,-1.0096009873888274,0.7563126254238001,0
129,2024-09-20 20:19:16.914889160,0,013,-0.31700194283542665,0.16327448515841464,-1.0478431135199913,0.401163137865459,-0.127662894459983,0.10653079552085763,-0.8030961947885408,0.7717804873700653,0
130,2024-09-20 20:19:16.976259033,0,013,-0.3339018334091064,0.18110378305082084,-0.8197329255961321,0.35362357286491625,-0.1685563668083419,0.14277591503537287,-0.6379334743041323,0.7976327251258221,0
131,2024-09-20 20:19:17.053451904,0,013,-0.34619944987718715,0.19704051353118032,-0.5709205027470766,0.2981188546858067,-0.21211197199625997,0.17664583258189043,-0.5176802862012624,0.8323430222838516,0
132,2024-09-20 20:19:17.117792969,0,013,-0.3541418691195986,0.21072720463839573,-0.30691068385427567,0.23672523750084176,-0.25752321697123115,0.20699343071208468,-0.4395516242657759,0.8725583874257237,0
133,2024-09-20 20:19:17.193953125,0,013,-0.35795667698723066,0.22183230305918905,-0.03531610645588404,0.17203656113749186,-0.30399956884062307,0.23276290060822272,-0.3953105003116641,0.9133994879364208,0
134,2024-09-20 20:19:17.262325928,0,013,-0.35783900480018005,0.2300676713230413,0.23453092575891077,0.10697029502146055,-0.3507935057945795,0.2530678240012347,-0.3728124505090726,0.9489401075503481,0
135,2024-09-20 20:19:18.202773926,0,013,-0.3539649995361473,0.23520520830773056,0.4923415886601104,0.04450960024882297,-0.3971913646979237,0.26726739159916024,-0.3578878055009423,0.9728303299643694,0
136,2024-09-20 20:19:18.272644043,0,013,-0.3465240256176241,0.23709176231727255,0.7278339670821048,-0.012563135661084045,-0.4424931695792435,0.27502679553150217,-0.33628721041834214,0.9789772602072613,0
137,2024-09-20 20:19:18.340370850,0,013,-0.33576001066929617,0.23566377114410333,0.9316908030491492,-0.06188371276281314,-0.4860090529771349,0.27635299738244606,-0.29537887209713315,0.962135739810652,0
138,2024-09-20 20:19:18.408116211,0,013,-0.3220148508920348,0.23096208931186946,1.096327559909279,-0.10163275953917489,-0.5270866456684303,0.2716067661283464,-0.22538933477837567,0.9183280380467849,0
139,2024-09-20 20:19:18.465701172,0,013,-0.3057659032563062,0.22314432116471203,1.216406189336233,-0.13058181334904542,-0.5651709958949346,0.2614967697921766,-0.12027071704619492,0.8451818824403221,0
140,2024-09-20 20:19:18.528187012,0,013,-0.2876368106244255,0.2124890805488195,1.2890902209934265,-0.14810229272529618,-0.599865800433825,0.24704999116380125,0.02170279992928924,0.7422882259113257,0
141,2024-09-20 20:19:18.611361084,0,013,-0.2683617287195828,0.19938734498473668,1.314003696908504,-0.15415573818985767,-0.6309252206526745,0.22953670598590598,0.1978501746856532,0.6114647195661531,0
142,2024-09-20 20:19:19.539614990,0,013,-0.2487138130452517,0.18432193664140376,1.2928905526012133,-0.14924978367456057,-0.6581275981085275,0.21033643731405063,0.40177666688015834,0.45670789884399926,0
143,2024-09-20 20:19:19.622792969,0,013,-0.2294326059228226,0.16784133378700636,1.2290825887542318,-0.13435035309555654,-0.6810684895600924,0.19076519627648925,0.6246262631259281,0.2838060031483877,0
144,2024-09-20 20:19:19.675988037,0,013,-0.21117165709224414,0.1505325366907135,1.1269441592080645,-0.11076438393806232,-0.6989675761609254,0.17191023915114287,0.8563581463188042,0.09978568930384697,0
145,2024-09-20 20:19:19.753204102,0,013,-0.19446205943667633,0.13299268592263483,0.9914052278816635,-0.08000784362472257,-0.7105667408310758,0.15451290108799687,1.0866652673336032,-0.0876382195383028,0
146,2024-09-20 20:19:19.815231934,0,013,-0.17968159731762717,0.11579794887035465,0.827600783511602,-0.04366581874169771,-0.7141553833893722,0.1389160606089504,1.3054958842498188,-0.27055041289939674,0
147,2024-09-20 20:19:19.892359131,0,013,-0.16703145638821115,0.0994724867685051,0.640639332468097,-0.003269804845333315,-0.7077244290201612,0.12507132411230598,1.5034090459814085,-0.4412746173773635,0
148,2024-09-20 20:19:19.954387939,0,013,-0.1565300913110772,0.08446297496305036,0.43557416654539544,0.03976580362452591,-0.6892090562700227,0.11258920830450045,1.671962979396917,-0.5927767476906293,0
149,2024-09-20 20:19:20.900490967,0,013,-0.14802620421684268,0.071120397894621,0.21757277012594134,0.08413399311608621,-0.6567527631575458,0.10081623167020094,1.8041005858418653,-0.7190109117692278,0
150,2024-09-20 20:19:20.972835938,0,013,-0.14122546764503757,0.059687306931263874,-0.00788395595588885,0.12858612757574134,-0.6089453491877551,0.0889304430217102,1.894448024676959,-0.8152006419287701,0
151,2024-09-20 20:19:21.025060059,0,013,-0.13572624994237084,0.05029025661892237,-0.23496456742843588,0.1718925005051913,-0.5450313249014646,0.07605043384345553,1.9395243744373447,-0.8780885060946729,0
152,2024-09-20 20:19:21.108312988,0,013,-0.13105712454946924,0.04293870357043971,-0.45766009544587305,0.2128376342890893,-0.46509917174275506,0.06135269613039973,1.9378352661991083,-0.9061710399165784,0
153,2024-09-20 20:19:21.166682861,0,013,-0.12670566138570072,0.037530476368906225,-0.6700972197171926,0.2502484601071622,-0.37023781228692765,0.04419138167499846,1.8898659919527963,-0.8998744717212385,0
154,2024-09-20 20:19:21.241698975,0,013,-0.12213323937363986,0.03386259144743969,-0.8669042880413653,0.2830449999811605,-0.26262902737434735,0.024210942198153364,1.7981429947846397,-0.8616158303612795,0
155,2024-09-20 20:19:21.302820068,0,013,-0.11678127967345661,0.03164653307378635,-1.043550606024433,0.3103042480455161,-0.1455498250490766,0.0014359654854026141,1.66742503681927,-0.7957287425612432,0
156,2024-09-20 20:19:22.255114990,0,013,-0.11008705987097507,0.030529711653987796,-1.1965926358141257,0.3313250272195669,-0.023261517317037517,-0.023683289785715878,1.5047692730337512,-0.7082384211736344,0
157,2024-09-20 20:19:22.322983887,0,013,-0.10153532320434865,0.03012708366176567,-1.323807943288121,0.345678399438028,0.09922750918265137,-0.05028600713375588,1.3192081668835123,-0.6064664443894259,0
158,2024-09-20 20:19:22.388881836,0,013,-0.09075488431483361,0.030063530229335392,-1.4242422621345516,0.35323170674054677,0.21650032326419155,-0.07717271921913638,1.1210196240201715,-0.49846577307445605,0
159,2024-09-20 20:19:22.450464111,0,013,-0.07762993576951985,0.030019565508667384,-1.4981633072316163,0.35413744206112313,0.32311880517102115,-0.10291506766261983,0.9206716599795332,-0.3923173228971863,0
160,2024-09-20 20:19:22.526177002,0,013,-0.062374676602209876,0.029768478442701665,-1.5468622448329636,0.3487825053379994,0.41402148608299,-0.12598635358487942,0.7276377011178132,-0.29539068751829184,0
161,2024-09-20 20:19:22.593983887,0,013,-0.04553484785834601,0.029195390565758938,-1.5723160594318457,0.33771556110469997,0.48491040672703994,-0.14489960439619484,0.5495375469477478,-0.213744859493398,0
162,2024-09-20 20:19:22.656740967,0,013,-0.027908575016683854,0.02829457369111806,-1.5768533935242757,0.32159243754424965,0.5325897372858663,-0.1583369032501185,0.39192612354459544,-0.15179118092838273,0
163,2024-09-20 20:19:23.573093018,0,013,-0.01041204195213273,0.027149135786194514,-1.5629326907373762,0.3011612101738847,0.5552037610279015,-0.1652540903195839,0.25841645338893954,-0.11217468182803797,0
164,2024-09-20 20:19:23.640832031,0,013,0.006056747201560066,0.025903952289870632,-1.53298095317936,0.2772660721337103,0.5523405521964785,-0.16495252223587722,0.15054249906139425,-0.09573378828254817,0
165,2024-09-20 20:19:23.703319092,0,013,0.02071296623811119,0.024741583892829253,-1.4891951352035497,0.2508368672632983,0.5249930789505048,-0.15711429274890765,0.06729923919380021,-0.10149529359368319,0
166,2024-09-20 20:19:23.780108887,0,013,0.032939923192803006,0.023862374585826844,-1.4333250143888911,0.2228569218722269,0.475392075584906,-0.14179892649232087,0.004907391248958094,-0.12681820372553887,0
167,2024-09-20 20:19:23.842595947,0,013,0.04233191541130676,0.023463988622775125,-1.3665576965514308,0.19432534355930342,0.40676633311441107,-0.11940886662744984,-0.042743899321877644,-0.16776561576294177,0
168,2024-09-20 20:19:23.905347168,0,013,0.048738644654540524,0.023717562850405778,-1.2895762006225127,0.1662229471767087,0.3231017578011523,-0.09064062315271476,-0.08308204896352478,-0.21961309156368433,0
169,2024-09-20 20:19:23.983454102,0,013,0.05230065036748431,0.024742619283739234,-1.2027393928390837,0.13947221198014456,0.22892159314430052,-0.05643375441852465,-0.1236561745400135,-0.2773623620771805,0
170,2024-09-20 20:19:24.929784180,0,013,0.05345677343292578,0.026586150566348173,-1.1062933111163422,0.11488604801385488,0.12906746381017967,-0.017921469436544834,-0.17101270683283012,-0.3362086591055596,0
171,2024-09-20 20:19:24.997566895,0,013,0.05290431265417761,0.029212444434113794,-1.0005829734886875,0.0931186150537595,0.0284744664948528,0.02361297684457561,-0.22975882319323576,-0.39193894337590596,0
172,2024-09-20 20:19:25.054387939,0,013,0.051501116737250115,0.03250800566669965,-0.8862490126427577,0.07463078788459816,-0.06804932002068964,0.06677090351723008,-0.30198044991633555,-0.44123164621312977,0
173,2024-09-20 20:19:25.133072998,0,013,0.05012549242534654,0.03630033282311964,-0.7643611925181973,0.059670096785837075,-0.1560413546739054,0.11006965089548255,-0.3871731156958675,-0.4818358764902662,0
174,2024-09-20 20:19:25.193665039,0,013,0.049530844663823806,0.04038508832888237,-0.6364834622360568,0.04826655088024839,-0.23161644439891113,0.1519839537841771,-0.4827148980871614,-0.5125941949187944,0
175,2024-09-20 20:19:25.255290039,0,013,0.050222040783778336,0.04455591535463248,-0.504735071593492,0.04025473024134398,-0.29171301823407236,0.19100829949320003,-0.5847911404308873,-0.5332657183478738,0
176,2024-09-20 20:19:25.332941895,0,013,0.05235921504282158,0.048631972259426545,-0.3718715502645583,0.03532864862107106,-0.3343173919641727,0.22574023165474186,-0.6895489942351799,-0.5441846014372272,0
177,2024-09-20 20:19:26.280378174,0,013,0.05569596286931034,0.05247833350991258,-0.24132932471281554,0.03312288759886106,-0.3586001501412956,0.2549706926651625,-0.7940992468464789,-0.5459101401280275,0
178,2024-09-20 20:19:26.345979004,0,013,0.05958030170368871,0.05601435057286102,-0.11717928003294203,0.03330289337539609,-0.36492047331413036,0.2777635957326882,-0.8969956221943038,-0.5390383617844039,0
179,2024-09-20 20:19:26.407979004,0,013,0.0630445741408704,0.059207044120425316,-0.0039681729554118346,0.035640463046342906,-0.3547178146150366,0.2935139123113841,-0.9980958925418433,-0.5242163549981274,0
180,2024-09-20 20:19:26.472225830,0,013,0.06496306066051716,0.062053273923156314,0.09352427412207838,0.040054662008043536,-0.3303468091625781,0.30197947468661485,-1.0979981519182618,-0.5022597923161917,0
181,2024-09-20 20:19:26.548711914,0,013,0.06421828781068384,0.06456112514853404,0.17051889672890666,0.04661490811963957,-0.2948983969358762,0.30328899951856675,-1.197384346097156,-0.4742249006758726,0
182,2024-09-20 20:19:26.619204102,0,013,0.059835315240624146,0.06673875431530538,0.2224215778425113,0.05551261771601884,-0.2520203494850598,0.29793840094438123,-1.2965922626143584,-0.4413304029460146,0
183,2024-09-20 20:19:26.686979004,0,013,0.05107649112878629,0.06859045545999927,0.24506711251306354,0.06700523921125419,-0.20570749723296552,0.2867788423914198,-1.3955029395200185,-0.4047306095805251,0
184,2024-09-20 20:19:27.605112061,0,013,0.037498308623438545,0.0701155065798024,0.2351476483414415,0.08133244499112786,-0.1600067741968388,0.27097789803236805,-1.4935659093678446,-0.36525155913298624,0
185,2024-09-20 20:19:27.669692871,0,013,0.01897832241119605,0.07130739979401388,0.1908148505883845,0.09860517116001444,-0.11864212410316495,0.2519360229373591,-1.5898483602322027,-0.32323630769278133,0
186,2024-09-20 20:19:27.741519043,0,013,-0.004270532855580444,0.07215410698849525,0.11230544402778272,0.1186828960725254,-0.08466422000487207,0.23116910928107443,-1.6831705860828532,-0.27857294571293406,0
187,2024-09-20 20:19:27.793729980,0,013,-0.0316909962797654,0.07264136066822353,0.0023797143334230017,0.14107653274720236,-0.060235635872630214,0.21018705027181533,-1.7722624579841446,-0.23087331696706742,0
188,2024-09-20 20:19:27.871347900,0,013,-0.062392075198346296,0.07275994230592107,-0.133594322887489,0.16491676225074853,-0.04656043454785574,0.1903862380909644,-1.8556898306116887,-0.17972860178565686,0
189,2024-09-20 20:19:27.933783936,0,013,-0.09519836325741367,0.07251534632629474,-0.2879675660487246,0.18900529066128519,-0.043896951616649624,0.17295630732974687,-1.9314700056933445,-0.12498932638147806,0
190,2024-09-20 20:19:28.010566895,0,013,-0.12873998996080174,0.07193628558491715,-0.45151236140987244,0.21193978097317323,-0.05162696955804055,0.15880652215035346,-1.9965630340850684,-0.0670400812028647,0
191,2024-09-20 20:19:28.954253906,0,013,-0.16156063028745413,0.0710775177222646,-0.6144019763236127,0.23228354862341014,-0.0683969427451779,0.14852785067198804,-2.046367592276758,-0.007056705340573755,0
192,2024-09-20 20:19:29.015142822,0,013,-0.192214742047579,0.07001316548354586,-0.7672584136556564,0.24874039358671604,-0.09232220840097635,0.14239740713295068,-2.0742123996726933,0.052754369485376276,0
193,2024-09-20 20:19:29.089218994,0,013,-0.2193474739283751,0.06882209998787765,-0.9019818841558103,0.2602998953948068,-0.12121427522645696,0.14041454111899987,-2.0710468784541822,0.10898478663591961,0
194,2024-09-20 20:19:29.152975098,0,013,-0.24177122893901543,0.06757300566596777,-1.012213783722051,0.2663361225455519,-0.15280151124448405,0.14235137321225055,-2.025801012908653,0.15705209448723437,0
195,2024-09-20 20:19:29.226537109,0,013,-0.258544851048202,0.06631587792879133,-1.0935488273582463,0.2666577018146613,-0.18492580654344393,0.14780292908437614,-1.9266597967448973,0.19152730422035508,0
196,2024-09-20 20:19:29.291660156,0,013,-0.2690434365538145,0.06508086278013027,-1.1437139753819292,0.26151813815105734,-0.2156902433704779,0.15622787587720566,-1.763003765775434,0.2067184256358017,0
197,2024-09-20 20:19:29.353657959,0,013,-0.27300017194045506,0.06388105817278426,-1.1628192112992808,0.25160585479175546,-0.2435324030698932,0.16697829548705928,-1.5275089079820388,0.19736983879869,0
198,2024-09-20 20:19:30.305552002,0,013,-0.27050766922637476,0.06271534594420056,-1.1536046213367117,0.2380242864315737,-0.26722140488027474,0.1793217644081694,-1.2178668160676989,0.159343957379396,0
199,2024-09-20 20:19:30.364100830,0,013,-0.2619871713130457,0.061570077958573624,-1.1214678578332806,0.2222363739227967,-0.2858083400043996,0.19245904626971375,-0.8377233297569648,0.09018762772018205,0
200,2024-09-20 20:19:30.425755127,0,013,-0.24815164875402282,0.06042171377681938,-1.074054702806636,0.20593432016437477,-0.2985713761543039,0.20554064596409982,-0.3967896968808274,-0.010485307481636117,0
201,2024-09-20 20:19:30.502973145,0,013,-0.22997255153973262,0.05924200061816893,-1.0203879584336673,0.1908421896579985,-0.3049783402920904,0.21769028082207853,0.08962471155066061,-0.14082162954492816,0
202,2024-09-20 20:19:30.565353027,0,013,-0.20862815536564458,0.058003537003758016,-0.9697315815339752,0.178509399156359,-0.30466381047158386,0.22804316954035336,0.6014011500298595,-0.29672537513682,0
203,2024-09-20 20:19:30.636604980,0,013,-0.18541297703138118,0.05668248340862611,-0.930429525895165,0.17014231517213446,-0.2974166233471,0.23579362111552146,1.1145843682631205,-0.471949335881601,0
204,2024-09-20 20:19:30.698237061,0,013,-0.1616227988333187,0.055259124439211306,-0.9088778084178981,0.16648025288220072,-0.2831920374403443,0.24023812474900835,1.6024676144469205,-0.6582796513733884,0
205,2024-09-20 20:19:31.648402832,0,013,-0.13845225503675568,0.05372008082423152,-0.908721887884644,0.16770278267576613,-0.26215426037096207,0.24080834942057475,2.03677185879665,-0.845910447479986,0
206,2024-09-20 20:19:31.719165039,0,013,-0.11693277868491195,0.052063491648193176,-0.9303387600843908,0.17336083668699667,-0.23471545060242868,0.23709489877279563,2.3890777084646846,-1.0240931312091024,0
207,2024-09-20 20:19:31.788218018,0,013,-0.09791847384226128,0.050304609703016576,-0.9706924716646796,0.182351395650104,-0.20153358115492773,0.22886270891033786,2.6328018040868604,-1.18205094321076,0
208,2024-09-20 20:19:31.859406006,0,013,-0.08210505448406025,0.04847872308186105,-1.0236936326900663,0.1929804171548587,-0.16347530380133174,0.21606348718686183,2.7457259176928432,-1.3100671276038425,0
209,2024-09-20 20:19:31.912379883,0,013,-0.0700472388366263,0.04663975317011008,-1.0810758024768545,0.20313482044611544,-0.12156966746126056,0.19885043897173676,2.7125353459000365,-1.4005622985439812,0
210,2024-09-20 20:19:31.994971924,0,013,-0.06214560537209846,0.04485454523736227,-1.133579428193964,0.21053081762007758,-0.07695810368460244,0.17758903279563032,2.5266242412995337,-1.4488851224242765,0
211,2024-09-20 20:19:32.052240967,0,013,-0.05860242565466255,0.04319500107207531,-1.172182347843087,0.21298936205382485,-0.03083225344776546,0.15284958171991747,2.1907972233218156,-1.453601212734636,0
212,2024-09-20 20:19:33.002538818,0,013,-0.05936862092693271,0.041731365699440165,-1.1892629900542595,0.20871254170162368,0.015641399232216868,0.12537411942569898,1.7170360572235672,-1.4163128530977906,0
213,2024-09-20 20:19:33.064584961,0,013,-0.06410947412743594,0.040527966511491445,-1.179673596383927,0.1965448795106768,0.061397480911893725,0.096026610797335,1.1256773423836781,-1.3412291942767427,0
214,2024-09-20 20:19:33.141333984,0,013,-0.07220782669111298,0.03963922101233124,-1.1416071589679888,0.1761824154209092,0.10553133885009261,0.06574537057526922,0.4440433000553999,-1.2346366732296188,0
215,2024-09-20 20:19:33.209064941,0,013,-0.08280918280737429,0.03910398956192465,-1.077010715322249,0.14826964660114364,0.1473407645310488,0.03550790156903139,-0.29567289858988455,-1.104276524283985,0
216,2024-09-20 20:19:33.276837158,0,013,-0.09490377793626499,0.03894031135193678,-0.9913390392598611,0.11433872765563488,0.18636545184868367,0.006300681404138425,-1.0591453312459458,-0.9586506791213625,0
217,2024-09-20 20:19:33.342969971,0,013,-0.10743293513632972,0.03914400930836232,-0.8926741159194052,0.07660402761339001,0.22242575994230843,-0.020920920342502446,-1.8126944091026709,-0.8063465399765666,0
218,2024-09-20 20:19:33.404995850,0,013,-0.11940194207117116,0.039692890724910154,-0.790453745365177,0.03767751936807392,0.2556249909473756,-0.0452842197214056,-2.5255737930286326,-0.655448066371938,0
219,2024-09-20 20:19:34.330193115,0,013,-0.12998535223800722,0.04055693165690229,-0.6941091111719763,0.00027024527784938804,0.2862677135545166,-0.06604297446189786,-3.171607589295908,-0.5130568794531748,0
220,2024-09-20 20:19:34.398009033,0,013,-0.13861039489597543,0.04171237252483867,-0.6118858440133162,-0.033078169002259364,0.3146837990773738,-0.08259283846238649,-3.730194450428528,-0.3849471042100519,0
221,2024-09-20 20:19:34.465771973,0,013,-0.14499676847887652,0.04315395010840074,-0.5500864018734795,-0.060208192037040566,0.34099952484889856,-0.09446124376290835,-4.186707569608587,-0.27536563198476016,0
222,2024-09-20 20:19:34.533472900,0,013,-0.14914144694148393,0.04490032363236525,-0.5128432328172758,-0.07946418105260876,0.3649241886670328,-0.10129555283983936,-4.532399892162624,-0.18696914744699505,0
223,2024-09-20 20:19:34.601252197,0,013,-0.1512689466706374,0.046993651844226665,-0.5023180529620122,-0.08973750100801639,0.38562112919571345,-0.10286836421192264,-4.7638853676442094,-0.12091843933481068,0
224,2024-09-20 20:19:34.663472900,0,013,-0.15178322069781103,0.049497688230644155,-0.51908408681555,-0.09045703173055555,0.401708421682071,-0.09909457641289239,-4.882129375539425,-0.07715464197553616,0
225,2024-09-20 20:19:34.725470947,0,013,-0.15123494409482743,0.052495840192627284,-0.5624752865731741,-0.0815558226970501,0.411390185761743,-0.09004240419795975,-4.891090716546764,-0.05476816600166696,0
226,2024-09-20 20:19:35.679101074,0,013,-0.15028983082832267,0.05608670911903608,-0.6308096651904054,-0.0634218661211632,0.4126898961339987,-0.07593169303346976,-4.796514897771306,-0.052271914530534265,0
227,2024-09-20 20:19:35.741099121,0,013,-0.14968509032387675,0.0603748655892225,-0.7214978193427536,-0.036826714738465764,0.4037540618986926,-0.05712395498818956,-4.605227942778557,-0.06767861994654424,0
228,2024-09-20 20:19:35.803528076,0,013,-0.15017598109565214,0.06545692705232439,-0.831103674693722,-0.0028359512136987694,0.3831763645784934,-0.03410556757912283,-4.324854812795045,-0.09844423383855719,0
229,2024-09-20 20:19:35.880279053,0,013,-0.15247508761172565,0.07140410874810778,-0.9554420504404671,0.03727810723144238,0.35025957728748125,-0.007463021596913496,-3.963852789975198,-0.14136321149341094,0
230,2024-09-20 20:19:35.942295898,0,013,-0.15718094215060072,0.0782430490676027,-1.089727681674995,0.08209673242493304,0.3051446274668196,0.022144719739509457,-3.5319108592060795,-0.19245601358551187,0
231,2024-09-20 20:19:36.006728027,0,013,-0.1646980379194069,0.08593865578985474,-1.2286983589964982,0.1300801918549018,0.2488066885782775,0.05400661144262149,-3.0405913848383137,-0.2469539007690479,0
232,2024-09-20 20:19:36.082300781,0,013,-0.17516277258651614,0.09438461621661765,-1.3666781918085933,0.17958524038992313,0.18297955413216918,0.08736468301654716,-2.5037957157201447,-0.2995506146242575,0
233,2024-09-20 20:19:37.028833008,0,013,-0.18839316808216722,0.10340563568577067,-1.497638254323782,0.2289113527001036,0.11005846019005062,0.12140327499526689,-1.9377180850101785,-0.3449443132332687,0
234,2024-09-20 20:19:37.097243164,0,013,-0.20387784015472207,0.11277178481867968,-1.6152891778450276,0.2763739428878271,0.03297583894610242,0.15523348948890653,-1.3602915320464846,-0.3784637255778249,0
235,2024-09-20 20:19:37.152579102,0,013,-0.22081894868074728,0.12222319715376041,-1.7132158318333939,0.3203744950579112,-0.04498422443878409,0.18789375497196278,-0.7902805657273861,-0.3965284569414287,0
236,2024-09-20 20:19:37.229847900,0,013,-0.2382286215287814,0.13150073139735882,-1.7851445970930737,0.3594598220024227,-0.1204460798945443,0.21837946298712868,-0.24611880718455165,-0.3968319227364195,0
237,2024-09-20 20:19:37.291519043,0,013,-0.2550497109957317,0.14037407042894504,-1.8254510598953606,0.39238390621362995,-0.19024463160219982,0.2456909853243618,0.2554107856863923,-0.3783167468025254,0
238,2024-09-20 20:19:37.354007080,0,013,-0.27026418938574354,0.14865870000605877,-1.8298537937800237,0.4181685938377462,-0.25170668424455683,0.26888012108384635,0.7004715917566431,-0.3411398549617382,0
239,2024-09-20 20:19:37.435964111,0,013,-0.282974649907217,0.15621974498424063,-1.7960777514085962,0.4361440257680234,-0.3028592908075133,0.2870930668806362,1.07918903746355,-0.28674792920590725,0
240,2024-09-20 20:19:38.368871826,0,013,-0.2924644482115555,0.1629673726157467,-1.724288006838339,0.4459614236735453,-0.3425360471788171,0.2996207011803011,1.3861244138033137,-0.21792846287528872,0
241,2024-09-20 20:19:38.447835938,0,013,-0.29824252216164887,0.16884918342778943,-1.6172153106092002,0.44758710448886696,-0.3703513863365536,0.3059507775300574,1.6201035946592552,-0.13862246870620054,0
242,2024-09-20 20:19:38.506470947,0,013,-0.30007399256419204,0.1738417014079793,-1.4799794694497888,0.4412913206443248,-0.38652583732247325,0.3057994020365992,1.7835423268704358,-0.053503733367136125,0
243,2024-09-20 20:19:38.568483154,0,013,-0.2979964550918673,0.17794090617270536,-1.3196625751478774,0.427637966442975,-0.391613884264046,0.29911012013728,1.8815322043179445,0.0324768628183878,0
244,2024-09-20 20:19:38.644231934,0,013,-0.29232045991918715,0.1811520301795713,-1.144733617329473,0.4074701768945905,-0.3862498455481439,0.28603489415134753,1.9209181445763082,0.11443183257819246,0
245,2024-09-20 20:19:38.706270996,0,013,-0.28361365582816045,0.18348053587980792,-0.9644467940523714,0.3818861814385654,-0.3710140028133706,0.2669246076980829,1.9094617976629953,0.18779642959957354,0
246,2024-09-20 20:19:38.786554199,0,013,-0.2726706644763111,0.1849274137106827,-0.7882933828668314,0.3522068252383896,-0.34645271961943475,0.2423463381824951,1.8550625751445025,0.2486323950641674,0
247,2024-09-20 20:19:39.691052979,0,013,-0.2604647288883758,0.18548974666544216,-0.6255059217126,0.3199351089190691,-0.3132116559282244,0.21311761557463202,1.7650699880702496,0.293992034463895,0
248,2024-09-20 20:19:39.768667969,0,013,-0.24806955840576264,0.18516296745144256,-0.4845119133070624,0.2866894503112407,-0.2721979338075361,0.18032710571268173,1.6458555615156398,0.3222179952083405,0
249,2024-09-20 20:19:39.839365967,0,013,-0.23654671487953297,0.18394020412697948,-0.37219063836366434,0.2540780153209483,-0.22470621168998817,0.14531642885959617,1.502775360017148,0.33305968056276447,0
250,2024-09-20 20:19:39.891958008,0,013,-0.22680772060307222,0.18180727375801256,-0.2929581439338645,0.22351546203154235,-0.1724819166970181,0.10961719413434234,1.3405266289035827,0.32756588857608954,0
251,2024-09-20 20:19:39.968733887,0,013,-0.2194699391662539,0.17873430566151585,-0.24800409577383695,0.19604800637362657,-0.11769891942894171,0.07484845175507868,1.1638142734723866,0.3077672241607043,0
252,2024-09-20 20:19:40.030761963,0,013,-0.21473637825146544,0.17466601248629185,-0.23507362539557453,0.17226437844791115,-0.06284046260555728,0.04258790145439463,0.9780956607676996,0.27622099258027977,0
253,2024-09-20 20:19:40.108434082,0,013,-0.2123339092917167,0.1695141450725199,-0.24891885029576638,0.15230872455801883,-0.01051076127277634,0.014241231812255445,0.7900446178207116,0.23555742621961182,0
254,2024-09-20 20:19:41.040795166,0,013,-0.21152874852054324,0.16315587455175268,-0.28221767602922637,0.13595127044112817,0.036776043623849376,-0.00906695838161889,0.6074821981938205,0.18816079229970123,0
255,2024-09-20 20:19:41.118902832,0,013,-0.21121801567821827,0.15544014134130993,-0.3266335649994383,0.1226708581342749,0.0767830214197159,-0.026567692991734396,0.43875017491442336,0.13602666931141727,0
256,2024-09-20 20:19:41.180489990,0,013,-0.21008714300752931,0.14620304078429108,-0.37378005359496,0.11173766320892793,0.1076761565133862,-0.03787955538806985,0.291715451085255,0.08074736667660282,0
257,2024-09-20 20:19:41.257270020,0,013,-0.2068101142982024,0.13529207684139005,-0.4160091001930865,0.1023044705608103,0.12809063328668607,-0.042996220665119385,0.17283442202313568,0.02355178851669957,0
258,2024-09-20 20:19:41.318864990,0,013,-0.20025018044289092,0.12259532567597295,-0.4470147554194812,0.09350829508292537,0.1371800019740232,-0.04223935795276386,0.0867046761325125,-0.03464972973274911,0
259,2024-09-20 20:19:41.392826172,0,013,-0.18961855722831605,0.10806975034249244,-0.4622102425016833,0.08456741984626699,0.13467704309202405,-0.03619281994404325,0.03608244546232742,-0.09321358417550082,0
260,2024-09-20 20:19:41.457762939,0,013,-0.1745708817342625,0.09176607704403321,-0.45880643231906265,0.0748454011014438,0.12095315412880563,-0.025636058888554823,0.022003247684748605,-0.15167659490914687,0
261,2024-09-20 20:19:42.404052979,0,013,-0.15523996584248007,0.07384894867351537,-0.43559317771476563,0.0638601208397132,0.09705699052349942,-0.011494415228810369,0.04385375341503444,-0.20965794588272485,0
262,2024-09-20 20:19:42.461958008,0,013,-0.13220763638427566,0.054607031956638095,-0.39256257908395453,0.05125281063792277,0.06473430886224868,0.005187125882914841,0.0995518883499284,-0.2668123343494256,0
263,2024-09-20 20:19:42.524445068,0,013,-0.10641723334584913,0.03444566156745496,-0.3305776936777827,0.03676498597768481,0.026417031377231556,0.023259678885331585,0.18591856056605405,-0.3228351819951553,0
264,2024-09-20 20:19:42.607286865,0,013,-0.07903320591074883,0.013859391439723614,-0.251203232532391,0.020255879479470964,-0.014866644997905435,0.04150172571023831,0.2990816873134162,-0.37746102221008593,0
265,2024-09-20 20:19:42.672236084,0,013,-0.0512710257075648,-0.006610796348793341,-0.15665305392318282,0.0017450456539608653,-0.055686684076231265,0.05868311685117972,0.43473364676290316,-0.4304443759698733,0
266,2024-09-20 20:19:42.734724121,0,013,-0.024239357403497995,-0.02642566206728521,-0.049734142224576214,-0.01855870924472376,-0.09246591749970895,0.07365105142205934,0.5882123709362252,-0.481577575301651,0
267,2024-09-20 20:19:42.795860107,0,013,0.0011616158740763627,-0.045089200707822144,0.06626458425647457,-0.04025889870729076,-0.12173377118202305,0.08541225630864852,0.7544302527062569,-0.5307836832274856,0
268,2024-09-20 20:19:43.752587158,0,013,0.02426814164359087,-0.06217506305288203,0.1876905065762432,-0.06278776364352869,-0.1403640328148154,0.093200202539522,0.9276742189934036,-0.5782517614963529,0
269,2024-09-20 20:19:43.815451904,0,013,0.04463337236484269,-0.07733969805476691,0.31058427270475275,-0.08541374006821159,-0.1457986688266875,0.0965276441223908,1.1013941491147459,-0.6245228863564527,0
270,2024-09-20 20:19:43.877483887,0,013,0.0620076720582959,-0.09033129746261823,0.4306638027740789,-0.1072313262774191,-0.13622523668402292,0.09521276789026857,1.2681873771815073,-0.6704424362281988,0
271,2024-09-20 20:19:43.957768066,0,013,0.07634288498560604,-0.10099959461504894,0.5432981995141419,-0.1271499449742499,-0.11066795432831052,0.08936344233750596,1.420086803800798,-0.7169712111426739,0
272,2024-09-20 20:19:44.025495117,0,013,0.08781146799791958,-0.10930331249648262,0.6435355458537113,-0.14391008010256978,-0.06899379063286487,0.07932503661875148,1.5490199542561065,-0.7649317236598517,0
273,2024-09-20 20:19:44.078785889,0,013,0.09682405548965617,-0.11531125662649964,0.7261783991507985,-0.15613741711136478,-0.011864603638783125,0.06561325838169141,1.6472428880597518,-0.8147938226051701,0
274,2024-09-20 20:19:44.161015137,0,013,0.10403709208681972,-0.11919767391773578,0.7859299170225491,-0.16243517788406914,0.059336261192899115,0.04884621326850425,1.7077305410447339,-0.866554707811534,0
275,2024-09-20 20:19:45.074805908,0,013,0.11034078555124861,-0.12123301464801983,0.8177405101842053,-0.16152602360346532,0.14258300268856305,0.0296784533370824,1.7245876730972964,-0.9196837995789982,0
276,2024-09-20 20:19:45.147733887,0,013,0.11681251611902466,-0.12176843293336458,0.8173998556778752,-0.1524353837269642,0.23528188009925236,0.008743015352745749,1.6934319829919628,-0.9730803386552836,0
277,2024-09-20 20:19:45.215482910,0,013,0.12462979807732572,-0.12121308685808284,0.782184156520858,-0.13465860961286333,0.3343461842217416,-0.013384863148464439,1.6116262586973007,-1.0250406459292785,0
278,2024-09-20 20:19:45.275640869,0,013,0.13495084315782502,-0.12000613115714286,0.7113137788389684,-0.10824691397726538,0.4362852365167333,-0.036195587874635414,1.4783629847921385,-1.0732659405865272,0
279,2024-09-20 20:19:45.337177979,0,013,0.14877456736956016,-0.11858558485376884,0.6061253218239527,-0.07379645774174948,0.5373218916665894,-0.05923301060285106,1.2948621058634706,-1.1149597275923169,0
280,2024-09-20 20:19:45.414665039,0,013,0.16679658883815013,-0.11735625189097182,0.4699770128685726,-0.032371575445479375,0.6335514571119076,-0.08207585547926592,1.0649384131046216,-1.1470652513434763,0
281,2024-09-20 20:19:45.475792969,0,013,0.18929304543285774,-0.11666131901109338,0.30792308961900183,0.014602938453090448,0.7211442522311928,-0.10432238028020395,0.7957288121298454,-1.1666106797418332,0
282,2024-09-20 20:19:46.429392090,0,013,0.2160687105498918,-0.11676299729601969,0.12621370672841056,0.06545933714970384,0.7965781895627551,-0.12558350153692793,0.4980031767623808,-1.17105567954507,0
283,2024-09-20 20:19:46.490952881,0,013,0.2464822295247867,-0.11783369072281454,-0.06825718817499447,0.11839138679160789,0.8568764473727993,-0.14548611280360274,0.18572612760215526,-1.1585816533752082,0
284,2024-09-20 20:19:46.552979004,0,013,0.27953349806915356,-0.11995591582576356,-0.26840511301841996,0.17152731910917735,0.8998173484760209,-0.1636852123097226,-0.12499286361959148,-1.1283147981203359,0
285,2024-09-20 20:19:46.633143799,0,013,0.31399646829511035,-0.1231304531840899,-0.4672554581400613,0.22298691747763053,0.9240789520345483,-0.17988105603974444,-0.41730045676199595,-1.0804361310395885,0
286,2024-09-20 20:19:46.700951904,0,013,0.3485834571466159,-0.12729250532446235,-0.6581815374370977,0.27096237844555937,0.9292819404219173,-0.19383438446847837,-0.6752095448012434,-1.0161407448033462,0
287,2024-09-20 20:19:46.761874023,0,013,0.3821027150946632,-0.13233129800823604,-0.8351845381275755,0.31383542391761554,0.9159196496945169,-0.20537206823591844,-0.885238489497887,-0.9374981630762693,0
288,2024-09-20 20:19:46.823448975,0,013,0.4135568198132152,-0.1381064307671355,-0.9932032381178243,0.35029741464487824,0.8852233209834335,-0.21438263458313997,-1.0377797748742923,-0.8473051589381607,0
289,2024-09-20 20:19:47.780258789,0,013,0.4421660805976922,-0.14445828830458127,-1.1283943094040392,0.3794338613061519,0.8390376677674655,-0.22080782547835348,-1.1279618533441447,-0.748950548388754,0
290,2024-09-20 20:19:47.843852051,0,013,0.46734477586255374,-0.15121364906287477,-1.2383795608545143,0.40076488646140207,0.7797249654869199,-0.22463287153419287,-1.1559084869804088,-0.6462396239675241,0
291,2024-09-20 20:19:47.915733887,0,013,0.4886629087860189,-0.15818808756724714,-1.3224244259366922,0.41424625304062174,0.7100612038547452,-0.22587461261359598,-1.1264168792586453,-0.5431417190178401,0
292,2024-09-20 20:19:47.982686035,0,013,0.505814432135626,-0.16518789006908302,-1.3814176289806672,0.4202255695221346,0.6331141273093837,-0.22457321695188553,-1.048229157577591,-0.4434706102128887,0
293,2024-09-20 20:19:48.051228027,0,013,0.5186056223535196,-0.17201602482110884,-1.4175816740554805,0.41935492851037104,0.552127586677235,-0.2208005289958126,-0.933127479983097,-0.35054840972016893,0
294,2024-09-20 20:19:48.112287109,0,013,0.5269652586973013,-0.17848429687360093,-1.434027399389917,0.4124895387207272,0.47040998293477443,-0.21469141205010842,-0.7949874608395692,-0.2669591351561214,0
295,2024-09-20 20:19:48.184878174,0,013,0.5309665348291565,-0.1844279570394483,-1.4343612392435512,0.4006153658555764,0.3911991726165197,-0.2064863931357548,-0.648847718639146,-0.19448895537678393,0
296,2024-09-20 20:19:49.121354004,0,013,0.5308494863967307,-0.18971658123204704,-1.4224612797932792,0.3848225902506948,0.3175164870942762,-0.19656578862215204,-0.509974617317756,-0.1342267744454642,0
297,2024-09-20 20:19:49.198477051,0,013,0.5270327200524623,-0.19425794283737594,-1.4023522050363355,0.3662983556248011,0.2520685916199111,-0.18546504915376905,-0.3927671676543277,-0.08670176849156772,0
298,2024-09-20 20:19:49.266221924,0,013,0.520101397016641,-0.19799494821338226,-1.3780341600577592,0.3463000947158849,0.19722016841905998,-0.17386765419666578,-0.3094260927929692,-0.051956425466257734,0
299,2024-09-20 20:19:49.321698975,0,013,0.5107627071855219,-0.20089643379634373,-1.3532059249406065,0.32609555553964975,0.1549817094525335,-0.16256711727690334,-0.2686743369411897,-0.02951690987737092,0
300,2024-09-20 20:19:49.398948975,0,013,0.4997702569933191,-0.20294354768327302,-1.3309429684868666,0.3068838413708402,0.12694831452143368,-0.15239494697549416,-0.2750104905229564,-0.018280412990121706,0
301,2024-09-20 20:19:49.460041992,0,013,0.48783428124209216,-0.20411682237621195,-1.3134616133621104,0.2897262589624203,0.11419982674020579,-0.1441320076988768,-0.3288110186390214,-0.01637634560349069,0
302,2024-09-20 20:19:49.522563965,0,013,0.47554753298393393,-0.20439047791483625,-1.3020562089726093,0.27550553280900786,0.1172231589199454,-0.13842664306347932,-0.42733670444591837,-0.02105342292118807,0
303,2024-09-20 20:19:50.450575195,0,013,0.4633491971652952,-0.2037362108435251,-1.297147576616973,0.26489706246263917,0.1358839639589903,-0.13572550240263062,-0.5663784732946863,-0.02867618109330483,0
304,2024-09-20 20:19:50.523530029,0,013,0.4515255178326926,-0.2021335970098294,-1.2983074499549998,0.2583220694235641,0.16942676537893084,-0.13621684539318388,-0.7419123989807794,-0.03496565493309045,0
305,2024-09-20 20:19:50.590711182,0,013,0.4402326633343199,-0.19958402413594023,-1.3042141606735154,0.25588598811882435,0.21647711714181903,-0.13979677604437687,-0.9510661036343375,-0.035510685676098996,0
306,2024-09-20 20:19:50.650395020,0,013,0.42953388689418137,-0.19612758414838377,-1.312599372909437,0.2573354064701498,0.27502636316362966,-0.14606354830937432,-1.1920387553517122,-0.026387970819516736,0
307,2024-09-20 20:19:50.726725098,0,013,0.41944966158292557,-0.1918617645355914,-1.3202157027260097,0.26204766202298774,0.34240420979104236,-0.1543334600049377,-1.4630668600515717,-0.0047205644483221095,0
308,2024-09-20 20:19:50.789645996,0,013,0.41001339875835885,-0.18695702171838968,-1.3228033384751368,0.2690388538471805,0.41529701906024136,-0.1636811587874974,-1.760870510228362,0.03087990308041383,0
309,2024-09-20 20:19:50.855253906,0,013,0.40132053168936455,-0.18166291082647795,-1.3151445217757536,0.27699385841240526,0.48987589765133205,-0.1730129927521373,-2.0792094503747993,0.08000552105852272,0
310,2024-09-20 20:19:51.805403076,0,013,0.39356489075573237,-0.17630125680208988,-1.291410335839752,0.2843508142501509,0.5620385726169158,-0.18116629926940808,-2.4081397416451162,0.1403441380475614,0
311,2024-09-20 20:19:51.873069092,0,013,0.3870618608406274,-0.17124697213028986,-1.2458666628438602,0.28945077619799126,0.6277188234307103,-0.18701734478361443,-2.7342674316044717,0.2078756914965983,0
312,2024-09-20 20:19:51.929629150,0,013,0.38225446501580085,-0.16690088309274492,-1.173758828472368,0.29072014018692816,0.6832044403681041,-0.1895863882500714,-3.0419197137361214,0.27741808355503195,0
313,2024-09-20 20:19:52.006784912,0,013,0.37969588851120495,-0.16366109511311094,-1.0721204525444779,0.28684401501490636,0.7254181049537995,-0.18813493281476643,-3.3148681660756694,0.34340656111915063,0
314,2024-09-20 20:19:52.071558838,0,013,0.3800099535640949,-0.16189788539583846,-0.9403577683622493,0.27690638988202226,0.7521468118770123,-0.18225159908516952,-3.5381602735407185,0.4007081614831783,0
315,2024-09-20 20:19:52.136465088,0,013,0.38384070205906173,-0.16193328723351716,-0.7806033098686527,0.2604952455213364,0.7622180311143274,-0.17191916380408812,-3.6997602254105257,0.4453484785438115,0
316,2024-09-20 20:19:52.212341064,0,013,0.3917993454595766,-0.16402411159337704,-0.5978781612271427,0.23778067128448538,0.7556090131415212,-0.1575513492335287,-3.7918326984778083,0.47507238143376634,0
317,2024-09-20 20:19:53.139669922,0,013,0.40440753711883176,-0.16834680859623707,-0.4000130627632528,0.20955736505598782,0.7334719696182114,-0.13999078433140455,-3.8114767325641554,0.48960826549864067,0
318,2024-09-20 20:19:53.222756104,0,013,0.4220363408375031,-0.1749837734589686,-0.19721183788528954,0.17722045791094684,0.6980647264429858,-0.12046353407526253,-3.760699798735783,0.4905337759112995,0
319,2024-09-20 20:19:53.278704834,0,013,0.4448466559582759,-0.18391254377713806,-0.0012180743216449296,0.1426482861898004,0.6525910122229137,-0.10048767940548842,-3.645588424786215,0.4807899385565774,0
320,2024-09-20 20:19:53.358202881,0,013,0.47273632155569617,-0.19499950647663788,0.17582467202423868,0.10799660807790194,0.600972404875908,-0.08174077978428233,-3.4749765390096745,0.46401379923891495,0
321,2024-09-20 20:19:53.426002930,0,013,0.5052994099563459,-0.20799924240809337,0.32266560850535864,0.07543433955642548,0.5475700786411059,-0.06590130829131306,-3.259179423914634,0.44387876685091865,0
322,2024-09-20 20:19:53.493716064,0,013,0.5418108533554798,-0.22256175558402327,0.43025728533301794,0.04684699280233847,0.49685620163995675,-0.05448237682997908,-3.009197471730731,0.4235755570561454,0
323,2024-09-20 20:19:53.561201172,0,013,0.581247163748688,-0.23824949146092309,0.49297607587016584,0.02352871400637992,0.4530374107778722,-0.04867301997578519,-2.736324951762304,0.40548853513424293,0
324,2024-09-20 20:19:54.498756836,0,013,0.6223393259541081,-0.25456276612023687,0.509571079024917,0.005922122431691481,0.4196670402649009,-0.0492044596028168,-2.4518571674269247,0.3910655605332894,0
325,2024-09-20 20:19:54.561253174,0,013,0.6636499496323744,-0.27097057855495704,0.48353332130363985,-0.006488350956584448,0.3993206642812779,-0.056266474289933935,-2.166725346515245,0.3808441197482586,0
326,2024-09-20 20:19:54.631680908,0,013,0.7036718945773643,-0.2869443472586242,0.422626978789219,-0.015055335095180552,0.39340616277556667,-0.06949459236534394,-1.8910743984632836,0.3745560722753485,0
327,2024-09-20 20:19:54.693766113,0,013,0.7409379169581436,-0.3019909372151028,0.33763506680280203,-0.02165653850633845,0.40213641284132184,-0.08802865872500008,-1.6337974079565687,0.3711987912909192,0
328,2024-09-20 20:19:54.771398926,0,013,0.774119144451585,-0.3156797564208187,0.2407199652677331,-0.028322198092282057,0.42465069207915634,-0.11062638033342163,-1.401951997292338,0.36898299571873977,0
329,2024-09-20 20:19:54.843756836,0,013,0.8020962964065201,-0.32766085566303466,0.14389996425474663,-0.0369286310986932,0.4592379426941562,-0.13580896447167612,-1.2000576765925488,0.36518367156226283,0
330,2024-09-20 20:19:54.911483154,0,013,0.8240035823823065,-0.3376752322726183,0.0579470096662573,-0.049008242932109834,0.50358712978796,-0.1620121398861469,-1.0295203367435655,0.3560730908136399,0
331,2024-09-20 20:19:55.830066895,0,013,0.8392551987598238,-0.34556034081839104,-0.008269607113398377,-0.06565887617837339,0.5549947740121919,-0.18771595311221984,-0.888507621949999,0.33712867628164134,0
332,2024-09-20 20:19:55.887187012,0,013,0.8475662800216465,-0.351252338220404,-0.04812025810113455,-0.08751232778205859,0.6105110178502644,-0.21153743884951118,-0.772353860720415,0.3035158542218594,0
333,2024-09-20 20:19:55.965563965,0,013,0.8489719363274103,-0.35478403755489035,-0.05737222141453967,-0.11472677029304404,0.6670622329128013,-0.23228937643168276,-0.6742970707774636,0.25066301798583085,0
334,2024-09-20 20:19:56.025410889,0,013,0.8438338557126149,-0.3562763725569951,-0.03425749457032109,-0.14698896291675248,0.7215978137487108,-0.24902135105027534,-0.586263157718956,0.17477046620046433,0
335,2024-09-20 20:19:56.087468018,0,013,0.8328207320646314,-0.35592225341144035,0.020553342623371273,-0.1835392498579715,0.7712659050347748,-0.2610515880110172,-0.4995040551765009,0.07323884994377734,0
336,2024-09-20 20:19:56.164699951,0,013,0.8168594994292467,-0.35396315868835265,0.10416307211617006,-0.22324256095844283,0.81357802367562,-0.26798260794965983,-0.40512782641589246,-0.054929310782402395,0
337,2024-09-20 20:19:56.226343018,0,013,0.7970593409353659,-0.350659104981614,0.21189683348691984,-0.26471154521137974,0.8465332576285568,-0.26969771707155143,-0.2947259315980745,-0.2087779131286963,0
338,2024-09-20 20:19:57.179560791,0,013,0.7746084979033049,-0.34625384136421533,0.33789351982769955,-0.3064583343976013,0.8687122164290771,-0.2663495822997542,-0.1611935746922834,-0.38522263486847635,0
339,2024-09-20 20:19:57.247349121,0,013,0.750660489718563,-0.3409418154269872,0.47566874389403985,-0.3470347025413834,0.879340589291966,-0.2583496293332359,0.00038419020330612906,-0.579145132936849,0
340,2024-09-20 20:19:57.303155029,0,013,0.7262484877097893,-0.3348473611755642,0.6185516238498487,-0.38513319584834016,0.8782894367906694,-0.2463548387469716,0.19197907132642558,-0.7837109460106372,0
341,2024-09-20 20:19:57.382777832,0,013,0.7022528944534785,-0.328022153839547,0.7600305723743306,-0.4196522416639049,0.8660031457750949,-0.2312421903225853,0.41218194023325294,-0.9908315052907478,0
342,2024-09-20 20:19:57.442310059,0,013,0.6794137629276387,-0.3204574901753232,0.8941053148894309,-0.44974563079873253,0.8433854006095789,-0.21405645581894875,0.6562858274305914,-1.1917819498460729,0
343,2024-09-20 20:19:57.503431885,0,013,0.6583651866157043,-0.3121034105384167,1.0156927306734793,-0.47487010596081447,0.811666839234811,-0.19592147257846093,0.9169935298894193,-1.3779974732707874,0
344,2024-09-20 20:19:57.583698975,0,013,0.6396632203814695,-0.30288803760873073,1.121034755354772,-0.49482463282228456,0.7722618005902322,-0.17792593854270738,1.1855368644552227,-1.5419229985325467,0
345,2024-09-20 20:19:58.527562012,0,013,0.6237786046718345,-0.2927336059233603,1.2079877781308206,-0.5097590083861187,0.7266271523353048,-0.1610113836792871,1.4527148777399717,-1.677671597963828,0
346,2024-09-20 20:19:58.597368896,0,013,0.6110536902805775,-0.2815702414310527,1.2760824662558816,-0.5201340133584652,0.6761487730336392,-0.14588724224658942,1.7094148038058024,-1.7813122072309735,0
347,2024-09-20 20:19:58.659347900,0,013,0.6016550987397886,-0.26935144149730145,1.3263190960528395,-0.5266323373134904,0.6220827102220459,-0.1329852885056351,1.9465952294286444,-1.8507913777342078,0
348,2024-09-20 20:19:58.721395020,0,013,0.5955452510723043,-0.2560715519619381,1.3607422334250956,-0.5300329017178641,0.5655493861567338,-0.1224533053685211,2.155166304292981,-1.885638727215871,0
349,2024-09-20 20:19:58.799089844,0,013,0.5924683972353506,-0.24178036131811864,1.3818861315941393,-0.5310713557750948,0.507549599465425,-0.11418101513334078,2.3262270546807877,-1.886603429893877,0
350,2024-09-20 20:19:58.861454102,0,013,0.5919452145432287,-0.2265905401260572,1.392213159452787,-0.5303135518379035,0.4489972713516015,-0.10785164292758129,2.451611934814059,-1.855262248056658,0
351,2024-09-20 20:19:58.936027100,0,013,0.5932866440137806,-0.21067776791346093,1.39366092762593,-0.5280612083174903,0.390801038001073,-0.10301377250981104,2.5242564809880172,-1.7935997372792583,0
352,2024-09-20 20:19:59.876337158,0,013,0.5956414797683866,-0.19427600287433613,1.387346052134684,-0.5243006782473645,0.3339885829018601,-0.0991645747108191,2.5380825741204265,-1.7036312910840836,0
353,2024-09-20 20:19:59.948062012,0,013,0.5980781455858905,-0.1776697890261673,1.3734058245319936,-0.5187052179443459,0.27980504599500955,-0.09583167647457888,2.4875823280192275,-1.5871659019127375,0
354,2024-09-20 20:20:00.000274902,0,013,0.599681623508791,-0.16118266415611254,1.3509500756412824,-0.5106938810064282,0.22972398085314497,-0.09264244594232837,2.367476219995249,-1.445734875265761,0
355,2024-09-20 20:20:00.077472900,0,013,0.5996363057602917,-0.1451598178309194,1.3181383601971024,-0.49953313492876905,0.18534869787460503,-0.08936877680262395,2.1727497868551042,-1.2806580834886387,0
356,2024-09-20 20:20:00.140233887,0,013,0.5972743687445771,-0.12994599163947018,1.2724620067167187,-0.48446625785413094,0.1482057591337476,-0.0859312380253593,1.8991816925365843,-1.0932107731515623,0
357,2024-09-20 20:20:00.217924072,0,013,0.5920906296381097,-0.11586240132141117,1.2112779578235657,-0.46486292579383276,0.11948080391323102,-0.0823575808131357,1.544291834940223,-0.8848463052403419,0
358,2024-09-20 20:20:00.280889893,0,013,0.583738052124669,-0.10318650230615672,1.1324487550677136,-0.4403602263391571,0.09979855521022377,-0.07871670064370362,1.1086331301035923,-0.6574379483947649,0
359,2024-09-20 20:20:01.205343994,0,013,0.5720105833112994,-0.09213640300892709,1.0348342705858649,-0.41094486792204127,0.08912069429855095,-0.07505907788018361,0.5973463254838096,-0.41352700670704906,0
360,2024-09-20 20:20:01.273113037,0,013,0.5568105842749967,-0.08286008324721512,0.9185512688871678,-0.37695985091068507,0.08675585160518348,-0.07138115858433268,0.021645580107610505,-0.15656528059172808,0
361,2024-09-20 20:20:01.339083008,0,013,0.5381082683044474,-0.07543020456939692,0.7851047222397038,-0.3390705520997024,0.09144432835317237,-0.06761932359229594,-0.6003654069791708,0.10889370242446232,0
362,2024-09-20 20:20:01.400588867,0,013,0.5159142893240469,-0.06984591550539251,0.6374415035547766,-0.2982259468279604,0.10149996283419825,-0.063674226650952,-1.2440035320481326,0.37713050832931844,0
363,2024-09-20 20:20:01.476274902,0,013,0.4902848008575506,-0.06604160385265137,0.4798532777157274,-0.25561826922296027,0.11500269492417102,-0.059454956426209314,-1.8793737739277958,0.6413685849905133,0
364,2024-09-20 20:20:01.544023926,0,013,0.4613613087931175,-0.06390069869885412,0.31766001466144683,-0.21262666838543057,0.13002871863710183,-0.054924362424545216,-2.4734087451250524,0.8940283929732479,0
365,2024-09-20 20:20:01.611740967,0,013,0.42942356579016744,-0.06327163445962698,0.156692821126364,-0.17073096096601065,0.14490033827705212,-0.05013512224872638,-2.992393031532149,1.1270763013064087,0
366,2024-09-20 20:20:02.550084961,0,013,0.39492924163336973,-0.06398346032712075,0.0026969570382831577,-0.1313992643957071,0.15841918997282747,-0.045252802194752265,-3.4049791556019224,1.3324685662458584,0
367,2024-09-20 20:20:02.622268799,0,013,0.3585335851833011,-0.06585985066098565,-0.1391739900328107,-0.0959755706953997,0.1700153473984966,-0.0405558197885257,-3.6854492663192175,1.5027113595922972,0
368,2024-09-20 20:20:02.686325928,0,013,0.3210893506613348,-0.06873012024080605,-0.26469144477154855,-0.06558336013954269,0.17976392983867892,-0.0364052955014004,-3.81660438258092,1.6314741974244344,0
369,2024-09-20 20:20:02.748398926,0,013,0.2836176598397533,-0.07243412134254137,-0.370754232969133,-0.04103841688656963,0.18829377368394637,-0.0331971782052789,-3.791608383465398,1.7141116322768948,0
370,2024-09-20 20:20:02.826044922,0,013,0.24724178762803734,-0.07681800802917302,-0.4554819791297463,-0.022777842758325728,0.19664565741117243,-0.03131841972103497,-3.6143650276437906,1.7479933670694843,0
371,2024-09-20 20:20:02.894062012,0,013,0.2130886443646705,-0.0817220633140656,-0.5181574371508999,-0.010832242710640753,0.20610369913290982,-0.031116481567890788,-3.2984444467865175,1.7326471846515035,0
372,2024-09-20 20:20:02.949270020,0,013,0.1821718634605877,-0.08696644708656935,-0.5590395753947734,-0.004846797910562096,0.21799178347616,-0.03287318583999108,-2.8651450637840172,1.669772161028365,0
373,2024-09-20 20:20:03.890639893,0,013,0.15527181578595953,-0.09233983881240294,-0.5791523587732236,-0.004133135234215375,0.23343768578016408,-0.03676709079526339,-2.3415630953184654,1.563178236285052,0
374,2024-09-20 20:20:03.968269043,0,013,0.13282664343297798,-0.09759094870668526,-0.5801010494520467,-0.007747632055359019,0.253144699744305,-0.04281979015034518,-1.7590740384687913,1.4186496376580524,0
375,2024-09-20 20:20:04.030301025,0,013,0.11485118715333185,-0.1024216540456247,-0.5638921712861579,-0.01460273123487404,0.2772278087907575,-0.05084375373999865,-1.151858595635032,1.2436668148695573,0
376,2024-09-20 20:20:04.107929932,0,013,0.10090194875492961,-0.10648479356547537,-0.5327754873237346,-0.023589964466060875,0.3051339825511043,-0.06041955539102026,-0.5549383008723167,1.0469638674670532,0
377,2024-09-20 20:20:04.176487061,0,013,0.09009574424053494,-0.10939207801516858,-0.4892079614241441,-0.0336630131193249,0.3356168189461278,-0.0709139222242781,-0.0016686186485094438,0.8379828142048249,0
378,2024-09-20 20:20:04.244194092,0,013,0.08117897072655557,-0.11073438556720679,-0.43601999759083443,-0.04384564504686657,0.3667406883673934,-0.08152667455362954,0.4788807633159197,0.6262859318865646,0
379,2024-09-20 20:20:04.308770020,0,013,0.07264507127458167,-0.11011240046815252,-0.37671569072571714,-0.053184505441291156,0.39593374214497645,-0.09135257642893652,0.8641365794045128,0.42094896240247387,0
380,2024-09-20 20:20:05.246937988,0,013,0.06289153646251297,-0.10717275361379072,-0.3156915783416722,-0.060704234046578716,0.4201342743150367,-0.09945827475785178,1.1394950314511345,0.22996872097043572,0
381,2024-09-20 20:20:05.309565918,0,013,0.050387618311676416,-0.10164252882912053,-0.25815960033693947,-0.06541293412480408,0.43604576481683804,-0.10497569681641522,1.2989288896423348,0.05976943415424057,0
382,2024-09-20 20:20:05.387675049,0,013,0.03381578407597341,-0.09335471566381906,-0.20968887428694355,-0.06637303159194444,0.440448799681306,-0.10719438774769836,1.3447092488746706,-0.08508333386245244,0
383,2024-09-20 20:20:05.449681885,0,013,0.012162406453894948,-0.08226034048600435,-0.1754397397618469,-0.06281861360211626,0.43049452270054667,-0.10562474553607372,1.2862618179951022,-0.20189047164789806,0
384,2024-09-20 20:20:05.512166992,0,013,-0.015247630265948744,-0.0684281126575633,-0.15927694547338428,-0.05427950487648139,0.40395827748595553,-0.10002155540138288,1.1382151643605873,-0.28954695874316155,0
385,2024-09-20 20:20:05.592987061,0,013,-0.04875384621818808,-0.05203731274978696,-0.1629754335740286,-0.04067838040229086,0.35947357978774336,-0.09038178090887763,0.9179431757903824,-0.3480775368052677,0
386,2024-09-20 20:20:05.653897949,0,013,-0.0883639883400654,-0.03337084495258137,-0.18572823184802945,-0.022380764354524324,0.2967343832180585,-0.07693319057366801,0.643263762132456,-0.378158479560556,0
387,2024-09-20 20:20:06.569472168,0,013,-0.13373495914955594,-0.012810515447159084,-0.22413942681565893,-0.00018293834002638409,0.21661833885806375,-0.0601153989079325,0.3309283016707375,-0.38080342153723556,0
388,2024-09-20 20:20:06.648402832,0,013,-0.18414165294240567,0.009169422452370735,-0.2727180629325581,0.024756257108203884,0.12120739929586095,-0.040550234431718755,-0.003988486495585975,-0.3573013726147942,0
389,2024-09-20 20:20:06.716128174,0,013,-0.2384616696171899,0.03201456396798056,-0.32465165663613704,0.05100446923452635,0.013712712837052403,-0.01900888790422659,-0.3481452202082948,-0.30939945656141593,0
390,2024-09-20 20:20:06.783926025,0,013,-0.29519358386221045,0.05510894093197104,-0.37259855288767474,0.0769401693548852,-0.10169946576008558,0.003615575768208709,-0.689725591284359,-0.23963040980438907,0
391,2024-09-20 20:20:06.851604980,0,013,-0.352513689182964,0.0777992192639898,-0.4094089213665896,0.10084604558648672,-0.22018697282655839,0.0263359590997228,-1.0180383620473632,-0.15159384599753115,0
392,2024-09-20 20:20:06.913832031,0,013,-0.4083714984562012,0.09942383550060933,-0.4288135971368837,0.12103703148620312,-0.3365865787681543,0.04811366848856996,-1.3231183114142158,-0.050003012226513224,0
393,2024-09-20 20:20:06.975393066,0,013,-0.4606158961773522,0.11934372668982803,-0.426104479789973,0.13602417996542704,-0.44579817411506806,0.06792648735482769,-1.595674611779476,0.05955745293061884,0
394,2024-09-20 20:20:07.922760010,0,013,-0.5071365810280735,0.13696969952893553,-0.3987458022486285,0.14468846176305336,-0.5431767716118432,0.0848584443568031,-1.827499817113909,0.1710892383844177,0
395,2024-09-20 20:20:07.983925049,0,013,-0.5460133296835481,0.151785457258027,-0.34679192718373053,0.1464267984977375,-0.6249106292545831,0.09819382497420179,-2.0121160441794976,0.27874426655872897,0
396,2024-09-20 20:20:08.062033936,0,013,-0.5756713038856793,0.16336981815109738,-0.27301582870542873,0.14123958100510287,-0.6883239449430246,0.10749095966036398,-2.1453721772087624,0.3773677686417932,0
397,2024-09-20 20:20:08.133519043,0,013,-0.5950239404496216,0.171419993405933,-0.18272216374182795,0.12974345069207044,-0.7320393973580664,0.11261867930247753,-2.225817946256295,0.4628967702196262,0
398,2024-09-20 20:20:08.201243896,0,013,-0.6035677676920775,0.1757732565444586,-0.08322864392340987,0.1131002588929956,-0.7559819114558878,0.113749197591733,-2.2547554919916455,0.5325786282176288,0
399,2024-09-20 20:20:08.268987793,0,013,-0.6014034338491052,0.17642295084107426,0.0169688686174029,0.09286762068755106,-0.7612379361108639,0.11130989864445817,-2.235928630205838,0.5850473807968457,0
400,2024-09-20 20:20:08.336731934,0,013,-0.589187474266317,0.17352566359062982,0.10919762457388478,0.07080736605181638,-0.7498033229191177,0.10590849525807801,-2.1749661537005096,0.6202600847542374,0
401,2024-09-20 20:20:09.268125977,0,013,-0.5680455636954216,0.1673974334720507,0.18555449709370778,0.04870045789793476,-0.7242856923891444,0.09825582167449198,-2.0788543451067047,0.6392819009464413,0
402,2024-09-20 20:20:09.345792969,0,013,-0.5394802931025013,0.15849880000152713,0.23967264704883945,0.02819130799919733,-0.6876333434471223,0.08910394570098557,-1.9556384140948322,0.6439969491098636,0
403,2024-09-20 20:20:09.415829834,0,013,-0.5052841215809308,0.14741029338018521,0.26728400438466526,0.010656385343875314,-0.6429118496670081,0.07919884439818987,-1.8142737069314998,0.6368607723949932,0
404,2024-09-20 20:20:09.483516846,0,013,-0.4674477791425139,0.134800143722529,0.2665743456265206,-0.0029080711952682685,-0.5931087754637308,0.06923952179238474,-1.664438242025394,0.6207384636608301,0
405,2024-09-20 20:20:09.551243896,0,013,-0.4280610302863569,0.12138681972639595,0.2383314477623331,-0.01196677661687682,-0.5409726678486482,0.059847188246457274,-1.5162957750956947,0.598805007570898,0
406,2024-09-20 20:20:09.618989014,0,013,-0.3892210622059657,0.10790142721474073,0.18584507283024249,-0.016464334976827037,-0.48891822545811386,0.05155566194007526,-1.380212208967093,0.5744441320141714,0
407,2024-09-20 20:20:09.686728027,0,013,-0.35296111225032173,0.0950554561354332,0.11445977703390547,-0.016753332259905006,-0.43899111147309006,0.04481981206237003,-1.2661603157386874,0.5510515105455416,0
408,2024-09-20 20:20:10.629920898,0,013,-0.3211907539472221,0.08351542266132375,0.030762763345165263,-0.013440311282906818,-0.39284956834484747,0.04002304506186204,-1.1826492621325781,0.5317100617002446,0
409,2024-09-20 20:20:10.696760986,0,013,-0.29562923692069876,0.07388116008502284,-0.05841796596334101,-0.007205703794613207,-0.35174619961682363,0.037469207444345516,-1.1355412591848704,0.5188492257716606,0
410,2024-09-20 20:20:10.758727051,0,013,-0.27772582588625355,0.06666506690192905,-0.14693328571868902,0.001340200359166324,-0.3165247637928955,0.03736027422075639,-1.1272199542944092,0.5140486978862661,0
411,2024-09-20 20:20:10.820751953,0,013,-0.2685786659188879,0.06227388202507543,-0.2299646304686229,0.011738167692854608,-0.287640357640716,0.03977469680707755,-1.156201630812692,0.5180295852197421,0
412,2024-09-20 20:20:10.897916992,0,013,-0.2688682544312202,0.06099489543295483,-0.30436412894788306,0.023703125610299983,-0.2652004796631189,0.04466225681016205,-1.2171482295713791,0.5307445631263166,0
413,2024-09-20 20:20:10.968587891,0,013,-0.2788154320093378,0.0629862615704275,-0.3686844798649021,0.03710468405721604,-0.24901815713020725,0.05185461089670167,-1.3013258287482432,0.551470433946211,0
414,2024-09-20 20:20:11.036300781,0,013,-0.2981653345667402,0.06827231564023455,-0.4228997585104568,0.051921801982463725,-0.23865508270054026,0.06107530946699634,-1.3975293687432915,0.5789031996688467,0
415,2024-09-20 20:20:11.969979004,0,013,-0.32619203369137467,0.07674634968243772,-0.46791216237755473,0.06819046127782682,-0.2334412675620151,0.07193961741789971,-1.4934887217988413,0.611340259621661,0
416,2024-09-20 20:20:12.047786865,0,013,-0.36172038990570904,0.08818119815912333,-0.5050442403603018,0.08596060328581615,-0.23249106058517277,0.08395178263269,-1.5776422177877574,0.646969862025847,0
417,2024-09-20 20:20:12.115513184,0,013,-0.4031697566955234,0.10224545861079148,-0.5356629944428706,0.1052689250530644,-0.2347414035940404,0.09651407001344044,-1.6408038392226496,0.6841328285452183,0
418,2024-09-20 20:20:12.183172852,0,013,-0.44862405728668486,0.11852208846251987,-0.5609292261537012,0.12612125308086108,-0.23900753347344542,0.10895477279633234,-1.6772265446064123,0.7214233164944067,0
419,2024-09-20 20:20:12.247770020,0,013,-0.4959262093196691,0.1365265531714043,-0.5816045185289492,0.14847055989796715,-0.24403437663161542,0.1205720007437712,-1.6849612034368813,0.7576555988637028,0
420,2024-09-20 20:20:12.318675049,0,013,-0.5427974504410291,0.15572530609657637,-0.5979342770322926,0.1721858454694374,-0.24854134278352363,0.13068652506193726,-1.665566497056266,0.7917832533840877,0
421,2024-09-20 20:20:12.371937988,0,013,-0.5869838742370601,0.17555875868470902,-0.609705645417066,0.19702641663347212,-0.2512810056461429,0.1387001156710117,-1.6231376720337878,0.8227740359054635,0
422,2024-09-20 20:20:13.299541016,0,013,-0.6264143525553448,0.19547022340598416,-0.6165028018193055,0.22263748953126072,-0.25112167402440444,0.14415435254488232,-1.562793066460743,0.8494179123912939,0
423,2024-09-20 20:20:13.362026855,0,013,-0.6593366724250879,0.2149362227210679,-0.6180235129741128,0.24856111433871225,-0.24713398568325168,0.14677569808434393,-1.4891023288299814,0.8701418624689546,0
424,2024-09-20 20:20:13.438916992,0,013,-0.6844075983375585,0.2334909524835687,-0.614250319364829,0.2742374963712589,-0.23865892977575992,0.14649369878084023,-1.4050069129835892,0.8829645089841357,0
425,2024-09-20 20:20:13.500509032,0,013,-0.7007300669422311,0.2507396645154716,-0.6053456321645856,0.2989748203392023,-0.2253635673813411,0.14343797717734472,-1.311440260129746,0.8856394838071237,0
426,2024-09-20 20:20:13.562541016,0,013,-0.7078414133754698,0.26636006341477686,-0.5913201855417374,0.3218928565886779,-0.20730314208522896,0.13793003581029514,-1.207505919911404,0.8759383666148453,0
427,2024-09-20 20:20:13.642570068,0,013,-0.7056707553757815,0.2800963025148114,-0.5716801595343938,0.34187989873159447,-0.18498185581902415,0.13047247876484727,-1.091102906343362,0.8520269577157146,0
428,2024-09-20 20:20:13.710291016,0,013,-0.6944937793602178,0.29175374119782915,-0.5452637556953216,0.35761107010994464,-0.1593784829115064,0.12172517356320135,-0.9599418253821418,0.8128816700198828,0
429,2024-09-20 20:20:14.645645020,0,013,-0.6749002036810949,0.30119975746416294,-0.510364802455468,0.367649051870908,-0.13191439010646344,0.11246349402819622,-0.8126147242145597,0.7586197099107668,0
430,2024-09-20 20:20:14.721975098,0,013,-0.6477639622251474,0.3083679961455702,-0.4651033955357262,0.37060879154437354,-0.10436550247881561,0.10352219013417374,-0.6492765753564592,0.690618168748533,0
431,2024-09-20 20:20:14.784442871,0,013,-0.6141987523542949,0.3132589875436118,-0.4078838689742915,0.3653429897710705,-0.07871950201765224,0.09572795015522204,-0.47186711282955646,0.6114083585129014,0
432,2024-09-20 20:20:14.846476074,0,013,-0.5754969829918252,0.31593381941467974,-0.3377530428768377,0.3511058186187648,-0.05697857390382935,0.08982717071698468,-0.28406770298157946,0.5244132094654077,0
433,2024-09-20 20:20:14.925165039,0,013,-0.5330597777697607,0.31650336414525276,-0.25460536525885413,0.3276683475041883,-0.04092542138312616,0.08642084263055705,-0.09105850937267379,0.4335897574123447,0
434,2024-09-20 20:20:14.992914795,0,013,-0.48831898260048096,0.31511611017074537,-0.15935311920562426,0.29537799483563876,-0.03187683181871742,0.08590976074705833,0.10098867707404881,0.34301531018525977,0
435,2024-09-20 20:20:15.048188965,0,013,-0.4426531836096631,0.31194508843122326,-0.05415818532347088,0.2551653668388523,-0.030463080025813192,0.08844706633103265,0.28560147341276165,0.25647326373352075,0
436,2024-09-20 20:20:16.001230957,0,013,-0.3973124806721367,0.3071744049224737,0.05738845468198237,0.208493037305197,-0.0365154488618651,0.09390974725472342,0.45656021393994134,0.17713202482953783,0
437,2024-09-20 20:20:16.065224121,0,013,-0.3533673300797167,0.3009878056481404,0.170383935544401,0.15722981560139723,-0.049135969996259604,0.10190927654504399,0.6080857792915272,0.10737393378897753,0
438,2024-09-20 20:20:16.125788086,0,013,-0.31168123789303437,0.2935615259815849,0.2791420735325804,0.10345652448899735,-0.06692269290029919,0.1118428901708369,0.7348777656341827,0.04871830324462682,0
439,2024-09-20 20:20:16.207283936,0,013,-0.27289629124482256,0.2850616415331823,0.37796852946553994,0.04925127804003873,-0.08823794297480195,0.12296399303148058,0.8323610118016865,0.001763210624953064,0
440,2024-09-20 20:20:16.265029053,0,013,-0.2374285333573561,0.2756455775831653,0.46187455115309717,-0.0034872744377521248,-0.11141915190186157,0.1344480379229644,0.8971370934191083,-0.033827861831689496,0
441,2024-09-20 20:20:16.328674072,0,013,-0.20548703106982022,0.26546901891232144,0.5270576423079464,-0.053151963235294426,-0.13489485460926137,0.14544514880508422,0.9274057205433757,-0.05924293714107174,0
442,2024-09-20 20:20:16.410440918,0,013,-0.1771288720722758,0.2546992655389649,0.5711972743458933,-0.09848405295146662,-0.1572100789406568,0.155122366542818,0.9232908214313691,-0.07637378406163067,0
443,2024-09-20 20:20:17.328958008,0,013,-0.15233531824568997,0.24353089580566667,0.5936530454345829,-0.13859246205569423,-0.17698451184855069,0.162698964796476,0.8871178013572738,-0.08766812838577967,0
444,2024-09-20 20:20:17.391443115,0,013,-0.1310785871003168,0.23219483334499574,0.5955403615447267,-0.1729378705423478,-0.1928515530845796,0.16747984627291895,0.8235212836502046,-0.0960080601282769,0
445,2024-09-20 20:20:17.465253174,0,013,-0.11336789304331663,0.22095537832097575,0.5796031004821012,-0.20128160580859053,-0.20344228149720284,0.16889748765218157,0.7391800266143248,-0.10461041606448505,0
446,2024-09-20 20:20:17.530343018,0,013,-0.09928572671803702,0.21009804363156545,0.549883275428497,-0.2236178010294669,-0.20745851545553665,0.16656773229980432,0.6421636455185462,-0.11689259095488394,0
447,2024-09-20 20:20:17.600784180,0,013,-0.08901949457008035,0.1999145267840948,0.5113068195445194,-0.24011898062639891,-0.20382676252097195,0.1603453832894184,0.5411131196885351,-0.1361878191599995,0
448,2024-09-20 20:20:17.660708984,0,013,-0.08287381638226639,0.19068789823630683,0.4693101245708519,-0.25111080655421614,-0.19187603136433268,0.15035344329407443,0.4445873788936765,-0.16527652282181893,0
449,2024-09-20 20:20:17.736262939,0,013,-0.08124578384992535,0.18267700891517824,0.42949151776421735,-0.25706213171298503,-0.17148513012043118,0.13697483226265647,0.36075179931015194,-0.20587635730526443,0
450,2024-09-20 20:20:18.673188965,0,013,-0.08456378039232168,0.17609934262559787,0.3971744975765319,-0.2585601674451316,-0.1431793960316699,0.12082066464908314,0.2971991412533696,-0.25826397218198927,0
451,2024-09-20 20:20:18.735249023,0,013,-0.093208631303771,0.17111503995853172,0.37687927695521106,-0.2562602090352134,-0.1081576156555004,0.10269127235145213,0.26053063207063454,-0.32109425952208376,0
452,2024-09-20 20:20:18.815339111,0,013,-0.10743749152577552,0.16781619376532061,0.37187184775972265,-0.25083291970015653,-0.06821903256997792,0.08352869697611512,0.2555971489971065,-0.3914183724041808,0
453,2024-09-20 20:20:18.875236084,0,013,-0.12731873466757,0.1662226370496528,0.38395393852635373,-0.24293466604846714,-0.025598696370711327,0.06435480265599099,0.28465177593819324,-0.4648884734125597,0
454,2024-09-20 20:20:18.937724121,0,013,-0.152679223365656,0.16628288792054693,0.41349396671744154,-0.23320193627981178,0.0172333893763832,0.04620259225048292,0.34682148065793006,-0.5361426451973222,0
455,2024-09-20 20:20:19.018531982,0,013,-0.1830722801759338,0.1678791775216472,0.45957592350052906,-0.2222513235169976,0.057770453359887564,0.030053034487095513,0.4382684532462541,-0.5994045789094504,0
456,2024-09-20 20:20:19.086312988,0,013,-0.217772738376662,0.17083491596404413,0.5201377887988388,-0.21065822901334783,0.09366972397889656,0.016777197843140277,0.5531385006660274,-0.6492912109590753,0
457,2024-09-20 20:20:20.029342041,0,013,-0.2557887263857072,0.17492223017725356,0.5920159583593018,-0.19889471529415964,0.1229517240982479,0.0070768759115293215,0.6849625595890263,-0.681647437968257,0
458,2024-09-20 20:20:20.097655029,0,013,-0.2958825418887869,0.17987121597559474,0.670862662992813,-0.18723400942693608,0.1441452886583972,0.0014293052557632698,0.8279283764391496,-0.6941374634255739,0
459,2024-09-20 20:20:20.153404053,0,013,-0.3366180312446115,0.18538651890927457,0.7510058356673658,-0.1756588468017519,0.15631628799323716,5.534104860932632e-05,0.9775481039778299,-0.6864292156312585,0
460,2024-09-20 20:20:20.233156982,0,013,-0.3764532023855221,0.1911719428912645,0.8254535176248111,-0.16382364280776443,0.15897867602701624,0.002925910050776511,1.1305580855433393,-0.6599861792682494,0
461,2024-09-20 20:20:20.292774902,0,013,-0.4138649251551309,0.1969555053590342,0.8862493501986181,-0.1511061876281038,0.15197020397873615,0.009800519285460843,1.2842239985243313,-0.6176338700313933,0
462,2024-09-20 20:20:20.355680908,0,013,-0.44747238142164125,0.20250738390518466,0.9252237225612869,-0.13674853259334394,0.13541144849316447,0.020268906819490277,1.435448906779917,-0.563109417101787,0
463,2024-09-20 20:20:20.433645020,0,013,-0.47613669395475783,0.20764926951797277,0.9349959085649622,-0.12004843555686018,0.10981144746380575,0.03376384812297052,1.5800734311587497,-0.500673052480078,0
464,2024-09-20 20:20:21.373495117,0,013,-0.49903207198014493,0.21225687754037104,0.909959958947293,-0.10053923008253637,0.07625431130182704,0.04954369551490759,1.712594549644995,-0.4347227143988319,0
465,2024-09-20 20:20:21.435981934,0,013,-0.5156905390686977,0.21625745097678514,0.8469853711903107,-0.07810437183533918,0.036517314255856,0.06668124604360116,1.826356142954376,-0.36937151758738634,0
466,2024-09-20 20:20:21.515497803,0,013,-0.5260169359510369,0.21962403929217245,0.7457130730377649,-0.053011141654796305,-0.006970278916721396,0.08409646795982786,1.9140912998747883,-0.308015808284614,0
467,2024-09-20 20:20:21.574654053,0,013,-0.530266059706789,0.2223680349646926,0.6084848618101589,-0.02587622050637639,-0.051315619700120364,0.10063839419841965,1.9685867108508381,-0.2529151608899483,0
468,2024-09-20 20:20:21.650974121,0,013,-0.52898672072061,0.22453141891691333,0.4399800980125428,0.0024229708852540753,-0.09346667237353387,0.1151966338255279,1.9833390439516618,-0.20481232409389072,0
469,2024-09-20 20:20:21.718714111,0,013,-0.5229550472962652,0.22618066532324482,0.2466665427247991,0.030872122818677808,-0.13060157194286975,0.12681647018434114,1.95331592566809,-0.16271900488891264,0
470,2024-09-20 20:20:21.781854004,0,013,-0.5131122850780458,0.22740311908878472,0.03623693856942811,0.0584473774348403,-0.16051649968995643,0.13479124366576997,1.8759543495681688,-0.12404423804792765,0
471,2024-09-20 20:20:22.716629883,0,013,-0.5004998978666297,0.2283039369055034,-0.18286452611953233,0.08422183233503552,-0.18189600360521374,0.13871504711411292,1.7521559886304003,-0.08510512652196645,0
472,2024-09-20 20:20:22.793381836,0,013,-0.48617812900249163,0.22900036602950966,-0.4018686331422402,0.10744621711534427,-0.19440581934119364,0.13849539906599795,1.5867883052221423,-0.041882696519083946,0
473,2024-09-20 20:20:22.854904785,0,013,-0.47112814477928683,0.22961161754412185,-0.6121455594995934,0.12760597212084454,-0.19862240848725918,0.134331254254625,1.3885403284921287,0.009143806006435625,0
474,2024-09-20 20:20:22.932537109,0,013,-0.4561579492563068,0.23024571438481423,-0.8057241897672218,0.14445267196477343,-0.19584864537665142,0.12666021113993403,1.1693952812898474,0.07023820879892262,0
475,2024-09-20 20:20:23.001542969,0,013,-0.4418431483384839,0.23098681597409704,-0.9757989471021928,0.15800534409479436,-0.18787312336698891,0.11608644911717993,0.9438834605745068,0.14190843617949253,0
476,2024-09-20 20:20:23.057059082,0,013,-0.4285217268808062,0.23188565299883618,-1.1171650964835476,0.16852706756921684,-0.1767250697787976,0.1033091874243956,0.7280475304734569,0.22278532471683124,0
477,2024-09-20 20:20:23.137037109,0,013,-0.4163323726153549,0.232953784260783,-1.2265951274893283,0.17649494575268712,-0.16446147124852187,0.08906594744958561,0.5381199194490157,0.3098349428252239,0
478,2024-09-20 20:20:24.041284180,0,013,-0.4052655931138631,0.23416150510670586,-1.3031379932921159,0.18257600200144655,-0.15300554552730322,0.07409267373529711,0.38906402697253395,0.39875955657912154,0
479,2024-09-20 20:20:24.119580078,0,013,-0.3952010426399512,0.23543779739869905,-1.348226002062556,0.18759918074641946,-0.14404147908912648,0.05909672448714209,0.2931655125372317,0.4844505033483485,0
480,2024-09-20 20:20:24.191184082,0,013,-0.3859239604848396,0.23667037179555742,-1.3654619472932468,0.19249587932858764,-0.13895441805203523,0.04473958947170308,0.2588546501518322,0.5614460058179862,0
481,2024-09-20 20:20:24.258810059,0,013,-0.3771312963386703,0.23770702192491042,-1.360000376606396,0.1981840265890687,-0.13878275723218342,0.03162639090063184,0.28997113528421986,0.6244244759008226,0
482,2024-09-20 20:20:24.320826904,0,013,-0.3684370099459336,0.2383602197702482,-1.3375259771567616,0.20539802444710287,-0.14414766078439842,0.020294917737285867,0.385673099383843,0.6687139126384654,0
483,2024-09-20 20:20:24.394375977,0,013,-0.3593747341121349,0.23841325615359696,-1.303064896168052,0.21450959870587188,-0.1551624988849852,0.01119400125303458,0.5409692282123837,0.6907220783693475,0
484,2024-09-20 20:20:24.462109131,0,013,-0.34940308203158293,0.23762619297293253,-1.2600763940400426,0.2254103287142015,-0.17136435799879063,0.004649383244497917,0.7475524343541201,0.6882383395053953,0
485,2024-09-20 20:20:25.396620117,0,013,-0.3379319251991773,0.23574308819302559,-1.210140632920891,0.23750317916520888,-0.19170826424811768,0.0008315495269282992,0.9946326292358061,0.6606201706218189,0
486,2024-09-20 20:20:25.458614990,0,013,-0.324374909928721,0.23250146894393894,-1.1531858800879755,0.24979635647487763,-0.21463837180024525,-0.00025570835192133094,1.269725921160505,0.6088468068318031,0
487,2024-09-20 20:20:25.541304199,0,013,-0.3082094273093989,0.22764261683637776,-1.0880373440564102,0.2610634860391523,-0.23823458005588016,0.0012385173145956134,1.5594169460984497,0.5354020651145163,0
488,2024-09-20 20:20:25.608966064,0,013,-0.28901692718080835,0.22092085673820522,-1.0131749309380262,0.2700389613814545,-0.26041727824589916,0.005039655752023796,1.8499973902994502,0.443990991435606,0
489,2024-09-20 20:20:25.667027832,0,013,-0.2664859224472807,0.21211107997386605,-0.9275817042256543,0.27561466559461345,-0.2791647851578019,0.010772090039900515,2.127945994550404,0.3391218952723923,0
490,2024-09-20 20:20:25.729059082,0,013,-0.2403851972038856,0.2010161410206825,-0.8314160524873604,0.2769890006352506,-0.29270546145082116,0.017974935618188744,2.3804169402995314,0.2256010592373122,0
491,2024-09-20 20:20:25.806674072,0,013,-0.2105368841789538,0.18747800642579765,-0.7262775711462791,0.27372846481445207,-0.2996932956678795,0.02612275508433381,2.595944768399253,0.10803937424854346,0
492,2024-09-20 20:20:26.749396973,0,013,-0.17681343940111238,0.17139443794535633,-0.6150607410360311,0.2657402056281156,-0.2993737037567753,0.03466723514734718,2.7654070705253226,-0.009507093815003587,0
493,2024-09-20 20:20:26.811024902,0,013,-0.13916038236783912,0.15273754516016666,-0.5015237715799715,0.25318998139877064,-0.29168891099582656,0.04309454926583448,2.8830648102554215,-0.12369986818480731,0
494,2024-09-20 20:20:26.887752930,0,013,-0.09763318452009788,0.1315682303840719,-0.38968774221337454,0.23641186233573142,-0.27726037986711427,0.05097528338119631,2.947343337522829,-0.23189917195011728,0
495,2024-09-20 20:20:26.949825928,0,013,-0.05243675302178184,0.10804434818305934,-0.2831475653242485,0.215840421263944,-0.25724029778796786,0.05798862095736386,2.961031611027319,-0.33202262214702,0
496,2024-09-20 20:20:27.011383057,0,013,-0.003957467069849852,0.08242442517770183,-0.18440138850133098,0.1919680900329151,-0.23307956097784913,0.0639203580078972,2.9307742551310585,-0.4223502725085115,0
497,2024-09-20 20:20:27.094459961,0,013,0.04722936081843927,0.055066321654885175,-0.09439402529895359,0.16531527126182335,-0.20628659490274162,0.06864633580892603,2.865952403286535,-0.5013283335514541,0
498,2024-09-20 20:20:27.162185791,0,013,0.10039256480078093,0.02641636781874648,-0.012483083895752443,0.13640606619179063,-0.17824247964988615,0.07210892173243258,2.7771870786711026,-0.5674303456566652,0
499,2024-09-20 20:20:28.101211914,0,013,0.15471127687786002,-0.0030125864327730195,0.06315229359023558,0.10575326329919886,-0.15008913342622254,0.07428363821355823,2.6747615825452686,-0.6191621663803569,0
500,2024-09-20 20:20:28.164112061,0,013,0.2093484366520891,-0.032670620571987864,0.13485747879562637,0.07385991515993047,-0.1226681324949073,0.07513502010086173,2.5672676011075746,-0.6552440374258997,0
501,2024-09-20 20:20:28.226142822,0,013,0.26351208262271575,-0.06200302410154435,0.204831974448243,0.041241026418074256,-0.09650230454503121,0.07457520766650413,2.4608082319181923,-0.6748892047227348,0
502,2024-09-20 20:20:28.303353027,0,013,0.3164974331702398,-0.09048148235178037,0.2746073338359135,0.008458542716646741,-0.07183715895287293,0.07244851133044963,2.3590671562693624,-0.6780840990819884,0
503,2024-09-20 20:20:28.376390869,0,013,0.36771276896454014,-0.11763204982662565,0.3447923624719613,-0.02385399792659746,-0.04873369402303536,0.06855786265791683,2.264160774931751,-0.6658430944632278,0
504,2024-09-20 20:20:28.442520996,0,013,0.41669961938668165,-0.14306047470154853,0.415097958441506,-0.05500544755826218,-0.027153644401665854,0.06272474968080875,2.1775756970727795,-0.640391558400031,0
505,2024-09-20 20:20:28.504081055,0,013,0.4631500955494686,-0.1664741294370899,0.48452778419984815,-0.08430280095263333,-0.006984536655644492,0.05485217033142967,2.1004608088100776,-0.6051569805917949,0
506,2024-09-20 20:20:29.414895996,0,013,0.5069077028071858,-0.18769555455249218,0.5516266674252985,-0.11112372285909972,0.011981176415155543,0.04496052799209255,2.0332883049302284,-0.5644877023417949,0
507,2024-09-20 20:20:29.493012939,0,013,0.5479404913983447,-0.20666286232659323,0.61475115672182,-0.1349813511392858,0.03005942070629486,0.03318417943780746,1.9754959757040522,-0.5231531293867417,0
508,2024-09-20 20:20:29.554579102,0,013,0.5862973946212819,-0.2234176315461945,0.6723274596180232,-0.15557013726448854,0.04765111049205263,0.01973775431088276,1.9255851563416706,-0.48577990988877495,0
509,2024-09-20 20:20:29.632327881,0,013,0.622070629529209,-0.2380850944110415,0.7230190033198365,-0.17278485541874194,0.06519158449656726,0.004876442626729761,1.8817161739207335,-0.456386397469136,0
510,2024-09-20 20:20:29.701023193,0,013,0.6553758759057873,-0.2508510133440737,0.7657635644448606,-0.1867126385752794,0.08310045527354476,-0.011129462528768614,1.842507408585743,-0.43808012553457437,0
511,2024-09-20 20:20:29.768757080,0,013,0.6863472905530948,-0.26193818119650786,0.7997687749359949,-0.19761610299809795,0.10176298039871108,-0.028008372397198687,1.8075575520053078,-0.43286285395606827,0
512,2024-09-20 20:20:29.836467041,0,013,0.7151398841117621,-0.27158604496962174,0.8245659029983373,-0.20591925389193746,0.12155512464030054,-0.04550689466104196,1.7773456906848988,-0.44147195363166336,0
513,2024-09-20 20:20:30.772686035,0,013,0.7419234148064697,-0.280035981850328,0.8400723172311398,-0.21217784559697442,0.14286969023647286,-0.06341591260303238,1.7525827105045495,-0.46325697158800044,0
514,2024-09-20 20:20:30.847895020,0,013,0.7668459464804287,-0.2875204555465532,0.846596018122201,-0.21701897660525105,0.1660707384553301,-0.0815823437940238,1.733397671855761,-0.49614316329193997,0
515,2024-09-20 20:20:30.911894043,0,013,0.7899652323779323,-0.2942514988675492,0.8448523504404054,-0.22107289872453495,0.19136094824951289,-0.09989462023214025,1.7187252239662691,-0.5367291130321458,0
516,2024-09-20 20:20:30.973422119,0,013,0.8111706099797763,-0.3004052710988405,0.8360430748434364,-0.22493105558772553,0.2186236835187436,-0.11825143233491853,1.7060517302188214,-0.5805337334222659,0
517,2024-09-20 20:20:31.035909912,0,013,0.8301175697762663,-0.30610306824858036,0.8218978575102232,-0.2291327054705622,0.24731310469690343,-0.13652793908940847,1.6914720594637012,-0.6223915462074028,0
518,2024-09-20 20:20:31.118326904,0,013,0.8461912384364646,-0.3113935405433488,0.8045701074962395,-0.23415519546866553,0.27643559504115234,-0.1545506509905798,1.669910241534648,-0.6569728961264276,0
519,2024-09-20 20:20:31.175695801,0,013,0.8585192763792102,-0.316243423479852,0.7863995095131432,-0.2403906350866231,0.30463311716779495,-0.1720899139231357,1.6353975965165717,-0.6793522469380746,0
520,2024-09-20 20:20:32.129894043,0,013,0.8660481043638043,-0.3205414959552267,0.7696409059890378,-0.24811530083557767,0.33035072552399963,-0.18887186960097266,1.581394011075427,-0.6855131120335564,0
521,2024-09-20 20:20:32.197952881,0,013,0.8676749503052775,-0.32411452461153983,0.756271151600032,-0.25746557482554994,0.352063701204476,-0.20460749584909338,1.501182207232329,-0.6726905715190483,0
522,2024-09-20 20:20:32.265644043,0,013,0.8624135405594697,-0.32675086749528376,0.7479270771222225,-0.2684235196462911,0.36854200783603697,-0.21903770052716,1.3883376175327857,-0.6394937460090191,0
523,2024-09-20 20:20:32.333358887,0,013,0.8495642861732212,-0.3282278101389198,0.7459393544846542,-0.28080873831267006,0.379101757840449,-0.2319863067004201,1.237222873920379,-0.585836882424284,0
524,2024-09-20 20:20:32.392759033,0,013,0.8288520750267865,-0.3283381850756082,0.7513850309211484,-0.29427650713614684,0.383763575579543,-0.2433990529059354,1.0434801384152306,-0.5127941918512308,0
525,2024-09-20 20:20:32.468892090,0,013,0.8004972151133313,-0.32691132746589596,0.7650872414324883,-0.30831974879467533,0.38326873250525595,-0.2533481449485968,0.8045454994469264,-0.4224631908497785,0
526,2024-09-20 20:20:32.536546875,0,013,0.7652009426474082,-0.32382569475502687,0.7875153344076097,-0.32226839061910123,0.37897529771885824,-0.26200213077584206,0.5201750060292205,-0.31782432463950794,0
527,2024-09-20 20:20:33.471254150,0,013,0.724046767206786,-0.3190134614892522,0.8186085208806226,-0.3352934411213678,0.3726893437271298,-0.26957822411603755,0.19296687158842185,-0.20257318983037312,0
528,2024-09-20 20:20:33.533737793,0,013,0.6783429494785794,-0.31245873126608004,0.857639260252406,-0.3464421541875234,0.36645748938023404,-0.2762942552875999,-0.17107544133321903,-0.08095077197470656,0
529,2024-09-20 20:20:33.615782959,0,013,0.629450526907144,-0.3041902577116576,0.9032557674417327,-0.3547274764883542,0.3623208533297745,-0.2823295635433727,-0.5619597692584386,0.042376942342763395,0
530,2024-09-20 20:20:33.675890869,0,013,0.578638139718997,-0.2942691907566223,0.9537656911638421,-0.35927276887295384,0.3620590056726256,-0.2878000914875544,-0.96531713989283,0.1623473413395479,0
531,2024-09-20 20:20:33.751215820,0,013,0.5269851523636311,-0.2827754639450209,1.0075970370988707,-0.3594876765240743,0.36698908621649656,-0.2927496617375846,-1.3625610656274287,0.27348118266641547,0
532,2024-09-20 20:20:33.815123047,0,013,0.47533571656082735,-0.2697987569220401,1.0637643233940037,-0.35522865962921,0.37786968792567566,-0.29715576052713305,-1.7319099145876369,0.36997944816163336,0
533,2024-09-20 20:20:33.876713135,0,013,0.4242982379465136,-0.25543712040486155,1.1221491826068486,-0.3468906755544441,0.39490925881389216,-0.3009486206668169,-2.0503233456255563,0.44608038261529687,0
534,2024-09-20 20:20:34.826135010,0,013,0.374285132150475,-0.23980256180408888,1.1835119933610596,-0.3354011203680656,0.41783346804354476,-0.3040377790593685,-2.2959753982518647,0.49663366602624986,0
535,2024-09-20 20:20:34.888052979,0,013,0.3255806305473078,-0.2230300972602651,1.249289412593379,-0.32212396346030103,0.44594571005979206,-0.3063268361741465,-2.450591446099578,0.5176931614784,0
536,2024-09-20 20:20:34.965888916,0,013,0.2784101131684663,-0.20528388939395464,1.3212654432972954,-0.30869346312197343,0.47813984138867427,-0.3076970864234211,-2.501067260225181,0.5069297507508581,0
537,2024-09-20 20:20:35.027839844,0,013,0.23298818525652806,-0.18675569989823798,1.401154352925876,-0.2967945877450064,0.5128850471419483,-0.3079636421021247,-2.4401697477490605,0.46378323545235123,0
538,2024-09-20 20:20:35.089839844,0,013,0.1895448050562928,-0.16765744628290727,1.4901214777028757,-0.2879243383042459,0.5482477872865831,-0.30683022590699166,-2.2665267663583677,0.3894262056614777,0
539,2024-09-20 20:20:35.168956055,0,013,0.1483447222091314,-0.14821403273729516,1.5883185419527281,-0.2831863407494791,0.5820061299689058,-0.3038745855263657,-1.9843275660929338,0.28670006658872954,0
540,2024-09-20 20:20:35.236674072,0,013,0.10971435302454713,-0.12866196945523273,1.6945426709267488,-0.28315604311724873,0.6118588496783617,-0.29858929576549065,-1.6030043839230133,0.16011549312256151,0
541,2024-09-20 20:20:36.177073975,0,013,0.07406813007107978,-0.10925391171598635,1.8060933681254565,-0.2878197600352787,0.6356695736201191,-0.29047748744818475,-1.1368192916578312,0.015845825160774468,0
542,2024-09-20 20:20:36.247271973,0,013,0.04189801222282469,-0.09026082966570204,1.9188621975394469,-0.2965755998508247,0.6516507774139491,-0.2791638541962583,-0.6041561179431234,-0.13845755123121758,0
543,2024-09-20 20:20:36.315886963,0,013,0.013700239021117996,-0.07196127668164963,2.027685778571281,-0.3082928852446518,0.658426063308533,-0.264468696714503,-0.026390751851154585,-0.2941630219475481,0
544,2024-09-20 20:20:36.383584961,0,013,-0.010134377370341518,-0.05461749094083259,2.126938426492692,-0.3214292223057509,0.6550028370515683,-0.2464270028289238,0.5737299803887416,-0.44247475160526906,0
545,2024-09-20 20:20:36.440162842,0,013,-0.029412663248201177,-0.03844995704209326,2.211187514948662,-0.3341834898830809,0.6407488232671343,-0.2252769743547196,1.174001262570806,-0.5754099800551024,0
546,2024-09-20 20:20:36.517510009,0,013,-0.04418697080559335,-0.023621475832069597,2.275628823037163,-0.3446439101033325,0.615431572023295,-0.20145003151185578,1.7542877794636358,-0.6866606390735939,0
547,2024-09-20 20:20:36.581990967,0,013,-0.05476062939089906,-0.010233596933176417,2.3161404464548876,-0.3509061497992109,0.579298246451824,-0.1755652231256668,2.2970005671704343,-0.7720805299920542,0
548,2024-09-20 20:20:37.531039062,0,013,-0.06164958380929204,0.001665104482501293,2.329087281021786,-0.3511785856844756,0.5331333322416739,-0.1484032653016461,2.78660411501456,-0.8297266809302803,0
549,2024-09-20 20:20:37.598775879,0,013,-0.06549876298966374,0.012060428399057192,2.3111962588155097,-0.3439151676170492,0.4782564220271325,-0.1208459412907769,3.2089512346866527,-0.8595976298999596,0
550,2024-09-20 20:20:37.655885986,0,013,-0.06697385396096164,0.020949785626089908,2.2596818952837046,-0.3279827258906722,0.416453946865921,-0.0937960972370874,3.5512362320246003,-0.8632670664451432,0
551,2024-09-20 20:20:37.733993896,0,013,-0.06666366918821763,0.028323777238044558,2.1724954698305816,-0.30280871807804527,0.34984045219774595,-0.06809803539958113,3.802738599760875,-0.8435206600096594,0
552,2024-09-20 20:20:37.795656982,0,013,-0.06501927651293782,0.03415720447035153,2.0485069307242316,-0.2684490305786447,0.2806456290972666,-0.04446225504062662,3.955914308454734,-0.8040080236869893,0
553,2024-09-20 20:20:37.869672119,0,013,-0.06233972932961102,0.03841133862885749,1.887621260082096,-0.225568543763995,0.21095795314771662,-0.023398861737575466,4.007285754657221,-0.7488873800712396,0
554,2024-09-20 20:20:37.934438965,0,013,-0.0588015161417709,0.04104735910713156,1.6909280198973817,-0.17536354933580467,0.1425060897520673,-0.005180323439211245,3.957914639834059,-0.6824713267859976,0
555,2024-09-20 20:20:38.850250977,0,013,-0.05451829001182531,0.04204745796537478,1.4608884048381585,-0.11945321942828156,0.07656012189615509,0.010148869742194033,3.81356110741212,-0.6089431024332893,0
556,2024-09-20 20:20:38.912739014,0,013,-0.04961176350206685,0.04143776643872797,1.2014625887057062,-0.05975556792605558,0.013962433556643273,0.022725620174581497,3.584682341858057,-0.5322069217172141,0
557,2024-09-20 20:20:38.991662109,0,013,-0.044274724676496985,0.039307737139640433,0.9180926230910873,0.0016488758422379091,-0.044779938446467715,0.03281371942162677,3.286269578979838,-0.45584354094985,0
558,2024-09-20 20:20:39.051969971,0,013,-0.0388076623065575,0.035821591497561284,0.617558624416302,0.06266059195682087,-0.09941655614364135,0.040763929489150134,2.937325255794786,-0.3830792378326869,0
559,2024-09-20 20:20:39.127022949,0,013,-0.03361495967793668,0.031218921117671057,0.3077991034223876,0.12128729327101462,-0.14990355509984274,0.04699232910182541,2.559717681380083,-0.31669943357367053,0
560,2024-09-20 20:20:39.194749023,0,013,-0.029162102097894965,0.025804501015304113,-0.002254708049924732,0.17572677640563675,-0.196347019887628,0.05196759949847216,2.176354892227276,-0.25888845422056345,0
561,2024-09-20 20:20:39.262495117,0,013,-0.025914660767291528,0.019930473241233353,-0.30287852266682125,0.224406134807165,-0.23891407413755822,0.056195143353689136,1.808992243968069,-0.21102373274349345,0
562,2024-09-20 20:20:40.180615967,0,013,-0.02428877581792024,0.013976291875282227,-0.5838743136478413,0.26599511425253736,-0.2777199581882301,0.06018889740364056,1.4762009274966927,-0.17349339696916952,0
563,2024-09-20 20:20:40.246313965,0,013,-0.024631694552737723,0.008331562220236337,-0.8350397199572537,0.29940851498223164,-0.31271702577993205,0.06443240392087318,1.1919022517668099,-0.14561026693427342,0
564,2024-09-20 20:20:40.301181885,0,013,-0.0272214303937135,0.0033814832572207167,-1.046750901298906,0.32380751870114566,-0.34362374546695273,0.06934369645217278,0.964598627014237,-0.12566821537660067,0
565,2024-09-20 20:20:40.379288818,0,013,-0.03225408947643022,-0.0005116567105289463,-1.2106122002496276,0.338608708219038,-0.3699283695748138,0.07525315557593877,0.7972405238041235,-0.11116141012201064,0
566,2024-09-20 20:20:40.441302979,0,013,-0.03980158722124891,-0.0030355330695471913,-1.3201512630571068,0.34350711300502806,-0.3909650463427865,0.08238652213242875,0.687573930236567,-0.09914854899340823,0
567,2024-09-20 20:20:40.518935059,0,013,-0.049752245331417456,-0.003959389870713582,-1.3715632315597386,0.33852084003804006,-0.4060288967188301,0.09084710897878533,0.6287848661931761,-0.08668173051229569,0
568,2024-09-20 20:20:40.584664062,0,013,-0.06176107668870868,-0.0031612680805851623,-1.3644732221759905,0.3240633996955966,-0.4144899362089463,0.10060187056008932,0.6103389075028002,-0.0711860003516779,0
569,2024-09-20 20:20:41.530691895,0,013,-0.07523839849720536,-0.0006432051776268156,-1.3025209588554094,0.30102290240623925,-0.4158668957349782,0.11146953359808083,0.6190084006597473,-0.05071293848895444,0
570,2024-09-20 20:20:41.598458984,0,013,-0.08940164254982495,0.0034705325598666874,-1.1934228180252477,0.2707912877005488,-0.4098551942908902,0.1231038624764942,0.6400523727141093,-0.02404966629512437,0
571,2024-09-20 20:20:41.653941895,0,013,-0.10339151856469779,0.008952870823115295,-1.0483191712442028,0.23519710983048814,-0.39635299314197614,0.13497937734319757,0.6585052275527093,0.009310987258021847,0
572,2024-09-20 20:20:41.733939941,0,013,-0.11641486155650109,0.015504598927673368,-0.8805825553854785,0.1963512868277949,-0.3755127445864549,0.14639773811351625,0.6605851862982547,0.04931412513391392,0
573,2024-09-20 20:20:41.793158936,0,013,-0.1278617461206682,0.022786372093903835,-0.7044359905434207,0.15645239013609502,-0.34777874184446755,0.15652292131446705,0.6350343593912485,0.09556527635174612,0
574,2024-09-20 20:20:41.869366943,0,013,-0.13736882457921093,0.03044621414643842,-0.5336135150172778,0.11759423739679678,-0.31386113066019616,0.164437054063969,0.5738897239892174,0.14761279876716116,0
575,2024-09-20 20:20:41.935858887,0,013,-0.1448283756988629,0.03814112538536249,-0.38015844655521686,0.08160271836869286,-0.2746605066288945,0.1692049933784957,0.4723928874957736,0.20522552300651803,0
576,2024-09-20 20:20:42.865850098,0,013,-0.1503482839008299,0.04555116043007361,-0.2534472852030056,0.04991408431145664,-0.23121504265504028,0.16994633982871635,0.32832049114557327,0.26852505641719127,0
577,2024-09-20 20:20:42.948556885,0,013,-0.154173518235595,0.0523855219379641,-0.15955918268530528,0.023499349719315707,-0.18473870027668476,0.16592767418756982,0.14123570741557034,0.3378960624945442,0
578,2024-09-20 20:20:43.005178955,0,013,-0.1565950281569085,0.05838565583255404,-0.10108912346905911,0.002845429606952906,-0.13675059328138037,0.15668249352970184,-0.08799238169475634,0.4137401060821539,0
579,2024-09-20 20:20:43.083673096,0,013,-0.15787085128339193,0.06333202442764412,-0.07741711755160387,-0.012001478804750722,-0.08920290246713944,0.14213191080709267,-0.35728334827155744,0.49619065583107835,0
580,2024-09-20 20:20:43.145200928,0,013,-0.15816350903497675,0.06705532219069131,-0.08531774700388368,-0.021356406500809395,-0.044488836125838545,0.12265466206051447,-0.6631787885090554,0.5848977251700692,0
581,2024-09-20 20:20:43.219482910,0,013,-0.1574876541612528,0.06944687886350531,-0.1196975740020986,-0.025823830474211624,-0.005291871287505308,0.09907780837948324,-1.0006236374580122,0.6789582533826088,0
582,2024-09-20 20:20:43.283487061,0,013,-0.15567349826776827,0.0704638994270296,-0.17428827824713752,-0.02624934828564858,0.02566733664224803,0.07260123185020367,-1.3628051017671259,0.7769779271722732,0
583,2024-09-20 20:20:44.216062988,0,013,-0.15237077733708512,0.07013117008641928,-0.2422663763478579,-0.023673629291310432,0.04590579739734974,0.04468422486447974,-1.741120542547511,0.8771649742915546,0
584,2024-09-20 20:20:44.294657959,0,013,-0.14711743793038315,0.06854359378778922,-0.316847678344626,-0.019261833595360878,0.05342576015940822,0.016912427859656683,-2.1254194922784566,0.97738200566199,0
585,2024-09-20 20:20:44.357145020,0,013,-0.1394602085636953,0.06586947479600153,-0.3918478256673242,-0.014198604907405269,0.046927703282389106,-0.009146327306062501,-2.504658485836989,1.0751905326405564,0
586,2024-09-20 20:20:44.434032959,0,013,-0.12908039811456884,0.06235028399538973,-0.46211687065126117,-0.009563424446108321,0.025993029402173982,-0.032086096198790395,-2.867838247028155,1.167959356571196,0
587,2024-09-20 20:20:44.496123047,0,013,-0.11589045312623379,0.05829423079545667,-0.5238005605285481,-0.006215127481443009,-0.008790518340840764,-0.05078639272856247,-3.204784520521717,1.253025302632998,0
588,2024-09-20 20:20:44.558751221,0,013,-0.10009341166596357,0.05406285840604427,-0.5745113596709428,-0.004699928319490318,-0.0558125063891185,-0.06449146350961167,-3.506456771851647,1.3278360880755333,0
589,2024-09-20 20:20:44.636717041,0,013,-0.08219841646649628,0.05004897120641519,-0.6134882813915292,-0.0051859727589421475,-0.1125618013283158,-0.07283004399146618,-3.7649295863284475,1.3900473713625354,0
590,2024-09-20 20:20:45.570792969,0,013,-0.06298096899382882,0.04664511866888168,-0.6416941963616503,-0.007442123512151723,-0.17586601104803773,-0.07577671794461835,-3.973454379415457,1.4376117781973752,0
591,2024-09-20 20:20:45.636199951,0,013,-0.043390482739543865,0.04420618651040071,-0.6617398799122743,-0.010883666322495945,-0.24219091427085446,-0.07357221418361022,-4.1268655132247964,1.4689177600296999,0
592,2024-09-20 20:20:45.715447998,0,013,-0.02442709274256236,0.04301351537539968,-0.6775596431751895,-0.014685772574361608,-0.3079470122720181,-0.06662808647894733,-4.222231193640229,1.482987401365638,0
593,2024-09-20 20:20:45.783164062,0,013,-0.007018095008227545,0.043247983423538174,-0.6938396620587001,-0.017938383633420547,-0.3697737077084561,-0.05543993153556995,-4.25936154915526,1.4796495064006858,0
