,time,MARKER,pid,L_O_DSI,L_D_DSI,L_O_DSphi,L_D_DSphi,R_O_DSI,R_D_DSI,R_O_DSphi,R_D_DSphi,trial_id
0,2024-09-20 21:27:20.938531006,TASK_BEGIN,014,0.34869208078533437,-0.7922581507561504,-7.828894367257903,2.5805535031445483,0.618474886877235,-0.36103716151856297,-4.01013103786754,0.6437702700921032,1
1,2024-09-20 21:27:21.001049072,0,014,0.29503820607262804,-0.735983300845655,-7.8727177761409735,2.5986005164981565,0.6095809224394851,-0.34928340945223824,-3.7469239998293187,0.6084097885546387,1
2,2024-09-20 21:27:21.063052979,0,014,0.2421685412268647,-0.67756981783267,-7.952810505132994,2.621902555492634,0.5936810832473044,-0.3335832105743936,-3.5613819985922763,0.5870750536715362,1
3,2024-09-20 21:27:21.141626953,0,014,0.19008896211792412,-0.6176672640445867,-8.066490067725267,2.6479082405532197,0.5711335471779034,-0.3144254765666432,-3.4573978037991133,0.5797869133185204,1
4,2024-09-20 21:27:21.203677979,0,014,0.13870812215664152,-0.5568636165853882,-8.208927502595408,2.6740627736169063,0.5425351153971085,-0.2924035947587483,-3.4342589174772873,0.5861077776047646,1
5,2024-09-20 21:27:21.265250977,0,014,0.08780586866565734,-0.4956612079516061,-8.37333238332559,2.6978915177890137,0.5086737447022104,-0.2681650092899029,-3.4873760157590086,0.6053289322619317,1
6,2024-09-20 21:27:21.343358887,0,014,0.03702794855353569,-0.4344585283580158,-8.551323950669016,2.7170869927230754,0.47044091338051064,-0.24235623470803386,-3.6090501673993813,0.6366028476984986,1
7,2024-09-20 21:27:22.267379150,0,014,-0.014061029151301778,-0.3735438682906089,-8.733313217538555,2.729588142806075,0.42871728295156997,-0.21557487011155307,-3.7891292395441885,0.6789640580929153,1
8,2024-09-20 21:27:22.331426025,0,014,-0.0658702238999404,-0.3131045835950798,-8.908864115111063,2.7336312738121378,0.38426464974979574,-0.18833488711873655,-4.01553377267411,0.7312391986869348,1
9,2024-09-20 21:27:22.394397949,0,014,-0.11865328603813992,-0.25325083374642776,-9.067168497739402,2.727775221483916,0.33766364170479896,-0.16104659325334675,-4.274680343714515,0.791899933562014,1
10,2024-09-20 21:27:22.456413086,0,014,-0.17240742686215116,-0.19404409492188446,-9.197722916595287,2.7109239867614754,0.28932706575254485,-0.13401164672203236,-4.551874502716739,0.8589487426536642,1
11,2024-09-20 21:27:22.538479004,0,014,-0.22683900318887062,-0.13552059885707426,-9.29107032473262,2.6823488639035187,0.23959309335865145,-0.10743464872881081,-4.831772050782912,0.9299146052157935,1
12,2024-09-20 21:27:22.606250000,0,014,-0.2813844632552552,-0.07771266858388033,-9.33938956734604,2.6416890180356387,0.18886758883966373,-0.08145082366937653,-5.09899226856603,1.0019843846548104,1
13,2024-09-20 21:27:22.674025146,0,014,-0.3352426034102721,-0.020677645158929402,-9.336876042274707,2.588929387613607,0.13775077192976473,-0.05616162145005364,-5.3389435211691705,1.0722310598887375,1
14,2024-09-20 21:27:23.617392090,0,014,-0.3874016228796468,0.03546675715464264,-9.279935852181394,2.524373031733632,0.08708095375337813,-0.03166626322853538,-5.538816040978407,1.1378406918077137,1
15,2024-09-20 21:27:23.674983887,0,014,-0.4366884811685454,0.0905155137051804,-9.16715060377581,2.4486101442777284,0.03787924459718686,-0.00808361994195491,-5.68848681814079,1.1962368114189377,1
16,2024-09-20 21:27:23.742131104,0,014,-0.4818612750276484,0.144172129452194,-8.99906620642478,2.3624836959008846,-0.008763501029199457,0.014434889966237329,-5.781065200762932,1.2450896666587954,1
17,2024-09-20 21:27:23.814724121,0,014,-0.5217202169499054,0.19606877507593387,-8.778052219582362,2.2670714103490495,-0.05180932029665988,0.03570184680616946,-5.813080917792664,1.2823044490193058,1
18,2024-09-20 21:27:23.876804199,0,014,-0.555201335522384,0.24580215256261723,-8.508409209400352,2.1636964231629894,-0.09037755207012825,0.055501243156773676,-5.78446273674667,1.3060751618692723,1
19,2024-09-20 21:27:23.954653076,0,014,-0.5814516330379649,0.29297718597867256,-8.196586887339658,2.0539437764528943,-0.12380492681953603,0.07360313374159624,-5.698344109005257,1.3149868941179343,1
20,2024-09-20 21:27:24.023936035,0,014,-0.5999035438914775,0.3372549672049313,-7.851177027858374,1.9396524560161994,-0.15164246874428944,0.08977846465736848,-5.5606620134840306,1.3081079232640502,1
21,2024-09-20 21:27:24.965073975,0,014,-0.6103495486069994,0.37840169948297264,-7.482467050533914,1.822882738333689,-0.17361226204382588,0.10381202651176641,-5.379531641824243,1.285060124058662,1
22,2024-09-20 21:27:25.026635010,0,014,-0.6129969615528675,0.41633112871101546,-7.101622575936969,1.7058707024305446,-0.18956858042693722,0.11551510180989566,-5.164379716297349,1.246073441439944,1
23,2024-09-20 21:27:25.094127929,0,014,-0.6084746343190585,0.4511281029107121,-6.7197467809741696,1.5909619797031207,-0.1994783937545663,0.12473495266690257,-4.924885882195227,1.192002230927486,1
24,2024-09-20 21:27:25.170833984,0,014,-0.5977811142176326,0.48304475830912635,-6.347051586503261,1.480513038588623,-0.20342054541483534,0.13135950096796797,-4.669942591192321,1.1242850777257782,1
25,2024-09-20 21:27:25.228710938,0,014,-0.5822068775844019,0.5124752572359335,-5.992230499921287,1.3767680082854403,-0.20161535441660128,0.1353244680809222,-4.4069385861952854,1.044870911669832,1
26,2024-09-20 21:27:25.291197021,0,014,-0.5632759730092987,0.539923739951683,-5.662020520853241,1.2817343637868175,-0.19448328982535426,0.13662956379975677,-4.141562272971429,0.9561576978539447,1
27,2024-09-20 21:27:25.374129149,0,014,-0.5427044143280597,0.5659722775850661,-5.360986050167509,1.197085254220861,-0.1827035740783196,0.13536114302948837,-3.8780688263688905,0.860954289411169,1
28,2024-09-20 21:27:26.292643066,0,014,-0.5223265742206025,0.5912433761531912,-5.09155381065973,1.1240966615656702,-0.16723482654479926,0.13171275491639478,-3.619755036518763,0.7624085092135923,1
29,2024-09-20 21:27:26.346021973,0,014,-0.503957302000664,0.6163491274157101,-4.854221606153773,1.06359982449122,-0.14926328084338195,0.12599131876915393,-3.3693741247819124,0.6638468399460515,1
30,2024-09-20 21:27:26.423649170,0,014,-0.48920851270190746,0.6418262358396476,-4.647909795204477,1.0159462732892368,-0.13007449982143632,0.11859927443510343,-3.1293530472574353,0.5685638187874884,1
31,2024-09-20 21:27:26.485258056,0,014,-0.47930705342029195,0.6680673597832834,-4.470481968566293,0.9810036517079931,-0.11089747530119846,0.10999574711260218,-2.901823645114892,0.47964977354277705,1
32,2024-09-20 21:27:26.562015137,0,014,-0.474957069969279,0.6952673252679359,-4.31927064473958,0.9581600349276551,-0.09277703374432267,0.1006492543424885,-2.6885860625902667,0.39988512923499203,1
33,2024-09-20 21:27:26.626112061,0,014,-0.4762733675262591,0.7233997990619639,-4.191369725770669,0.9462977574390112,-0.07648006176090633,0.09099212131695644,-2.4911066632448513,0.3316548936206014,1
34,2024-09-20 21:27:26.688612061,0,014,-0.482792289607414,0.7522273317527204,-4.083723799715391,0.943768862582128,-0.062411831440476295,0.08138099050106037,-2.3105016759532373,0.2768305161279871,1
35,2024-09-20 21:27:27.640808105,0,014,-0.49355681116710415,0.781336543721838,-3.993223031382914,0.9484512842113872,-0.0505489583315829,0.07206687783741311,-2.1474067406014514,0.2366156893607192,1
36,2024-09-20 21:27:27.711522949,0,014,-0.5072718153031902,0.8101881114094086,-3.9169163289557543,0.957919584979873,-0.04043029165575282,0.06317952556097088,-2.0017753222160892,0.21141241966298602,1
37,2024-09-20 21:27:27.779289062,0,014,-0.5225128324732918,0.83817501656075,-3.8523138586110712,0.9696938391422193,-0.03122440580034786,0.05472768452281598,-1.8727348430004924,0.20077697853419807,1
38,2024-09-20 21:27:27.847012939,0,014,-0.5379511348007756,0.8646845735806673,-3.7976302789355856,0.9814888109468186,-0.021833904178841845,0.04661048950448703,-1.7585747301523118,0.20348063774790587,1
39,2024-09-20 21:27:27.903939941,0,014,-0.5525446531889362,0.8891554148278838,-3.7517726538673646,0.991386194201139,-0.010978684086794891,0.0386332038867899,-1.6569278899373314,0.2176361891308632,1
40,2024-09-20 21:27:27.982641846,0,014,-0.5656394474260693,0.9111145304562732,-3.7140375134056454,0.9978972273679632,0.002761908690271709,0.030523917395409,-1.5651929024873552,0.24086059867503856,1
41,2024-09-20 21:27:28.043416992,0,014,-0.5769513569434989,0.9301833462138221,-3.6837343755999186,0.999945850617297,0.02093294715665572,0.021947992882576494,-1.4810805940080833,0.2704675757858031,1
42,2024-09-20 21:27:28.980859131,0,014,-0.5864569903934659,0.9460571933533779,-3.6599919919533463,0.9968313264798455,0.04518405717122003,0.012517792384182531,-1.4030575442810729,0.3036688409683518,1
43,2024-09-20 21:27:29.061557129,0,014,-0.594261564908505,0.958475736517481,-3.641758629986208,0.9881970068952017,0.07719792002571808,0.0018065858059573927,-1.3305732670609287,0.3377494624319524,1
44,2024-09-20 21:27:29.120043945,0,014,-0.6004900419724839,0.9672029033635631,-3.6277818433621962,0.9739960520636756,0.11853403499151331,-0.010617668014436787,-1.2640973081720572,0.37020617254730653,1
45,2024-09-20 21:27:29.196680176,0,014,-0.6052048341918919,0.9720254639954968,-3.616437809613808,0.9544574125781814,0.17042650534559461,-0.0251387592466237,-1.2050265775969644,0.39886153030356997,1
46,2024-09-20 21:27:29.259167969,0,014,-0.6083352140315792,0.9727658641647251,-3.605561807869051,0.9300680013017305,0.2336203590680063,-0.042039579577823,-1.1555143411639623,0.42195709781850654,1
47,2024-09-20 21:27:29.321652832,0,014,-0.6096157360981125,0.969296902764957,-3.592528140020488,0.9015591055909662,0.3082940255045502,-0.06147278305894918,-1.1182443447603139,0.43821353005857705,1
48,2024-09-20 21:27:29.399760010,0,014,-0.6085526425103929,0.9615516050125029,-3.5746015441052474,0.8698615236987026,0.39405118268802913,-0.08346146522459234,-1.0961591273296423,0.4468544120552179,1
49,2024-09-20 21:27:30.342791016,0,014,-0.6044397902696197,0.9495327719159041,-3.549328599067707,0.8360109245461212,0.4899371755720541,-0.107918136767452,-1.0921828134126086,0.4476053418887275,1
50,2024-09-20 21:27:30.406639160,0,014,-0.5964204814908683,0.9333260909854979,-3.514729357454482,0.8010142974520235,0.5944574077440303,-0.13466431922222852,-1.1089953161092814,0.4406806104339965,1
51,2024-09-20 21:27:30.469268066,0,014,-0.583570381855363,0.9131103277787231,-3.4692329585755064,0.7657010432967697,0.7056153444805631,-0.16344197684870548,-1.1488521823621163,0.42675742667161415,1
52,2024-09-20 21:27:30.531336182,0,014,-0.5649840700125282,0.8891554318815789,-3.41152264053305,0.7305937944658617,0.8209943110132785,-0.19391703635038157,-1.2133584022007522,0.40691747710600235,1
53,2024-09-20 21:27:30.613871094,0,014,-0.5398617708953186,0.8618083600720615,-3.340536070225258,0.6958505049491461,0.9378781108746892,-0.22567593514782117,-1.3031239928287452,0.38252987267475247,1
54,2024-09-20 21:27:30.681637939,0,014,-0.5075929750325971,0.8314748873947211,-3.2556733232234443,0.6613110415968285,1.0533905402266939,-0.25821624155630607,-1.4173577552838637,0.35507847256670866,1
55,2024-09-20 21:27:30.747416992,0,014,-0.4678287287857412,0.7986051708885632,-3.157008001064897,0.6266188056428078,1.164659886129565,-0.2909395992774156,-1.5535665931833547,0.3259798035209271,1
56,2024-09-20 21:27:31.685812012,0,014,-0.42053049814381527,0.763683445820983,-3.0452898571629037,0.591340087948147,1.269042771186843,-0.3231646085689185,-1.707523530411411,0.29644841878187933,1
57,2024-09-20 21:27:31.747880859,0,014,-0.36598436632390324,0.7272157319568433,-2.9217040360862754,0.555022465985029,1.3644095175701212,-0.3541745062158562,-1.8735341662011589,0.2674345924954498,1
58,2024-09-20 21:27:31.825988037,0,014,-0.3047854432177464,0.6897121731507739,-2.7874964515546568,0.5172019334029845,1.4494148842994392,-0.3832949941731497,-2.0449139519995416,0.23964017091110318,1
59,2024-09-20 21:27:31.888010986,0,014,-0.23781776468824475,0.6516709661393465,-2.6436611554847023,0.477419029962382,1.5236484783828455,-0.4099771770471638,-2.2146335477040284,0.21362934380078943,1
60,2024-09-20 21:27:31.950850098,0,014,-0.16624751789254488,0.6135736320762162,-2.4909209287564282,0.43529626283674255,1.5876123259832933,-0.43385676641773635,-2.3761181379978655,0.1900188052204078,1
61,2024-09-20 21:27:32.031635986,0,014,-0.09151528670809016,0.5758904442642538,-2.3301342571752834,0.3906873396447526,1.642540012146584,-0.45477436298912827,-2.5240276000054385,0.16965591651965717,1
62,2024-09-20 21:27:32.099317139,0,014,-0.015303580108274534,0.5390854564115845,-2.162996044112577,0.34385920756933946,1.690105342534057,-0.4727609932462363,-2.654730756778737,0.1536738039604109,1
63,2024-09-20 21:27:33.010035156,0,014,0.06052040043749057,0.5036140130176973,-1.9926451030642753,0.29562442563743857,1.7320809629522076,-0.4880032273743518,-2.7663096531198903,0.14336295997262719,1
64,2024-09-20 21:27:33.072041016,0,014,0.13397796335290424,0.4699137116268236,-1.823848638652703,0.24735042267242247,1.770007589663488,-0.5007987754223788,-2.8581429829946146,0.13986790043133968,1
65,2024-09-20 21:27:33.149174072,0,014,0.20308050980490402,0.4383933247255604,-1.6627809603007027,0.20084354955490133,1.80493536246086,-0.5115079028741161,-2.9302728470079487,0.14379833192443262,1
66,2024-09-20 21:27:33.221818848,0,014,0.2659767873024684,0.4094224777327603,-1.5166182486884183,0.15815803956244723,1.8372971457367673,-0.5205054701467063,-2.982804460412833,0.15490659796001513,1
67,2024-09-20 21:27:33.288408936,0,014,0.32112760440191973,0.3833201942463105,-1.393055960443878,0.12137780355794807,1.8669264786577007,-0.528138211341286,-3.015509899355898,0.1719674719162818,1
68,2024-09-20 21:27:33.350896973,0,014,0.3674527809104761,0.36033901574490423,-1.2997564488019426,0.09241994375548415,1.893164090400308,-0.5346919778328529,-3.0276925631384306,0.19290982775257678,1
69,2024-09-20 21:27:33.412978027,0,014,0.40440206046805194,0.3406467072472725,-1.2438077002878571,0.07290619381341966,1.9149884370953314,-0.54037528848954,-3.0182954716708155,0.21514678691206424,1
70,2024-09-20 21:27:34.368633057,0,014,0.4319468158421875,0.32431092801853983,-1.2312756349057876,0.06409949797294988,1.9311530226530886,-0.5453218225914364,-2.986179998638746,0.23598201818210474,1
71,2024-09-20 21:27:34.436273193,0,014,0.45052464701699074,0.3112887578288377,-1.2667996503113026,0.0668620827305023,1.9403485257010928,-0.5496059020570336,-2.930439601564632,0.25296943546574063,1
72,2024-09-20 21:27:34.498000000,0,014,0.4609654999952218,0.3014211126621754,-1.353123607911686,0.08160660665034115,1.9414022474999635,-0.5532620453470798,-2.850589735312479,0.26415976856420476,1
73,2024-09-20 21:27:34.560009033,0,014,0.46440707250538804,0.2944345179125772,-1.49055901205047,0.10824435065379107,1.9334905573991916,-0.5563030169516217,-2.7465670420895085,0.26822286706744497,1
74,2024-09-20 21:27:34.639339844,0,014,0.46219873923174376,0.2899520765330401,-1.6765488543786915,0.1461563265186717,1.9162982723372006,-0.5587318236935086,-2.618640154638359,0.26446058383685,1
75,2024-09-20 21:27:34.707195068,0,014,0.4557955493177009,0.28751112294584485,-1.9055780298789262,0.19421790483733076,1.8900583434557299,-0.5605422033500448,-2.467409864887577,0.25275089888889635,1
76,2024-09-20 21:27:34.774632080,0,014,0.4466482099289393,0.2865830751920861,-2.1695378277557547,0.2508810829603765,1.8554724925139112,-0.5617085057372961,-2.2939949048928727,0.23349329973683156,1
77,2024-09-20 21:27:35.717177002,0,014,0.436108364144411,0.2865921683238854,-2.4584221277085168,0.31429013551524304,1.813590435389553,-0.5621777091424733,-2.1003734204700106,0.2076149519730112,1
78,2024-09-20 21:27:35.784964111,0,014,0.42537931205470914,0.2869307791448408,-2.7611535768570135,0.3824064346899952,1.7657180818685447,-0.561876620252031,-1.8897649652782451,0.17663027351908364,1
79,2024-09-20 21:27:35.837635010,0,014,0.4155179557577292,0.2869719739516917,-3.0664055982737604,0.4531220212315768,1.7133484407788169,-0.5607313190722938,-1.6668696828056893,0.1426571832331545,1
80,2024-09-20 21:27:35.920408936,0,014,0.40745173878409524,0.28608637610569715,-3.3633164730457645,0.5243358947332658,1.6580729907036338,-0.5586834717463862,-1.4377729728660107,0.10826216613591115,1
81,2024-09-20 21:27:35.988159912,0,014,0.40197529973951607,0.28367224058603707,-3.6419427912888236,0.5939699636646562,1.6014655435587768,-0.5556927661530487,-1.20951665538193,0.07610737114758445,1
82,2024-09-20 21:27:36.055212891,0,014,0.39973210555181576,0.2791994055486962,-3.8933359847055398,0.6599231791766028,1.5449605821028185,-0.5517256936373057,-0.9895971879649151,0.048534764812955405,1
83,2024-09-20 21:27:36.117131836,0,014,0.40120151212455574,0.2722582640384895,-4.109318996590625,0.7199954844512494,1.4897390125747259,-0.5467364097205226,-0.7856323792584581,0.027265180837357007,1
84,2024-09-20 21:27:37.042437988,0,014,0.40668587797732686,0.2626037334131995,-4.2822128778255735,0.7718331567707207,1.4366229728689266,-0.5406476763918893,-0.6051875226636625,0.013284968904453907,1
85,2024-09-20 21:27:37.098871826,0,014,0.41627307978409395,0.250188516219086,-4.4047839064415175,0.8129446001477731,1.385995378713864,-0.53334129877256,-0.45557242510702006,0.0068896460664778815,1
86,2024-09-20 21:27:37.176512939,0,014,0.4297701802987133,0.23518183337936932,-4.470558625349698,0.840817797323074,1.3377790758768553,-0.5246628672451031,-0.3434119668262134,0.007830608936119816,1
87,2024-09-20 21:27:37.239010986,0,014,0.4466407233748061,0.2179707355624341,-4.474431157158981,0.8531311537146331,1.2914949822109385,-0.5144363890687993,-0.273979126918451,0.015517250301896596,1
88,2024-09-20 21:27:37.300629883,0,014,0.4659858935547514,0.1991445394033714,-4.413321840917335,0.8480066127615878,1.2463784374777003,-0.5024822685775437,-0.25054775854445693,0.029222408453851795,1
89,2024-09-20 21:27:37.378783936,0,014,0.48658345588112517,0.17946430085678355,-4.286646521292333,0.8242409665672412,1.201517149784515,-0.4886382225034893,-0.2740623879129432,0.04823456493695914,1
90,2024-09-20 21:27:37.441270996,0,014,0.5069663873976843,0.1598189970519137,-4.096449469124001,0.7814611961177503,1.1559874360881797,-0.47278515715981095,-0.3432177899517261,0.07192845654163334,1
91,2024-09-20 21:27:38.392292969,0,014,0.5255092089463258,0.14117362533359326,-3.8471751809085775,0.7201678066821605,1.1089805016062837,-0.45487556722918815,-0.45485065194321045,0.09978070609497272,1
92,2024-09-20 21:27:38.453250977,0,014,0.5405067941176218,0.12451652029777455,-3.5451667931302873,0.6416622416239298,1.0599164087098374,-0.4349571281048526,-0.6044422564387167,0.1313651024691692,1
93,2024-09-20 21:27:38.515736084,0,014,0.5502606974752082,0.11080787770359145,-3.1980526333141346,0.5478972632470277,1.008543526061939,-0.41318438245016864,-0.7865158070037837,0.16631670468518536,1
94,2024-09-20 21:27:38.595493896,0,014,0.5531912688506347,0.10092601948608318,-2.814203322774404,0.441315480198416,0.9550185415944985,-0.38981744743424573,-0.9948125224883687,0.20424557251037415,1
95,2024-09-20 21:27:38.661504882,0,014,0.5479637487348779,0.09561108647525798,-2.4023714751549905,0.32472528410452256,0.8999486372474476,-0.36521101717958543,-1.222224538940255,0.24461841287168218,1
96,2024-09-20 21:27:38.728614014,0,014,0.5335977237366307,0.09541311835084736,-1.9715225017356122,0.201216041586951,0.8443663141400654,-0.33979610585595715,-1.4605377544127542,0.28665625618664886,1
97,2024-09-20 21:27:38.785649902,0,014,0.5095478592651829,0.10065369648254473,-1.5307975962346263,0.0740726981851514,0.7896320370028815,-0.3140573901054826,-1.7002731695346702,0.32932233062453115,1
98,2024-09-20 21:27:39.741686035,0,014,0.475759220774529,0.11140846141710739,-1.089487293574178,-0.053351455614774966,0.7372975015928406,-0.288509084142093,-1.9311141499358953,0.3714647866825814,1
99,2024-09-20 21:27:39.804356201,0,014,0.43268977772366174,0.12751361130876687,-0.6569030901156793,-0.1778028434172873,0.6889599293386758,-0.26366672924060935,-2.143130044544625,0.4120820210764025,1
100,2024-09-20 21:27:39.866380859,0,014,0.3812931382447979,0.14859069104671754,-0.24215562466433754,-0.2962940191438359,0.6461125418585845,-0.24001099824785954,-2.328391806680566,0.45057540309510014,1
101,2024-09-20 21:27:39.945068115,0,014,0.32296580281459575,0.17407908404946978,0.1460861459218681,-0.4062227323037467,0.6099963620010399,-0.21795039559991014,-2.482207397209322,0.48685528664338923,1
102,2024-09-20 21:27:40.006083008,0,014,0.25945827045822867,0.20327152529967157,0.49982711375911426,-0.5054207249848032,0.5814712178634538,-0.1977973830183727,-2.603419465830568,0.5212545724620365,1
103,2024-09-20 21:27:40.069114014,0,014,0.19275141156876435,0.2353534272064265,0.8119844208217527,-0.592138259074433,0.5609214242068485,-0.1797630480733511,-2.693818446038921,0.5543033614868113,1
104,2024-09-20 21:27:40.146855225,0,014,0.12492248881319691,0.2694444882740419,1.0766659198820132,-0.6649933417888643,0.5482103413586468,-0.1639614649940555,-2.7571175969096866,0.586462057252456,1
105,2024-09-20 21:27:41.091879883,0,014,0.05803590300065791,0.3046391156054457,1.2895223376943834,-0.7229172987113196,0.5427006186269698,-0.15041403732571718,-2.7977963630608427,0.6178774466251555,1
106,2024-09-20 21:27:41.152745117,0,014,-0.0059277817248661185,0.3400444914953334,1.4481159273391395,-0.7651161108745032,0.5433396774205594,-0.139053081341138,-2.8198805376143934,0.6481870266174111,1
107,2024-09-20 21:27:41.227375977,0,014,-0.0651240615130942,0.3748165814551277,1.552138026154565,-0.7910558558242773,0.5487839019689045,-0.12972842707471346,-2.825806306869318,0.6764067168294876,1
108,2024-09-20 21:27:41.291250977,0,014,-0.11790928596591384,0.40819403940350074,1.603369450441891,-0.800477304011044,0.5575256534758585,-0.12221722466194218,-2.8157291029963716,0.7009476404037465,1
109,2024-09-20 21:27:41.362871826,0,014,-0.16293106878751595,0.43953003838673727,1.6054630578818552,-0.7934517376661536,0.5679982260811707,-0.11623401655224647,-2.7876296815579584,0.7197818085376295,1
110,2024-09-20 21:27:41.430624023,0,014,-0.19922700937835722,0.4683201729088065,1.56367958611922,-0.7704876409588205,0.578657849723088,-0.11144107827541028,-2.738248668733476,0.7307358377818082,1
111,2024-09-20 21:27:41.492146973,0,014,-0.22629747307611292,0.49421997192024353,1.4845818442635323,-0.7326604372572133,0.5880587650339629,-0.10746382818043605,-2.664465390924534,0.7318492462358815,1
112,2024-09-20 21:27:42.437114990,0,014,-0.24413012399241624,0.5170448992577912,1.3756194802267407,-0.6816986817235636,0.5949302811005468,-0.10391618409172083,-2.5645531881598798,0.7217083752701632,1
113,2024-09-20 21:27:42.499600098,0,014,-0.25318013707214915,0.536752367560992,1.2446255928056245,-0.6199710204003893,0.598245445999557,-0.10043501450561004,-2.438905415808428,0.6996829610993327,1
114,2024-09-20 21:27:42.567121094,0,014,-0.25432506859381737,0.5534138645251158,1.0993036956295545,-0.5503564797707116,0.5972638991844098,-0.0967165327120279,-2.2901238124019705,0.6660363039647204,1
115,2024-09-20 21:27:42.644747070,0,014,-0.24881403466062987,0.5671894840151803,0.9467239184893277,-0.47601093466366773,0.5915421236304748,-0.09254469746106322,-2.122572361779951,0.621917773405534,1
116,2024-09-20 21:27:42.706801025,0,014,-0.23821942034152516,0.5783129874390431,0.7928830105265272,-0.4000769666687835,0.5809227130091067,-0.087803722301473,-1.9416036127005623,0.5692539483645719,1
117,2024-09-20 21:27:42.781276855,0,014,-0.22438106178921113,0.5870846719959357,0.6425063714408964,-0.3254113197768406,0.5655292891639527,-0.0824748141017347,-1.7526740913613892,0.5105395161268662,1
118,2024-09-20 21:27:42.845936035,0,014,-0.20932941669700536,0.5938614761472572,0.4992016792210916,-0.25439443050930455,0.5457843402297001,-0.07662488623257596,-1.5604931409492744,0.44853013916445383,1
119,2024-09-20 21:27:43.756256104,0,014,-0.19518807759341558,0.5990356600176635,0.3658479915029993,-0.18885528382117198,0.5224345746420263,-0.07039496176372374,-1.3683001564807793,0.38587984896000177,1
120,2024-09-20 21:27:43.834579834,0,014,-0.18406149140613887,0.6030019435115876,0.24500604408438265,-0.1301058774483638,0.49655190798226656,-0.06399053071973292,-1.1774141772107536,0.3248168075257054,1
121,2024-09-20 21:27:43.896620117,0,014,-0.1779055440357365,0.6061213056359207,0.1391992686505638,-0.07903406187400362,0.4694883194148559,-0.057668761444853674,-0.9872237691021628,0.26695261113497465,1
122,2024-09-20 21:27:43.970897949,0,014,-0.17837512836447905,0.6086904359100044,0.05100877157174783,-0.03619631723633909,0.4427797306892484,-0.051714630844551725,-0.7956241740378401,0.21324450110549809,1
123,2024-09-20 21:27:44.038685059,0,014,-0.18665234241735254,0.6109176219174559,-0.017001632138819396,-0.001900515023211502,0.41801226755198556,-0.04640518000630429,-0.5996866559933236,0.1640376612046807,1
124,2024-09-20 21:27:44.098656982,0,014,-0.20327630801429522,0.6129002342754899,-0.06250441008571218,0.023703437255821788,0.39666800537885033,-0.04196908302721294,-0.3963350911041659,0.11910591250310064,1
125,2024-09-20 21:27:44.160662842,0,014,-0.2280088466214542,0.6146045994425207,-0.08377373106803865,0.04053664005893376,0.37994672107405986,-0.03854778276948388,-0.1830056486964123,0.07769722389156687,1
126,2024-09-20 21:27:45.102967041,0,014,-0.2597700591960676,0.6158567794099645,-0.08012717675923399,0.04853770787497165,0.3685596622981998,-0.03616000133934074,0.04160700155077133,0.03866922877976423,1
127,2024-09-20 21:27:45.185475098,0,014,-0.29666672891705115,0.616351566553593,-0.052243937706751675,0.04764699179959565,0.36254519339828384,-0.03467537518757071,0.27673727306044144,0.0007650229480059687,1
128,2024-09-20 21:27:45.241422852,0,014,-0.3361205315802513,0.6156795066880189,-0.0022127313885584427,0.0378188645554996,0.36120483241526247,-0.03381438839160902,0.5189298883180649,-0.03704624827534507,1
129,2024-09-20 21:27:45.319035889,0,014,-0.3750880574883554,0.6133664471168243,0.06662542940274092,0.019075529867748877,0.3632255729933612,-0.033191672199884094,0.7619542305967073,-0.07532157204393053,1
130,2024-09-20 21:27:45.388617920,0,014,-0.4103493644346203,0.6089188711117672,0.14993836424466542,-0.008386972182366058,0.36696368271266816,-0.03239775497712287,0.9973750415558537,-0.11408423193494133,1
131,2024-09-20 21:27:45.456302002,0,014,-0.4388195672329424,0.6018683443498744,0.24282369688734884,-0.044086469021411986,0.370789701092414,-0.031088863849563296,1.2155801027001898,-0.15290973966315738,1
132,2024-09-20 21:27:45.524012207,0,014,-0.45782855625188174,0.5918113311255964,0.3404085839767038,-0.08720041968455719,0.3733737314003847,-0.029050178266926376,1.4069576662580117,-0.19105574027724764,1
133,2024-09-20 21:27:46.467750000,0,014,-0.4653375662605503,0.5784467274982448,0.43841245008736035,-0.13657194824940047,0.37383840352623776,-0.026217096393565568,1.5630366824988746,-0.22757418453522313,1
134,2024-09-20 21:27:46.529414795,0,014,-0.46008430571555387,0.5616134168522223,0.5334197044798996,-0.190731316789451,0.37179258761577333,-0.022662738011462864,1.6775369342064006,-0.26140320161441577,1
135,2024-09-20 21:27:46.594162842,0,014,-0.44164615572165167,0.541320811444825,0.6227830351931357,-0.24790713075991233,0.3673015510495229,-0.01856941442526025,1.747289788358415,-0.29147340917429804,1
136,2024-09-20 21:27:46.657968994,0,014,-0.41042212369760295,0.5177606688856914,0.7042429010614605,-0.30603943697569186,0.3608219581777941,-0.01419499255670392,1.7728669502173626,-0.31685029084450367,1
137,2024-09-20 21:27:46.738724854,0,014,-0.3675649844243311,0.4912968596612001,0.7755190431900286,-0.36283360184978397,0.35309326177032796,-0.009836478826137885,1.7586581488323798,-0.33687079882161425,1
138,2024-09-20 21:27:46.801991943,0,014,-0.3148900918660008,0.46243944365218365,0.8342051014051597,-0.41589540110800044,0.3449867774859034,-0.0057950938025558936,1.7122587404903042,-0.35120224021184754,1
139,2024-09-20 21:27:46.874157959,0,014,-0.2547482924840274,0.43180892590756803,0.8780702613152045,-0.4629464211928668,0.3373557066258291,-0.0023527894282150442,1.6432903045353133,-0.3598016885093164,1
140,2024-09-20 21:27:47.806273926,0,014,-0.18983932968845585,0.40009063251664856,0.9055587899129074,-0.5020634238214463,0.3309383344293142,0.00023410805382189013,1.561980064689057,-0.3628199055747468,1
141,2024-09-20 21:27:47.881264893,0,014,-0.12297155522366567,0.36797943623133067,0.9162086988176245,-0.5318627466215953,0.32631842427631674,0.0017300842692398561,1.4778690595398942,-0.3605103239528492,1
142,2024-09-20 21:27:47.943750000,0,014,-0.05681199871471009,0.3361239298943797,0.9107899462532065,-0.5515672703563603,0.32390304892957,0.0019154340759821122,1.3988993329167119,-0.3531771878848723,1
143,2024-09-20 21:27:48.020956055,0,014,0.006310920571832563,0.30508469689834533,0.8910320786587226,-0.5609360183701971,0.32389087228278607,0.0005872692791771766,1.3309399632133128,-0.34116672985563956,1
144,2024-09-20 21:27:48.088772949,0,014,0.06451713395459963,0.27531439871889,0.8589759306708847,-0.5600976404556006,0.3262435015649811,-0.002433671263796395,1.277694022588045,-0.3248947818611494,1
145,2024-09-20 21:27:48.156489014,0,014,0.11641242422549802,0.2471558457402157,0.8162658223699345,-0.5493856643940984,0.3306850333581806,-0.007293349106261003,1.240890171470004,-0.30489879659939767,1
146,2024-09-20 21:27:48.224198975,0,014,0.16108167632495574,0.2208494308737123,0.7638202979409175,-0.5292768611456101,0.3367300585200391,-0.014092672887636564,1.2206155670721728,-0.28188589384674806,1
147,2024-09-20 21:27:49.142920898,0,014,0.19804357339995754,0.19654415153897922,0.7020486811430675,-0.5004550033666824,0.3437147050367986,-0.022869221102789272,1.2156399253430954,-0.2567448970827148,1
148,2024-09-20 21:27:49.210721924,0,014,0.2271644572123941,0.17431211663499915,0.631367929104764,-0.46392314058557577,0.3508156332168556,-0.0335679903360506,1.2237021672562565,-0.23051663082792948,1
149,2024-09-20 21:27:49.278483887,0,014,0.2485452802405871,0.15416993591713846,0.5526946322318818,-0.4210772374966469,0.35707539684878953,-0.04600635940423192,1.2418301614869598,-0.20433458562997442,1
150,2024-09-20 21:27:49.332395020,0,014,0.2624174981714458,0.13610685381544596,0.46782633556542486,-0.37372359213596007,0.3614681003981361,-0.05984927729114137,1.2666655730128837,-0.17932972680153342,1
151,2024-09-20 21:27:49.408454834,0,014,0.2690855675213626,0.12011169286469724,0.37975621067801135,-0.3240555428390027,0.3630196502859797,-0.07461250164909464,1.2946647246945342,-0.1564889203986282,1
152,2024-09-20 21:27:49.470024170,0,014,0.2689143935432928,0.10619056051936203,0.2928274754191737,-0.27457175740483275,0.36095295243376135,-0.08970113296752566,1.3221605583106995,-0.13650315735685267,1
153,2024-09-20 21:27:49.549483154,0,014,0.2623205028569826,0.09437629963709819,0.21248831512371621,-0.22790152399556365,0.35479774720178114,-0.10447097285832906,1.3454101803107577,-0.11967861647191072,1
154,2024-09-20 21:27:50.481337158,0,014,0.24974213102462212,0.08473563761619897,0.14452034191121615,-0.18654228657625024,0.34442248725008867,-0.11828615939188825,1.3607310352851107,-0.10595197329825545,1
155,2024-09-20 21:27:50.543994873,0,014,0.23160379908386058,0.07737608010108223,0.09393097972782102,-0.15256114477411592,0.3299880841286653,-0.13055444138711117,1.3647703575103078,-0.09499386803827936,1
156,2024-09-20 21:27:50.626312012,0,014,0.20829790654427024,0.07244893539186818,0.06396400850716823,-0.12732427938882857,0.31185087110023985,-0.14074428259599092,1.3549074000516168,-0.08636340490171508,1
157,2024-09-20 21:27:50.684278076,0,014,0.18019002847420293,0.0701424268407135,0.05567552494664086,-0.11131135470647949,0.29045150266855674,-0.1483990417749956,1.3296286587827415,-0.07967108117106773,1
158,2024-09-20 21:27:50.746294922,0,014,0.147645783496026,0.0706619488769803,0.06819391809343149,-0.1040628434185407,0.26621639260666663,-0.15315228266050326,1.2885678689482856,-0.07468807704904999,1
159,2024-09-20 21:27:50.823949951,0,014,0.11107119702827938,0.07420303477544127,0.09939515266160491,-0.10428958059326882,0.23948158911422182,-0.15473568598227816,1.232073608459072,-0.07135669912017277,1
160,2024-09-20 21:27:50.886434082,0,014,0.07094715380446533,0.08092828780328576,0.14661651543188722,-0.11013112911605741,0.2104558169426884,-0.15297603325356712,1.1605292378182284,-0.06973237506718764,1
161,2024-09-20 21:27:51.831126953,0,014,0.027838599280922964,0.09095396623787955,0.20716932038708374,-0.11949209936462428,0.17924607865859946,-0.14778890867389932,1.0738002357154801,-0.06993833674557527,1
162,2024-09-20 21:27:51.896320068,0,014,-0.01762044107255379,0.10434079439380753,0.278605209073263,-0.1303684206412269,0.14594008676652898,-0.139177735106428,0.9710962484157091,-0.0721796851021028,1
163,2024-09-20 21:27:51.970938965,0,014,-0.06475308163141799,0.12108113680314132,0.358855365809787,-0.14111845834971368,0.11070517135252061,-0.1272396754006915,0.8513678059220419,-0.07679470904382008,1
164,2024-09-20 21:27:52.032985840,0,014,-0.11287366605925198,0.14108368920962572,0.4463737726901378,-0.15066494375953873,0.07385957409552672,-0.11217107425556952,0.7141390197380265,-0.08429637614859303,1
165,2024-09-20 21:27:52.111094971,0,014,-0.16132939215646264,0.1641646436866495,0.5402984428013703,-0.15860075074675717,0.03589636558836,-0.09426168848902161,0.5604780096796625,-0.09537573523039342,1
166,2024-09-20 21:27:52.179766113,0,014,-0.209538885025277,0.1900511044838034,0.6406007220577488,-0.1651816796629611,-0.0025248856405134298,-0.07387634104066985,0.3937306425709225,-0.11083914728960656,1
167,2024-09-20 21:27:52.235670166,0,014,-0.25701252459136054,0.21839367195640924,0.7482103411225988,-0.17123930195831927,-0.040585740626911546,-0.051435010090173525,0.21975178075650165,-0.13143980276291212,1
168,2024-09-20 21:27:53.190984863,0,014,-0.3033465232797554,0.2487816950389534,0.86504346939556,-0.1780599054849065,-0.07730646535457435,-0.027400660744469445,0.04663595249423667,-0.15761551974244575,1
169,2024-09-20 21:27:53.258791016,0,014,-0.34819732258070746,0.2807595021421834,0.9937818557971368,-0.18722690635238762,-0.11156982007495238,-0.0022699136542278084,-0.11584090125628256,-0.18923306187320268,1
170,2024-09-20 21:27:53.326607910,0,014,-0.3912533338775652,0.31384684078546293,1.1373174206677614,-0.20039493831151095,-0.1422109515891412,0.023446440376028357,-0.2568925149533686,-0.22545357436515717,1
171,2024-09-20 21:27:53.394331055,0,014,-0.4322150079326745,0.3475627200223657,1.2979831863846363,-0.21901025583167277,-0.16815784653250043,0.04925504834858844,-0.36551901568295375,-0.26475675393534936,1
172,2024-09-20 21:27:53.457035156,0,014,-0.4707756319157655,0.3814426151098302,1.476819925974103,-0.24405217202085616,-0.1885674474616615,0.07470830710386324,-0.4315617659365571,-0.30508046485842716,1
173,2024-09-20 21:27:53.519520020,0,014,-0.5065906605113305,0.4150393045503773,1.6730455742549661,-0.2758641776049531,-0.2029257914370789,0.09941423411662365,-0.447063360435005,-0.3440145692633257,1
174,2024-09-20 21:27:53.597608154,0,014,-0.5392460327048523,0.4479098043442619,1.883752037035102,-0.31409092275075323,-0.21111403127365125,0.12302877082276241,-0.40775254780540543,-0.3790097572567491,1
175,2024-09-20 21:27:54.530932861,0,014,-0.5682500495029503,0.47959996778747144,2.1038322985285394,-0.35770581422692277,-0.2134380773367982,0.14524128727146593,-0.314314449324686,-0.407568154835118,1
176,2024-09-20 21:27:54.608937012,0,014,-0.5930586652246571,0.5096374478075868,2.3261906567833663,-0.40511262579009705,-0.21060225361286744,0.16576201160267784,-0.17308975412603447,-0.4273834233570273,1
177,2024-09-20 21:27:54.665445068,0,014,-0.6131334575670819,0.5375389264118957,2.542269204923003,-0.4543026717230318,-0.20361962382147314,0.1843153859348823,0.004086040084726455,-0.4364312771855574,1
178,2024-09-20 21:27:54.744472900,0,014,-0.6280317193161438,0.5628320994469762,2.7428232200133524,-0.503043360170073,-0.19369207412430137,0.20064137860494688,0.20098280715046907,-0.4330422315150383,1
179,2024-09-20 21:27:54.803697998,0,014,-0.63751333352363,0.5850877945702071,2.9187890406435075,-0.5490748186814264,-0.18211476512061303,0.2145074964872798,0.39877483280416554,-0.415985217093382,1
180,2024-09-20 21:27:54.865763916,0,014,-0.6416280640405794,0.6039548543992908,3.0620708702598085,-0.5902998344285704,-0.1702261331733368,0.22573127738988208,0.5781466446607207,-0.3845861880544163,1
181,2024-09-20 21:27:54.943385986,0,014,-0.6407473219919161,0.6191901375376229,3.166120474190242,-0.624960291614329,-0.15936470374234293,0.23420228083034586,0.7214089973813883,-0.33889146794402303,1
182,2024-09-20 21:27:55.858332031,0,014,-0.6355315329996031,0.6306778501879162,3.226256467855974,-0.65177945791835,-0.15078273758250726,0.23988838158862,0.8144086360710321,-0.27982684653755174,1
183,2024-09-20 21:27:55.934422119,0,014,-0.626854810607858,0.6384354242873204,3.239723616700825,-0.6700221165207522,-0.14552846004647302,0.24282588442735445,0.8479515552231528,-0.2092529616878677,1
184,2024-09-20 21:27:55.996604980,0,014,-0.6157138090187153,0.6426056553166001,3.2055574751319833,-0.6794422833763428,-0.14436344040486462,0.24310888095635325,0.818456091297597,-0.1298491686406298,1
185,2024-09-20 21:27:56.059082031,0,014,-0.6031366697692949,0.6434382072085725,3.124414758912535,-0.6801600886779067,-0.1477547460657708,0.2408890321375342,0.7277851213971437,-0.04484927222167269,1
186,2024-09-20 21:27:56.137135010,0,014,-0.5901045973095838,0.6412664350075606,2.9984916680395792,-0.672546999409953,-0.1559146352899676,0.23638070364242758,0.5824959256594227,0.04228569761374144,1
187,2024-09-20 21:27:56.199220947,0,014,-0.5774903841613278,0.6364824493055957,2.831460634933335,-0.6571591311872422,-0.1688392139716599,0.22985783819375766,0.39280844237359935,0.12817931435778984,1
188,2024-09-20 21:27:56.274032959,0,014,-0.5660042288113457,0.6295085791369629,2.628298046615567,-0.634714272389632,-0.1863255004578983,0.22163415988024732,0.1714712026563183,0.20978774545736995,1
189,2024-09-20 21:27:57.219177002,0,014,-0.5561434205956608,0.6207652600922501,2.3950131207292866,-0.6061038432978125,-0.20797222574180635,0.21202992027314235,-0.06738860616334295,0.2845495240651517,1
190,2024-09-20 21:27:57.286910156,0,014,-0.5481532502677943,0.6106403212192599,2.1383591633190746,-0.5724250028502269,-0.23318088917084256,0.20133662063892196,-0.30937930261899615,0.3504222176999318,1
191,2024-09-20 21:27:57.345978027,0,014,-0.5419990248407746,0.5994660639230858,1.8655561872834843,-0.5350006880287584,-0.2611753171885494,0.18979285491758843,-0.5408737833953587,0.4058252937525831,1
192,2024-09-20 21:27:57.422347168,0,014,-0.5373492672576573,0.5875093832874295,1.5840747521715157,-0.49536962620119246,-0.29103658755305534,0.17757822920991656,-0.7498419106508192,0.4495284437017359,1
193,2024-09-20 21:27:57.485666016,0,014,-0.5335854605284467,0.5749760887916878,1.3015988695895906,-0.45526266642777213,-0.32173080792402103,0.16481928156889586,-0.9263317120766794,0.4805301686496006,1
194,2024-09-20 21:27:57.547683105,0,014,-0.5298586591436218,0.5620241375106039,1.0261523089010993,-0.4165721161315851,-0.3521309598111169,0.15159604657600115,-1.062553823153359,0.4979757213941153,1
195,2024-09-20 21:27:57.625082031,0,014,-0.5252060099079584,0.5487800708251024,0.7661339954158934,-0.381275513823579,-0.38106073444733,0.13794695424710599,-1.152744483817395,0.5011577516768128,1
196,2024-09-20 21:27:58.565413086,0,014,-0.5187213002377965,0.5353582641552279,0.5300699000437117,-0.3512833462984688,-0.4073636794162311,0.1238763540722209,-1.1930815241164623,0.48961922666991586,1
197,2024-09-20 21:27:58.630640869,0,014,-0.5097419825689116,0.5218824845824612,0.32619689683714886,-0.32825463790065124,-0.42997066461836286,0.10936630447856321,-1.1817157061974117,0.46332141395779763,1
198,2024-09-20 21:27:58.692733154,0,014,-0.49799869215637943,0.5085047993339672,0.16207060880329494,-0.31346121668254556,-0.44795820710061346,0.09439226749246565,-1.118699591767613,0.42278266086369765,1
199,2024-09-20 21:27:58.772428955,0,014,-0.48368897964403695,0.495417343476421,0.04419548472664374,-0.30773454635960423,-0.46061879307574394,0.07894220491547314,-1.0056675528482037,0.3691114274024012,1
200,2024-09-20 21:27:58.840177002,0,014,-0.4674683841424184,0.48285634947636374,-0.022428550120555207,-0.31147298704328713,-0.46755244961605913,0.06303749787865709,-0.8454144765996195,0.3039163918350342,1
201,2024-09-20 21:27:58.907931885,0,014,-0.4503814840626773,0.4711001066436016,-0.03487662972375496,-0.3246734307156696,-0.4687574724443161,0.04675277134845272,-0.6416157457546743,0.2291163643247388,1
202,2024-09-20 21:27:58.971601074,0,014,-0.43376310284568836,0.460461554625656,0.007100470747195342,-0.34695830388533294,-0.46467895716752905,0.030229331724328214,-0.3988015571491676,0.1467230656082801,1
203,2024-09-20 21:27:59.886975098,0,014,-0.41911714752099416,0.45127117449765314,0.10063261680531319,-0.37758309576399735,-0.4561734744844168,0.01367542583975501,-0.12251173694403006,0.058695376277594635,1
204,2024-09-20 21:27:59.948977051,0,014,-0.40796312675591684,0.4438428859751811,0.2396252514373518,-0.4154330988041679,-0.4443778603831066,-0.0026502430140982716,0.1806100613753443,-0.033102765642600486,1
205,2024-09-20 21:28:00.026607910,0,014,-0.4016598739354484,0.4384236797622903,0.415069316159731,-0.4590385743704329,-0.43052179848991223,-0.018466496092131503,0.5030209586734962,-0.12688659971385075,1
206,2024-09-20 21:28:00.089093994,0,014,-0.4012470031972277,0.43514164312786785,0.6157614778528235,-0.5066355081977106,-0.4157479432433212,-0.03349527477393027,0.8367869346793363,-0.22092871764311617,1
207,2024-09-20 21:28:00.151089844,0,014,-0.40734553500387316,0.4339720309960917,0.8293543414758106,-0.5562659592701478,-0.40097925104953874,-0.04747265800990122,1.174181334800815,-0.3135658493754467,1
208,2024-09-20 21:28:00.228729980,0,014,-0.4201299301000393,0.4347327986857429,1.0435387924337467,-0.6058804649068429,-0.38684541800817296,-0.06014348803829679,1.5081702511378752,-0.4032603656465663,1
209,2024-09-20 21:28:00.300599121,0,014,-0.43935163773987174,0.43710783615749704,1.2471214082398892,-0.6534196324612529,-0.3736744928905833,-0.07124617147209869,1.8327008472285746,-0.48869983123291005,1
210,2024-09-20 21:28:01.236079834,0,014,-0.4643800276979376,0.4406865019462393,1.4308244795996072,-0.6968880239059503,-0.36155002003242587,-0.080499430591285,2.142738297521143,-0.5688574190914135,1
211,2024-09-20 21:28:01.310597900,0,014,-0.4942458617757027,0.4450071915960055,1.587746928480578,-0.7344411333451065,-0.3504237141235391,-0.08760353581510598,2.4339985919395435,-0.6429447578840021,1
212,2024-09-20 21:28:01.375387939,0,014,-0.5277094345244546,0.4495995730829212,1.7135591681808944,-0.7644930405863007,-0.34026379222883446,-0.09225824219707582,2.7024900180077034,-0.7102727842652857,1
213,2024-09-20 21:28:01.437439941,0,014,-0.563377555921474,0.45402517460459435,1.8064980884312114,-0.7858310944951367,-0.3311989619442808,-0.09418707571147121,2.9441687377977916,-0.7700996574277226,1
214,2024-09-20 21:28:01.500081055,0,014,-0.59985271384773,0.45791334869388206,1.8670739894639836,-0.7976923974368961,-0.32360577094850307,-0.09315904015881357,3.1549119004220434,-0.8215345261855881,1
215,2024-09-20 21:28:01.581597168,0,014,-0.6358689786341426,0.46098551273237637,1.8974430540443072,-0.7997528961108631,-0.3181131371445553,-0.08900913367822373,3.3307399311394312,-0.8635195454603725,1
216,2024-09-20 21:28:01.649292969,0,014,-0.6703829415746173,0.463063055434882,1.900675068218874,-0.7920323133138715,-0.3155409387859911,-0.08166035151718044,3.4681418938069957,-0.894882568648319,1
217,2024-09-20 21:28:02.580686035,0,014,-0.7026126442858246,0.46406051554847694,1.8802467437924484,-0.7747810562184537,-0.31680646014421526,-0.07114134171438069,3.564420995247606,-0.9144461038448402,1
218,2024-09-20 21:28:02.658317139,0,014,-0.7320219348699294,0.4639674728545919,1.8398666743501855,-0.748425166785542,-0.3228171181370639,-0.05759130618452981,3.6179607332388604,-0.9211666890723261,1
219,2024-09-20 21:28:02.721102051,0,014,-0.7582530328256124,0.4628214273323902,1.783476524686063,-0.7135903693469126,-0.3343483982548851,-0.041252946184786254,3.6282910258698142,-0.9142647118260504,1
220,2024-09-20 21:28:02.782721924,0,014,-0.7810375112351551,0.4606753718932968,1.7152364812155363,-0.6711636708875606,-0.35191819181922623,-0.02246167206907506,3.5959449525836864,-0.8933147918102888,1
221,2024-09-20 21:28:02.859939941,0,014,-0.8001330205347842,0.45756602936441293,1.639460054868926,-0.6223486013882177,-0.3757055511837027,-0.0016335715974768676,3.5222619186273736,-0.8582936867981876,1
222,2024-09-20 21:28:02.922427979,0,014,-0.8153102947015569,0.45348922397177505,1.560565257656638,-0.568705386222506,-0.40555927847077916,0.020754579179171666,3.4093162309346856,-0.8096054162217763,1
223,2024-09-20 21:28:02.991427002,0,014,-0.8263786397186282,0.4483895963834313,1.4830329203082186,-0.5121742304604409,-0.44108402317136314,0.044199054292018584,3.2599743911363133,-0.7481094186446617,1
224,2024-09-20 21:28:03.930837891,0,014,-0.833221786556687,0.4421704851602206,1.4112902330756463,-0.45505966788155255,-0.48174952140844707,0.06821328628338454,3.077941392988296,-0.6751532698853208,1
225,2024-09-20 21:28:04.007983887,0,014,-0.8358159086929857,0.4347201301689854,1.3494912545391176,-0.3999444275048528,-0.5269748673700168,0.09236830550890555,2.8677286800426773,-0.5925814587642287,1
226,2024-09-20 21:28:04.077997070,0,014,-0.8342093012044176,0.42593887318242646,1.3012428960134594,-0.3495182673434054,-0.5761560637806997,0.11630954545916145,2.6345542457017106,-0.5026975817695108,1
227,2024-09-20 21:28:04.131217041,0,014,-0.8284665841852882,0.4157533304227402,1.2693452027162704,-0.30634125061556566,-0.6286192434957462,0.13973789134765371,2.384127864773522,-0.40818291525168804,1
228,2024-09-20 21:28:04.209323975,0,014,-0.8186097054402469,0.4041162706725299,1.2555942645327076,-0.2725922879422985,-0.6835136278554739,0.16236213231464228,2.1223042561154934,-0.3119808046378819,1
229,2024-09-20 21:28:04.271809082,0,014,-0.8045878733317833,0.39100004218652434,1.2606901919341644,-0.24987072880134675,-0.7396915650587285,0.1838441000792774,1.854740936300672,-0.21715013470988004,1
230,2024-09-20 21:28:04.334294189,0,014,-0.7862729971783564,0.37638951993476205,1.2842756364694992,-0.23909817370787234,-0.795618110521697,0.2037572667216544,1.5867409740468001,-0.12669772718119193,1
231,2024-09-20 21:28:05.282867920,0,014,-0.763457973368578,0.36027435821655196,1.3250251290286201,-0.24050367334830736,-0.8493266731368969,0.22157065333996898,1.3233459635742824,-0.04341650146471437,1
232,2024-09-20 21:28:05.344904053,0,014,-0.7358617654066849,0.34263972064070974,1.3806419256075273,-0.25363692209330324,-0.8984450604497242,0.23666218856547108,1.0695941217001392,0.03023830758274818,1
233,2024-09-20 21:28:05.422592041,0,014,-0.7031705024511565,0.3234599497399846,1.447745186241524,-0.2773882549349967,-0.9403357275928834,0.24836230078658914,0.8307607349706072,0.09222245014373344,1
234,2024-09-20 21:28:05.484653076,0,014,-0.6651273612291805,0.30270317000502045,1.5217963512887127,-0.3100387841226058,-0.9723616014621311,0.2560251337680432,0.6124359101474991,0.14094008450598744,1
235,2024-09-20 21:28:05.560030029,0,014,-0.6216511809048714,0.28035120516637296,1.5972107377600175,-0.34935542571200207,-0.9922211118765288,0.2591144885011165,0.42045472819533175,0.17526468456541552,1
236,2024-09-20 21:28:05.627592041,0,014,-0.572951091458637,0.2564297377587157,1.6676630167030502,-0.3927148055047446,-0.9982483841805326,0.2572774955272676,0.2607362296064662,0.19455777804581081,1
237,2024-09-20 21:28:05.688218018,0,014,-0.5196136135353151,0.2310369138019361,1.7264883347759654,-0.4372378419158636,-0.9895740861782983,0.25037832409083877,0.1389464285394984,0.19869833420562424,1
238,2024-09-20 21:28:06.618999023,0,014,-0.4626488560093947,0.20436079736888324,1.7670747381342458,-0.47993170310363037,-0.9661046780232013,0.2384863181302761,0.05991495848768881,0.1881155619651401,1
239,2024-09-20 21:28:06.685904053,0,014,-0.40348353675297155,0.17668197212670042,1.7832239689525593,-0.5178418783457731,-0.9283698460254359,0.22183826536931234,0.026958909771500315,0.16379801104389202,1
240,2024-09-20 21:28:06.754582031,0,014,-0.34389030794663494,0.1483615133703222,1.769547001551113,-0.5482185596557198,-0.8773314719892765,0.20079752649757632,0.0413325260903832,0.1272692005280922,1
241,2024-09-20 21:28:06.809590088,0,014,-0.28584962716055673,0.1198166144670902,1.7219358474775899,-0.5686943251853737,-0.8142263748955545,0.1758194724866047,0.10189678458784583,0.08053755897031079,1
242,2024-09-20 21:28:06.887893066,0,014,-0.2313536714153454,0.09148670184202724,1.6380618508173175,-0.5774528789215293,-0.7404752432168886,0.14742614852904765,0.20507573537013063,0.026001522235632426,1
243,2024-09-20 21:28:06.950379883,0,014,-0.1821898110204635,0.06379419813642936,1.5178446833287533,-0.5733690330259953,-0.6576526744787051,0.11619372344379476,0.3452123103327696,-0.03373344001590531,1
244,2024-09-20 21:28:07.012375977,0,014,-0.13975869631001164,0.03710644502284558,1.3638543045377116,-0.5561140285691916,-0.5674865712760063,0.082751637246259,0.5153166466716829,-0.09612257439758448,1
245,2024-09-20 21:28:07.962156982,0,014,-0.10495114507010095,0.011704291020817754,1.1815095728954543,-0.5262143659118957,-0.47186366397337687,0.04778679649729655,0.7079662354069859,-0.15895348478104213,1
246,2024-09-20 21:28:08.035218994,0,014,-0.07806646189254761,-0.012239653961593879,0.9788678238422576,-0.48504181552425385,-0.3728470890290269,0.012046302160355073,0.9160253237050672,-0.22052162460705668,1
247,2024-09-20 21:28:08.100833008,0,014,-0.05876743159559683,-0.03466907008263286,0.7659539546737578,-0.43472127125673493,-0.27270827882447907,-0.023669080234444643,1.1329743894780837,-0.27965691255559527,1
248,2024-09-20 21:28:08.163273193,0,014,-0.046107026474734504,-0.055633354736443666,0.5538014912363302,-0.37795664182010036,-0.173939070425022,-0.05852976992296433,1.3528875056601664,-0.3356228281348544,1
249,2024-09-20 21:28:08.238424072,0,014,-0.0386552383066841,-0.07525799724709613,0.35345842193843896,-0.3177889282967839,-0.0791968470537847,-0.09172000937300298,1.5703083899749153,-0.3879674601323925,1
250,2024-09-20 21:28:08.303646973,0,014,-0.03470147679804284,-0.09370270180597967,0.17515897100698438,-0.25731950797299374,0.008832751357415597,-0.1224842581026076,1.78026240481181,-0.4363976526490706,1
251,2024-09-20 21:28:08.365647949,0,014,-0.032472921203146064,-0.11111890596645413,0.027748656566906976,-0.19944769253481742,0.08762438063319927,-0.15016171638728465,1.9784589093320604,-0.4806960087874731,1
252,2024-09-20 21:28:09.311500000,0,014,-0.030321335867000424,-0.12761882518388257,-0.0816527670046864,-0.14667679742995807,0.1550032054944689,-0.1742041944219669,2.161619573049227,-0.520678163187695,1
253,2024-09-20 21:28:09.373500000,0,014,-0.026859622837360177,-0.14326319661029616,-0.1478296482944583,-0.10101426065694646,0.20930848806354935,-0.1941854243489908,2.3277634772459086,-0.5561769404082361,1
254,2024-09-20 21:28:09.450639893,0,014,-0.02105020564311114,-0.1580651907889813,-0.16762639945589544,-0.06393682174678765,0.24952247938105368,-0.2098136496157561,2.4761589332697835,-0.5870065465705916,1
255,2024-09-20 21:28:09.513125977,0,014,-0.01226196488679029,-0.1720004199904485,-0.14016365578475012,-0.03637999505288711,0.2753570223906577,-0.2209518758359476,2.606821219769015,-0.6128721639952541,1
256,2024-09-20 21:28:09.575210205,0,014,-0.0003080497287617836,-0.18501662418941828,-0.06700642424843983,-0.018747901778925682,0.2872987576660884,-0.22764203473875336,2.7198060141049694,-0.6332669633817228,1
257,2024-09-20 21:28:09.652586914,0,014,0.014551528102688826,-0.19704740823368405,0.047880208913882484,-0.010947776926413362,0.28661769590489894,-0.2301268845823946,2.8145959493097576,-0.6474211916030214,1
258,2024-09-20 21:28:09.714586914,0,014,0.031667288786158286,-0.20803450834481715,0.19840951251742514,-0.012431460840956352,0.27531973013677546,-0.22886398206209677,2.8896689519920478,-0.6543102712419943,1
259,2024-09-20 21:28:10.635554932,0,014,0.05010614021512985,-0.21794998137343133,0.37683661634024646,-0.022237245093876493,0.25601403014353785,-0.22452507965498283,2.9423363272113434,-0.652712525013631,1
260,2024-09-20 21:28:10.710984863,0,014,0.06876181094636512,-0.2268048032105594,0.5743719367932253,-0.03904935980663319,0.2316990107166397,-0.21796973577042036,2.9690104627993033,-0.6413441996031783,1
261,2024-09-20 21:28:10.774076904,0,014,0.0864376907364515,-0.23464184734358076,0.7818125295504049,-0.06127684021013689,0.2054997891565024,-0.21018157655082842,2.965837129910471,-0.6190770425474572,1
262,2024-09-20 21:28:10.835657959,0,014,0.10190156314063738,-0.24152219989608936,0.9899606829726818,-0.08713083198525616,0.18038667365329947,-0.2021682521628514,2.9293627107509392,-0.585169392933989,1
263,2024-09-20 21:28:10.914120850,0,014,0.11393392782655667,-0.24751371287772408,1.1897241521973734,-0.1146905900617562,0.15889813570341782,-0.1948448910316072,2.857030993887008,-0.5394397423500553,1
264,2024-09-20 21:28:10.976527832,0,014,0.12139125334843887,-0.25268431283661014,1.3720915284412079,-0.14197487763674232,0.14290296584113749,-0.18893065404601128,2.747572027152328,-0.48238549843005707,1
265,2024-09-20 21:28:11.049585205,0,014,0.12327845212846204,-0.2570958396235815,1.5283671192043782,-0.16705014969587353,0.13344798995979373,-0.18488253760652254,2.6013099135277984,-0.4152710675426714,1
266,2024-09-20 21:28:11.981556885,0,014,0.11880284963355589,-0.26079234389952655,1.6508608172999928,-0.18818604118077234,0.13072888373865257,-0.18287637451564784,2.420294851713293,-0.340162274397743,1
267,2024-09-20 21:28:12.059667969,0,014,0.10739831538341969,-0.2637828726192955,1.7337705280380393,-0.20401369843572686,0.13418261449394206,-0.18282887043625443,2.2082775665511054,-0.2598736630727391,1
268,2024-09-20 21:28:12.121736084,0,014,0.08874073381313752,-0.26602742975240334,1.7737555459887926,-0.21361511044108705,0.14265093750597055,-0.1844419830768764,1.9706281064679523,-0.17782736329701432,1
269,2024-09-20 21:28:12.183583008,0,014,0.06277981538347638,-0.26743566947808983,1.7699286724503047,-0.21651469822034497,0.154551585743078,-0.18725291184774356,1.714176713518489,-0.09783264193313339,1
270,2024-09-20 21:28:12.260773926,0,014,0.02978441077586171,-0.26787933772554373,1.7234157651550082,-0.2126123893624103,0.16802532230895736,-0.19068630469968026,1.4468578531706773,-0.023795336954212404,1
271,2024-09-20 21:28:12.323261963,0,014,-0.009623225903169032,-0.26721205181355895,1.6368304815355859,-0.2021174813459854,0.18106504894622016,-0.19411110337112433,1.1770747472214635,0.040616339332037336,1
272,2024-09-20 21:28:12.386713135,0,014,-0.054462949683465336,-0.26529021250815016,1.5138758988032963,-0.18550293433617532,0.19164813076151338,-0.19690032205100827,0.9128082541224783,0.09231249011825442,1
273,2024-09-20 21:28:13.328063964,0,014,-0.1034266082635111,-0.26199193094095263,1.3590545250656665,-0.16345810202915748,0.1978724163853951,-0.19848723481270064,0.6606581626652004,0.12909746484421858,1
274,2024-09-20 21:28:13.406634033,0,014,-0.15494227058033688,-0.25723219040462825,1.1774071176731054,-0.13682288523403857,0.19806295686799133,-0.19840673689144608,0.42513753591360043,0.14991732308232245,1
275,2024-09-20 21:28:13.468625977,0,014,-0.20727220004472238,-0.250971153237197,0.9742705529465532,-0.10651295503496919,0.19082162131633407,-0.1963104710382649,0.20848736684471733,0.15496734193592762,1
276,2024-09-20 21:28:13.546733887,0,014,-0.2586418225894201,-0.24320992383483947,0.7550950396211641,-0.0734542261481985,0.1750334657090894,-0.191955115294486,0.011030743887500229,0.14561461181327529,1
277,2024-09-20 21:28:13.614173828,0,014,-0.30739045998616865,-0.23397133187835048,0.525387437027383,-0.03854263978499747,0.14986760114740175,-0.18517639493619636,-0.1681892820561539,0.12417503342448251,1
278,2024-09-20 21:28:13.679590088,0,014,-0.352121573388941,-0.22327440935720988,0.29079902836120475,-0.0026358861335202435,0.11479197975999857,-0.17586358035190094,-0.33083744258089,0.09363156113609403,1
279,2024-09-20 21:28:13.742077148,0,014,-0.39182555326432644,-0.2111161382328228,0.05720377134358007,0.033440870912300566,0.06958938163405573,-0.16394142964444755,-0.4789596434331297,0.05736165089090964,1
280,2024-09-20 21:28:14.680290039,0,014,-0.42596447744943483,-0.1974651134309761,-0.16947742159447385,0.06890790001659353,0.01435685083463224,-0.1493602158129883,-0.6147968700394586,0.018902112976462337,1
281,2024-09-20 21:28:14.758490967,0,014,-0.45451913866198357,-0.1822638945849678,-0.38380208511478237,0.10307916478202603,-0.050505538688738395,-0.13209408120915941,-0.7405289382356647,-0.018260863824372458,1
282,2024-09-20 21:28:14.820504882,0,014,-0.47798102066495657,-0.1654393959388728,-0.5815036877158548,0.1354227491822415,-0.12428860001641047,-0.11214845112427144,-0.8579124475432239,-0.05090152711939495,1
283,2024-09-20 21:28:14.882512939,0,014,-0.49726402492217725,-0.14692243574213412,-0.7599996996405685,0.16558126822175898,-0.20592422230802457,-0.08957698979230562,-0.9679385670102834,-0.07626068901814786,1
284,2024-09-20 21:28:14.960621094,0,014,-0.5135476027075248,-0.12667191252834403,-0.918463584497203,0.1933329447870922,-0.2939029435963094,-0.0645066361452891,-1.0705818241226834,-0.09222705099132113,1
285,2024-09-20 21:28:15.022628906,0,014,-0.528104264907979,-0.1046947889616647,-1.057561560483818,0.21853793964299537,-0.3862214307249514,-0.037161888049839234,-1.1646379906528435,-0.0974815631490635,1
286,2024-09-20 21:28:15.085114990,0,014,-0.5421582572055691,-0.0810572320637981,-1.1791268199392866,0.24112154857388596,-0.4804245840734265,-0.007874703632864244,-1.2476652643232258,-0.09158734916833597,1
287,2024-09-20 21:28:16.042682861,0,014,-0.556781792909847,-0.05589066284492309,-1.2858720701788695,0.2610985249786298,-0.5737486942012051,0.02292550258636976,-1.3160575027774504,-0.07499445626382852,1
288,2024-09-20 21:28:16.111261963,0,014,-0.5728093821262192,-0.029400595677473454,-1.3810472381142191,0.2786065018881112,-0.6633237616569865,0.05473457440507307,-1.3653041728131379,-0.04894516546790168,1
289,2024-09-20 21:28:16.179011963,0,014,-0.5907587876032291,-0.0018819243826761337,-1.4679897186465138,0.29391551166348145,-0.7463947987420356,0.0869964387436799,-1.3904663804911674,-0.015308667239200317,1
290,2024-09-20 21:28:16.246718018,0,014,-0.6107692359982387,0.026265222674878404,-1.5496185757227907,0.3073959777274595,-0.8205371126686782,0.11911702813040488,-1.3867140247463068,0.023592966163250184,1
291,2024-09-20 21:28:16.314448975,0,014,-0.632578973308344,0.054531635754894225,-1.6279022739804767,0.31943736493413183,-0.8838408967315036,0.15047115709404782,-1.3496714443445523,0.06511935223842637,1
292,2024-09-20 21:28:16.367072021,0,014,-0.6555560771097789,0.0823172467166734,-1.7033033843785759,0.3303245628578826,-0.9350382348802138,0.18041285400807452,-1.2755482711596813,0.10641641945667092,1
293,2024-09-20 21:28:16.444664062,0,014,-0.678778956353331,0.10897155028972433,-1.7742836793522332,0.3401110736009149,-0.9735521196488414,0.20829611340308596,-1.1613042981401926,0.14454100719302074,1
294,2024-09-20 21:28:17.368009033,0,014,-0.701155418188166,0.13384656556223692,-1.8370461483923328,0.3485476557212294,-0.9994707278383818,0.23350667269780734,-1.005079087749406,0.17664048314354217,1
295,2024-09-20 21:28:17.435760986,0,014,-0.7215689924278184,0.15634929875380427,-1.885691922759098,0.35510583068515866,-1.0134858586491495,0.2555063782616817,-0.8068844386744785,0.20018680533399635,1
296,2024-09-20 21:28:17.503575928,0,014,-0.7390306785373305,0.1759846835110554,-1.91284963948011,0.3590899849271614,-1.0168368153369667,0.273888525407166,-0.5693091655877272,0.21323356847612646,1
297,2024-09-20 21:28:17.571279053,0,014,-0.7527999093362688,0.1923865722640818,-1.9106444752593414,0.3597913147502082,-1.0112545762486502,0.28842990136459795,-0.29787409681589333,0.2146295114069736,1
298,2024-09-20 21:28:17.630614990,0,014,-0.7624401304788757,0.20533591504949045,-1.8717435713308972,0.3566300716160148,-0.9988686352287703,0.2991197299769653,-0.0008054685856153901,0.20411074799908346,1
299,2024-09-20 21:28:17.705870117,0,014,-0.7677937400752287,0.2147607078682114,-1.7902586573804502,0.34926193807113076,-0.9820564920217562,0.3061539003991515,0.31173908928615607,0.1822451583516742,1
300,2024-09-20 21:28:17.769941895,0,014,-0.7688933450521462,0.22071314362756397,-1.6624460673946537,0.33765240940147084,-0.9632481966003054,0.3098961528816973,0.6287664575403755,0.15028008615627075,1
301,2024-09-20 21:28:18.718096924,0,014,-0.765859777877539,0.22333251346767713,-1.487207425911874,0.32211160311413806,-0.9447206958232447,0.3108220217724133,0.9395695683100738,0.10997996592760326,1
302,2024-09-20 21:28:18.771579102,0,014,-0.7588357651167457,0.22281215901930398,-1.2663322393776015,0.3032595608340601,-0.9284209360271022,0.3094677075349305,1.2345863473591425,0.06352002565707093,1
303,2024-09-20 21:28:18.848781006,0,014,-0.7479586358387228,0.21938027336384874,-1.0044073130248885,0.2819137446802932,-0.9158376116867477,0.30639544859333273,1.5058279005325013,0.013448954832943094,1
304,2024-09-20 21:28:18.911268066,0,014,-0.733341162026769,0.21328897042108677,-0.7083910485621374,0.2589389678757996,-0.9079247611489465,0.3021704845142692,1.746925082698257,-0.03732564830560385,1
305,2024-09-20 21:28:18.989065918,0,014,-0.7150444051234254,0.20480235753711576,-0.38697149404362147,0.2351243910524934,-0.9050785832883315,0.2973392572113806,1.9530019656602602,-0.08560097402422676,1
306,2024-09-20 21:28:19.049873047,0,014,-0.6930603553856213,0.1941828891475109,-0.04994635029027006,0.21113666719465382,-0.9071578068993814,0.29240343432322063,2.120564300608634,-0.12804248049506822,1
307,2024-09-20 21:28:19.112360840,0,014,-0.6673299869583715,0.18168207503872194,0.29217891294504367,0.18754653137410612,-0.9135251287496646,0.2877914119499779,2.24743294412263,-0.16145073572561278,1
308,2024-09-20 21:28:20.054197021,0,014,-0.6377970445421767,0.16753848301554364,0.6284092702772995,0.16487678319624072,-0.923106677851473,0.2838360037283162,2.3326094882229427,-0.18307799499397479,1
309,2024-09-20 21:28:20.132428955,0,014,-0.6044768933132936,0.1519813067441052,0.9474962667445426,0.14362577883573538,-0.9344967227596099,0.2807693012659905,2.3759616803916517,-0.190906928129888,1
310,2024-09-20 21:28:20.201076904,0,014,-0.5675261824953705,0.13523854147867356,1.2383532166982898,0.12425763915223616,-0.9461213030262811,0.27873611531336023,2.3777449494341107,-0.183828117427322,1
311,2024-09-20 21:28:20.271632812,0,014,-0.5273026310320341,0.11754772614697874,1.4906752546568673,0.10716497482198105,-0.9564276136846437,0.27781339746306044,2.3381166329607175,-0.1617036814501119,1
312,2024-09-20 21:28:20.334364990,0,014,-0.4843940449355082,0.09916297151372735,1.6956332378637173,0.09261842233867265,-0.9640447202512471,0.27802025007484915,2.2568522677135854,-0.12533309199810252,1
313,2024-09-20 21:28:20.396214111,0,014,-0.4396049510582581,0.08035342870951466,1.8463727085478752,0.08073970277338403,-0.9678786244556878,0.2793126946321085,2.1334320421970063,-0.0763466456890326,1
314,2024-09-20 21:28:20.473826904,0,014,-0.39390944340257483,0.06139255738080491,1.9381258165911102,0.07153615474525407,-0.967131639426986,0.2815683649822045,1.9675602939135521,-0.017061272221244088,1
315,2024-09-20 21:28:21.382656006,0,014,-0.34837367149405524,0.042537487120323715,1.9680659877357527,0.06499320847825797,-0.9612617175415976,0.2845727020108525,1.7599936143770707,0.04966406442340675,1
316,2024-09-20 21:28:21.460787109,0,014,-0.30404539452788365,0.024000090055381163,1.9352134855230345,0.06117169480220751,-0.9499254093589684,0.28801951117255165,1.513363118519909,0.12055979112156612,1
317,2024-09-20 21:28:21.523271973,0,014,-0.26183521651760017,0.0059197925559121255,1.8404864692965892,0.06025417799543029,-0.9329539388570773,0.2915332622599445,1.232663873970836,0.1920849636737937,1
318,2024-09-20 21:28:21.598129149,0,014,-0.22243814803939374,-0.011648236148752426,1.6867065430715122,0.0625352756212423,-0.9103662902690913,0.29470826493471547,0.9252337869938008,0.26059849630197596,1
319,2024-09-20 21:28:21.665874023,0,014,-0.1863224226903793,-0.028723940422856115,1.4784141833538176,0.06838118511352832,-0.882372468705063,0.2971488238240509,0.6001985717678687,0.32256736999978836,1
320,2024-09-20 21:28:21.733618896,0,014,-0.15376567979503844,-0.045379106701642496,1.2216507652568784,0.07814745263750092,-0.8493339171946215,0.2984950777158334,0.2675372904974958,0.3748047098699811,1
321,2024-09-20 21:28:21.795260010,0,014,-0.12489586409233487,-0.06171200337492733,0.9239865798000243,0.09202231766013172,-0.8116972741329508,0.2984308370585163,-0.06285800359447809,0.41470512662894327,1
322,2024-09-20 21:28:22.736629883,0,014,-0.09971105187639574,-0.07782624968019607,0.594816637973604,0.10982709654140367,-0.7699419101656619,0.2966830593231234,-0.3817682340435149,0.44041844085993537,1
323,2024-09-20 21:28:22.799117188,0,014,-0.07807809937079643,-0.09381108478886338,0.2456006972169398,0.13087791335518112,-0.7245741412259132,0.2930284223467225,-0.68084752357765,0.45092896584547454,1
324,2024-09-20 21:28:22.879375000,0,014,-0.05971649280135018,-0.10971810875664555,-0.11032463780585854,0.1539906080753952,-0.6761621883826205,0.2873133150740164,-0.9526541129804721,0.44606065355136776,1
325,2024-09-20 21:28:22.947071045,0,014,-0.04417458076476662,-0.1255359636118737,-0.4584658346702922,0.17761938512646055,-0.6253663456803925,0.27947650207736663,-1.1907113105957208,0.42645430040586924,1
326,2024-09-20 21:28:22.999843994,0,014,-0.030820947714653057,-0.14116944331327097,-0.7842405802240001,0.20006191216007616,-0.5729383379236167,0.26955988678927617,-1.389711370739142,0.393553363232,1
327,2024-09-20 21:28:23.082570068,0,014,-0.0188827517169988,-0.1564264352054058,-1.0741149737195348,0.2196721299546429,-0.5197188697443582,0.2577052346619769,-1.5458557529909116,0.34959015107960156,1
328,2024-09-20 21:28:23.147964111,0,014,-0.007534924341874455,-0.17101148183656256,-1.3165801819358602,0.2350502124036789,-0.4666645383367052,0.24414339592430928,-1.6571699641020474,0.2975230075109013,1
329,2024-09-20 21:28:24.090562988,0,014,0.003997286208002702,-0.184525416925534,-1.5028344292659612,0.24519116081883893,-0.414875168344703,0.2291780272272732,-1.7236540097504223,0.24089544233594867,1
330,2024-09-20 21:28:24.157696045,0,014,0.016365616005697692,-0.19647448565842865,-1.627144627103374,0.2495764729645812,-0.3655604399781526,0.21316056432474456,-1.747335606924369,0.18363337781094105,1
331,2024-09-20 21:28:24.214073975,0,014,0.030062677903009576,-0.20629491805969027,-1.686969770574505,0.24821082018751478,-0.31993734015832004,0.19645960207016183,-1.7323058452960376,0.12978423157992772,1
332,2024-09-20 21:28:24.291687012,0,014,0.045390530779733,-0.21339576216722542,-1.6830121105414515,0.24163422140441973,-0.27912258267470247,0.1794385822160968,-1.6845630842012653,0.08315972173624266,1
333,2024-09-20 21:28:24.364798096,0,014,0.06240582109391091,-0.21721505695881704,-1.6193133033651812,0.23093040542738225,-0.24408118756456407,0.1624530228641729,-1.6114744653586017,0.04688995298280641,1
334,2024-09-20 21:28:24.432566895,0,014,0.08086156484384587,-0.21728127203931796,-1.5032804251262941,0.2176940916350838,-0.21561570795906104,0.14585984603367955,-1.5210346089898947,0.023021043636870762,1
335,2024-09-20 21:28:24.492567139,0,014,0.10020693878431668,-0.21327857876457823,-1.3453587430375242,0.20389210270466215,-0.1943200466435356,0.1300157899615866,-1.4212841333598734,0.012320765516136287,1
336,2024-09-20 21:28:25.439874023,0,014,0.11969369802957443,-0.20512288383932778,-1.1581948531764463,0.19160067130118347,-0.1804503355302906,0.11524941971854297,-1.3200246756566096,0.014339670636470712,1
337,2024-09-20 21:28:25.496343994,0,014,0.1385777602772097,-0.19305155994257053,-0.9554030143996184,0.1826758901291421,-0.17375197007527565,0.10181556500626665,-1.2247607083514158,0.027653607917493956,1
338,2024-09-20 21:28:25.573565918,0,014,0.15634866852182241,-0.1777129588087388,-0.7502204520014202,0.17846192189466348,-0.17332917580786172,0.0898547696002529,-1.1427590232539104,0.05019071118476484,1
339,2024-09-20 21:28:25.645155029,0,014,0.17291703508566034,-0.16023116379107236,-0.5543602893860917,0.1796305745131448,-0.17761654325213447,0.07937317885903042,-1.0810668518767634,0.079585092448141,1
340,2024-09-20 21:28:25.702818115,0,014,0.18873278710560942,-0.1422295157946368,-0.37724835158079645,0.1861685146833935,-0.18446153909271493,0.07024531702216695,-1.0463098168077205,0.11351846390533314,1
341,2024-09-20 21:28:25.779954102,0,014,0.20484149961048093,-0.12581245005219,-0.22564308666047908,0.19745016006068214,-0.1912996381359092,0.06223585614497613,-1.0441669462589451,0.1499837978461759,1
342,2024-09-20 21:28:25.841822021,0,014,0.22288507728460036,-0.11351449154628325,-0.10356566728056359,0.21233958741907036,-0.19539826503394983,0.05503556682317878,-1.0785122880984988,0.18739494151426853,1
343,2024-09-20 21:28:26.791122803,0,014,0.24503876204317954,-0.10822465199266086,-0.012544248979497467,0.22933528026265426,-0.19413955557605764,0.048306120807681735,-1.1503223319207396,0.2245155680464455,1
344,2024-09-20 21:28:26.859675781,0,014,0.27387769989135907,-0.11308771338023507,0.047777493454771156,0.24680288430811845,-0.18529662349486925,0.04172642016911273,-1.2566234969189685,0.2602546719339218,1
345,2024-09-20 21:28:26.925764160,0,014,0.3121860859235248,-0.1313789392273802,0.07876782237335346,0.2632819473540631,-0.16725117917145899,0.03503222835594335,-1.3899162923849564,0.293434240857069,1
346,2024-09-20 21:28:26.987904053,0,014,0.36274084464487183,-0.16635177633941467,0.08204560674803496,0.2777705751741482,-0.13912093170586629,0.028042987331156396,-1.5384618803483272,0.3226440806847123,1
347,2024-09-20 21:28:27.049907959,0,014,0.42809984048798216,-0.22106302795235383,0.05927213309957259,0.28988402992405926,-0.10079880123178787,0.0206725982198881,-1.6874535868551177,0.34623765213657015,1
348,2024-09-20 21:28:27.130702881,0,014,0.51040892323066,-0.2981791728595425,0.01255268834798513,0.29986117650880073,-0.052922693944036724,0.01292538879787587,-1.8206591440669497,0.3624333733970316,1
349,2024-09-20 21:28:27.198477051,0,014,0.6112346674884191,-0.3997668436066399,-0.05500909218372537,0.30847091056020504,0.0032052663485732822,0.00488599734942449,-1.9219564079997995,0.36943780041609114,1
350,2024-09-20 21:28:28.117562012,0,014,0.7314278356640468,-0.5270761250956922,-0.13909797493056897,0.31687116869485077,0.0657362856762368,-0.003288119384786219,-1.9764235807577557,0.3655368594667751,1
351,2024-09-20 21:28:28.177139160,0,014,0.8710170624259185,-0.6803327859598499,-0.23439979343425196,0.32643455929903653,0.13242547120845954,-0.011376762263225232,-1.971106686276872,0.3491833459094562,1
352,2024-09-20 21:28:28.253101074,0,014,1.0291289196276903,-0.8585590624208833,-0.33503634633260276,0.33854794523301834,0.20080701488469202,-0.019123527450973385,-1.8957913206484331,0.31914757846544256,1
353,2024-09-20 21:28:28.320461914,0,014,1.2039311678972282,-1.059441565974919,-0.43502569504871386,0.35440195046895756,0.2683577411182037,-0.026280375869444914,-1.7438479158741784,0.2747382121323813,1
354,2024-09-20 21:28:28.387639893,0,014,1.3926023462955628,-1.2792639347918864,-0.5286553046662925,0.3747898454162891,0.33260498302148767,-0.03265378629443689,-1.5129570615273567,0.21601527898624026,1
355,2024-09-20 21:28:28.456176025,0,014,1.5913422838161595,-1.5129250572250097,-0.6107229491551077,0.39994946126169467,0.3911770678699567,-0.0381339591933011,-1.2055676124310801,0.14389879884466364,1
356,2024-09-20 21:28:28.524075928,0,014,1.7954462424204256,-1.7540706506064916,-0.6766761540110027,0.4294866093782226,0.4418495456050592,-0.04270257553076574,-0.8290575574566524,0.060128449284563804,1
357,2024-09-20 21:28:29.463568115,0,014,1.9994735424289511,-1.9953701203971468,-0.7227275951553476,0.4623920960930449,0.482644873624461,-0.04642702451410385,-0.39556337315697304,-0.032903534749043395,1
358,2024-09-20 21:28:29.525183838,0,014,2.1975364012257153,-2.228949372950249,-0.7459756457689694,0.49713331138508304,0.511990003643856,-0.049448675744372846,0.07859880778498657,-0.1323899030942334,1
359,2024-09-20 21:28:29.604741943,0,014,2.383689973584335,-2.4469343591409594,-0.744475955932571,0.5317947632378831,0.528890177295085,-0.05196889821812631,0.5739440590110563,-0.23534918327695958,1
360,2024-09-20 21:28:29.668853027,0,014,2.5523597623543512,-2.6420156896994684,-0.7172225674156716,0.5642516992305475,0.5330763963392183,-0.054235723343490166,1.0691493638576888,-0.3388047411738588,1
361,2024-09-20 21:28:29.740205078,0,014,2.698747699415528,-2.8079545809926922,-0.6640906431828649,0.5923648851586021,0.5250930374344577,-0.056529197917434756,1.5425462341902054,-0.43988270294980886,1
362,2024-09-20 21:28:29.807968018,0,014,2.8191730383790796,-2.939987358902256,-0.5858232427007182,0.614178692900114,0.5062937721302471,-0.05913854644235331,1.9737198266148317,-0.5358828507131063,1
363,2024-09-20 21:28:29.874791016,0,014,2.911296055544393,-3.0351073566206486,-0.484049690183268,0.6280923534823818,0.4787334771510707,-0.06233089857784392,2.3451771250399207,-0.6243903201214548,1
364,2024-09-20 21:28:30.816163086,0,014,2.9741856368044455,-3.09220879932815,-0.36122354869910916,0.6329614337516699,0.44497508626071797,-0.06632136842296324,2.643811475149033,-0.7034179402204463,1
365,2024-09-20 21:28:30.880760010,0,014,3.008239857391324,-3.1120839136622367,-0.22040759971763255,0.6280993792652194,0.4078455119348318,-0.07125367018038437,2.8617403516277635,-0.7714941360562049,1
366,2024-09-20 21:28:30.940921143,0,014,3.0150085915310996,-3.09727811882985,-0.06495765058038996,0.6131968672840471,0.37018116009559066,-0.07719436713177459,2.996399658924313,-0.8276318777541238,1
367,2024-09-20 21:28:31.023134033,0,014,2.9969790610062135,-3.0518257208272694,0.10176930165851256,0.5882215865593694,0.33461152538970623,-0.0841403150382702,3.050178361034536,-0.8711970922008304,1
368,2024-09-20 21:28:31.080126953,0,014,2.9573761696721093,-2.980904321857613,0.27653736807704216,0.5533711730587546,0.30341548798903306,-0.09203417411294994,3.0298876593281023,-0.9017591619398543,1
369,2024-09-20 21:28:31.158559082,0,014,2.899999164915593,-2.890452073062676,0.4560757684087496,0.5091259126530413,0.27844289125714444,-0.10077658612196096,2.946198933474958,-0.9190223578472798,1
370,2024-09-20 21:28:31.221573975,0,014,2.829075434965397,-2.7867837284622206,0.6366729959604595,0.45639379462864305,0.2610654934635471,-0.11022452196048307,2.813097555933409,-0.9228912085198284,1
371,2024-09-20 21:28:32.137620117,0,014,2.749094659698902,-2.676227683008226,0.8136849798090199,0.3966887772315651,0.25214133629392455,-0.12017732160003651,2.6472364447404804,-0.9136226834551539,1
372,2024-09-20 21:28:32.202497070,0,014,2.6646058054683697,-2.56479790211549,0.9811576718099001,0.3322649321030368,0.2520158311946539,-0.1303643311908197,2.4669424242425473,-0.8919526786616474,1
373,2024-09-20 21:28:32.281052979,0,014,2.5799891255941008,-2.457912827678941,1.1317663392261867,0.2661411311451926,0.2605841351833004,-0.14044861540448209,2.290752271338435,-0.8591134159692563,1
374,2024-09-20 21:28:32.341437988,0,014,2.4992280124990174,-2.36017236676172,1.2572172641849317,0.20198295024946986,0.2773977379144428,-0.15005179863865123,2.135575835660261,-0.8167197845780315,1
375,2024-09-20 21:28:32.416459961,0,014,2.4256998248826838,-2.2751988516733475,1.3490595257763511,0.14385740715483505,0.3017587366187633,-0.15879131223340912,2.0147443665522697,-0.7665457674817995,1
376,2024-09-20 21:28:32.484184082,0,014,2.3619990331327823,-2.2055396235709894,1.3996540840682876,0.09591277957799137,0.33274551267659397,-0.16631005821501008,1.936337188645815,-0.7102624972926807,1
377,2024-09-20 21:28:32.551570801,0,014,2.309817439106671,-2.152626435629898,1.4030422067697954,0.062029754028827995,0.36915969417605615,-0.17228530698598002,1.902194667401019,-0.6492493920957711,1
378,2024-09-20 21:28:33.494105957,0,014,2.269914815615646,-2.116793015473841,1.3556071779257375,0.04547381478378776,0.40944898189630247,-0.17642690147626058,1.907827393891865,-0.5845502578694494,1
379,2024-09-20 21:28:33.562108154,0,014,2.242185857418586,-2.0973551251364864,1.25651079965136,0.0485957652157533,0.45168840147166817,-0.17848504067214635,1.9431824651294058,-0.5169489980909456,1
380,2024-09-20 21:28:33.630556152,0,014,2.2257906756036916,-2.092748725256804,1.107803861184954,0.0726420482153046,0.4936630234829973,-0.17827264820014221,1.9940805777385884,-0.44709348451617226,1
381,2024-09-20 21:28:33.693711914,0,014,2.2193133145022417,-2.1007095635223973,0.914094325683269,0.11770011335548002,0.5330312057198237,-0.17568924074423706,2.044066906202379,-0.3756256343760067,1
382,2024-09-20 21:28:33.756196045,0,014,2.220930382324815,-2.118472024288464,0.6819127201921598,0.1827504830035151,0.5675218783006571,-0.17073257021431665,2.076403547795599,-0.3032992385040897,1
383,2024-09-20 21:28:33.832853027,0,014,2.2285722612031487,-2.142966135210615,0.4191384902863355,0.2657788889894309,0.5951311516035288,-0.16349600760910155,2.0759575176852425,-0.23105877001407707,1
384,2024-09-20 21:28:33.901300049,0,014,2.2400549925412245,-2.170994745839873,0.134699304412485,0.3639095630486756,0.6142902825173516,-0.15415689569364835,2.0307728385837702,-0.16006508095900998,1
385,2024-09-20 21:28:34.845138184,0,014,2.253173439626964,-2.199376380365888,-0.16156249964371053,0.47353149854255444,0.6239751986462837,-0.142959212660295,1.93315780362185,-0.09167606577444705,1
386,2024-09-20 21:28:34.912877197,0,014,2.2657568632637792,-2.2250436552545643,-0.4590363564362434,0.5904074364203024,0.6237463378848072,-0.13019247474839013,1.7801535084303737,-0.027372387124770657,1
387,2024-09-20 21:28:34.975744873,0,014,2.2756824484033746,-2.245094499943659,-0.7465145350588684,0.7097765994236792,0.613736198956033,-0.1161710971009028,1.5733159065222149,0.031389143584431824,1
388,2024-09-20 21:28:35.048332031,0,014,2.2808488126744493,-2.256806279006607,-1.0123154155674103,0.8264740974550489,0.5946048690065654,-0.10121913502654503,1.3178842087351768,0.08335955569967377,1
389,2024-09-20 21:28:35.116056885,0,014,2.2791406950784467,-2.2576363639489045,-1.2444033890357746,0.9350952372072011,0.5674733028004523,-0.08566421020979556,1.02153294762402,0.1276427066605777,1
390,2024-09-20 21:28:35.183731934,0,014,2.26842222791351,-2.245233840351514,-1.4306849035141362,1.0302310399632315,0.5338516999832829,-0.06984188309831434,0.692951538661921,0.16375715748294178,1
391,2024-09-20 21:28:35.251461914,0,014,2.246565775458493,-2.2174747615695587,-1.5596641068922106,1.1067813645913238,0.4955807467516825,-0.05410561681322092,0.3405167132867789,0.19164328924561636,1
392,2024-09-20 21:28:36.193679199,0,014,2.211510272667273,-2.1725231498440145,-1.6214880369884508,1.1603190731765782,0.45476990410482826,-0.038833016534008294,-0.028642018574384236,0.2116758647846603,1
393,2024-09-20 21:28:36.261435059,0,014,2.1613602725046217,-2.1089185516337436,-1.609169946102371,1.1874495614520186,0.41370049505000933,-0.024423745060070598,-0.4089283733961487,0.22469510417335978,1
394,2024-09-20 21:28:36.329180908,0,014,2.094535971935216,-2.0256886679657424,-1.5196469914569835,1.1860970948380258,0.3746992440263405,-0.011293767639826272,-0.7959100778879936,0.2320130721187226,1
395,2024-09-20 21:28:36.396896973,0,014,2.009953311712792,-1.922477656244751,-1.3544370944721607,1.1556651992524887,0.34001918561419675,0.00012758272679190793,-1.1855904293511728,0.23535111445165519,1
396,2024-09-20 21:28:36.452631836,0,014,1.9071910057402248,-1.79967355147981,-1.1198442254266172,1.0970569368583738,0.3117444248301904,0.00939963758250056,-1.5736956662652668,0.23668914668217275,1
397,2024-09-20 21:28:36.530740967,0,014,1.786609951882914,-1.6585122054713721,-0.8266788803575401,1.012567542013128,0.29170637469460825,0.016082254908217627,-1.9552222264667711,0.2380425323838075,1
398,2024-09-20 21:28:36.600148926,0,014,1.6494101270051158,-1.5011257602983716,-0.4893997290612779,0.9056671154819991,0.28139816931635375,0.019765947020471658,-2.3243149451653897,0.2412262904653059,1
399,2024-09-20 21:28:37.539218994,0,014,1.4976219494528096,-1.3305018057261646,-0.12471869632447359,0.7807027858657937,0.2818885876677286,0.020114878206667082,-2.674399625175683,0.24766969447670512,1
400,2024-09-20 21:28:37.613159912,0,014,1.3340353252389046,-1.1503398264149116,0.250002549717931,0.6425691730061546,0.2937517484028575,0.016905297697358258,-2.998432129472547,0.2583041276989677,1
401,2024-09-20 21:28:37.675415039,0,014,1.1620723767905412,-0.9648240999126171,0.6181495474586427,0.4963932261604845,0.31703096063117286,0.010044851222245956,-3.2891687615673737,0.273517430593984,1
402,2024-09-20 21:28:37.737469971,0,014,0.9856092785726795,-0.7783510041309518,0.9648583038119508,0.3472486719829447,0.35123648239463656,-0.0004272585192345533,-3.539409129841844,0.29315259628653745,1
403,2024-09-20 21:28:37.814793945,0,014,0.8087516137313869,-0.5952463995395765,1.2777167840439867,0.1998879939605561,0.3953616741455686,-0.014347503826067209,-3.7421914739642266,0.31652330689758645,1
404,2024-09-20 21:28:37.877176025,0,014,0.6355734797703747,-0.4195013223435767,1.547338183915982,0.05848480878092046,0.44791035170435833,-0.031430759230901745,-3.8909633255112865,0.3424388120208306,1
405,2024-09-20 21:28:37.939662842,0,014,0.46984837977596444,-0.2545519832293438,1.7678886607098971,-0.07359905702919042,0.5069394936266567,-0.0512657396212463,-3.9798059345078545,0.3692620392677953,1
406,2024-09-20 21:28:38.868379150,0,014,0.3148138509704044,-0.10312467686828167,1.9375044883358064,-0.19399501707071676,0.5701228750744592,-0.07330902354926279,-4.0038752274185425,0.395044313448842,1
407,2024-09-20 21:28:38.936548828,0,014,0.17299934163342556,0.03284893558884271,2.0583717138488646,-0.30141800732391427,0.6348425628766654,-0.09688574053110878,-3.9601450086746937,0.4177504539574056,1
408,2024-09-20 21:28:39.004290039,0,014,0.04611782721203844,0.15225579041576653,2.136182027640998,-0.3956160485654018,0.6983115215860364,-0.12120355740697378,-3.8482154896622776,0.4355167410762182,1
409,2024-09-20 21:28:39.072027832,0,014,-0.06498683002993033,0.2547759192970841,2.178872521617342,-0.4771511903316467,0.7577182794882548,-0.14538362589563109,-3.6708406097285775,0.4468697872033831,1
410,2024-09-20 21:28:39.139739014,0,014,-0.1603283327758886,0.3408118175393012,2.1948975187537774,-0.5470375625087589,0.8103812968323792,-0.16850740531159986,-3.434083357815015,0.4508850798301499,1
411,2024-09-20 21:28:39.203807129,0,014,-0.2406982211025205,0.41137954410370103,2.191496786424291,-0.6063224258082074,0.8539071769274296,-0.18967411856005742,-3.1471519782727984,0.4472811963249616,1
412,2024-09-20 21:28:39.273391113,0,014,-0.3075465706257856,0.46798002718371134,2.173417853591306,-0.6557301788821163,0.8863462675158733,-0.20806228736765234,-2.8219067600822805,0.4364372389082704,1
413,2024-09-20 21:28:40.215077881,0,014,-0.3628498162668347,0.5124691275883151,2.142393599266459,-0.6954711967316722,0.906340499953151,-0.2229906556988909,-2.472047136488903,0.4193388267618414,1
414,2024-09-20 21:28:40.277169922,0,014,-0.40894571390749185,0.5469291384617642,2.0974228514142093,-0.7252504875190768,0.9132558692407649,-0.2339725571994504,-2.112072433021595,0.39745676958238785,1
415,2024-09-20 21:28:40.339655029,0,014,-0.4483019338789716,0.5735330389445752,2.035622263069142,-0.7444273013283053,0.9072559010955774,-0.24074858215310257,-1.7561303165867166,0.3725336974120506,1
416,2024-09-20 21:28:40.419250000,0,014,-0.4832365961268194,0.594400925629527,1.9532789127147487,-0.7522309114114066,0.8892506180293133,-0.24328149064470145,-1.4168355313407568,0.34627078993000965,1
417,2024-09-20 21:28:40.478256104,0,014,-0.5156682572748642,0.6114666455553258,1.8468110764252472,-0.7479614876811347,0.8607109990571327,-0.24171639056880811,-1.1041392009470536,0.31997487508370925,1
418,2024-09-20 21:28:40.556364990,0,014,-0.5469799586766686,0.6263813277834506,1.7135131194872206,-0.731153198809713,0.8234151598426759,-0.23632706713267335,-0.8244760278498189,0.2942840488708335,1
419,2024-09-20 21:28:40.624679199,0,014,-0.5780255456728186,0.640468879834358,1.5520894925354192,-0.7016989945323957,0.7792104551861315,-0.22746837489453597,-0.5805447571223318,0.2690883227405988,1
420,2024-09-20 21:28:41.553201904,0,014,-0.6092291031266559,0.6547258294965802,1.3630322278250433,-0.6599435879466142,0.7298388187332419,-0.2155445208658077,-0.37185618387333597,0.2436740201070283,1
421,2024-09-20 21:28:41.636393066,0,014,-0.6407006639658536,0.6698448266587385,1.1488151356160237,-0.6067509206964394,0.6768205331116557,-0.20099429604103736,-0.1957676627657011,0.2170018070521368,1
422,2024-09-20 21:28:41.703197021,0,014,-0.672327072303463,0.6862468831359477,0.9137617849597187,-0.5435356990710403,0.6213683893402274,-0.18428704006676422,-0.04856256173070241,0.18799556733070538,1
423,2024-09-20 21:28:41.771799072,0,014,-0.7038375139630382,0.704118856896786,0.6635622135636872,-0.47223901058894885,0.5643280697652096,-0.16591767818005151,0.07368268273224644,0.1557864471267562,1
424,2024-09-20 21:28:41.831510009,0,014,-0.7348544661057439,0.723455530829607,0.4046666347726155,-0.3952420677311321,0.5061649790566232,-0.14638882956222446,0.17447367295798769,0.119914125383077,1
425,2024-09-20 21:28:41.904093018,0,014,-0.7649393122259811,0.7441017675909445,0.1437760586445552,-0.3152260368201031,0.4469998628677649,-0.126176283790417,0.2565040546777512,0.08047232676976895,1
426,2024-09-20 21:28:41.966757080,0,014,-0.7936400228513739,0.7657881915519095,-0.11255420550364438,-0.23499390302468326,0.38667251798993696,-0.10568678879257362,0.3214846533762105,0.03815930421277578,1
427,2024-09-20 21:28:42.917258056,0,014,-0.8205439084726754,0.7881570139559895,-0.358236515811806,-0.1572906910476807,0.3248211007714131,-0.08522172100003943,0.37010176643503234,-0.0057759595139037,1
428,2024-09-20 21:28:42.978858887,0,014,-0.8453286850993247,0.8107790996788988,-0.5878653386159396,-0.08466884032114694,0.26097191460256214,-0.06495446518113716,0.40202778214518625,-0.04965203830700575,1
429,2024-09-20 21:28:43.052748047,0,014,-0.867795584292068,0.8331661249230541,-0.7967800207303288,-0.019412835329255716,0.19462813616938648,-0.044923531164902344,0.4160609705726936,-0.09149444403519968,1
430,2024-09-20 21:28:43.121284912,0,014,-0.8878715836844217,0.8547834256693019,-0.9809831559409881,0.036500179237278926,0.12535419769370099,-0.025041483066541623,0.4104877114203379,-0.12918293608248552,1
431,2024-09-20 21:28:43.189025879,0,014,-0.9055843767713133,0.875067861379387,-1.1369771611649102,0.08142073542852851,0.0528630230374239,-0.005118100333370245,0.38360658372811346,-0.16060059275335736,1
432,2024-09-20 21:28:43.242993896,0,014,-0.9210330600844968,0.8934520681981776,-1.2616144032063379,0.11403061537504054,-0.02290147871486696,0.015104564269885335,0.3342418206343812,-0.18375516371116404,1
433,2024-09-20 21:28:43.324542969,0,014,-0.934382352556149,0.9093964549912974,-1.352059707242053,0.1333543818477605,-0.10170966912255242,0.035906714181679,0.2620870156263989,-0.19685217159426427,1
434,2024-09-20 21:28:44.243112061,0,014,-0.9458850993089271,0.9224293110556183,-1.405950464186878,0.13882862942104726,-0.1830310659508183,0.05753865998438032,0.16782187547746302,-0.1983512398374002,1
435,2024-09-20 21:28:44.310532959,0,014,-0.9559058579785841,0.9321895471868311,-1.421753173933174,0.13044132239844108,-0.2660539603107983,0.08017120938324832,0.053081760967651784,-0.18705963937030257,1
436,2024-09-20 21:28:44.378635010,0,014,-0.9649082674311394,0.9384600751497417,-1.3991302634876854,0.10886606764096501,-0.3497278109689288,0.10385745153837848,-0.07956102145364477,-0.16228586304865383,1
437,2024-09-20 21:28:44.434667969,0,014,-0.9733901719793256,0.9411786723059685,-1.3390587923450745,0.075485627850959,-0.4328102429221751,0.12850726412342636,-0.22652151943155094,-0.12402473220360813,1
438,2024-09-20 21:28:44.512775879,0,014,-0.9817875654403686,0.9404211305639366,-1.243639584271253,0.03227558269984062,-0.5139084504461396,0.15387375739831374,-0.3831296221206893,-0.07310079612703506,1
439,2024-09-20 21:28:44.575422119,0,014,-0.9903873075811097,0.9363646317726716,-1.1157832054430215,-0.018395707703277236,-0.5915281979863835,0.17955710222012797,-0.5437397035429928,-0.011194269850103937,1
440,2024-09-20 21:28:44.639617920,0,014,-0.9992767904703275,0.9292476973001657,-0.9589975558295528,-0.07398533536232091,-0.6641437411989016,0.20503174273508037,-0.7021014688907729,0.05927457842019433,1
441,2024-09-20 21:28:45.593249023,0,014,-1.0083363358644817,0.9193398761865934,-0.7773379765878131,-0.1319766650158768,-0.730277012088411,0.22969249577225032,-0.8519278358727282,0.135372344885031,1
442,2024-09-20 21:28:45.652916992,0,014,-1.017261429461315,0.9069216304561574,-0.575406481205145,-0.1900433234731657,-0.7885677819075438,0.25290691528861403,-0.9874924941593448,0.2139327567913869,1
443,2024-09-20 21:28:45.728679932,0,014,-1.0255899967381203,0.8922652727643177,-0.3583044707781896,-0.24614979360585545,-0.8378366871048732,0.2740656004983885,-1.1039813148152342,0.2918042106911619,1
444,2024-09-20 21:28:45.791253174,0,014,-1.0327113054869577,0.87561180947676,-0.13162575639574803,-0.29855170204622494,-0.8771546229846467,0.29262950791858944,-1.1973547195842216,0.36598039012630096,1
445,2024-09-20 21:28:45.853738037,0,014,-1.0378569968406464,0.8571503422710633,0.0983680039079659,-0.3456869850878056,-0.9059131712134257,0.30817148843251163,-1.2638027242080492,0.4336151310576354,1
446,2024-09-20 21:28:45.931422852,0,014,-1.0401067245554938,0.8370114480975162,0.3244936960731424,-0.3860208681122036,-0.923863105087279,0.32040263479941916,-1.299167842795111,0.4920160883827191,1
447,2024-09-20 21:28:45.999696045,0,014,-1.0384430212160594,0.8152786516371816,0.5386644182820466,-0.41795285016764444,-0.9310909529864642,0.32917441696077604,-1.298640142929158,0.5387073082748197,1
448,2024-09-20 21:28:46.932285889,0,014,-1.0318589708363404,0.7920127315378529,0.732373113895845,-0.4398504476949048,-0.9279425382557805,0.33445770080409626,-1.2567992422267065,0.5715707075371816,1
449,2024-09-20 21:28:47.010361816,0,014,-1.0194874155085107,0.7672805050806429,0.8974798346601094,-0.4501865296673505,-0.9149287211217385,0.33631052759850055,-1.1680092805726423,0.5890071455182688,1
450,2024-09-20 21:28:47.071968994,0,014,-1.0007017018804432,0.7411802295943646,1.0270124055006034,-0.4477136337037064,-0.8926306809664074,0.3348476284363977,-1.0271906190194235,0.590046497950321,1
451,2024-09-20 21:28:47.134455811,0,014,-0.9751497423574912,0.713856847781162,1.1157866227681217,-0.4316271564060371,-0.8616168365419283,0.33021848163494005,-0.830843083272577,0.5743728045057018,1
452,2024-09-20 21:28:47.212562988,0,014,-0.9427220411831113,0.6855030253641493,1.1607999326062293,-0.4017052933651181,-0.8224178538064254,0.3225941995658553,-0.5779952003201425,0.5422789936589525,1
453,2024-09-20 21:28:47.274636963,0,014,-0.9034914900325862,0.6563475938586517,1.161443083468729,-0.35842134368288037,-0.7755945119774472,0.31215805041414785,-0.2708175245785648,0.49459383976099514,1
454,2024-09-20 21:28:47.336666016,0,014,-0.8576736127239076,0.6266403067625038,1.1195187540085043,-0.3030030775360069,-0.7218595223273526,0.299095891719754,0.08512345875330833,0.4326219140370665,1
455,2024-09-20 21:28:48.293077881,0,014,-0.8056338923306062,0.596644037639265,1.0389755974159591,-0.23740846708572913,-0.662175020066006,0.2835916360245498,0.4808928197885495,0.35812284917090015,1
456,2024-09-20 21:28:48.361020020,0,014,-0.7479278887704262,0.5666379694636635,0.9253357581219529,-0.1642077920986634,-0.5977640815606083,0.2658325486569036,0.9044986315071312,0.27332952634001295,1
457,2024-09-20 21:28:48.419063964,0,014,-0.6853314153783834,0.5369248294620953,0.7849625894318444,-0.0863837258412395,-0.530011116070201,0.2460170854632926,1.3415344711577415,0.1809635952177182,1
458,2024-09-20 21:28:48.496256104,0,014,-0.6188259767216897,0.5078319969616358,0.624452887135023,-0.007089097635215294,-0.46028578822640154,0.2243560610837213,1.7760597948328052,0.08419993225888098,1
459,2024-09-20 21:28:48.564944092,0,014,-0.5495402900246227,0.47970092440643736,0.45042103915121146,0.07056789331548151,-0.3897746951800341,0.201070367508386,2.1914842758269626,-0.01342507032320763,1
460,2024-09-20 21:28:48.632697998,0,014,-0.47867494403873717,0.45286663456747356,0.26968125060407827,0.1436564253348729,-0.31938601241943354,0.1763941517645717,2.5713208169356467,-0.10814640813677723,1
461,2024-09-20 21:28:48.700535889,0,014,-0.40743397813530363,0.42763479645872143,0.089532303359546,0.209480794988855,-0.24973257029870727,0.15058373275040024,2.8999068396674517,-0.1961656704133696,1
462,2024-09-20 21:28:49.618379150,0,014,-0.3369744199744488,0.40426264391388733,-0.0821543837523671,0.265610863694456,-0.18116278519485587,0.12392205945490255,3.1632831005036253,-0.27394283289391663,1
463,2024-09-20 21:28:49.685185059,0,014,-0.26837544960990983,0.3829419832299812,-0.23712531457564148,0.30992187691693834,-0.11381267716376582,0.09670973421640193,3.350273812124728,-0.3385521085907141,1
464,2024-09-20 21:28:49.753906982,0,014,-0.2026139803880657,0.36377916844215086,-0.36718679586766123,0.3406589981573572,-0.047676980568206836,0.06924698517016517,3.4535925824446205,-0.3879946686770324,1
465,2024-09-20 21:28:49.821660889,0,014,-0.14052721754887243,0.346774617272273,-0.464879289256961,0.3565337629025226,0.017289106659211944,0.04182037646201718,3.470685693027873,-0.42136933425603196,1
466,2024-09-20 21:28:49.881216064,0,014,-0.08276658938577414,0.3318143134562258,-0.5243092032400796,0.35684095525716536,0.08104242346923973,0.014703817532171254,3.4040474662329574,-0.438872403028116,1
467,2024-09-20 21:28:49.957133057,0,014,-0.029776899529624527,0.3186866722207944,-0.5419551970156737,0.34155606243922665,0.1433331589635378,-0.011826384860479317,3.260873507457215,-0.4416531701642116,1
468,2024-09-20 21:28:50.020514893,0,014,0.01817760131494788,0.30712621211653557,-0.5172580366203274,0.3113695690893094,0.20364517615044886,-0.03747192955206427,3.052127044670797,-0.4315716254078914,1
469,2024-09-20 21:28:50.967883057,0,014,0.060961632338661524,0.2968674305661407,-0.4529379589042742,0.267645025663234,0.2612301571335069,-0.061904416796773526,2.7912622419283566,-0.4109149426529937,1
470,2024-09-20 21:28:51.031593018,0,014,0.098525693359684,0.28768561915321156,-0.3550711461890767,0.2123233682842716,0.3152219527083784,-0.08477983885002796,2.4928683085345,-0.3821358560156966,1
471,2024-09-20 21:28:51.093619141,0,014,0.1308813780829052,0.2794144684549453,-0.23285133443239855,0.14780188753555257,0.36477122161708425,-0.10576885660692009,2.17145588170813,-0.3476687567876698,1
472,2024-09-20 21:28:51.171166992,0,014,0.15809073486516634,0.2719484150060357,-0.09788505151012047,0.07679331677761797,0.4091462905824349,-0.12458357240612919,1.8405572925063756,-0.30984441875075924,1
473,2024-09-20 21:28:51.238850098,0,014,0.18026656600495647,0.26524095585035695,0.036975098384630416,0.0021535906062453863,0.447796142269529,-0.1409902832951276,1.512134587220572,-0.27085023700612204,1
474,2024-09-20 21:28:51.306641113,0,014,0.19758551731703192,0.2592979191961099,0.15904740977312104,-0.07331803827279244,0.4804066171473026,-0.15481626699375325,1.1961242180929181,-0.23263398033686203,1
475,2024-09-20 21:28:51.372884033,0,014,0.2103184051759353,0.2541570085566951,0.2572204062115082,-0.14707464202118434,0.5069714588862632,-0.1659640895920896,0.9000657946672959,-0.19670742243991615,1
476,2024-09-20 21:28:52.313030029,0,014,0.21886411981557252,0.24985526079680995,0.3231163835546461,-0.21697463182424462,0.5278675432431998,-0.17443625481978348,0.6289205544052145,-0.163910752549656,1
477,2024-09-20 21:28:52.375042969,0,014,0.2237481845709594,0.24639991232354083,0.35186525129895113,-0.28137313208549014,0.5438982628686612,-0.18036022801757728,0.3851049417087864,-0.1342456847052209,1
478,2024-09-20 21:28:52.453521973,0,014,0.22555731415062488,0.24375665066794636,0.34240215365679927,-0.3391607392525412,0.5562631031708638,-0.18399861314551333,0.1687053527269481,-0.10687825663365949,1
479,2024-09-20 21:28:52.515155029,0,014,0.224825681741478,0.2418547549097891,0.2972717945088118,-0.3897653674468185,0.5664343057790971,-0.1857351336380025,-0.022094409446496294,-0.08035944907594768,1
480,2024-09-20 21:28:52.588992188,0,014,0.22192708601866593,0.2405956914196519,0.2219670224674626,-0.4331071844835253,0.5759660282677189,-0.18604175704777412,-0.19039580317554727,-0.053006578400954255,1
481,2024-09-20 21:28:52.646977783,0,014,0.21702927191145707,0.23985221038224522,0.12386228814335516,-0.4694824234131718,0.5862862045990699,-0.1854419265195185,-0.3398899407572046,-0.023315856903399896,1
482,2024-09-20 21:28:52.709025879,0,014,0.21013049588314545,0.23945834818854056,0.010911888674053821,-0.4993804099361756,0.5985098669695786,-0.18447857557098765,-0.4741409246880364,0.009698609899085322,1
483,2024-09-20 21:28:53.664053955,0,014,0.20115602211057698,0.2392023963202648,-0.10951640191883376,-0.523285799468338,0.6133039633953478,-0.18368386608490112,-0.595891696928537,0.04628686398372718,1
484,2024-09-20 21:28:53.725194092,0,014,0.19007848374824532,0.23883345660397154,-0.231242761481899,-0.5415432630891587,0.630841945942729,-0.1835464425698022,-0.7065165006623275,0.08587807511847846,1
485,2024-09-20 21:28:53.804352051,0,014,0.177036470846478,0.23808103351076834,-0.34918163399895247,-0.5543310516073566,0.6508713714863048,-0.18447905951632748,-0.8056803024313626,0.12710478924008523,1
486,2024-09-20 21:28:53.866260986,0,014,0.16243089954091608,0.236677629085359,-0.4588505575547085,-0.5617228409890455,0.672866066797157,-0.18679385271004065,-0.891115155230121,0.1678909477755048,1
487,2024-09-20 21:28:53.939744873,0,014,0.14696976466587539,0.23437520685617755,-0.555920531193154,-0.5637806425356857,0.6961928994274896,-0.19069047033804679,-0.9585137119336342,0.20558788266098355,1
488,2024-09-20 21:28:54.005922119,0,014,0.13162821669474206,0.23095509535011097,-0.6360487215968004,-0.5606369615782639,0.7202307381568357,-0.19625499954607326,-1.0017701774641623,0.23718597075174938,1
489,2024-09-20 21:28:54.075247070,0,014,0.11751711554309993,0.22623651844378925,-0.6949778837782264,-0.5525502317065099,0.7444175162896969,-0.20346236454626038,-1.0137482920933885,0.25962521520949383,1
490,2024-09-20 21:28:54.992207031,0,014,0.10570477372285747,0.2200866724434693,-0.7288028486712976,-0.5399274427305139,0.7682371471137728,-0.21217901327045727,-0.9874525429002735,0.27018361294136745,1
491,2024-09-20 21:28:55.050981934,0,014,0.09706349515154088,0.2124310645559877,-0.734328329052225,-0.5233264114519816,0.7911835385651728,-0.2221710908709016,-0.9172647179395382,0.26687495757582774,1
492,2024-09-20 21:28:55.113467041,0,014,0.09218404040816801,0.2032610532539876,-0.7094150244005154,-0.5034781590504707,0.8127426193637083,-0.23312469981627462,-0.7998974181070937,0.24875753350338042,1
493,2024-09-20 21:28:55.195713135,0,014,0.09136063170950917,0.19263353015127033,-0.6531920466602023,-0.4813546848783754,0.8324016228601628,-0.24467697875855837,-0.6348799626213363,0.21606304248370975,1
494,2024-09-20 21:28:55.263437012,0,014,0.09463666892184427,0.18065835894722343,-0.5661051978089101,-0.45824533127304173,0.8496616182570862,-0.2564488541422436,-0.4246167903618905,0.17011000084002373,1
495,2024-09-20 21:28:55.331159180,0,014,0.10189161674058167,0.16747887818898338,-0.4498900888512649,-0.4357625226371247,0.8640385000070433,-0.2680707473547227,-0.17412023255671702,0.11303833468828531,1
496,2024-09-20 21:28:55.392914062,0,014,0.11292512980972995,0.15326041303949625,-0.30759298935218515,-0.4157143951882977,0.875066159742248,-0.27919779540483347,0.10958179732037489,0.047444919299758775,1
497,2024-09-20 21:28:56.336292969,0,014,0.12748813457997638,0.13819725607403965,-0.14368656193928503,-0.3998466534752571,0.8823182029494103,-0.2895160035699647,0.4183116814671052,-0.023992483179570562,1
498,2024-09-20 21:28:56.399866211,0,014,0.14523950379730588,0.12253482864880945,0.03583761677581007,-0.3895388887593153,0.8854491004126639,-0.29874556836043004,0.7435584779328901,-0.09880962817760895,1
499,2024-09-20 21:28:56.476054932,0,014,0.16565108492341513,0.10659429433180063,0.22364691899135217,-0.3855818017193975,0.8842451594056722,-0.3066491614037656,1.0768641936047552,-0.17489067335763822,1
500,2024-09-20 21:28:56.539035156,0,014,0.18791974441285053,0.09078591641452234,0.41164704797901003,-0.3881077037192063,0.8786695517433704,-0.31304664283779465,1.4097238669670766,-0.25043988327264405,1
501,2024-09-20 21:28:56.614706055,0,014,0.21094804067095127,0.07560314114134721,0.5917978913696368,-0.3966502570504668,0.8688816645632983,-0.31782790360468255,1.733229800705446,-0.3238647841752938,1
502,2024-09-20 21:28:56.675102051,0,014,0.23341587980032744,0.06159794635127244,0.7568863826198043,-0.4102753822586887,0.8552115790243854,-0.3209519748587997,2.03774271133599,-0.39365962562212864,1
503,2024-09-20 21:28:56.737586914,0,014,0.25391448827188867,0.049345495517320634,0.9011284545585823,-0.42774654353616437,0.8380838594365564,-0.3224277589608102,2.312878475524208,-0.4583487569201996,1
504,2024-09-20 21:28:57.693901123,0,014,0.271088537410933,0.03941085980362021,1.0205863191322295,-0.4476907273941642,0.8179177457563709,-0.32228383269265704,2.5480670385464053,-0.5165200423862689,1
505,2024-09-20 21:28:57.761681885,0,014,0.28374138455969666,0.032328481006173776,1.1133320892348284,-0.468717662708922,0.7950529541826367,-0.32054045542254067,2.733703445860614,-0.5669418676055301,1
506,2024-09-20 21:28:57.815229980,0,014,0.2908934532688455,0.02859421612689856,1.1792703310300074,-0.4894604040712014,0.7697258160332138,-0.3171930609565513,2.862490478551708,-0.608711384048672,1
507,2024-09-20 21:28:57.896586914,0,014,0.29182235102830156,0.02865862084774316,1.2196731086533887,-0.5085503137490653,0.7420749219365925,-0.3122095079447567,2.930377718792992,-0.6413721721793296,1
508,2024-09-20 21:28:57.964802002,0,014,0.2861126228893342,0.032909938141209,1.236608556388456,-0.5245703341868155,0.7121414726897743,-0.30553796239104086,2.9368325511984468,-0.6649702298161828,1
509,2024-09-20 21:28:58.018480957,0,014,0.27369581321478975,0.041646562571066865,1.2324130451092594,-0.5360327285465568,0.6798547300980539,-0.2971199723610032,2.8845998197299765,-0.6800344747628972,1
510,2024-09-20 21:28:58.099687988,0,014,0.2548341793956782,0.05504902513594519,1.2092826806425339,-0.5414231173389622,0.6450211884194755,-0.28690418559083225,2.7791796715550565,-0.6874739633541622,1
511,2024-09-20 21:28:59.044521973,0,014,0.23003627777895347,0.07316161079445507,1.1690325670697057,-0.5393314862791759,0.6073410661236873,-0.27485699191116203,2.6282077827151484,-0.6884209783325418,1
512,2024-09-20 21:28:59.110348877,0,014,0.1999415413896373,0.09588755095646637,1.1130118735683103,-0.5286368625318904,0.56646376137142,-0.26096611566693423,2.4408857566602538,-0.6840820639303934,1
513,2024-09-20 21:28:59.172425049,0,014,0.16521867505415397,0.1229958998641639,1.0420830985526501,-0.5086679911076952,0.5220724899525431,-0.2452360246310625,2.227420320990331,-0.6756265102020768,1
514,2024-09-20 21:28:59.234522217,0,014,0.1264945554018368,0.15413593183940155,0.9565968833145663,-0.4792742087987662,0.47396418427020803,-0.22767955089723563,1.9983187051414053,-0.6640948318087977,1
515,2024-09-20 21:28:59.312625000,0,014,0.08430584104238842,0.18885581126659345,0.8564258203730641,-0.4407976984074199,0.42208809486398613,-0.20831168381726722,1.763593631048026,-0.6503221708268561,1
516,2024-09-20 21:28:59.375110107,0,014,0.039067838013131975,0.2266228714552949,0.7412149346418101,-0.3939942083377694,0.36653271877128696,-0.18714749018985688,1.5321242944470352,-0.6348977830396142,1
517,2024-09-20 21:28:59.450899902,0,014,-0.008930882324797681,0.2668430251906085,0.6109077603413527,-0.3399655380313212,0.3074843714632434,-0.16420248022929843,1.3113036250362868,-0.6181641081813793,1
518,2024-09-20 21:29:00.367809082,0,014,-0.059500340543072315,0.3088791218025748,0.4663920725636984,-0.2801408675157696,0.24519928141874728,-0.1394948397087409,1.1068945610829082,-0.6002298553300293,1
519,2024-09-20 21:29:00.435317139,0,014,-0.11249789754810958,0.35207051352179036,0.31002415569633385,-0.21629808790530727,0.18001239277961675,-0.11305093114807621,0.9229710831869694,-0.5809770390073081,1
520,2024-09-20 21:29:00.503520996,0,014,-0.16777894073443356,0.39575467019727684,0.1458618015679089,-0.15057001674802759,0.11235929474816543,-0.08491301306279703,0.7618389709470872,-0.5600665615474235,1
521,2024-09-20 21:29:00.570835205,0,014,-0.2251649316770866,0.4392877007800667,-0.020474557378024814,-0.08536783307906642,0.04276757022795159,-0.05514477224024427,0.623806150892896,-0.5369480224507812,1
522,2024-09-20 21:29:00.630302979,0,014,-0.28442033171267206,0.48205978825269896,-0.1822619614135632,-0.0232117031498382,-0.02819681014129807,-0.023832476747609577,0.5067821026365535,-0.5108667208572961,1
523,2024-09-20 21:29:00.703794922,0,014,-0.3452232944007237,0.5235048756168347,-0.33225762136987913,0.03346511522832502,-0.10000050871708828,0.008913456478741191,0.4059809798865989,-0.480871992086391,1
524,2024-09-20 21:29:00.773788818,0,014,-0.40713081839229304,0.5631070656475338,-0.46326211905997733,0.08247865670275814,-0.17219197692746244,0.042949098859985574,0.3141249257316074,-0.4458556593993292,1
525,2024-09-20 21:29:01.704243896,0,014,-0.4695545650741971,0.6004067168077915,-0.5687078504320795,0.12203082342115341,-0.24441566422440525,0.07808131697873337,0.22227477144533078,-0.40465239913314954,1
526,2024-09-20 21:29:01.785343994,0,014,-0.5317633640739492,0.63500699790184,-0.6433015649627308,0.15084688109800337,-0.31640147556067894,0.11405564046455634,0.12100958483546316,-0.3562038895041952,1
527,2024-09-20 21:29:01.853101074,0,014,-0.5929127964836995,0.6665785052791651,-0.683615907939337,0.16830389900917758,-0.387934321495293,0.15055200486618264,0.0015199108536579993,-0.2997511127015012,1
528,2024-09-20 21:29:01.920092041,0,014,-0.6520879206417888,0.694860285450843,-0.6885564208066812,0.17451738028101024,-0.4588049779249598,0.1871843992364925,-0.14362571445632122,-0.23500526188050344,1
529,2024-09-20 21:29:01.988560059,0,014,-0.7083503501573813,0.7196601993719478,-0.6596671222211752,0.17034977729402573,-0.5287509703604133,0.2235020245256882,-0.32001417876282057,-0.16225069229113448,1
530,2024-09-20 21:29:02.046014160,0,014,-0.7607925944304839,0.7408593234827353,-0.6011290194698121,0.15730740694498663,-0.5974050684410747,0.258995513172216,-0.5311121370785032,-0.08235136125416861,1
531,2024-09-20 21:29:02.123949951,0,014,-0.8085936342275369,0.7584204114947142,-0.5193464142186919,0.13733242338782412,-0.6642838506131827,0.29311447742433894,-0.7781032789540064,0.003323995985083879,1
532,2024-09-20 21:29:03.066798828,0,014,-0.8510531084616738,0.7723940983189845,-0.4222431824202049,0.11255347963650496,-0.7288352228689281,0.32529857510984067,-1.059764872599781,0.09300979202753323,1
533,2024-09-20 21:29:03.135379150,0,014,-0.8875959359340114,0.7829166943293371,-0.31845196858142244,0.08506044714469334,-0.7905129343703623,0.3550174235149882,-1.3723357898781021,0.18465210076085867,1
534,2024-09-20 21:29:03.203125977,0,014,-0.9177697584824837,0.7901993318128506,-0.21648786314234872,0.05672676766799211,-0.8488286993531211,0.3818125397470075,-1.709438815004293,0.2760237572424698,1
535,2024-09-20 21:29:03.256603027,0,014,-0.9412534862480715,0.794511147946973,-0.12399313677870179,0.02908870919020096,-0.9033636138772086,0.4053326629074514,-2.062153980313088,0.36486147023391613,1
536,2024-09-20 21:29:03.334681885,0,014,-0.9578692725712517,0.7961587139625209,-0.04715676461919481,0.0033009495207909243,-0.9537457841620118,0.42535003710153263,-2.419209859441965,0.4490093453716573,1
537,2024-09-20 21:29:03.396753174,0,014,-0.9675935494323115,0.7954662234778789,0.00965087769630279,-0.019833013027450212,-0.9996123092446306,0.4417516963423932,-2.767239262021682,0.5265310682479872,1
538,2024-09-20 21:29:03.473397949,0,014,-0.9705802333065732,0.7927632884560405,0.044070741150194846,-0.039799951447895394,-1.0405840810393274,0.45451726756555194,-3.091246001711578,0.5957804628615941,1
539,2024-09-20 21:29:04.412050049,0,014,-0.9671934873030987,0.7883825145632514,0.05585751465152595,-0.05633117668751272,-1.0762755637020807,0.46370317939785877,-3.3755174618034642,0.6554632192230105,1
540,2024-09-20 21:29:04.486069824,0,014,-0.9580206644877899,0.7826609528734187,0.04690161679880061,-0.06937290919386035,-1.1063356781099831,0.4694412974379671,-3.604976287699589,0.7047175723851906,1
541,2024-09-20 21:29:04.551237061,0,014,-0.9438460952208227,0.7759368671411769,0.02102421321168841,-0.07904345461447043,-1.1304955825174956,0.4719422834907667,-3.7666284607145846,0.7431870399391255,1
542,2024-09-20 21:29:04.620696045,0,014,-0.9255963714953457,0.7685365689522639,-0.01660479549126494,-0.08556637270693046,-1.148605502086989,0.4714903160521871,-3.8506956753330317,0.7710214603437783,1
543,2024-09-20 21:29:04.683772949,0,014,-0.9042784671580539,0.7607509829985144,-0.06031202355659147,-0.08921071823771903,-1.16066395093754,0.4684262595366212,-3.8512339957387063,0.7887671955935912,1
544,2024-09-20 21:29:04.756968994,0,014,-0.8809203486972622,0.7528066036525849,-0.10466502731561142,-0.09028277922538247,-1.166845973345499,0.46312554253910565,-3.7662911556376826,0.7971794878310663,1
545,2024-09-20 21:29:04.820763184,0,014,-0.8565054009120758,0.7448395138616996,-0.14483950014266259,-0.08917284412079693,-1.167522746941645,0.4559791218906035,-3.597840089101207,0.7970672352254723,1
546,2024-09-20 21:29:05.768354980,0,014,-0.8318892954133914,0.736880761805061,-0.17666514152571458,-0.08640121145384047,-1.1632619082602251,0.4473835141358937,-3.3517743870640144,0.7892838255772553,1
547,2024-09-20 21:29:05.836083984,0,014,-0.8077110110924935,0.7288554843875599,-0.19660348613556536,-0.08259763222436639,-1.1547999748058109,0.43773590852746364,-3.0380663760886044,0.7748732927530172,1
548,2024-09-20 21:29:05.901555908,0,014,-0.7843295139519428,0.720591766612498,-0.2017800132955751,-0.07840889967204928,-1.142970196531321,0.42741943641242724,-2.6709354667938796,0.7552665668514145,1
549,2024-09-20 21:29:05.964042969,0,014,-0.7618086054289374,0.7118352727194917,-0.1899700406627614,-0.07439156937568257,-1.1285794448528914,0.4167691921869962,-2.268728158802869,0.7323966767937244,1
550,2024-09-20 21:29:06.038618164,0,014,-0.7399515088113277,0.702271517692942,-0.15949504508578927,-0.07093950767174433,-1.1122668682086907,0.4060289538619819,-1.8531929678367296,0.7086544680312373,1
551,2024-09-20 21:29:06.104770996,0,014,-0.7183702039233412,0.6915594767625047,-0.10921577843065494,-0.06825393229212177,-1.0944001395674925,0.39531952814660454,-1.4480377303481995,0.686690620977546,1
552,2024-09-20 21:29:06.174784912,0,014,-0.6965653708534123,0.6793738006655967,-0.03877483465599206,-0.06634729470925883,-1.0750460300230842,0.38463217280594736,-1.0769782747823302,0.6691408694437162,1
553,2024-09-20 21:29:07.093424072,0,014,-0.6740055405197681,0.6654473562766161,0.05101455227819849,-0.06506907774192364,-1.05401542371769,0.3738455890850003,-0.7616067471514321,0.6583583225695495,1
554,2024-09-20 21:29:07.148829102,0,014,-0.6502156520911068,0.6496070908336963,0.15784066437546024,-0.06414191599873634,-1.030956558357213,0.36275690334788835,-0.5193710643700155,0.6561858953064912,1
555,2024-09-20 21:29:07.226934814,0,014,-0.6248775913399967,0.6317991475835779,0.27778496364654387,-0.06321562540200217,-1.0054661290931897,0.35111941136979097,-0.36200874188704035,0.6637770397288683,1
556,2024-09-20 21:29:07.296637939,0,014,-0.5979228407933302,0.612101228392805,0.40554817929785303,-0.06195404722101455,-0.9772024741989862,0.3386853077171511,-0.29477828859209704,0.6815006959143771,1
557,2024-09-20 21:29:07.351031006,0,014,-0.569596500590939,0.5907226126148566,0.5350146341314119,-0.06014427727782315,-0.9459920383214986,0.32525032478792704,-0.31653531015711284,0.7089588090110666,1
558,2024-09-20 21:29:07.431770996,0,014,-0.5404779813598117,0.5679927414268163,0.6599742882112565,-0.05779776713703538,-0.9119093729488542,0.3106909369645478,-0.4203228841039663,0.7450763038205522,1
559,2024-09-20 21:29:07.499773926,0,014,-0.5114424746802877,0.5443382685399114,0.7747345366276666,-0.055210814538619535,-0.8753113518528414,0.29498556209005206,-0.5941401257659704,0.7882051790243378,1
560,2024-09-20 21:29:08.433881104,0,014,-0.4835658150405733,0.5202509332231422,0.8744201360855912,-0.05294484884187416,-0.8368271211851124,0.27821814894387803,-0.8219118051523899,0.836256361873676,1
561,2024-09-20 21:29:08.495938965,0,014,-0.45801007274749445,0.4962540729395358,0.9549240826981013,-0.05169653922560427,-0.7973184774206039,0.260565829767343,-1.084827094186228,0.8868993728754184,1
562,2024-09-20 21:29:08.573554932,0,014,-0.4359269061951053,0.47287555872674053,1.0126732799831928,-0.052089387488406275,-0.7578196546168953,0.2422757166604309,-1.3628853148030875,0.9377787550490638,1
563,2024-09-20 21:29:08.646133789,0,014,-0.418376010343028,0.4506260237189156,1.0444540110142253,-0.054479332982047504,-0.7194540211426972,0.22364176260874113,-1.6362403969736463,0.9866377520773453,1
564,2024-09-20 21:29:08.711323975,0,014,-0.40623523695304886,0.4299738806420436,1.047405517087762,-0.05884906793132414,-0.6833270637705975,0.20498950480229786,-1.8862051047505235,1.0313286598527345,1
565,2024-09-20 21:29:08.782164062,0,014,-0.40010231427426046,0.41131391500395,1.0191367170999293,-0.06480343456097781,-0.6504160205312486,0.18666457677281867,-2.0961499266261336,1.069804191599763,1
566,2024-09-20 21:29:08.849904053,0,014,-0.4002229930817994,0.3949397905946116,0.957953248425178,-0.07164863024173557,-0.6214849616423127,0.16901451396820788,-2.25250273180784,1.1001759613081035,1
567,2024-09-20 21:29:09.793575928,0,014,-0.4064860698162569,0.3810361286021106,0.8632645227938823,-0.07853787294809465,-0.5970285632542778,0.1523583462337784,-2.34574181703985,1.1208315702598453,1
568,2024-09-20 21:29:09.861358887,0,014,-0.4184863588164884,0.3696951436673712,0.7361553742689194,-0.08466206948040368,-0.5772292400001274,0.13695143004913946,-2.371103679917399,1.1305537134693877,1
569,2024-09-20 21:29:09.920090820,0,014,-0.43560517938399174,0.3609469348604097,0.5799095097769852,-0.08944779440380193,-0.5619341887034603,0.1229641379643811,-2.328851574950771,1.128609928910961,1
570,2024-09-20 21:29:09.995081787,0,014,-0.457048299404788,0.35478462398724325,0.4002178333043635,-0.09270598840191795,-0.5506774641940202,0.11048686929023972,-2.2241568560620033,1.1147954319498736,1
571,2024-09-20 21:29:10.057566895,0,014,-0.4818268240522527,0.35117099453368816,0.20496821386770062,-0.09468032820004173,-0.5427487355436775,0.0995544410856469,-2.0666781140895405,1.0893936709850618,1
572,2024-09-20 21:29:10.132280029,0,014,-0.5087275529935646,0.3500298104180632,0.003675557634571162,-0.09598175319674164,-0.5372842159938814,0.0901738379613858,-1.8698171373375867,1.0530399331896454,1
573,2024-09-20 21:29:10.197318115,0,014,-0.5363363602606637,0.351236970819629,-0.1933660862381695,-0.09743414428504041,-0.5333595865769776,0.08234591165081362,-1.649626176048401,1.0065506854341997,1
574,2024-09-20 21:29:11.117983154,0,014,-0.5631388397063694,0.354622202856117,-0.37612094044696365,-0.09987770148883736,-0.5300725778601705,0.0760791259230557,-1.4234575483501433,0.9508318458356705,1
575,2024-09-20 21:29:11.179133057,0,014,-0.5876740423264714,0.35998098392780437,-0.5358652801467626,-0.10398904516058308,-0.5265982642340412,0.07139261602428792,-1.208475685442242,0.8869133306614908,1
576,2024-09-20 21:29:11.254271973,0,014,-0.6086901736087597,0.36708997828174456,-0.6660218186394864,-0.1101725215174514,-0.5222097055629467,0.06830273192109897,-1.0201243754207934,0.8160211176766027,1
577,2024-09-20 21:29:11.317632812,0,014,-0.6252515398376106,0.37571775954237563,-0.7625946025289686,-0.11854225360997571,-0.516290398111007,0.06679533304202682,-0.8707629635141689,0.7395630839992667,1
578,2024-09-20 21:29:11.389470215,0,014,-0.636779311873233,0.3856265072542973,-0.8241477681858873,-0.1289729973970953,-0.5083810437542188,0.0668018450130395,-0.7687910627101259,0.6590153572088169,1
579,2024-09-20 21:29:11.457096191,0,014,-0.6430416003330623,0.39656702284404427,-0.8514082362973173,-0.14118456404624025,-0.4982649216278187,0.06819848965101373,-0.7183406555570366,0.5757804152065283,1
580,2024-09-20 21:29:11.525193848,0,014,-0.6441076643153006,0.40827086118638284,-0.8467063008030525,-0.15483536579673232,-0.4860413270041921,0.07082968842337768,-0.7192777797839441,0.4910640473215756,1
581,2024-09-20 21:29:12.465916992,0,014,-0.6402810889409108,0.4204416330272008,-0.8134716551181084,-0.16960632499529543,-0.4721350111927518,0.07453819366984603,-0.7673198311224574,0.4057991631357677,1
582,2024-09-20 21:29:12.525923096,0,014,-0.6320450997093466,0.43275103273134347,-0.755820318068536,-0.18524732162377186,-0.457237618633398,0.0791813915309119,-0.8543347695006356,0.32065702700735715,1
583,2024-09-20 21:29:12.603693848,0,014,-0.6200407556866276,0.4448482856007456,-0.6781329959878607,-0.20155962058879232,-0.44220502308741033,0.0846213064607354,-0.9688718199137126,0.23614553114689785,1
584,2024-09-20 21:29:12.671503905,0,014,-0.6050562740727672,0.4563842046004364,-0.5846025907545317,-0.21831931081730935,-0.4279232754496924,0.09068783903423351,-1.0968164295084155,0.1527238451572768,1
585,2024-09-20 21:29:12.738208008,0,014,-0.5879946129373647,0.46703978759963394,-0.47887128938320334,-0.23518547115466257,-0.4151508655542027,0.0971298082763144,-1.2220862175379552,0.070852023473291,1
586,2024-09-20 21:29:12.802389893,0,014,-0.5698134466974555,0.47654832711715306,-0.3639069912200296,-0.25164880638812914,-0.40436166597110546,0.10357844930310253,-1.3274274395701982,-0.009046011884553501,1
587,2024-09-20 21:29:12.863957031,0,014,-0.5514548118922571,0.4847087746578937,-0.24217603533227947,-0.267051304246861,-0.395621995258449,0.10954064301144421,-1.3954768845010073,-0.08664656376176928,1
588,2024-09-20 21:29:13.810765137,0,014,-0.5337815107553064,0.4913933019408661,-0.11605648339917064,-0.2806603419113262,-0.3885227265284281,0.11442070954522399,-1.4102379392071893,-0.16173037280894376,1
589,2024-09-20 21:29:13.872361816,0,014,-0.5175238003330884,0.496548422586822,0.011645750119874405,-0.2917554012368381,-0.38217355649066914,0.11756036704398622,-1.358897164470846,-0.23410325934153822,1
590,2024-09-20 21:29:13.949565918,0,014,-0.5032319790894751,0.500186096810836,0.1372708677068977,-0.29969658481325234,-0.37526728761415884,0.11829092562911185,-1.2336137723471294,-0.3034823306549747,1
591,2024-09-20 21:29:14.011580078,0,014,-0.4912370888452597,0.5023665018874192,0.2561293278489302,-0.3039525745247331,-0.36622460460903244,0.11599762373228048,-1.0328368988824919,-0.36939920006588844,1
592,2024-09-20 21:29:14.088794922,0,014,-0.4816339295309559,0.5031822211297544,0.362603519213819,-0.3040675558057456,-0.3534150865963098,0.1101949847224287,-0.7618528098155991,-0.4311548884932936,1
593,2024-09-20 21:29:14.152246094,0,014,-0.474304490131541,0.5027533370548146,0.45042853792049287,-0.2995701186354954,-0.335413419083189,0.1006028927321572,-0.4324080148885566,-0.4878730732659496,1
594,2024-09-20 21:29:14.213666016,0,014,-0.46898834730618494,0.5012331877971119,0.5130396454170629,-0.2898638151533731,-0.3112195321833327,0.08720171318741445,-0.061379073891063625,-0.5386743489289648,1
595,2024-09-20 21:29:15.164851807,0,014,-0.4653793741246706,0.49881683326478,0.5440043751041298,-0.2741698912160312,-0.28039493865567655,0.07024825065099134,0.3312740221253291,-0.5829024711036027,1
596,2024-09-20 21:29:15.227031981,0,014,-0.4632066979329321,0.4957452151096273,0.5376768959250542,-0.25159489824362236,-0.24312483915555763,0.050256523124722834,0.7247556198348283,-0.6202726653268159,1
597,2024-09-20 21:29:15.289071045,0,014,-0.4622697257273777,0.49230183657451615,0.4900965245259127,-0.22134056482481276,-0.20022804368590638,0.027962578979049104,1.0993463707837083,-0.6508631878404108,1
598,2024-09-20 21:29:15.372081055,0,014,-0.4624273527366184,0.4887988594213212,0.3998907450429552,-0.18298994316126374,-0.15310384762605028,0.00428258287473919,1.4376428325469193,-0.6749714997718488,1
