,time,MARKER,pid,L_O_DSI,L_D_DSI,L_O_DSphi,L_D_DSphi,R_O_DSI,R_D_DSI,R_O_DSphi,R_D_DSphi,trial_id
0,2024-09-20 21:34:14.867801025,TASK_BEGIN,014,-0.28554426197937793,0.1322266474553942,0.5608003650478439,-1.2005334643919978,0.33743451357951126,-0.1374424602126791,-2.076322760126183,1.2046113036747954,2
1,2024-09-20 21:34:14.934570068,0,014,-0.2911522261403411,0.1386376790169641,0.5751244103753625,-1.1393906562670755,0.32043909065447373,-0.1483056149127864,-2.1466015215353726,1.1579243232549055,2
2,2024-09-20 21:34:15.002924805,0,014,-0.2892209224995565,0.14190133680169364,0.5344419904035544,-1.072633698758356,0.29888910098597393,-0.1636103153950904,-2.2286959551290755,1.1216271296207005,2
3,2024-09-20 21:34:15.069048096,0,014,-0.2809322781262311,0.14244376791230798,0.4337447428516696,-1.0012274853974905,0.2735990224415562,-0.18291883774244092,-2.32035929009443,1.0974224222598405,2
4,2024-09-20 21:34:15.138756104,0,014,-0.26783502396068715,0.14077839747333154,0.27135441040849884,-0.9265501653451023,0.24504476204379944,-0.20548034638180293,-2.419225605372524,1.0862917825709004,2
5,2024-09-20 21:34:15.206124023,0,014,-0.25176364151838354,0.13746232179878515,0.04938969378531164,-0.8503750758443688,0.21337802233727698,-0.23028200474164426,-2.5227823432244496,1.0882633776504624,2
6,2024-09-20 21:34:15.273572021,0,014,-0.23473755205266697,0.1330600484780714,-0.22609797520845798,-0.774797642867064,0.17851606491114788,-0.2561285495954167,-2.6282590213308814,1.1022831838433151,2
7,2024-09-20 21:34:16.209047119,0,014,-0.21882977664666534,0.12811469609728734,-0.5453773701891199,-0.7020994883958424,0.14025890525480406,-0.2817361939719762,-2.732547230728553,1.1262471858517031,2
8,2024-09-20 21:34:16.274135986,0,014,-0.20602305956395736,0.12312588431113013,-0.8956673689560761,-0.6345527244405779,0.09836794631795137,-0.30581980396059966,-2.8322059891409084,1.1571901557494784,2
9,2024-09-20 21:34:16.349627930,0,014,-0.19808292822177434,0.11853190926134964,-1.2620502981587318,-0.5741931922463757,0.05258729547948471,-0.32715704333847406,-2.9236180607317817,1.191595312187694,2
10,2024-09-20 21:34:16.411200928,0,014,-0.19646344381969405,0.11469568317928755,-1.6285205805714196,-0.5226117738599346,0.002646919620259462,-0.34462558879216293,-3.0033836598133368,1.2257834810364177,2
11,2024-09-20 21:34:16.473224121,0,014,-0.20223704289696398,0.11189548942764707,-1.9789973031909318,-0.4808127566510212,-0.05170949225375176,-0.35722267808710234,-3.0688923666296843,1.2563184083495016,2
12,2024-09-20 21:34:16.556513916,0,014,-0.21602586063049553,0.11031786773296821,-2.298214220950413,-0.44915747335919937,-0.110669894544187,-0.3640836225757366,-3.1188611329170848,1.2803455270802806,2
13,2024-09-20 21:34:16.624260010,0,014,-0.23793353248511673,0.11004957703096384,-2.5725554116357996,-0.42736500130144545,-0.1743028584870143,-0.36451023281978456,-3.1536661989318513,1.2957981678177939,2
14,2024-09-20 21:34:17.554495117,0,014,-0.2675147752105106,0.11107369249683198,-2.7909145856780215,-0.41453577929221885,-0.2425307143319273,-0.3580058395441665,-3.1754057161247293,1.3014488768080417,2
15,2024-09-20 21:34:17.637537842,0,014,-0.30382434243712303,0.1132785782018176,-2.9454912125863393,-0.4092055507646591,-0.3151153432034384,-0.3443049686492368,-3.1876746177678648,1.2968335640935396,2
16,2024-09-20 21:34:17.703272217,0,014,-0.34554958829195154,0.11648065974907659,-3.0323505074906816,-0.4094512998964179,-0.39162843768023153,-0.3233918548715097,-3.1950923950506978,1.2821122866355612,2
17,2024-09-20 21:34:17.765309082,0,014,-0.3911896995205065,0.1204540614180929,-3.0516973913351877,-0.41303086535378825,-0.4713904129517363,-0.29551359967813523,-3.202682586235012,1.2579237385149846,2
18,2024-09-20 21:34:17.827298096,0,014,-0.4392308121868222,0.12495958162762576,-3.007945899266684,-0.41751558638036806,-0.5534071044883766,-0.261189965493888,-3.215173204552744,1.2252544994551158,2
19,2024-09-20 21:34:17.904483154,0,014,-0.4882787937953515,0.12976662720501592,-2.909593443753594,-0.4204111433189687,-0.6363710938896163,-0.22120566329327673,-3.2362988133636117,1.1853336342812848,2
20,2024-09-20 21:34:17.966846924,0,014,-0.5371346220548876,0.13466359847937487,-2.7687487465234653,-0.4192998809070009,-0.7187520053964386,-0.17657082375125857,-3.268271664122459,1.1395772286708137,2
21,2024-09-20 21:34:18.918632080,0,014,-0.5848199448360459,0.13945915566074357,-2.6001858919118934,-0.4120294284682924,-0.7989075933245873,-0.12845700056741774,-3.3115498791955402,1.0895959744144907,2
22,2024-09-20 21:34:18.986445068,0,014,-0.6305688408298948,0.14398215657415686,-2.41999496610681,-0.3969436465167664,-0.8751321377002105,-0.07813208547384469,-3.3649416669482504,1.0372465939739208,2
23,2024-09-20 21:34:19.054163086,0,014,-0.6737920090608659,0.14808329204264573,-2.2440253009632047,-0.3731348300697785,-0.9456516906269642,-0.026907400343725664,-3.42608699296554,0.9846881058000883,2
24,2024-09-20 21:34:19.121844971,0,014,-0.7140158416781998,0.15163525450155813,-2.0863247721744913,-0.3406773158074403,-1.008655449092249,0.023912043147580768,-3.492220953139969,0.9343920372854592,2
25,2024-09-20 21:34:19.189569092,0,014,-0.7508128466787563,0.15453043248546233,-1.9577995644238242,-0.30077327186754343,-1.0624213703582184,0.07308810684994427,-3.560878361913685,0.8890563045475219,2
26,2024-09-20 21:34:19.257257079,0,014,-0.7837474869314273,0.15667865026887118,-1.865336704336871,-0.2557307290966036,-1.1055092422426616,0.11951882978421931,-3.6302476242244635,0.8514113522956096,2
27,2024-09-20 21:34:19.324974121,0,014,-0.8123528107197419,0.15800641961961945,-1.8115248661709202,-0.2087360718329847,-1.1369552359292894,0.16229998544981877,-3.699170237103763,0.8239632104744825,2
28,2024-09-20 21:34:20.235985107,0,014,-0.8361443373384838,0.15845938687018776,-1.7949114422374979,-0.16346293293676048,-1.1564175349393546,0.20076331603652064,-3.766925927663526,0.8087357335841617,2
29,2024-09-20 21:34:20.311439941,0,014,-0.8546691333742017,0.1580118437039173,-1.8106370961644132,-0.12361272001069698,-1.1642527681311532,0.23448729830566542,-3.8329040732283706,0.8070531961080392,2
30,2024-09-20 21:34:20.378966064,0,014,-0.8675727344873587,0.15668362430004473,-1.8513284128299623,-0.09248212193739262,-1.1615208094697633,0.26328733711542296,-3.896239361918467,0.8193895929020488,2
31,2024-09-20 21:34:20.446923096,0,014,-0.8746558343561892,0.15455668653178067,-1.908148752926517,-0.07262594867317845,-1.1499109441991044,0.2871935245168273,-3.9555049542479357,0.8452996493607173,2
32,2024-09-20 21:34:20.514673096,0,014,-0.8758996805535638,0.1517811732701863,-1.9718753665574227,-0.065645282538301,-1.1315744436298734,0.3064167804889334,-4.008539851032752,0.8834275489417868,2
33,2024-09-20 21:34:20.581656006,0,014,-0.8714611777109783,0.14856667092627565,-2.0338365782140313,-0.07209998551592228,-1.1088755116819546,0.32130097141128655,-4.0524977456989175,0.9316012661628007,2
34,2024-09-20 21:34:20.649583008,0,014,-0.8616599833666769,0.14516332003366034,-2.0865371935243204,-0.09153884940577374,-1.0841216250804995,0.33226557294554504,-4.0842265858320825,0.9870439000005164,2
35,2024-09-20 21:34:21.593691162,0,014,-0.8469786231591531,0.1418427499888733,-2.1239435927908565,-0.12263482365684339,-1.0593355393070758,0.3397497691119506,-4.100939085364699,1.0466939793530485,2
36,2024-09-20 21:34:21.661503174,0,014,-0.8280677176961626,0.13888584945316623,-2.1416194122807766,-0.16338903059199542,-1.0360807824845197,0.34416690779590653,-4.100855081337386,1.1075538585626803,2
37,2024-09-20 21:34:21.728688965,0,014,-0.80572621667242,0.13657531736939602,-2.1368844753597367,-0.21135247147814967,-1.015332901396006,0.34587568092225474,-4.083444531645588,1.1669660970916198,2
38,2024-09-20 21:34:21.793604004,0,014,-0.7808453990546002,0.13518459284906756,-2.1089455496779963,-0.26383339074301,-0.9974223466808447,0.3451734128366571,-4.049212340288268,1.2227563845285603,2
39,2024-09-20 21:34:21.855698975,0,014,-0.7543404425684451,0.13495740859867425,-2.05887970860483,-0.3180916278930681,-0.9820909468947869,0.34230904908848697,-3.99927911274982,1.2732399542327844,2
40,2024-09-20 21:34:21.917722900,0,014,-0.7271016778170137,0.13608111944953818,-1.9894919062402958,-0.3715191817565624,-0.9686560121727575,0.33750122868672056,-3.935011736568129,1.3171414116412374,2
41,2024-09-20 21:34:21.994850098,0,014,-0.6999814025698589,0.1386634318957898,-1.9051195204706777,-0.4217753462173328,-0.9562103511350226,0.3309445672016057,-3.857835425455119,1.3535022302353223,2
42,2024-09-20 21:34:22.934642090,0,014,-0.6738042743195906,0.14271990512764307,-1.811325193920894,-0.46685557404235656,-0.9437835496289072,0.32280064534020336,-3.7692882629254827,1.3816308693170805,2
43,2024-09-20 21:34:23.011528076,0,014,-0.649359143375888,0.14817134097179416,-1.7143708907481314,-0.5051265155443854,-0.9304473091702324,0.31318545046761415,-3.671195098467865,1.4010937241029418,2
44,2024-09-20 21:34:23.073097900,0,014,-0.6273378737036946,0.15484597208703627,-1.6205144486018372,-0.5353765979996121,-0.915385841089614,0.3021647049348403,-3.565659975314038,1.4116977231554182,2
45,2024-09-20 21:34:23.135584961,0,014,-0.6082413648638367,0.16248582204016196,-1.535284711966491,-0.5568878040432226,-0.8979373017176163,0.28975611836727244,-3.454735770938132,1.4134281742848338,2
46,2024-09-20 21:34:23.213314941,0,014,-0.5923065690045377,0.1707620253306038,-1.4628748451937357,-0.5694812308652202,-0.8775870811431917,0.275931925099748,-3.339926008605323,1.4063585809879875,2
47,2024-09-20 21:34:23.275966797,0,014,-0.5794838343259084,0.17930199508376984,-1.4057840272512472,-0.5734793482558647,-0.8539139733358801,0.26062312925515774,-3.221739691859312,1.3905831720373092,2
48,2024-09-20 21:34:23.338431885,0,014,-0.5694577381337039,0.18772427672221353,-1.3648110340555843,-0.5695714914733003,-0.8265450752923725,0.24373722456857955,-3.0994513264403154,1.3662135078348043,2
49,2024-09-20 21:34:24.261957031,0,014,-0.5616950297824639,0.19567331521761339,-1.3393379709348296,-0.5586280929827515,-0.795183080857491,0.22519830032473123,-2.971185418384418,1.3334384836590842,2
50,2024-09-20 21:34:24.335385010,0,014,-0.5555131716515089,0.20284945487972392,-1.3277042117286122,-0.5415358420126615,-0.7597120544393793,0.20500222908662333,-2.8343683423976485,1.292602510814284,2
51,2024-09-20 21:34:24.396967041,0,014,-0.5501697930588477,0.20903183367711184,-1.3275806084277686,-0.5191006401235113,-0.7203363740834959,0.1832673669217646,-2.686466914527032,1.2442514906823827,2
52,2024-09-20 21:34:24.458999023,0,014,-0.5449587310268309,0.2140893133060157,-1.3364101217113489,-0.49201506108876214,-0.6776891425241423,0.16026413127753608,-2.5258718178402066,1.1891355903863743,2
53,2024-09-20 21:34:24.536652100,0,014,-0.5392838353201564,0.21797662593654527,-1.3519038038462552,-0.4608649747095727,-0.6328492631280564,0.1364190003571816,-2.352737944551724,1.1282004278771993,2
54,2024-09-20 21:34:24.607686035,0,014,-0.5327001878171118,0.22072142999716088,-1.3724178876339974,-0.4261634930450762,-0.5872378865766,0.11229644887980525,-2.169515022534264,1.0626061753236749,2
55,2024-09-20 21:34:24.675435059,0,014,-0.5249324837861081,0.22240911339640893,-1.3970173264244878,-0.3884147783877223,-0.5424090932934753,0.08856002153575278,-1.9809153694819603,0.9937658798288926,2
56,2024-09-20 21:34:25.618899170,0,014,-0.5158710299904258,0.22316580429313282,-1.4251494473282584,-0.34820794133122845,-0.4997889788435582,0.06591301411149637,-1.7932267841733587,0.9233248087207617,2
57,2024-09-20 21:34:25.686682861,0,014,-0.5055429374087708,0.22313973292723263,-1.4560429042641225,-0.3063205162808631,-0.46045144025160645,0.04502961187269435,-1.6131373272049618,0.8530187573385815,2
58,2024-09-20 21:34:25.744483887,0,014,-0.49407497209255324,0.22248428322837757,-1.4881000094053791,-0.26378741620719026,-0.42501493528347756,0.026496165854020905,-1.4464980659906628,0.7844616455764944,2
59,2024-09-20 21:34:25.806971191,0,014,-0.4816719047893693,0.22134433004420442,-1.5185309557812519,-0.22190025766125385,-0.39367750384055655,0.010775612095356256,-1.297453879562542,0.7189757501442985,2
60,2024-09-20 21:34:25.885077881,0,014,-0.46861617064892114,0.21984523502420086,-1.5433217025134964,-0.18214093027520872,-0.36632794503744276,-0.0018082879508575906,-1.1680822237794708,0.6575274318346125,2
61,2024-09-20 21:34:25.949062012,0,014,-0.45526866336737937,0.2180837052621358,-1.5574924648797266,-0.14607493217505912,-0.3426542681435065,-0.011079221597847575,-1.0584488225379645,0.6007579456358443,2
62,2024-09-20 21:34:26.024689941,0,014,-0.44204799727724997,0.21611923289325477,-1.555546641771545,-0.1152267685645797,-0.3222221071443101,-0.017015969071049793,-0.9669483133388025,0.5490605393846384,2
63,2024-09-20 21:34:26.960864014,0,014,-0.42939330669425335,0.2139665980415014,-1.5320003873032622,-0.09096283100245117,-0.30454936579679964,-0.01975582171402078,-0.8907916146087268,0.5026520912884405,2
64,2024-09-20 21:34:27.036252930,0,014,-0.4177314803742708,0.2115935609251196,-1.4819589306918013,-0.07439840236558397,-0.28920220035472605,-0.019587097233762157,-0.8264832722128328,0.4616153100996903,2
65,2024-09-20 21:34:27.100117920,0,014,-0.407455083954496,0.20892836784062221,-1.4018150603802761,-0.06630682227929277,-0.27588866581987215,-0.01693000868296297,-0.7701501524730621,0.4259044656643632,2
66,2024-09-20 21:34:27.162890869,0,014,-0.3989044598322844,0.2058778986001374,-1.2900813189762963,-0.06700607761733468,-0.26449213803264426,-0.012311875852688857,-0.7177298588844443,0.3953131485648231,2
67,2024-09-20 21:34:27.224958984,0,014,-0.3923508132088825,0.20235132968849967,-1.1481388237736683,-0.07625929055274655,-0.25501912814902317,-0.006343591315162607,-0.6652291545792532,0.36944315698244234,2
68,2024-09-20 21:34:27.307153076,0,014,-0.3879777936360839,0.198279256941562,-0.9805630106731592,-0.09326239987875994,-0.24749911658823465,0.00029956159665571144,-0.6092311087666942,0.34774376675717966,2
69,2024-09-20 21:34:27.364958984,0,014,-0.38584787453916103,0.1936184394955742,-0.7948233482864802,-0.11674742013879129,-0.24188985791469053,0.006895955280870009,-0.5475801786213855,0.3296436483624575,2
70,2024-09-20 21:34:28.304420898,0,014,-0.38584239368787454,0.18834047852728936,-0.6004605810495873,-0.14515476719050868,-0.2380048312580584,0.012703570854999588,-0.4799827436010008,0.3147107952226872,2
71,2024-09-20 21:34:28.382968994,0,014,-0.38759675826522005,0.18241383626817423,-0.40809228079152754,-0.17679246178820143,-0.23544368812441693,0.017000322854144847,-0.4081995165132873,0.3027254545127008,2
72,2024-09-20 21:34:28.445000000,0,014,-0.3904721777163156,0.17579091754240994,-0.22856490134411553,-0.20992021227496366,-0.23351548690834428,0.019134223069120458,-0.33562281857397075,0.29359682922075164,2
73,2024-09-20 21:34:28.507600098,0,014,-0.3935800416849732,0.16840431971025016,-0.0723193542232371,-0.24274417247719227,-0.23119897832630198,0.01857451120262093,-0.2663571609450572,0.28717585329152917,2
74,2024-09-20 21:34:28.587634033,0,014,-0.3958377777178236,0.16016994060396236,0.05111279246839034,-0.2733540880513782,-0.22721029818102462,0.014960777414854718,-0.20418602993734963,0.2830921601381801,2
75,2024-09-20 21:34:28.647862793,0,014,-0.3960288411018735,0.150994539524087,0.13353318501048816,-0.299671451363874,-0.22018476464937864,0.00814729610528497,-0.15182876979303153,0.2807167594349196,2
76,2024-09-20 21:34:28.710350098,0,014,-0.3928691509225237,0.14078838117643136,0.1684746484744764,-0.3194901188495105,-0.20889988102472687,-0.0017664607789511723,-0.11077172390920889,0.2792727578519955,2
77,2024-09-20 21:34:29.662574951,0,014,-0.3851035781435009,0.1294844174889186,0.15166069948796962,-0.3306447740330867,-0.19246071052417416,-0.014427173549720817,-0.08168585432034457,0.2780318907602089,2
78,2024-09-20 21:34:29.724620117,0,014,-0.3716293947621082,0.1170599970693805,0.08147649819735019,-0.33124763886070335,-0.17040752490759134,-0.029243889835858454,-0.06505801149077631,0.27648869203126614,2
79,2024-09-20 21:34:29.801803955,0,014,-0.35160967743632093,0.10355198956971307,-0.0407760077067715,-0.3198844075489716,-0.14273973695700948,-0.04543084214280785,-0.06150703921127665,0.27442253729209887,2
80,2024-09-20 21:34:29.863862061,0,014,-0.3245603486533691,0.08906190952230605,-0.2109539619020964,-0.29572471775098313,-0.109874920668132,-0.062075356228109786,-0.07152310717904992,0.2718264239006004,2
81,2024-09-20 21:34:29.925898193,0,014,-0.2904365920697834,0.07375738767098425,-0.422327925666924,-0.2585941599203803,-0.07257255868216006,-0.07822123908871641,-0.09480098792569636,0.2687645030083543,2
82,2024-09-20 21:34:30.003562988,0,014,-0.24972969999092914,0.05787515615041202,-0.6658632650078099,-0.2090515554525632,-0.03185016082463805,-0.09295203121139901,-0.12956677891615145,0.26524088157205433,2
83,2024-09-20 21:34:30.065584961,0,014,-0.2035334233164438,0.04172141424327288,-0.9305844488710001,-0.14845276797492934,0.011086149202223703,-0.10545978426551658,-0.17227646680001404,0.2611132022265101,2
84,2024-09-20 21:34:30.994240967,0,014,-0.15353379776412493,0.025663337042346406,-1.2041308536920046,-0.07895956218613857,0.0548904407161894,-0.11509387581761361,-0.21793240712317624,0.2560717098225621,2
85,2024-09-20 21:34:31.062087891,0,014,-0.10192237071099043,0.01011346505457925,-1.4735030476709148,-0.003468692795434141,0.0981238021782897,-0.12139495091721866,-0.2609967454553713,0.2497169642248635,2
86,2024-09-20 21:34:31.125763916,0,014,-0.05126151608070666,-0.004486157533835612,-1.7259037249039362,0.07454610597119446,0.13932577519349834,-0.12412016906715721,-0.29654439729913534,0.24170841983649421,2
87,2024-09-20 21:34:31.197443848,0,014,-0.0043156322110790325,-0.017678921895408043,-1.9495616833198404,0.15127239782927326,0.17712229943856136,-0.12325761222571077,-0.32120865953825267,0.23189259871754558,2
88,2024-09-20 21:34:31.264949951,0,014,0.03615760179010707,-0.02901370840204337,-2.134483212841153,0.22285680819801376,0.21035999732612395,-0.11902354277291301,-0.3337015191206891,0.2203636884630378,2
89,2024-09-20 21:34:31.328445068,0,014,0.06765490745451695,-0.03807546704146417,-2.273118853035813,0.2857284810606301,0.23822790001743313,-0.11184007297908359,-0.3349377927745924,0.20748515005872625,2
90,2024-09-20 21:34:31.397239014,0,014,0.08819096116918716,-0.044526711895786254,-2.360905084414708,0.33690266534196095,0.2603099150169073,-0.10229663086733162,-0.3278619910341845,0.19390471887761637,2
91,2024-09-20 21:34:32.339248047,0,014,0.09653417257306876,-0.04815367951364634,-2.3965973053433967,0.37421656500958606,0.27653709404629745,-0.09110328908803125,-0.31703812982420837,0.18055206104064345,2
92,2024-09-20 21:34:32.409892090,0,014,0.09236595053007964,-0.04890374472717407,-2.3823195592374407,0.39647101133206847,0.28706046216034925,-0.07904267373628035,-0.3080225726808408,0.16857636527534778,2
93,2024-09-20 21:34:32.477602051,0,014,0.07633742823247074,-0.046902013602523225,-2.32332886316221,0.40349035815881795,0.292101995001907,-0.06692007400320822,-0.3065580419678436,0.1591981618483512,2
94,2024-09-20 21:34:32.540391846,0,014,0.050030452505982835,-0.042446942520763385,-2.227563052471779,0.3961322561689525,0.291846930926704,-0.055509588626431405,-0.31768879560156926,0.15351650571854858,2
95,2024-09-20 21:34:32.613145996,0,014,0.015843631649838725,-0.03599339668767028,-2.105025302137285,0.3762535923767565,0.28640925042998516,-0.045499467417073045,-0.3449268381745216,0.15235458940411145,2
96,2024-09-20 21:34:32.674715088,0,014,-0.02318435217649541,-0.028127582334954725,-1.9669725017303372,0.346590814727079,0.27585615553782616,-0.037443235826504356,-0.38963766467942873,0.1562045414427038,2
97,2024-09-20 21:34:32.737507080,0,014,-0.0636125038305352,-0.019530182582587513,-1.82483974533604,0.3105000179887299,0.2602593696369611,-0.03172278915795527,-0.45086870204931206,0.1652878935741951,2
98,2024-09-20 21:34:33.692110107,0,014,-0.10188225719093064,-0.010924800621641832,-1.6889665408006578,0.2715650279407671,0.23975395141819628,-0.02852773601470063,-0.5257144038241404,0.17969652120566537,2
99,2024-09-20 21:34:33.754594971,0,014,-0.13460828507520695,-0.0030184641604053,-1.567428823518541,0.23317312182968036,0.21459961650619502,-0.02785229019748035,-0.6100292850048803,0.19953860235918217,2
100,2024-09-20 21:34:33.817080078,0,014,-0.15883034292744105,0.0035530136139185708,-1.4653445541226486,0.19818072117958582,0.18524323340060242,-0.029509807715354244,-0.6991870491933083,0.22502361420719777,2
101,2024-09-20 21:34:33.880072998,0,014,-0.1722060143026292,0.008265493184084496,-1.3847746498728213,0.1687261409394606,0.1523749145933038,-0.033165164836336386,-0.7887018200516378,0.2564502466977102,2
102,2024-09-20 21:34:33.963241211,0,014,-0.1731470677336418,0.01072980212932482,-1.3250671946682786,0.14616689765353516,0.11695233675087456,-0.038380703759239444,-0.8746767368256979,0.2940915761713199,2
103,2024-09-20 21:34:34.028083008,0,014,-0.16090063572146876,0.010698635503447258,-1.2834526337646046,0.13108625680968264,0.0801596342331432,-0.0446641501032685,-0.9541083818225652,0.3380235245035998,2
104,2024-09-20 21:34:34.098077148,0,014,-0.13556231042818115,0.008060688628253466,-1.2557406859912914,0.12332626396928781,0.043298408275091224,-0.051506389823877785,-1.025030804248097,0.3879662756515042,2
105,2024-09-20 21:34:35.041498047,0,014,-0.09800874320607016,0.0028286021888678996,-1.236984971418519,0.12204033484669717,0.007658539462706796,-0.05840652773118046,-1.0864176673949444,0.4431715284981278,2
106,2024-09-20 21:34:35.103502930,0,014,-0.04975386513542501,-0.004874216179182191,-1.2220967305650532,0.12579281633301653,-0.02557500688852608,-0.06489204899345678,-1.1378326453538716,0.5023642246248816,2
107,2024-09-20 21:34:35.177736084,0,014,0.007247968011908858,-0.014828295942967461,-1.2064849639763093,0.13273131945789787,-0.05537210876588545,-0.07054137279644315,-1.1789778488631242,0.5637553138868612,2
108,2024-09-20 21:34:35.245455078,0,014,0.0708047462846,-0.026734573486477745,-1.1866510935853183,0.14081536301676476,-0.08090155480762144,-0.07500631022371208,-1.209343886244152,0.6251253848901931,2
109,2024-09-20 21:34:35.305798096,0,014,0.13863820020899764,-0.040227679467646264,-1.1604891436764462,0.14804232235925407,-0.1015912646845568,-0.07802747823625569,-1.2280851169683262,0.6839564979835817,2
110,2024-09-20 21:34:35.368282959,0,014,0.20846307343861856,-0.054882803737428015,-1.1271887922896358,0.15261135430250528,-0.11717923181954681,-0.07944357196515676,-1.2341214781814116,0.7376017384079847,2
111,2024-09-20 21:34:35.446388916,0,014,0.2780294956559611,-0.07022123732176103,-1.0869409931299743,0.1530087724165732,-0.12771528904335647,-0.07920314981823194,-1.2263777749980096,0.7834873494546242,2
112,2024-09-20 21:34:36.366270020,0,014,0.34517427277476076,-0.08572254979776785,-1.0406713784187929,0.14803642693297306,-0.13351367738235903,-0.07737958847902704,-1.204064732238341,0.8193147847002532,2
113,2024-09-20 21:34:36.427885010,0,014,0.40788937340237896,-0.10084559840719734,-0.9898070350691828,0.13680665499449454,-0.13510932237949505,-0.07417365252343854,-1.1669404270641215,0.8432130322247057,2
114,2024-09-20 21:34:36.489893066,0,014,0.46438816442885494,-0.11505436062895412,-0.9359869562124052,0.11872059710849818,-0.13326335987532978,-0.06988826472715644,-1.115453267956441,0.8538101284333665,2
115,2024-09-20 21:34:36.567072021,0,014,0.5131590901299359,-0.12784392624386093,-0.8807331529911488,0.09345193319848685,-0.1289863362844711,-0.06487963364320941,-1.0506197099237646,0.8502320830960352,2
116,2024-09-20 21:34:36.624865967,0,014,0.5530127726466472,-0.13876506672664593,-0.8251765286657018,0.06095321321414812,-0.12350559662644763,-0.059502538792212845,-0.9736225690720344,0.8320725864053728,2
117,2024-09-20 21:34:36.707331787,0,014,0.5831222797296632,-0.1474473597785361,-0.7698347935435844,0.021473967479040394,-0.11816369488054246,-0.054062251142318836,-0.885325145343992,0.7993751076858642,2
118,2024-09-20 21:34:36.769515136,0,014,0.6030413487623819,-0.15361941138623378,-0.714331170129987,-0.02444188467363156,-0.11430442354397528,-0.048776887786135356,-0.7858947624766931,0.7526332094629963,2
119,2024-09-20 21:34:37.702833984,0,014,0.6126931104342613,-0.15712387928640303,-0.6570712915702774,-0.0759919950136545,-0.11318639158360806,-0.04375481388688006,-0.6745902168820466,0.6927912076125181,2
120,2024-09-20 21:34:37.785793945,0,014,0.6123422380147546,-0.15792531825203293,-0.5951260636743119,-0.13215961026369252,-0.11590493361534585,-0.038995417579514406,-0.5497419886158181,0.6212287738607271,2
121,2024-09-20 21:34:37.853513916,0,014,0.6025638411291391,-0.15610863908487857,-0.5245016936286092,-0.19174731433218412,-0.12328518043621516,-0.034417897745559485,-0.4089906859079867,0.5397159205268924,2
122,2024-09-20 21:34:37.921022949,0,014,0.5842065748576154,-0.15186753118116372,-0.4406462214344556,-0.2534265644163821,-0.13574431041912574,-0.029911127528187732,-0.24979332448414926,0.45032745245256256,2
123,2024-09-20 21:34:37.983947021,0,014,0.558337470033245,-0.1454854305736642,-0.33893493002939695,-0.31582727816238115,-0.1531666469233824,-0.025387489231569797,-0.0700870405965346,0.355324142304595,2
124,2024-09-20 21:34:38.045979980,0,014,0.5261627944057641,-0.1373125245029372,-0.21514047395106822,-0.37763053420934484,-0.17485285158113115,-0.020822441323634307,0.13109925498875596,0.2570318509786182,2
125,2024-09-20 21:34:38.123243164,0,014,0.4889421495619591,-0.1277410275310634,-0.0660652112560987,-0.43760291023960207,-0.19958253750392815,-0.016268024423017217,0.3532817183582971,0.15775226056610855,2
126,2024-09-20 21:34:39.068140869,0,014,0.4479310907090067,-0.11718084158432002,0.10967690997532939,-0.49455982216596506,-0.22577234650688438,-0.011840496657930851,0.5944059162813498,0.05972895336097993,2
127,2024-09-20 21:34:39.135889893,0,014,0.40437530920506104,-0.106039383754389,0.3109466234628328,-0.5472845260831437,-0.2516544470133236,-0.007696839712078318,0.8507699856429225,-0.03481697119912837,2
128,2024-09-20 21:34:39.202231934,0,014,0.3595390022980638,-0.0947085164667276,0.5336253152769674,-0.5944261287898692,-0.2754087997218614,-0.0040182674109627515,1.116837916576649,-0.12361238497924709,2
129,2024-09-20 21:34:39.263871826,0,014,0.3147176858177633,-0.08355570056189685,0.77054765858227,-0.6344174628188567,-0.2952589505847385,-0.0010024758610964622,1.3850659455604564,-0.20430550166932346,2
130,2024-09-20 21:34:39.339118896,0,014,0.27119942298378363,-0.07291269127599416,1.011928299775965,-0.66549042742404,-0.3095872199579351,0.0011511303748569567,1.6460355831848343,-0.27455290273331906,2
131,2024-09-20 21:34:39.406794189,0,014,0.23018925630302928,-0.06305917472026337,1.2462722599549083,-0.685833926881485,-0.31708373882533575,0.002274444600559899,1.889064594454527,-0.3322092181656657,2
132,2024-09-20 21:34:39.464636963,0,014,0.1927475083024835,-0.05420643356109941,1.461540819494661,-0.6938383523457995,-0.3168885325171781,0.0022739166895431955,2.1031789908353273,-0.37556772710389585,2
133,2024-09-20 21:34:40.413950928,0,014,0.15977773566609269,-0.04648967191963831,1.6462344575269539,-0.6883175658415343,-0.30868846359482177,0.0011652354905531497,2.278221427649699,-0.40360430826568305,2
134,2024-09-20 21:34:40.476075928,0,014,0.13205331070001003,-0.039972282596489925,1.7902043754367343,-0.6686412952905934,-0.29275871879638776,-0.0009156910708224464,2.40594409391463,-0.4161731427606264,2
135,2024-09-20 21:34:40.554403076,0,014,0.11024099046582302,-0.0346562499311146,1.8852715900305366,-0.6347789264870317,-0.2699434639952228,-0.0037291252954317505,2.480858800941393,-0.4140837895941206,2
136,2024-09-20 21:34:40.622155029,0,014,0.0948865613704413,-0.030491552693486128,1.9258148646002684,-0.5872928586986855,-0.24157054057531824,-0.0069662919030419185,2.500586292545074,-0.3990216315005401,2
137,2024-09-20 21:34:40.687194092,0,014,0.08635889772656695,-0.027384260664132236,1.9093091211414759,-0.5273158394363062,-0.20931540484997008,-0.01028778961760949,2.465781967368632,-0.3733543528545662,2
138,2024-09-20 21:34:40.747703125,0,014,0.08478523459709034,-0.02520782492395499,1.836616918508396,-0.45652296670315157,-0.17504483097486567,-0.013355041607785806,2.3799626766170836,-0.3398921626049182,2
139,2024-09-20 21:34:40.810190918,0,014,0.09002173260245909,-0.02381955366171427,1.7118942223272993,-0.37709996900588155,-0.14066040271214336,-0.015852532911902216,2.249329213568982,-0.3016293341551979,2
140,2024-09-20 21:34:41.743896973,0,014,0.10167260782898437,-0.023078614138149222,1.5421564053861803,-0.29170537627602744,-0.10794755222525876,-0.017504716848509547,2.0823859492368277,-0.26147724661019417,2
141,2024-09-20 21:34:41.808191162,0,014,0.11913763564851265,-0.022861206950998667,1.3366166285572814,-0.20339963159162933,-0.07843757208924647,-0.018090603033356828,1.8891963864959362,-0.22202079855864074,2
142,2024-09-20 21:34:41.870254150,0,014,0.1416662491281729,-0.023072927187188574,1.1058361319382075,-0.11549548899189743,-0.05329585270766632,-0.017453098691601204,1.6803741632584641,-0.18534760884244084,2
143,2024-09-20 21:34:41.933062012,0,014,0.16840221739995687,-0.023657527063583483,0.8607205651211248,-0.03131482830132391,-0.03325065650154941,-0.015499613987527026,1.466124574994413,-0.15298733222149338,2
144,2024-09-20 21:34:42.014345947,0,014,0.19839785946802269,-0.02459397104967025,0.611555914074633,0.046091087580750874,-0.018583542913678124,-0.012195606943639473,1.2556011801270555,-0.1259534573724813,2
145,2024-09-20 21:34:42.082636230,0,014,0.23058042550949565,-0.025872910437846477,0.3673503322798038,0.11416420253123957,-0.009209100978291612,-0.0075533084150022425,1.0565549816278554,-0.10483249475766404,2
146,2024-09-20 21:34:42.150389893,0,014,0.26368017211914513,-0.027454890254118666,0.13554315393622596,0.17096244388461218,-0.004850208611970695,-0.0016151000356235705,0.8750394277894895,-0.08984867169894717,2
147,2024-09-20 21:34:43.089962891,0,014,0.2961656474841,-0.029225305798087266,-0.0780383376586969,0.2152096957497471,-0.005261728640522484,0.005565500470739277,0.7149959345299358,-0.08085173028561513,2
148,2024-09-20 21:34:43.161717773,0,014,0.32624310912014537,-0.03096576227875955,-0.2690002527116635,0.24630494355979107,-0.01041219825274914,0.01393587966482546,0.5778014322493381,-0.07723975561253776,2
149,2024-09-20 21:34:43.229072021,0,014,0.3519530315162749,-0.03235776545801248,-0.4339599353889821,0.2642967022102111,-0.020547325210617386,0.02344223330720361,0.4620820218427459,-0.07789917477443029,2
150,2024-09-20 21:34:43.290600098,0,014,0.3713598921617311,-0.033023582394598495,-0.5700888152135319,0.26982778719758166,-0.036123600218378016,0.034017375224745884,0.3640563912771118,-0.08123578773518905,2
151,2024-09-20 21:34:43.353097900,0,014,0.38279675074003605,-0.03259239815344831,-0.6749668912232603,0.26406326010062064,-0.05765630918476677,0.0455713136621293,0.27839905184711916,-0.08530920468146402,2
152,2024-09-20 21:34:43.431687988,0,014,0.3851012363378913,-0.030767922001414934,-0.7468425543440933,0.24860788812081527,-0.08553497636913651,0.05799385081164754,0.19939868957315793,-0.08805387418942878,2
153,2024-09-20 21:34:43.493546875,0,014,0.37778015211796234,-0.0273763944259932,-0.78502739129405,0.22540580076073488,-0.11983610927648014,0.0711638885589052,0.12215529167910401,-0.0875489476630187,2
154,2024-09-20 21:34:44.444070068,0,014,0.3610671078898543,-0.022386354036465814,-0.7901060963099391,0.1966127309929128,-0.16014461005789893,0.08494853243922693,0.04360839766518387,-0.08226541556640733,2
155,2024-09-20 21:34:44.509872070,0,014,0.33586972155277645,-0.015901710061116448,-0.7639365630197996,0.1644541543571896,-0.2054059520358083,0.09918083689462208,-0.0367515552872799,-0.07123685397328351,2
156,2024-09-20 21:34:44.571885010,0,014,0.3036246756684271,-0.00813525865311529,-0.7096453469423094,0.1311042511522216,-0.25386276293813975,0.11362562119495041,-0.11663688949944301,-0.054149348789927186,2
157,2024-09-20 21:34:44.647205078,0,014,0.26609902130172364,0.0006259259788629164,-0.6316809850225429,0.09859879901256906,-0.3031364213060724,0.12795659677258692,-0.19133177461805848,-0.0313524583523596,2
158,2024-09-20 21:34:44.711540039,0,014,0.2251941326444682,0.010051399660799975,-0.5357323161304449,0.06875188548780098,-0.35046405314759815,0.14175954927148787,-0.2546211677185302,-0.003787105201822212,2
159,2024-09-20 21:34:44.782660889,0,014,0.18279784013586578,0.01978989649510934,-0.4283564312622975,0.043042772890325834,-0.393021575199024,0.1545582449650373,-0.29994328119902064,0.027154837708004063,2
160,2024-09-20 21:34:44.835139893,0,014,0.14069089428100462,0.02948725806002943,-0.31640355745615184,0.022479303510321846,-0.4282183664769173,0.16585229143973593,-0.3214056303901529,0.05980544710350555,2
161,2024-09-20 21:34:45.792195068,0,014,0.10048760023184478,0.0388039775357945,-0.20640979658681194,0.007480793138613506,-0.45388278358168566,0.17515938782882587,-0.314494358710461,0.09238789365317608,2
162,2024-09-20 21:34:45.854314209,0,014,0.06359111531869734,0.04743217570226306,-0.10404134004736379,-0.0021710520729772615,-0.4683466521308493,0.18205886640944685,-0.27651066772508276,0.12315124717658914,2
163,2024-09-20 21:34:45.916799072,0,014,0.031149178790028625,0.05511083142509974,-0.013669102152844049,-0.007289605029088964,-0.4704976095582895,0.18623423848485032,-0.20689827415054796,0.150495618391444,2
164,2024-09-20 21:34:45.997337158,0,014,0.0040047251934473,0.06163853207455154,0.0618047322592256,-0.009163397750777498,-0.4598462683013165,0.18750816141755683,-0.10754072543497221,0.1731281222088392,2
165,2024-09-20 21:34:46.056435059,0,014,-0.017345250660609532,0.06688104828249611,0.12086098873133107,-0.009393933732529898,-0.43658867824998493,0.185859491313928,0.017167939404030986,0.19024050434102158,2
166,2024-09-20 21:34:46.119388184,0,014,-0.03275951387452567,0.07077129632395271,0.16318700504569197,-0.009722446083365529,-0.40161263456340845,0.18141564257530154,0.1607445604096333,0.20163388936105578,2
167,2024-09-20 21:34:46.200463135,0,014,-0.0424210576278211,0.07330289248888494,0.18957418482065286,-0.011858983706147084,-0.35642336075679654,0.17442230262573782,0.31546823647108563,0.2077139507395209,2
168,2024-09-20 21:34:47.114691895,0,014,-0.046772553054594455,0.07451981585257701,0.20186995917952832,-0.017304802808867033,-0.30300244691190753,0.16520063945479632,0.47330005384535173,0.20934782596221554,2
169,2024-09-20 21:34:47.177177002,0,014,-0.046431381514379845,0.07450298218548065,0.2028082829310921,-0.0271620662167338,-0.24362597054615737,0.15410486179220334,0.6266223929483228,0.2076383734605602,2
170,2024-09-20 21:34:47.254719971,0,014,-0.04209406274040873,0.0733542966537201,0.19558730172796615,-0.04196909752263979,-0.1806674821929864,0.14148938166713013,0.7688189539777314,0.20368287025383827,2
171,2024-09-20 21:34:47.317305176,0,014,-0.03444422157757543,0.07118102869679349,0.1832870090472037,-0.06163230954030182,-0.11640946568232609,0.127687993943066,0.8947110440768042,0.19837634930321085,2
172,2024-09-20 21:34:47.379312012,0,014,-0.024082448700564613,0.06808444456277689,0.16841072260175347,-0.08549819680580094,-0.05287650598576904,0.11300146408928208,1.000668315867948,0.19231889642403666,2
173,2024-09-20 21:34:47.458490967,0,014,-0.011489435216363086,0.06415399989695672,0.1527694573504038,-0.11254091023582073,0.008298902592493265,0.09768954885150766,1.0842551730467702,0.18584614497247473,2
174,2024-09-20 21:34:47.519043945,0,014,0.002977519398439687,0.059464980464505206,0.13763707650280246,-0.14157683725519848,0.06594976364163034,0.08196938338011954,1.1436096668598372,0.17912438887574356,2
175,2024-09-20 21:34:48.468206787,0,014,0.019058864426224308,0.05407770430824529,0.12389982303644125,-0.17140283601429843,0.11936022315970421,0.06602488969561127,1.176968323176904,0.17221732732412798,2
176,2024-09-20 21:34:48.536431885,0,014,0.03654509452243648,0.04803859369365412,0.11205240389456804,-0.20081905549866935,0.16818094275030507,0.050024029537145076,1.1826528706349193,0.1650601337131739,2
177,2024-09-20 21:34:48.604173828,0,014,0.055225362481386715,0.04138273817158099,0.10216271617732373,-0.22858368334204898,0.2123240404686456,0.03413115358980522,1.1596047984646314,0.15732665688666148,2
178,2024-09-20 21:34:48.671931885,0,014,0.07485369623173604,0.03413576979965291,0.09395446919580032,-0.25336826981530813,0.25186533085058416,0.0185037897439563,1.1082962680677078,0.1482371119973165,2
179,2024-09-20 21:34:48.739652100,0,014,0.09513350451964384,0.026315127827607705,0.08696772397190262,-0.2737539345790573,0.28695625892690835,0.003275166772425835,1.031607704446708,0.13641157247671698,2
180,2024-09-20 21:34:48.807396973,0,014,0.11570549813133675,0.017934916196562338,0.08067173459157595,-0.2882909468519373,0.317756881292542,-0.011466557031683965,0.9352135865899606,0.119882043993926,2
181,2024-09-20 21:34:48.874397949,0,014,0.13613840988063639,0.009017781148731441,0.07447363288825466,-0.29562556937861006,0.34440816381131334,-0.025690359360438016,0.8272437927558026,0.09631153994285802,2
182,2024-09-20 21:34:49.806120117,0,014,0.15594200527528262,-0.0003886893346981409,0.06762418718527254,-0.2946498867948712,0.36704008963161017,-0.03941929217371179,0.7173496919450887,0.06337262455475293,2
183,2024-09-20 21:34:49.885504882,0,014,0.17461898144362956,-0.010197892318400369,0.05904217598619253,-0.28459463502585075,0.3857826628717926,-0.05271304164959056,0.6155310769222103,0.01918251388843554,2
184,2024-09-20 21:34:49.945754883,0,014,0.19175143464438865,-0.02027844263020858,0.04716569565345691,-0.2650270715882563,0.40075034022210493,-0.06564265850853883,0.5310292160197262,-0.03729960624336904,2
185,2024-09-20 21:34:50.008240967,0,014,0.20709608632667012,-0.030459222964393684,0.03004161062569061,-0.23580709664785293,0.4120142406691254,-0.07826694023649716,0.47143526046401174,-0.10598625973481127,2
186,2024-09-20 21:34:50.085872803,0,014,0.2206518007746744,-0.040543941731686274,0.005761484584506241,-0.19708561592969395,0.41960908556840976,-0.09061790595630964,0.4420890710496047,-0.18555310966717117,2
187,2024-09-20 21:34:50.148839111,0,014,0.23267257350969575,-0.05033037973142624,-0.026945416870121704,-0.14936188372994819,0.4236076249863242,-0.10269806442556592,0.4457868081242071,-0.2735345443467694,2
188,2024-09-20 21:34:50.224125000,0,014,0.24362878133064853,-0.05962928807571288,-0.06830585419745294,-0.0935419431303764,0.42425348787693384,-0.11448942386738573,0.4827348521487777,-0.36657066883853456,2
189,2024-09-20 21:34:51.156963135,0,014,0.25414527650955004,-0.06828178971516734,-0.1174382093328518,-0.030952156613027037,0.4220923083645914,-0.12597118582558942,0.5506605016648396,-0.4607160764127885,2
190,2024-09-20 21:34:51.234833008,0,014,0.26494104801751167,-0.07617624781142536,-0.1724707192600222,0.03666922254987481,0.4180099946349781,-0.13713671929490925,0.6449985411454798,-0.5517548396925862,2
191,2024-09-20 21:34:51.303841064,0,014,0.27677400997983104,-0.08326190879527487,-0.23058524359649246,0.10715493189884767,0.4131252859539992,-0.14799747627691406,0.7591404981554009,-0.6355161965199523,2
192,2024-09-20 21:34:51.371510009,0,014,0.2903864239006684,-0.08955280893715484,-0.28789507077126886,0.17786499759887645,0.40857003914107476,-0.15856855082081947,0.8848989255690811,-0.7082056871624223,2
193,2024-09-20 21:34:51.436196045,0,014,0.3064538740473216,-0.09511999606868327,-0.3392787132213759,0.24567187031224763,0.4052470610923752,-0.16884313881577825,1.0133602664750379,-0.7667426410797685,2
194,2024-09-20 21:34:51.498875977,0,014,0.32554908835716406,-0.10008068727169998,-0.37839947202601304,0.3070442248441427,0.4036547904227366,-0.17877156191943838,1.1360445411519875,-0.8090481379971989,2
195,2024-09-20 21:34:51.561499023,0,014,0.34812725059268496,-0.10459420492501087,-0.3981021955409086,0.3582650113572381,0.4038224500107884,-0.18825587350493567,1.2460762898463247,-0.8342145061152071,2
196,2024-09-20 21:34:52.510502197,0,014,0.37451560443802245,-0.10886089507977613,-0.3911912200934293,0.39576057917450563,0.40533602280424025,-0.19715631608681336,1.339055223027188,-0.8425218521162969,2
197,2024-09-20 21:34:52.572060059,0,014,0.404874447786349,-0.11311027021397481,-0.3513754788075115,0.4164714173523482,0.40741549525359844,-0.2052991049144657,1.4133078335873261,-0.8352954325526689,2
198,2024-09-20 21:34:52.642846191,0,014,0.43912001005867707,-0.11757303954753985,-0.274109409356681,0.4181884477197095,0.40903728192062794,-0.2124828479996118,1.4693076846458972,-0.8146117994423844,2
199,2024-09-20 21:34:52.720545898,0,014,0.47683913456414595,-0.12244684543363481,-0.15718353068419413,0.3998081922911034,0.40910982147024083,-0.21849013380866297,1.5084859661584806,-0.782918452647784,2
200,2024-09-20 21:34:52.789738037,0,014,0.5172401895386853,-0.12787042824747827,-0.0010356969358105545,0.36148456683210706,0.40667261753893436,-0.22311134009939612,1.5321080498261863,-0.7427078039211027,2
201,2024-09-20 21:34:52.845060059,0,014,0.5591730693522717,-0.13391394052036995,0.1912470113539046,0.304651644060343,0.4010584592771574,-0.22617944764914524,1.540894792786743,-0.6963751111145542,2
202,2024-09-20 21:34:52.924874023,0,014,0.6012271981118538,-0.14058283922759002,0.41423113857931343,0.2319005204266875,0.39198096344655886,-0.22760218982770328,1.5355372937913698,-0.646270735150601,2
203,2024-09-20 21:34:53.843530029,0,014,0.6418834154052664,-0.1478271915786593,0.6605858688784935,0.14673897237727362,0.3795508989746206,-0.22737285345706212,1.5175363578090062,-0.5948275822656469,2
204,2024-09-20 21:34:53.911326904,0,014,0.6796735456712889,-0.15555003077877466,0.9214815636812739,0.05330047025626713,0.36424259732084346,-0.22555336552075286,1.4895345391412935,-0.5446039968965821,2
205,2024-09-20 21:34:53.978059082,0,014,0.713311803523683,-0.16361478697839035,1.1869202016831684,-0.043935085851999275,0.34682821874742625,-0.22224216090265855,1.4548301886347168,-0.49815246449947653,2
206,2024-09-20 21:34:54.040545898,0,014,0.7417850974507907,-0.17185476966913732,1.4461001872560484,-0.140374906084847,0.3282879804357158,-0.21754404694356524,1.4164659108137863,-0.4577420112528904,2
207,2024-09-20 21:34:54.102562012,0,014,0.764400725663977,-0.18008361900529624,1.6878631489455385,-0.23150185052782668,0.3097029413914565,-0.2115508879460717,1.376404844929694,-0.42503734027817736,2
208,2024-09-20 21:34:54.182147949,0,014,0.7807945553486862,-0.1881028312187922,1.9012466313250558,-0.3130521694799408,0.2921474395178827,-0.20433550175379694,1.3350637456868382,-0.4008490691222208,2
209,2024-09-20 21:34:54.241390869,0,014,0.7909069545749112,-0.19570618666307324,2.0761918620035935,-0.38121662809025836,0.2766006810141196,-0.1959586110685489,1.291383635928685,-0.38504870874389724,2
210,2024-09-20 21:34:55.193583984,0,014,0.79493985997914,-0.2026844640221184,2.204341511924778,-0.43285218818059806,0.2638825277343435,-0.1864856450048258,1.243489721866634,-0.3766842579990493,2
211,2024-09-20 21:34:55.261364014,0,014,0.7933082502613781,-0.2088314434391349,2.2796990026486594,-0.4656523038125922,0.2546086631357511,-0.17600830351939847,1.1896204036789295,-0.3742354917990235,2
212,2024-09-20 21:34:55.329120117,0,014,0.7865849378931467,-0.2139481955317165,2.2989710749853858,-0.47823636783676643,0.24916328192417866,-0.16466575781524445,1.1288260107725148,-0.37589378067778206,2
213,2024-09-20 21:34:55.396874023,0,014,0.7754274421073046,-0.21784301332136422,2.261597334328828,-0.4701551713063865,0.24768876255851272,-0.1526603872014024,1.061193471408112,-0.3797955301547751,2
214,2024-09-20 21:34:55.460262939,0,014,0.7604797069059991,-0.22032668872569117,2.1695253469065388,-0.44183548462732897,0.25008893694209455,-0.1402632652009228,0.9876644613763251,-0.38419894100060753,2
215,2024-09-20 21:34:55.522748047,0,014,0.7422547009991556,-0.22120480213398377,2.026752603058846,-0.39449240344436115,0.25603535104691416,-0.1278050836464005,0.9096177003675946,-0.38759505636483177,2
216,2024-09-20 21:34:55.600119141,0,014,0.7210286585399371,-0.22027322434644497,1.8386817089632648,-0.3300179195874965,0.2649600176908897,-0.11565000477229986,0.8283799605312723,-0.3887321647347921,2
217,2024-09-20 21:34:56.543253906,0,014,0.6967918322289062,-0.21732548079240652,1.6114192988210077,-0.25083847313476826,0.2760378784795558,-0.10415608282574525,0.7447730007179356,-0.386558372160937,2
218,2024-09-20 21:34:56.611834961,0,014,0.6692827420693902,-0.21217472566257323,1.3512441491366742,-0.15975998683393347,0.28818648038328165,-0.09363171657190152,0.658759234567848,-0.3801342043100083,2
219,2024-09-20 21:34:56.679583008,0,014,0.6381015525750628,-0.20468602148191373,1.0644787416603014,-0.05984527226434354,0.30010027996681077,-0.0842969117742261,0.5692798017333767,-0.3685855765704874,2
220,2024-09-20 21:34:56.747337158,0,014,0.6028667808197431,-0.1948124591386249,0.7577773378481985,0.04566516004326547,0.3103229102604124,-0.07625506829578109,0.47435352619637394,-0.3511266638479876,2
221,2024-09-20 21:34:56.815114014,0,014,0.5633601816929976,-0.18262736064106738,0.4385228878840297,0.15343392102479636,0.31736251077953115,-0.0694789425099843,0.37140787555333055,-0.32713249660220667,2
222,2024-09-20 21:34:56.882800049,0,014,0.5196242821729161,-0.16834480610392888,0.11496593314604286,0.2601564703802348,0.3198454540703426,-0.06381378556602257,0.2577596415874829,-0.2962387255012806,2
223,2024-09-20 21:34:56.946204834,0,014,0.472008267131479,-0.1523228613791551,-0.2039954293305512,0.3627377007994112,0.3166879853561173,-0.059001591869927594,0.1310827712617961,-0.25845077286890805,2
224,2024-09-20 21:34:57.868799072,0,014,0.42115468872270956,-0.13504388485282479,-0.5092131342564733,0.45846276665902286,0.30724689399933514,-0.05472301083197199,-0.010352978681935049,-0.2142208724401129,2
225,2024-09-20 21:34:57.936399902,0,014,0.3679202304686535,-0.11707000522233484,-0.791661108282447,0.545102878662871,0.2913873149031599,-0.05063908908204327,-0.16767563183551656,-0.16445350136785608,2
226,2024-09-20 21:34:58.004357178,0,014,0.31326857717735995,-0.09898573826195538,-1.042768677409245,0.6209480778381937,0.26942787047471733,-0.04641776107622627,-0.3413644270538981,-0.11044871525942607,2
227,2024-09-20 21:34:58.072125977,0,014,0.258203359331883,-0.08134910305176936,-1.2547946794433162,0.6848046895806542,0.24199536532894822,-0.04175013870244598,-0.5309708378681623,-0.0538238878596991,2
228,2024-09-20 21:34:58.139864014,0,014,0.20376234074100802,-0.06466197628111325,-1.4212445245788499,0.7359816501183394,0.20986389209106673,-0.0363693956961089,-0.7346616973669218,0.0035514439296449735,2
229,2024-09-20 21:34:58.204997070,0,014,0.1510170551982308,-0.04935141816684997,-1.5373020442314194,0.7742684408811115,0.17382992116687362,-0.030072988194409248,-0.9486722826714253,0.05958209287830868,2
230,2024-09-20 21:34:58.267482910,0,014,0.1010188843233142,-0.03574987420846421,-1.6002311532161573,0.7999097222026156,0.1346265919830744,-0.02273712210100968,-1.1667597780901555,0.11193980812739801,2
231,2024-09-20 21:34:59.217217041,0,014,0.05470951605756152,-0.024075159056974826,-1.6096304420855139,0.8135759731558988,0.09286198021807887,-0.014314301392253027,-1.3799191151327528,0.15808185379385564,2
232,2024-09-20 21:34:59.276610107,0,014,0.012853750572769935,-0.014419796698231591,-1.5674723278895455,0.8163219477564494,0.04898653552488311,-0.004815714865445262,-1.5766403824162518,0.19536558471313573,2
233,2024-09-20 21:34:59.338689209,0,014,-0.023995051520129092,-0.006753152802563181,-1.4779786078844974,0.809528507664605,0.0033031411492640593,0.005714130015765781,-1.7436622381467553,0.2212604672254519,2
234,2024-09-20 21:34:59.421549072,0,014,-0.055530059486588616,-0.0009315345610665836,-1.3473916424658536,0.7948241895145978,-0.043994840710790656,0.01722660444181538,-1.8669163213472557,0.23358265294380592,2
235,2024-09-20 21:34:59.489267090,0,014,-0.08174043443947214,0.0032888575216322704,-1.1836558233077494,0.7739847975651689,-0.09279140862489703,0.029699569560863323,-1.9325298982897772,0.23068520396081832,2
236,2024-09-20 21:34:59.557051025,0,014,-0.10295298894016584,0.006237389773847017,-0.9959929442808116,0.7488146423254263,-0.143037453093928,0.04316249908143602,-1.9280324478985482,0.21160593682456122,2
237,2024-09-20 21:34:59.624801025,0,014,-0.11983063313952394,0.008310728221898918,-0.7943373921680379,0.7210135263946001,-0.19474436856939564,0.05770569185902953,-1.8438042424473866,0.17619260277560733,2
238,2024-09-20 21:35:00.556183105,0,014,-0.133305972087407,0.009948080284686935,-0.5886672205557939,0.6920404842770235,-0.24794509041363025,0.07346468226337396,-1.6745450863125928,0.12518750965718733,2
239,2024-09-20 21:35:00.635905029,0,014,-0.14446345920508064,0.011599814632173487,-0.3883824703910402,0.6630054802119614,-0.3026062888464241,0.09057950448541645,-1.4205132741064543,0.060245205052995715,2
240,2024-09-20 21:35:00.698958008,0,014,-0.15440610055216109,0.01369132370957878,-0.2018743975023626,0.6346333207811171,-0.35852447170017687,0.1091414629492658,-1.0882755199796186,-0.01612693380488941,2
241,2024-09-20 21:35:00.771704102,0,014,-0.16412794437534126,0.01658433178986669,-0.036307451034750776,0.6073284729340349,-0.41525718431382524,0.12914563447821664,-0.6906703025088344,-0.10071283205236689,2
242,2024-09-20 21:35:00.839482910,0,014,-0.1743942950408535,0.02054028182329683,0.10243972410556347,0.5813222881243051,-0.47210956145355787,0.1504601497371889,-0.24591943033087982,-0.18980837734623562,2
243,2024-09-20 21:35:00.906708984,0,014,-0.18564559924393179,0.025693840200886924,0.20973205054342536,0.5568346430665481,-0.5281656050890137,0.17281381696704318,0.22383255530197568,-0.27946903827427627,2
244,2024-09-20 21:35:00.975049072,0,014,-0.19795998128841286,0.03204358728830275,0.2821206144367648,0.5341837538765674,-0.5823465939796405,0.19580004953429528,0.6941733313725681,-0.3657153023042351,2
245,2024-09-20 21:35:01.918458984,0,014,-0.2110869313866098,0.03946139865760256,0.3173809249133468,0.5138299297417898,-0.6334804491508663,0.21889523013927495,1.1400183758040259,-0.4446603203735763,2
246,2024-09-20 21:35:01.986208008,0,014,-0.22452563150138555,0.04771614303438786,0.31467408629190224,0.4963725885800149,-0.6803716810136369,0.24149100725177688,1.5370661115369109,-0.512575966154892,2
247,2024-09-20 21:35:02.053916992,0,014,-0.23761595236428787,0.05650406290181919,0.27474263874893895,0.4825093696428387,-0.721863016536587,0.26293796736077507,1.8631467397975698,-0.5659454185524272,2
248,2024-09-20 21:35:02.121635010,0,014,-0.24962804198120273,0.0654790852601539,0.200037562818901,0.4729542443411847,-0.7568750875230503,0.28259055724613974,2.09950533579678,-0.6015712726949493,2
249,2024-09-20 21:35:02.189362061,0,014,-0.25984688320045884,0.07428069174560648,0.09469216079720988,0.46832738568527427,-0.7844243839244702,0.299840736107087,2.2319900237682466,-0.6167955749000446,2
250,2024-09-20 21:35:02.257106934,0,014,-0.26764755752375685,0.08256019842866265,-0.03574396001539881,0.46905627736053485,-0.8036402660915981,0.3141367589951248,2.252018601009366,-0.6098056141426953,2
251,2024-09-20 21:35:02.310798096,0,014,-0.27254977026528215,0.09000495055028791,-0.1848123766522373,0.4753215998518226,-0.8137922896212334,0.3249936111218968,2.1571625014159106,-0.5799217524850312,2
252,2024-09-20 21:35:03.254072998,0,014,-0.27423580693376526,0.0963559380920607,-0.34573251202654276,0.4870349477029278,-0.8143213917603259,0.3320053543018774,1.9512884912955712,-0.5277744869005321,2
253,2024-09-20 21:35:03.331291016,0,014,-0.2725267724091507,0.10141238702357072,-0.5118517070571548,0.5038080829401264,-0.8048789652483195,0.33486741343212545,1.6442984977163195,-0.45533605011308914,2
254,2024-09-20 21:35:03.395246094,0,014,-0.2673366523493639,0.10502198799258165,-0.6768588735864809,0.5249003246724286,-0.7853875003222439,0.33340744007133194,1.2515296107561484,-0.3658234367553809,2
255,2024-09-20 21:35:03.471291016,0,014,-0.25864390832527134,0.10706574300300728,-0.8348241518928282,0.5491725952972845,-0.7561124190860764,0.3276125695137948,0.7928975036626543,-0.2635159838333764,2
256,2024-09-20 21:35:03.533289795,0,014,-0.24650826147400628,0.10745027328424542,-0.9802280076865029,0.5750897838181076,-0.7177106600902355,0.31764325780176267,0.2917907574094907,-0.15350152590489433,2
257,2024-09-20 21:35:03.607760986,0,014,-0.23111704059844676,0.10611220930978041,-1.1081315809657935,0.6007904396862741,-0.6712323910152375,0.30383716294489854,-0.22639058242108487,-0.0413321182454575,2
258,2024-09-20 21:35:03.664045166,0,014,-0.21281933845697779,0.10302896637244208,-1.214512552102048,0.6242100106243026,-0.6180730149008632,0.2867074025992601,-0.735993141604794,0.06737375064622717,2
259,2024-09-20 21:35:04.592111084,0,014,-0.19212820751164,0.09822827262424605,-1.2966479252362355,0.6432357676104578,-0.5598849333904443,0.26692525058918165,-1.2128282219957442,0.16728270166404544,2
260,2024-09-20 21:35:04.648925049,0,014,-0.16970611135056946,0.09179361627376932,-1.3533883180157091,0.6558871756311492,-0.49848423340574843,0.24527723155147724,-1.6355769533052906,0.25361762217296074,2
261,2024-09-20 21:35:04.726129883,0,014,-0.1463539010658238,0.08386727482120074,-1.3852375185274697,0.6605164492200648,-0.4358026170793556,0.22260711007379247,-1.9868933895678624,0.3224108719761378,2
262,2024-09-20 21:35:04.796044189,0,014,-0.12300166671330257,0.07465284404277156,-1.394235001898209,0.6559946627729871,-0.37388794281477866,0.1997626558770041,-2.2542955874290724,0.3707703446349042,2
263,2024-09-20 21:35:04.850133057,0,014,-0.10067619166587748,0.06441596941545755,-1.3836794133057688,0.6418290978069029,-0.31489114863686996,0.17755419156853255,-2.430772840181763,0.39709523033190125,2
264,2024-09-20 21:35:04.931493896,0,014,-0.08042272211295967,0.05348039250874538,-1.3577642846397102,0.6181860970255418,-0.2609732739505145,0.15671964277576234,-2.514905068819385,0.40116448620205436,2
265,2024-09-20 21:35:04.999288086,0,014,-0.06319697461259065,0.04221936514678975,-1.3212310302130843,0.5858429623906204,-0.21412100504573278,0.13789136729725993,-2.5103929137113106,0.38408214451365313,2
266,2024-09-20 21:35:05.941092041,0,014,-0.04977160694791032,0.031045368207827512,-1.2790822990144046,0.5461082338805995,-0.1759262332185101,0.12156789470095047,-2.4251778495826435,0.3481124315496238,2
267,2024-09-20 21:35:06.001135986,0,014,-0.04068118669598985,0.02039962195331813,-1.2362809241025763,0.5007295535155656,-0.14741782491902666,0.10810162860385222,-2.270488411345566,0.29644278072896796,2
268,2024-09-20 21:35:06.079511962,0,014,-0.03620084599298994,0.010739886519936495,-1.1973625776272556,0.4517876668355567,-0.1289987858670622,0.09771107544355169,-2.0600052462612077,0.2329037670545781,2
269,2024-09-20 21:35:06.141568115,0,014,-0.036354798673486545,0.002523993022356557,-1.1660114005585678,0.4015715255297056,-0.12046898091291099,0.09050931518038456,-1.8091024751771434,0.16166824862973336,2
270,2024-09-20 21:35:06.215041992,0,014,-0.04094933086391638,-0.003813454590742611,-1.1447289891735473,0.35243649699967533,-0.12107290278956889,0.08652597295319059,-1.534000853291041,0.0869363891049281,2
271,2024-09-20 21:35:06.281286865,0,014,-0.04960987782055943,-0.007891841603623983,-1.1346584170611134,0.3066466013332125,-0.12953291970162312,0.08570647996885754,-1.250675539266901,0.012607394040622891,2
272,2024-09-20 21:35:06.342925049,0,014,-0.0618112103994188,-0.009417524916101393,-1.1354674400334404,0.2661936351058625,-0.14407402459840982,0.08789401639694223,-0.9735865018434547,-0.05802436968657372,2
273,2024-09-20 21:35:07.292133057,0,014,-0.07691435597566407,-0.008209034125119292,-1.145196393244695,0.23260720847727406,-0.1624674741205566,0.09281392695506445,-0.7145983928099715,-0.12247693331067706,2
274,2024-09-20 21:35:07.353408203,0,014,-0.09422575416765049,-0.0042061108898505395,-1.1601995003665087,0.20681359217352352,-0.18211884077397616,0.10007588954502866,-0.4824253460958016,-0.17915779498121676,2
275,2024-09-20 21:35:07.427604004,0,014,-0.11307796244266065,0.0025396184556395547,-1.1754076858796652,0.18910110592566123,-0.20022409285320014,0.10919480162882499,-0.28265745397145875,-0.22733172616363392,2
276,2024-09-20 21:35:07.495181152,0,014,-0.13291536499770634,0.011886101461092844,-1.1849134370578147,0.17919480493605633,-0.2140059918288832,0.11962231232365399,-0.11822526721671422,-0.26699642262165063,2
277,2024-09-20 21:35:07.555444092,0,014,-0.15335921724941223,0.023622216733807495,-1.1826511132742454,0.17639640709605905,-0.22101192630689367,0.13078013039140157,0.009993841598598242,-0.2986734274191833,2
278,2024-09-20 21:35:07.630428955,0,014,-0.17422810252386353,0.037480022999682304,-1.1630219365344485,0.17973624673549546,-0.21942471421932683,0.14208953707715072,0.1027452784320886,-0.3231484944029868,2
279,2024-09-20 21:35:07.697818115,0,014,-0.19549977034964225,0.053137672836072396,-1.1214876192558887,0.18809399656893486,-0.20832077060739224,0.15299738369406674,0.16215871427110914,-0.34121038072223175,2
280,2024-09-20 21:35:08.619039062,0,014,-0.21721989833526487,0.07021843385391809,-1.0551267372332296,0.20026325381873317,-0.18779971860630904,0.16300082446591496,0.19142780662442727,-0.353435253843713,2
281,2024-09-20 21:35:08.676163818,0,014,-0.23939188076223,0.08829243116381898,-0.9629959867078813,0.214961074653025,-0.1589319048396243,0.17166680670673148,0.19427684600286807,-0.36006674238886655,2
282,2024-09-20 21:35:08.754442871,0,014,-0.2618942427145246,0.10688595844351659,-0.8461454581156235,0.23081292087276517,-0.12354420758083841,0.17864012822653133,0.1744296196297562,-0.3610222043893794,2
283,2024-09-20 21:35:08.822174072,0,014,-0.28445230113717895,0.12549987000661147,-0.7073436894137483,0.24636337774705008,-0.08392903611871266,0.18364269119315868,0.13535089708481207,-0.3559991007512486,2
284,2024-09-20 21:35:08.877630859,0,014,-0.3066574409667228,0.14363559504237006,-0.5507101680291501,0.2601544029505128,-0.04255253270121984,0.18647309427308623,0.08026715831738668,-0.34460915451696206,2
285,2024-09-20 21:35:08.957606934,0,014,-0.3280064919889641,0.16082487043589613,-0.3813492651040862,0.2708720872396902,-0.0017935820468985134,0.18701218514280643,0.012307242237541042,-0.3264949714518814,2
286,2024-09-20 21:35:09.025324951,0,014,-0.34793496113080374,0.1766579496627009,-0.20494284465681423,0.2775149432587641,0.036269245397014586,0.1852341698235248,-0.06531675371703312,-0.30144763550933923,2
287,2024-09-20 21:35:09.968503905,0,014,-0.36583957618425084,0.19080691543010142,-0.027339762453809792,0.27952547503089775,0.06999310274655565,0.18121983776786568,-0.14912853001855797,-0.2695447963968157,2
288,2024-09-20 21:35:10.027610107,0,014,-0.38111069572823164,0.20304335540702215,0.14570118241062555,0.2768626511147322,0.09819989698394949,0.17516716745097075,-0.23532245868021648,-0.2312805174697562,2
289,2024-09-20 21:35:10.089591064,0,014,-0.3931950000900936,0.21324864611192387,0.30857622448871364,0.27002197724635313,0.12010999070458415,0.16739271179695686,-0.3199365938402404,-0.18763321694729065,2
290,2024-09-20 21:35:10.171116211,0,014,-0.4016833350101308,0.2214142302046717,0.4558801372147386,0.25999417680309295,0.13525176686806129,0.15831526923276423,-0.3993030386524674,-0.1400198449056017,2
291,2024-09-20 21:35:10.239593018,0,014,-0.4063964907128606,0.22763178626053387,0.5826154984234596,0.24813591268693,0.14344115791843443,0.148414811033164,-0.4706786495204594,-0.0901192413114507,2
292,2024-09-20 21:35:10.305756104,0,014,-0.4074355469242523,0.23207328050124282,0.6846017245655558,0.23595745073967092,0.14486754498366047,0.1381683100645574,-0.5327901600019478,-0.03962250425228739,2
293,2024-09-20 21:35:10.375100098,0,014,-0.4051745499545645,0.2349598830405704,0.7589793941798563,0.22488563132179462,0.14022621069051164,0.12797836015384784,-0.586008450232015,0.009981793775788497,2
294,2024-09-20 21:35:11.306056885,0,014,-0.4001995858058785,0.23652391599066452,0.8046579928290983,0.21607250095929414,0.13080946020532788,0.11811784841984352,-0.6321021861994414,0.057508255825721416,2
295,2024-09-20 21:35:11.384777100,0,014,-0.3932135946903925,0.23697290271633137,0.8225568639231948,0.210288020391183,0.11851919164973279,0.108706635626106,-0.6737528964351113,0.10205910597785608,2
296,2024-09-20 21:35:11.454094971,0,014,-0.384917215297244,0.23646057602077974,0.815500021941583,0.20789826969653286,0.10579731754206415,0.0997221099570892,-0.7139973933616468,0.1429510999031151,2
297,2024-09-20 21:35:11.508244873,0,014,-0.3758742301389907,0.23506441286132848,0.7877180502032186,0.2088983782413067,0.09547018232019956,0.09103211590613948,-0.7556322993379229,0.17964207671971774,2
298,2024-09-20 21:35:11.588242920,0,014,-0.366391560016745,0.23277192190790946,0.7441116698326257,0.21295374067410505,0.09051821148480967,0.08243130708826672,-0.8005796037275315,0.21167147011076257,2
299,2024-09-20 21:35:11.642966064,0,014,-0.35645693373624376,0.22948200985281883,0.6895656156679838,0.21942150647980305,0.09380309219445106,0.07366847661342397,-0.8492864247089627,0.23861216565810814,2
300,2024-09-20 21:35:11.720969971,0,014,-0.3457593694734489,0.2250248283837151,0.6285378088340368,0.22735507967560706,0.1077911235426499,0.06446699663891028,-0.9003110652060237,0.26004291006361135,2
301,2024-09-20 21:35:12.669159912,0,014,-0.3337746988167004,0.21919406451021564,0.5649847890799294,0.23551031285665883,0.13431786860271236,0.0545443933846435,-0.9502465387875839,0.27554898346194534,2
302,2024-09-20 21:35:12.736928955,0,014,-0.31986013713892986,0.21177658257634493,0.5025433089147807,0.2423727275149509,0.1744396048279055,0.04362802185398221,-0.9940624021436927,0.2847544721085189,2
303,2024-09-20 21:35:12.796839111,0,014,-0.30331398516358,0.20256715501284908,0.4447899564506297,0.24622444892852996,0.2283805909232843,0.03146139052791676,-1.0258091950415307,0.28738440654035746,2
304,2024-09-20 21:35:12.858905029,0,014,-0.2834137001816194,0.19137196924294392,0.3953729397823444,0.2452718700490861,0.29553258731698356,0.01780698130596621,-1.0394860990006916,0.2833328777697017,2
305,2024-09-20 21:35:12.937014160,0,014,-0.25947827771498233,0.17801520135249252,0.3578890391825264,0.2378381774012342,0.37446105265185264,0.002457155708421451,-1.0299266691543327,0.2727252754203995,2
306,2024-09-20 21:35:12.999497803,0,014,-0.23097555669973893,0.16235661176134783,0.3355286868283173,0.22258358684385757,0.4629236577277566,-0.014743488096219608,-0.9937170533699127,0.25600783757777057,2
307,2024-09-20 21:35:13.061064941,0,014,-0.19764698954123014,0.14431674626211707,0.3306570356952138,0.19868707587409043,0.5579407195462225,-0.03386882940521208,-0.9300552903231246,0.2340677906829827,2
308,2024-09-20 21:35:14.019495850,0,014,-0.15959539838654652,0.1239014608232342,0.34453853535377493,0.1659366846933744,0.6559433472831182,-0.0548823507774838,-0.8412174619149577,0.20830575965977452,2
309,2024-09-20 21:35:14.087862061,0,014,-0.11730138189955201,0.10121820888242763,0.37729982974489595,0.12471958342212343,0.7529932161993662,-0.07761653464331271,-0.732354033587738,0.18058968004904274,2
310,2024-09-20 21:35:14.141436035,0,014,-0.07158630055894322,0.07648113973384633,0.42807788113441053,0.07593662878586903,0.8450420066725484,-0.10176245432732763,-0.6106460073596284,0.15309977292999824,2
311,2024-09-20 21:35:14.223627930,0,014,-0.023560383154580013,0.05000687366008796,0.4952536988898231,0.020865108597946293,0.9281978384120774,-0.12686803239234026,-0.48407664404034256,0.12810989721938626,2
312,2024-09-20 21:35:14.291135986,0,014,0.025440064187299445,0.022201662398924307,0.576707981258061,-0.0390118621348798,0.9989942767198322,-0.15235269122465442,-0.3601392283044598,0.1077355304190468,2
313,2024-09-20 21:35:14.359091064,0,014,0.07395175881739217,-0.006462427351818778,0.6700676947379328,-0.10216925559699382,1.0546622989552468,-0.1775483222089559,-0.24479105618201924,0.09367325350019962,2
314,2024-09-20 21:35:14.426780029,0,014,0.12052333504810406,-0.03548070819729515,0.7729170070443809,-0.16714428978938117,1.0933612369931711,-0.20175862271961897,-0.14187921508830115,0.08697030220522257,2
315,2024-09-20 21:35:15.363835205,0,014,0.16386090403647396,-0.06434987437412312,0.8829495974739866,-0.23256658582686604,1.1143024043926573,-0.22431715735506674,-0.05307660889034643,0.08787284885021301,2
316,2024-09-20 21:35:15.436043945,0,014,0.20294550606283637,-0.09259375108304627,0.9980532370784947,-0.2971546130487561,1.1177417469255773,-0.24463371585289304,0.02179020148170687,0.09580211095980265,2
317,2024-09-20 21:35:15.503420166,0,014,0.23711034060366107,-0.11977703190874797,1.1163310486304356,-0.35972360756635946,1.104864436106651,-0.26222717068682844,0.0841760410366537,0.10948255577630008,2
318,2024-09-20 21:35:15.565906982,0,014,0.2660846057781066,-0.1455110613219138,1.2360956970266657,-0.4192103980544961,1.0775923039743673,-0.2767422700509745,0.1362046472983406,0.1271841933662891,2
319,2024-09-20 21:35:15.638844971,0,014,0.2900194397920722,-0.16946275867842625,1.3558997765876462,-0.4746908410856667,1.0383390216638348,-0.28794982303972744,0.1801998863055019,0.14699248880951354,2
320,2024-09-20 21:35:15.707595947,0,014,0.3094969782842501,-0.1913737937552361,1.4746181949066357,-0.5253725453867764,0.9897389514085125,-0.2957341030861305,0.2183789316104054,0.16703521142360658,2
321,2024-09-20 21:35:15.775309082,0,014,0.32549390226077074,-0.21108190843179417,1.5915200662360642,-0.5705720600711958,0.9343852446835929,-0.3000714512906972,0.252589762777485,0.185639123140778,2
322,2024-09-20 21:35:16.685394043,0,014,0.33927032280633995,-0.22852802906070827,1.7062570818207539,-0.609699072026333,0.8746147685157084,-0.3010025964567278,0.284081355686348,0.20141342257832362,2
323,2024-09-20 21:35:16.747878906,0,014,0.3521918916338992,-0.24374196860443564,1.8187458135644816,-0.6422637561704498,0.8123551133402346,-0.29860188631499573,0.3134067353268154,0.21327067574077868,2
324,2024-09-20 21:35:16.829536865,0,014,0.36552890532543475,-0.2568150969842783,1.928945630369003,-0.667909996596353,0.7490262470029718,-0.2929494347791398,0.3405167753847419,0.22039940464815835,2
325,2024-09-20 21:35:16.897250000,0,014,0.3802782507279493,-0.2678730377302749,2.0365043319629335,-0.6864514692313509,0.6854960952020877,-0.2841145569231286,0.3650149739141827,0.22219074839517802,2
326,2024-09-20 21:35:16.963128174,0,014,0.397024823981052,-0.2770518962366226,2.1402655429022577,-0.6978610271385945,0.6221098761008905,-0.2721580555147083,0.38645080423324507,0.21813171380570281,2
327,2024-09-20 21:35:17.032746094,0,014,0.41583924786105286,-0.28447258714206847,2.237741474056663,-0.7021792792434111,0.5588131929714508,-0.2571557694749705,0.40451293873027727,0.20770868634354311,2
328,2024-09-20 21:35:17.100465088,0,014,0.43622083883280277,-0.29021118269845025,2.3247355494019777,-0.6993706430404668,0.4953604049771916,-0.23923805822341246,0.41912646456983516,0.19036944355019617,2
329,2024-09-20 21:35:18.044770020,0,014,0.45710801067513135,-0.29427302471210726,2.395287784112526,-0.6892047725915396,0.4315551518216784,-0.21863329240363763,0.4305973387261549,0.1655557130804866,2
330,2024-09-20 21:35:18.113306152,0,014,0.4769686271089378,-0.29658338127551453,2.442024815691069,-0.6712270102929065,0.36743411264405085,-0.1956992089419924,0.43990039314628315,0.13276401282321124,2
331,2024-09-20 21:35:18.181086182,0,014,0.4939606923248139,-0.2970026478194532,2.4568715210665673,-0.6448309151808577,0.3033263421160501,-0.1709277647484267,0.4490238145567522,0.09157377252849759,2
332,2024-09-20 21:35:18.248856934,0,014,0.5061323541275761,-0.29536239125190733,2.431975241979536,-0.6094024698619042,0.23980790355369852,-0.14492171860086575,0.46115558424309216,0.04162757474762174,2
333,2024-09-20 21:35:18.315907959,0,014,0.5116196152681277,-0.2915086621106739,2.3606223699899633,-0.5644703248912372,0.177639963059395,-0.11835703145886156,0.48053244574344606,-0.01739408187709157,2
334,2024-09-20 21:35:18.378393799,0,014,0.5088141256064704,-0.2853384035778071,2.237960221663581,-0.5097955024099324,0.11775481174383726,-0.09194957073917356,0.5119137318000111,-0.08574243186598768,2
335,2024-09-20 21:35:18.452153076,0,014,0.4965091688100561,-0.276823568774626,2.061507342333213,-0.44539547021265846,0.06127763279978633,-0.06643369849532893,0.5598133326421951,-0.16348143014400068,2
336,2024-09-20 21:35:19.395404053,0,014,0.47404802055315054,-0.2660272598518348,1.8315591316306652,-0.37156146048026123,0.00952586503300443,-0.04254594139066341,0.6277495533364147,-0.25031115836101225,2
337,2024-09-20 21:35:19.463344971,0,014,0.44146567363460676,-0.2531167883261541,1.5515152240129573,-0.2889250578022444,-0.03605525302046732,-0.021003931102721907,0.7177610319802894,-0.34540098827484816,2
338,2024-09-20 21:35:19.530522949,0,014,0.39957939118683045,-0.23837212309019296,1.2280033658476048,-0.19857999138347276,-0.07401180541478072,-0.0024790765974111264,0.8302788639889601,-0.44726591295949153,2
339,2024-09-20 21:35:19.599150879,0,014,0.3499946955182647,-0.22218564543012176,0.8706647224931026,-0.10221955311784775,-0.10301327228662951,0.01243224311185202,0.9642692044630126,-0.5536923647668875,2
340,2024-09-20 21:35:19.651314941,0,014,0.29502041527980455,-0.20505161541843234,0.49159267287632447,-0.0022276781602661114,-0.1219678545303114,0.02323644254478555,1.1175181407541028,-0.6617503351788424,2
341,2024-09-20 21:35:19.734562012,0,014,0.23749772364258925,-0.1875445054618532,0.10453224212216831,0.09833831842460464,-0.13012480574465216,0.029571864329091733,1.2870085089876797,-0.7679386569726242,2
342,2024-09-20 21:35:19.790602051,0,014,0.18056314550375815,-0.1702853830528623,-0.2760351760794465,0.19591156498429457,-0.12718411126600715,0.031243755101209136,1.4693672130227649,-0.8684503238900024,2
343,2024-09-20 21:35:20.719161133,0,014,0.12738534747442498,-0.15389948968199443,-0.6358638146332558,0.28671638476660555,-0.11341747058784787,0.028266079696038546,1.6612353591618498,-0.9594735529017535,2
344,2024-09-20 21:35:20.774955078,0,014,0.08091689602716985,-0.13897278317637116,-0.9619384568650364,0.36713805109443176,-0.08976280362107222,0.02089877094092896,1.859300246636413,-1.0374362163054605,2
345,2024-09-20 21:35:20.853061035,0,014,0.04369120344979187,-0.12601554302663023,-1.243337567700731,0.43405906986458453,-0.057829678269711034,0.009657535644303036,2.0598954458142638,-1.099163650064155,2
346,2024-09-20 21:35:20.922480225,0,014,0.017683438116664327,-0.11543766895488511,-1.4717483451444362,0.48508205225230017,-0.019789438419691604,-0.004718600046240071,2.2583999099769523,-1.1419802303313402,2
347,2024-09-20 21:35:20.976185059,0,014,0.004231340109793607,-0.10753412791864657,-1.6416187059409224,0.5186245512778067,0.02180993106400536,-0.02133427639647255,2.4487883988528387,-1.1637930763815794,2
348,2024-09-20 21:35:21.058022949,0,014,0.003986041715535785,-0.10247383773167448,-1.7501242021024745,0.5339211557683423,0.06424357109269353,-0.039219529314687966,2.623551989838259,-1.1631785048492156,2
349,2024-09-20 21:35:21.115086182,0,014,0.016866629780766886,-0.10028872902215127,-1.797060974773757,0.5309738451395097,0.10480054441054538,-0.057412102468664045,2.7740180132325025,-1.1394701053685647,2
350,2024-09-20 21:35:22.070801025,0,014,0.042028350900667547,-0.10086948620875116,-1.7846659570009988,0.510473242415522,0.14097330161452318,-0.07503335592110244,2.890984684366283,-1.0928325798483352,2
351,2024-09-20 21:35:22.135374023,0,014,0.07788550894093196,-0.10397735741940606,-1.7173437690584865,0.47369248355846644,0.17063885690018138,-0.09134971023555875,2.965533335853102,-1.024313239438227,2
352,2024-09-20 21:35:22.206308105,0,014,0.1222198885427078,-0.10927336101130262,-1.6012315095322642,0.4223507792824109,0.19220614551376528,-0.10581124059510055,2.989839857852606,-0.9358648664426025,2
353,2024-09-20 21:35:22.274020996,0,014,0.17236102070404552,-0.11635675441280004,-1.443545287592181,0.35846481853715323,0.20471810764569434,-0.11806683342492763,2.9577717861129007,-0.8303036551738046,2
354,2024-09-20 21:35:22.336034180,0,014,0.22539496287734087,-0.12480194025034694,-1.251802892694382,0.2842194246653275,0.20790961792313312,-0.12796286894509898,2.865119379072429,-0.7111555275586466,2
355,2024-09-20 21:35:22.398085205,0,014,0.27837398796032325,-0.13418764383464463,-1.0331273837489081,0.2018720393586585,0.20221050981931116,-0.13552961436003788,2.7095954860543214,-0.5824042209906782,2
356,2024-09-20 21:35:22.477379150,0,014,0.32852393347938486,-0.1441187955538853,-0.7938333357105206,0.11369471596077192,0.1886752267987718,-0.1409527632400682,2.490995619925802,-0.4482198052723495,2
357,2024-09-20 21:35:23.405848877,0,014,0.3734371767901885,-0.15424303041247292,-0.5394129611437735,0.021959557719026173,0.16883350434540673,-0.1445302064658976,2.2116934219011863,-0.3127313935762688,2
358,2024-09-20 21:35:23.483025879,0,014,0.41122586745063205,-0.16426180387618206,-0.2748448391851878,-0.07105232423241234,0.14447556812009657,-0.14662111765033506,1.8771988819125285,-0.17985588370322736,2
359,2024-09-20 21:35:23.545510986,0,014,0.4406220332855092,-0.17393622150710134,-0.004985539339243938,-0.16306801189983464,0.11740039272247153,-0.14759304089383438,1.4964280250721027,-0.05317574145614322,2
360,2024-09-20 21:35:23.622200928,0,014,0.4610183984660767,-0.18308668885724544,0.2651490828552827,-0.2518861792033234,0.08917301797847976,-0.14776990596768763,1.0815712920932454,0.06414751470110487,2
361,2024-09-20 21:35:23.677819092,0,014,0.4724345684997095,-0.1915827705746875,0.5302716897876282,-0.3354508357371382,0.06095335345472099,-0.14738949473886542,0.6475583568361727,0.1694560868729423,2
362,2024-09-20 21:35:23.756334961,0,014,0.4754017627319264,-0.19932255906596208,0.7848798367655965,-0.4118980067524547,0.03344253821048532,-0.14658218787103183,0.21107767631106022,0.26070402023441824,2
363,2024-09-20 21:35:23.819032959,0,014,0.4707910963446551,-0.20620795922558038,1.0234605337874276,-0.479584013610629,0.00693583725891795,-0.14537298691962866,-0.2107765304630733,0.3365732801359283,2
364,2024-09-20 21:35:24.768914062,0,014,0.45963005232169746,-0.21212408028047494,1.240816019754372,-0.5371360526364494,-0.018569269978195104,-0.14369671820359065,-0.6018830138224616,0.3965354062343252,2
365,2024-09-20 21:35:24.836736816,0,014,0.4429434970797912,-0.2169270786410349,1.432501629010826,-0.5835564519447655,-0.043242229058860965,-0.14141787662873959,-0.9480828002966796,0.4408072172475971,2
366,2024-09-20 21:35:24.903552002,0,014,0.42164026539935623,-0.22044152534713354,1.5953176572569452,-0.6183651892308486,-0.0672683794252934,-0.13835650933503849,-1.2376616139715428,0.47020450487142784,2
367,2024-09-20 21:35:24.972197021,0,014,0.3964546946487108,-0.2224668291531383,1.7276697048669751,-0.6417105688088088,-0.09069980185108391,-0.13432246330707978,-1.4615267800600324,0.4859479698330635,2
368,2024-09-20 21:35:25.037826172,0,014,0.36794177843594744,-0.22279141562274452,1.8296098110045858,-0.6543769724737225,-0.11336682292146573,-0.12914989367725013,-1.6132860701108183,0.48948126003392517,2
369,2024-09-20 21:35:25.107753906,0,014,0.3365227433398344,-0.2212129089458962,1.9026156255332658,-0.6576944491233299,-0.13489199068817526,-0.12271793225746838,-1.689273971767801,0.4823202889534303,2
370,2024-09-20 21:35:25.175301025,0,014,0.3025721643656419,-0.21756080049397097,1.9493930234245922,-0.6534233635745204,-0.15478491525387555,-0.1149542307986101,-1.6884994623624527,0.46591863880876916,2
371,2024-09-20 21:35:26.111637207,0,014,0.2665140561646893,-0.21171664001463703,1.9738441103062492,-0.6436539678215693,-0.17255849895950956,-0.10583320183159241,-1.612488197145356,0.4415457061575469,2
372,2024-09-20 21:35:26.187724121,0,014,0.2288851338047097,-0.203629077188209,1.9809892161442801,-0.6306773109131064,-0.1878272877478183,-0.09537667146100388,-1.4649990586709583,0.41020140608673955,2
373,2024-09-20 21:35:26.250956055,0,014,0.19034484242885608,-0.19332404556521451,1.976573326815787,-0.6167732160505501,-0.2003857529597561,-0.08364839806145005,-1.2516842540940343,0.37260150187896224,2
374,2024-09-20 21:35:26.313224121,0,014,0.15163339334456713,-0.180909977412884,1.9663862310366182,-0.6039292345657963,-0.21026395073776627,-0.07073433248796225,-0.9799251655861658,0.3292713917415949,2
375,2024-09-20 21:35:26.375886963,0,014,0.11349378934402125,-0.16657681846738012,1.9555576973526245,-0.5935698474983003,-0.21773128112379128,-0.05671775829548734,-0.6590867827385909,0.28076556348755155,2
376,2024-09-20 21:35:26.453015137,0,014,0.0765922553170825,-0.1505888509459364,1.9480288997487973,-0.5863839891669012,-0.22322912665423467,-0.04166723454261178,-0.3010811664551136,0.22795092336967038,2
377,2024-09-20 21:35:26.526385010,0,014,0.04147408504782636,-0.13327339588708836,1.9462137885428386,-0.5822784774130786,-0.22726554225861773,-0.02564429807488624,0.07935590200205284,0.17221241871289,2
378,2024-09-20 21:35:27.436077881,0,014,0.008565077131153948,-0.11500829095043777,1.9507533033336932,-0.5804112948471529,-0.2303281824575555,-0.008719523168675927,0.46527367166043965,0.11546362607673348,2
379,2024-09-20 21:35:27.510602051,0,014,-0.02179872704732381,-0.09621105223763449,1.9603134337087005,-0.579261929847276,-0.23283213106733772,0.009019551563360538,0.8389815308967336,0.05996341613513036,2
380,2024-09-20 21:35:27.575330078,0,014,-0.0493308313702328,-0.07733216064005781,1.9715056099038821,-0.576754745372328,-0.235072472740327,0.027471870530175763,1.1838615577051723,0.008028256607118447,2
381,2024-09-20 21:35:27.646073975,0,014,-0.07374893971626459,-0.05885266142268932,1.9790429370297182,-0.5704674839967792,-0.23715348310625356,0.046525560867946514,1.486090376426928,-0.03827628378105907,2
382,2024-09-20 21:35:27.713739014,0,014,-0.09473063326591664,-0.04128245361471488,1.9761573538006083,-0.5579129018711109,-0.2389053818305219,0.06604575301019101,1.7361219917008721,-0.07741914135761839,2
383,2024-09-20 21:35:27.780896973,0,014,-0.11189236022168056,-0.02515202776753704,1.9552226418618506,-0.5368361400754602,-0.23983220603283495,0.08584612271773263,1.9297717540884756,-0.10862175253602747,2
384,2024-09-20 21:35:27.849170898,0,014,-0.12482060058043075,-0.010989249820630214,1.9085533007229478,-0.505469163024115,-0.23913461920141293,0.10565900054384024,2.06859193285434,-0.13195692592654718,2
385,2024-09-20 21:35:28.785250000,0,014,-0.13315582200156312,0.0007218139813822753,1.8293638907924339,-0.4627141214959986,-0.23581922099851438,0.12512368149002204,2.15928685988369,-0.14828912988520634,2
386,2024-09-20 21:35:28.848412109,0,014,-0.13669014106908153,0.00959229325668657,1.7127639225082327,-0.4082552662303129,-0.22886636496583923,0.14380232806206086,2.2122594506483124,-0.15907510789682605,2
387,2024-09-20 21:35:28.927769043,0,014,-0.13544157230676626,0.015376396860042194,1.5565972113615683,-0.34261562632028103,-0.21741259187519657,0.16121716502803451,2.2397352895906435,-0.1661042362292195,2
388,2024-09-20 21:35:28.996231934,0,014,-0.12970070731728428,0.018005259936222793,1.3620029401822302,-0.2671708000391588,-0.2009177448256434,0.17689462561818128,2.2539350211074365,-0.17125203903734473,2
389,2024-09-20 21:35:29.064011963,0,014,-0.12005093764803826,0.017601880285942336,1.133634715003912,-0.1841068953418879,-0.17930867027532635,0.190407168508615,2.265530619289893,-0.1762645649565301,2
390,2024-09-20 21:35:29.131672119,0,014,-0.10734707994750743,0.01447562862219938,0.8794947131004012,-0.09629906707795285,-0.15309050020037027,0.2014101650404975,2.2824895399307152,-0.18256945700756655,2
391,2024-09-20 21:35:29.199393066,0,014,-0.09264670936941333,0.009096992794549464,0.6103707560636085,-0.007110595662153934,-0.12338852738762991,0.2096664119061123,2.309441824296986,-0.1911323215359456,2
392,2024-09-20 21:35:30.143657959,0,014,-0.07711473387559166,0.0020559353118928224,0.33890968931588267,0.07985081966086369,-0.09187273304800594,0.21504575491317712,2.3476325822378694,-0.2023882175847053,2
393,2024-09-20 21:35:30.211440918,0,014,-0.061930883770120605,-0.005988982839444236,0.07843484302296606,0.1609714205691328,-0.06056300969670478,0.21750091414406697,2.3952989761840184,-0.21625387270557905,2
394,2024-09-20 21:35:30.278284180,0,014,-0.048218333913612105,-0.014362507845574295,-0.15832569965321666,0.23285177473849725,-0.03157229851424441,0.21703924539593072,2.4481880997206003,-0.23219109685007358,2
395,2024-09-20 21:35:30.341025879,0,014,-0.03699381099543173,-0.02242182610048932,-0.3604156080249324,0.2925306097903066,-0.006846130608392683,0.21370724836606558,2.5000366955481446,-0.24928373712526591,2
396,2024-09-20 21:35:30.414572021,0,014,-0.02913142832340519,-0.029603168507686618,-0.5195133347427046,0.3377083431627891,0.012076396692957557,0.20758823099894114,2.5430453356884772,-0.26631667645247176,2
397,2024-09-20 21:35:30.482300049,0,014,-0.025335766287045987,-0.03546452255625544,-0.6302751168902557,0.36692396805764216,0.024258597473422586,0.19880560725199337,2.5685128824184926,-0.2818724139282404,2
398,2024-09-20 21:35:30.542830078,0,014,-0.026119678860532475,-0.03971942336176593,-0.6901834745787819,0.37965016908720883,0.029478132575234003,0.18752479096516753,2.567738066381511,-0.2944637775528693,2
399,2024-09-20 21:35:31.454635010,0,014,-0.03177686880755725,-0.04225623464248352,-0.6992530892764495,0.3763113128190525,0.028218912953430517,0.17395026783264625,2.533103004605546,-0.3027069644471971,2
400,2024-09-20 21:35:31.532280029,0,014,-0.04234852017164994,-0.04313908262050488,-0.6599259881947027,0.35823554399849483,0.021553997000673012,0.15831958717523387,2.459098506701268,-0.3055178043647343,2
401,2024-09-20 21:35:31.604209961,0,014,-0.05760374783190263,-0.042589165905833795,-0.577101826195661,0.32754054702542346,0.01098142213944721,0.14089780084950335,2.34302812878302,-0.3022873528204073,2
402,2024-09-20 21:35:31.656540039,0,014,-0.07704736955145997,-0.04094985336232675,-0.4580308877203226,0.28696203253471014,-0.0017338337564952217,0.12197521253783418,2.1852476605948103,-0.292977453805117,2
403,2024-09-20 21:35:31.739714111,0,014,-0.09994106132960161,-0.03864337891030599,-0.311958274912578,0.23964723326827944,-0.01470900625667642,0.10186949660474405,1.989001700982167,-0.27810108634647657,2
404,2024-09-20 21:35:31.798239990,0,014,-0.12531902822554639,-0.036127193834856276,-0.14959000641464168,0.1889255518989596,-0.026093709539954116,0.08092783972262037,1.7600041125924262,-0.25859619741087636,2
405,2024-09-20 21:35:31.874139893,0,014,-0.1519980569660816,-0.033854697395387025,0.01756598336026495,0.1380553645280176,-0.03421224136106672,0.05952308862254795,1.505792113574093,-0.23562018862792136,2
406,2024-09-20 21:35:32.818813965,0,014,-0.17859885584363155,-0.03224052669671428,0.17797079281759381,0.08996021056592365,-0.037685299170050285,0.03804323565154966,1.2348435749134503,-0.2103002721704543,2
407,2024-09-20 21:35:32.874645020,0,014,-0.2035948527530192,-0.03162873036037948,0.3208700882553433,0.04698946772306538,-0.03551365003229149,0.016874995613335983,0.9556036095179415,-0.18350043932225935,2
408,2024-09-20 21:35:32.951800049,0,014,-0.22538660868847932,-0.032265291074018675,0.43704842888154893,0.010738385563746372,-0.02710668864217666,-0.0036197878729871086,0.6756679080689701,-0.1556811624791498,2
409,2024-09-20 21:35:33.022067139,0,014,-0.24239320092893465,-0.03427953558726619,0.5193969574100331,-0.018036030065339943,-0.012273162983876889,-0.02313119216288937,0.4013338254814997,-0.1269033606951395,2
410,2024-09-20 21:35:33.089780029,0,014,-0.2531662068299652,-0.03767612079501358,0.5631487053220737,-0.03936275564414909,0.008785107786521435,-0.04142074340217449,0.13765049324958883,-0.09697593623090509,2
411,2024-09-20 21:35:33.152439209,0,014,-0.2565272167888327,-0.04233580205695722,0.5657961511079148,-0.05387751478004996,0.03546528878500131,-0.05832426546200147,-0.11106606531589869,-0.06569198906996897,2
412,2024-09-20 21:35:33.214503905,0,014,-0.2516931381931874,-0.04802740460415737,0.526968964645362,-0.06260533176895446,0.06677019493512987,-0.0737392142351676,-0.3405357633451272,-0.033062893382312455,2
413,2024-09-20 21:35:34.168798096,0,014,-0.23834139252745706,-0.054436587886241644,0.44851858112985654,-0.06680058718985189,0.10135775814846334,-0.08760623075024386,-0.5460344768456628,0.0005302016977589525,2
414,2024-09-20 21:35:34.236614990,0,014,-0.21660787784804328,-0.06120696878202506,0.3347472650794269,-0.067868213627413,0.1376299680630686,-0.09989340231697705,-0.7223778038346614,0.034293702097095834,2
415,2024-09-20 21:35:34.304318115,0,014,-0.18704845689756264,-0.06797770503432247,0.19252197535532245,-0.06732360864240625,0.17384412516593437,-0.11058593953891042,-0.8643641117607436,0.06707439886173447,2
416,2024-09-20 21:35:34.370167969,0,014,-0.15059041021637004,-0.07440501901869126,0.03103705164582554,-0.06673324957094758,0.20824558870232723,-0.1196834734876636,-0.9674879928508572,0.09748824206915487,2
417,2024-09-20 21:35:34.439757080,0,014,-0.10848107897923566,-0.08016807596697231,-0.13889465791158537,-0.06760330142965322,0.23922130226110946,-0.12720761586362292,-1.0286247895389755,0.12409187546736913,2
418,2024-09-20 21:35:34.507472900,0,014,-0.06223302755201826,-0.08496893784794206,-0.3059721840117457,-0.07122778879718035,0.2654437120350874,-0.13321640920300665,-1.0464267345049347,0.14555094282621348,2
419,2024-09-20 21:35:34.569092041,0,014,-0.013572664205377368,-0.08853433650561643,-0.4596746251019125,-0.07854742533663561,0.2859653471602249,-0.13781636026840763,-1.0213859557759644,0.16078114566773874,2
420,2024-09-20 21:35:35.519542969,0,014,0.035598088000027464,-0.09061749006816017,-0.5912178873509891,-0.09008488953931323,0.30025250019530414,-0.14116524214373233,-0.9557268398644984,0.1690633180986548,2
421,2024-09-20 21:35:35.582062988,0,014,0.08324765405426977,-0.09099691664309176,-0.693874106610358,-0.10599013562082303,0.3081716911849465,-0.14346541978003102,-0.8533092380140846,0.1701268396811261,2
422,2024-09-20 21:35:35.652919922,0,014,0.12731365044726517,-0.08947876840365734,-0.7627237883744977,-0.12615648874335558,0.3099415574442542,-0.1449495389628264,-0.7195756452184499,0.164188791077612,2
423,2024-09-20 21:35:35.715405029,0,014,0.16587074868421847,-0.08591311057061811,-0.7942309053373239,-0.1503219352158081,0.30605336425656665,-0.14586051688801902,-0.5614652258797613,0.1519548859568092,2
424,2024-09-20 21:35:35.777002930,0,014,0.19733541846779915,-0.0802252789520169,-0.7859952568292932,-0.17810312808766163,0.2971645356978681,-0.14643135835701443,-0.3872446430024699,0.1345949553686003,2
425,2024-09-20 21:35:35.858464111,0,014,0.22065546983647422,-0.07245060196815377,-0.736792403089867,-0.20897574296431315,0.28398278504353863,-0.14687141977977047,-0.2062261601273211,0.11367887997846182,2
426,2024-09-20 21:35:35.926197021,0,014,0.23543445096491172,-0.06275578803309063,-0.6468771837734285,-0.24223155426620072,0.26717221091111215,-0.14735973203913938,-0.02829901387830964,0.09103784690762308,2
427,2024-09-20 21:35:36.855750977,0,014,0.24195448264389055,-0.05143579837161137,-0.5184693323374798,-0.2769214053221537,0.24730903564406398,-0.14804039945735786,0.13675197643752518,0.06854483300117017,2
428,2024-09-20 21:35:36.936001953,0,014,0.24109471867653792,-0.03888714834383242,-0.3561782222223233,-0.31180577105510876,0.22489726843311922,-0.14901663642751525,0.27998775528749725,0.04787448954657961,2
429,2024-09-20 21:35:36.995298096,0,014,0.23418154293094995,-0.025569902421326524,-0.16703888042498619,-0.3453618755381277,0.20043789002747958,-0.15034468153903582,0.3938887822634837,0.030323676077406516,2
430,2024-09-20 21:35:37.057469971,0,014,0.22281171894922275,-0.01197102170560666,0.039949907139207604,-0.3758635551005137,0.17451859109203985,-0.15202896911059588,0.4727173593878812,0.016712173206448827,2
431,2024-09-20 21:35:37.135477051,0,014,0.2086673587559246,0.001429017474062929,0.25457310553990975,-0.40148575397241015,0.14787262258414643,-0.1540175624399045,0.5128311890710573,0.007330637577012614,2
432,2024-09-20 21:35:37.197558105,0,014,0.19333248381686644,0.014191359282466969,0.46613712008149655,-0.4203849202445584,0.12139003245511007,-0.15619964520621005,0.5130485284938614,0.0019224226907231824,2
433,2024-09-20 21:35:37.260042969,0,014,0.1781288890293266,0.02595452165414304,0.6640919205103023,-0.4307698826211901,0.09611487744508736,-0.15841151512199741,0.47494362826547576,-0.00028687697704969054,2
434,2024-09-20 21:35:38.188497070,0,014,0.16399928285445353,0.03645998552884626,0.838613378703285,-0.4310068238930419,0.07324697422289878,-0.16045450180583085,0.40286784582489116,-0.0005050590281434923,2
435,2024-09-20 21:35:38.251507080,0,014,0.15146744497614445,0.045557133882267405,0.981161976079406,-0.41976053583234907,0.054107537228871384,-0.16211869068587914,0.3036167982153764,-0.0002351823723027659,2
436,2024-09-20 21:35:38.318016112,0,014,0.1406801797902444,0.05318725015973916,1.0849067554171918,-0.39614666111115093,0.0400218070867198,-0.1632005920209297,0.1858540624703179,-0.001094123641549493,2
437,2024-09-20 21:35:38.392340820,0,014,0.13149846117400277,0.05935556411535224,1.1449962466380355,-0.35989454434222984,0.03213935500912546,-0.16350729262046299,0.059475096693566605,-0.004630427175255869,2
438,2024-09-20 21:35:38.454829834,0,014,0.1235947893136747,0.06410196005938976,1.158815018512472,-0.31151614562849017,0.03127141273563376,-0.16285141098239375,-0.06500002906125345,-0.012201707309511525,2
439,2024-09-20 21:35:38.517334961,0,014,0.11652661614508308,0.06747882101334342,1.1262776520327071,-0.252423262551359,0.03781117291306294,-0.1610515184837288,-0.17703732271062958,-0.02491946546601442,2
440,2024-09-20 21:35:38.599000000,0,014,0.10976486308002975,0.06954333818213149,1.0500194973236656,-0.1849235904588202,0.051736211515486255,-0.15795044466858163,-0.2667750535751295,-0.04358343641921257,2
441,2024-09-20 21:35:39.540375977,0,014,0.10266739829847882,0.07036861341695015,0.9353553750932799,-0.1120831804888344,0.07263227814591505,-0.15344829974799357,-0.32583186266360614,-0.06853647605987008,2
442,2024-09-20 21:35:39.611620117,0,014,0.09441653083659224,0.07006881422907915,0.7900236929080396,-0.03749792237847856,0.09968711564459129,-0.1475355424768017,-0.3481871994063831,-0.09949709379151685,2
443,2024-09-20 21:35:39.679356201,0,014,0.0839725132722763,0.06882393760150665,0.6237501716508815,0.034979041252567525,0.13167324413545956,-0.14031516991241047,-0.3309464999705168,-0.13549990515511479,2
444,2024-09-20 21:35:39.746783936,0,014,0.07009386067836554,0.06689145421036413,0.4475689304878147,0.1015306106242124,0.16697499179456324,-0.1320109418757299,-0.27475093673324846,-0.17500095619817954,2
445,2024-09-20 21:35:39.806175049,0,014,0.05143097680158101,0.06460413429778844,0.2728459770948943,0.15867539515146675,0.20368024133560914,-0.12295986332659228,-0.18370431488793615,-0.21610932191541307,2
446,2024-09-20 21:35:39.868127197,0,014,0.026655077349606135,0.06235975221069177,0.11009426587944898,0.2035511303764873,0.23971846506936575,-0.11358676307816505,-0.06489107953362229,-0.256875879372366,2
447,2024-09-20 21:35:39.945400879,0,014,-0.005412092136288343,0.060603649080405615,-0.03221335851883693,0.23415808507483388,0.2730217432850666,-0.10436339853564267,0.07230848278406882,-0.29555659342255086,2
448,2024-09-20 21:35:40.893490967,0,014,-0.045662160035973495,0.05980017097657431,-0.1486280766822219,0.24954753481252046,0.3016883227014831,-0.09576157712310884,0.21691059966484919,-0.3307661334267738,2
449,2024-09-20 21:35:40.962061768,0,014,-0.0945420502180857,0.06039238623478524,-0.23734192290608278,0.24993260468705916,0.32413017635503155,-0.08821385872331744,0.3569501137780799,-0.3614893559033409,2
450,2024-09-20 21:35:41.029773926,0,014,-0.15190340182829523,0.062758380469227,-0.3002759919291223,0.23666957596624147,0.3391922603487256,-0.08209175253621706,0.48014561069981115,-0.387001515506769,2
451,2024-09-20 21:35:41.097468018,0,014,-0.21692826791391082,0.06717807814526422,-0.34252032557592776,0.21206221973093659,0.34622408397393245,-0.0776975370038383,0.5748307271186467,-0.4067966536950626,2
452,2024-09-20 21:35:41.164516113,0,014,-0.28817827749712005,0.0738208699443602,-0.3711963671069062,0.1790187269967105,0.3450778971727825,-0.0752546539191714,0.6311405303556262,-0.4205872363278458,2
453,2024-09-20 21:35:41.232986816,0,014,-0.3637540889927488,0.08275265304326071,-0.394050303885678,0.14066877696015365,0.33604533159177213,-0.07488858880919183,0.6420424393686833,-0.42835114242787287,2
454,2024-09-20 21:35:41.290275879,0,014,-0.4415080554985338,0.09395078489664838,-0.4181365076025155,0.10003794824037372,0.3197934793038837,-0.07660486945181981,0.6037748145360872,-0.430363157054918,2
455,2024-09-20 21:35:42.218328857,0,014,-0.5192469320433448,0.10731610210138605,-0.44881614263446723,0.05981703416013468,0.2973447510558924,-0.08027497365229407,0.5156415555651753,-0.427178646094785,2
456,2024-09-20 21:35:42.286152100,0,014,-0.5948810548448223,0.12267932474440249,-0.48919004193384674,0.02223205992447688,0.2700756507534213,-0.0856369887273151,0.3794415514368188,-0.4195733116041083,2
457,2024-09-20 21:35:42.353341064,0,014,-0.6665102577874438,0.1398055461202579,-0.5399982426297841,-0.011001735419324983,0.23967676825788017,-0.09231367949287415,0.19883072475371444,-0.4084521083769284,2
458,2024-09-20 21:35:42.421628906,0,014,-0.7324720924605456,0.1584020175411051,-0.5998456857520276,-0.03868723784983072,0.2080476500054496,-0.09984406563566378,-0.02124802983675652,-0.39473753890694646,2
459,2024-09-20 21:35:42.487874023,0,014,-0.7913902018178722,0.17813282874529812,-0.6655563479393601,-0.060141784582495944,0.1771401407286786,-0.10771749772625626,-0.2750154109542467,-0.3792564249268826,2
460,2024-09-20 21:35:42.550362061,0,014,-0.8422369782765508,0.1986411371719123,-0.7326300386809877,-0.07515968036122601,0.148778056937786,-0.11540101120862768,-0.5560718326128294,-0.3626670275902719,2
461,2024-09-20 21:35:42.624833008,0,014,-0.8843866846793036,0.21957504892096116,-0.7958619867844834,-0.08392197563027919,0.12448184605814895,-0.12235967013003661,-0.8572937830932156,-0.3454573429072506,2
462,2024-09-20 21:35:43.568486816,0,014,-0.9176236691249973,0.2406084288254365,-0.8500411957303298,-0.08689114049711835,0.105323869839286,-0.12807406508543068,-1.1705774250661352,-0.32798238025193777,2
463,2024-09-20 21:35:43.631762939,0,014,-0.9420992952393431,0.2614500664197346,-0.8905808926649899,-0.08474147579464957,0.09183874649176386,-0.1320580208914532,-1.4868055841674566,-0.31047357212095494,2
464,2024-09-20 21:35:43.693797119,0,014,-0.9582660529325002,0.2818438960758641,-0.9140617929497227,-0.0783251475097237,0.0840060649563975,-0.1338770608998678,-1.7962895385081363,-0.2930002758853434,2
465,2024-09-20 21:35:43.770992920,0,014,-0.9668161065403507,0.3015658644231322,-0.9186571976884473,-0.06864749049221748,0.08129622015042169,-0.13316527121067845,-2.0895507857696916,-0.2754280884021964,2
466,2024-09-20 21:35:43.833017090,0,014,-0.9686205882188269,0.3204167231341127,-0.9042359291307728,-0.05685255174057857,0.08275287104129879,-0.12964008678038497,-2.3580457966190207,-0.25742471436834896,2
467,2024-09-20 21:35:43.907218018,0,014,-0.964649175282882,0.3382085189541195,-0.8720328926341936,-0.044221116033140016,0.08710132093894664,-0.12311927893724882,-2.5945667121305576,-0.23851351190886194,2
468,2024-09-20 21:35:43.971280029,0,014,-0.9558722825885692,0.354749255974211,-0.8240940045600866,-0.03214664289458903,0.09288451577032042,-0.11354205017127794,-2.793351833274954,-0.21812839260623357,2
469,2024-09-20 21:35:44.917543945,0,014,-0.9431842889968926,0.36983443803968147,-0.7627625122465422,-0.022054505964339974,0.09861416250261186,-0.10099056609020707,-2.9500370352612806,-0.1956362180238315,2
470,2024-09-20 21:35:44.983763916,0,014,-0.9273843180487877,0.38325043059263897,-0.6903172898669651,-0.015266111132841858,0.10290937827844089,-0.08570728514599278,-3.0615277446960008,-0.17034441190127456,2
471,2024-09-20 21:35:45.046249023,0,014,-0.9092050048672952,0.3947864142301758,-0.6088211219592669,-0.012836730963343498,0.10460103594459043,-0.06810346481610634,-3.125905557533146,-0.14152643704413947,2
472,2024-09-20 21:35:45.121701904,0,014,-0.8893428478877645,0.40424700084768606,-0.5201949398663157,-0.015415562757864132,0.10280666772098569,-0.048755241380228444,-3.1424870818533357,-0.10846766584062574,2
473,2024-09-20 21:35:45.189458008,0,014,-0.8684550999879518,0.4114604204792279,-0.4263828807455339,-0.023171668616857873,0.09699980631458187,-0.028387545022775164,-3.112005223523548,-0.07052026223860502,2
474,2024-09-20 21:35:45.256908936,0,014,-0.8471254308085716,0.4162825453443456,-0.3294395208306978,-0.035782818510234994,0.08708017005157824,-0.007847042587868537,-3.036792698829147,-0.027169359301243055,2
475,2024-09-20 21:35:45.324340088,0,014,-0.8258189455207304,0.41859882879862126,-0.2315413675973093,-0.052452393358224055,0.07342733527593215,0.011936114938307478,-2.9208874652851797,0.021878598040501507,2
476,2024-09-20 21:35:46.263989990,0,014,-0.8048392065031293,0.4183246195433079,-0.13501967926106512,-0.07194208532403039,0.05691639087305673,0.029996478023911533,-2.7700182371881663,0.07658841206311284,2
477,2024-09-20 21:35:46.325608887,0,014,-0.7842982239047912,0.41540445625163613,-0.042409208700041556,-0.09263869231661348,0.038867914775880294,0.04538811900027357,-2.5914804264216604,0.13650652527045945,2
478,2024-09-20 21:35:46.403717041,0,014,-0.7641201830039669,0.4098149588682806,0.04357043361840572,-0.11266993711349509,0.020913303373056472,0.057243022965938424,-2.3940021946392886,0.20074391739959815,2
479,2024-09-20 21:35:46.466202881,0,014,-0.7440866934880727,0.4015760500162967,0.12011372270172649,-0.1300627172889844,0.004793232964228412,0.06483346874187747,-2.1876598874564275,0.26804588479256436,2
480,2024-09-20 21:35:46.539500000,0,014,-0.7239009563397467,0.39076645206832666,0.18442485498763875,-0.14291315529947868,-0.007877260463980714,0.06764150527623473,-1.9836352569775748,0.3368872638212641,2
481,2024-09-20 21:35:46.607235840,0,014,-0.7032402038153666,0.3775316055755856,0.23373536378886026,-0.14951872925605014,-0.015844404851292588,0.06542791706556053,-1.7934408242437707,0.4055111609474975,2
482,2024-09-20 21:35:46.660334961,0,014,-0.6817783744392524,0.3620759419382419,0.26527363595171943,-0.14844268077891426,-0.01839722870103711,0.0582757269850659,-1.6275847481709413,0.4719089683794222,2
483,2024-09-20 21:35:47.616499023,0,014,-0.6591757310737048,0.3446419690748371,0.27629234656042595,-0.13853568944501782,-0.015438192808870004,0.04658750938816572,-1.4942154065975368,0.5338311606234146,2
484,2024-09-20 21:35:47.678914062,0,014,-0.6350516466778126,0.3254852294102344,0.26428699568387337,-0.11897377455560898,-0.007436285064243182,0.03104044941873847,-1.3983622751669795,0.5889116058388547,2
485,2024-09-20 21:35:47.737285889,0,014,-0.6089715460648848,0.3048556362618836,0.22755550628839735,-0.08936276356960818,0.004698435160287679,0.012517479215386127,-1.341885471272971,0.6348904965397676,2
486,2024-09-20 21:35:47.814919922,0,014,-0.5804719522501762,0.2829936364987629,0.16606297280640406,-0.04990150270920119,0.019776199309891898,-0.007970698473402465,-1.3237756483017329,0.6698403474456178,2
487,2024-09-20 21:35:47.887557129,0,014,-0.5491235558690586,0.2601418374684622,0.08219452767923428,-0.0015113695304253979,0.0364873679879273,-0.02936213189243495,-1.3404500434396658,0.6923221350680179,2
488,2024-09-20 21:35:47.955343018,0,014,-0.5146120780809105,0.23656331959004548,-0.019070608996527683,0.05416691624386851,0.05351476658571616,-0.050607507676507194,-1.3859897838461248,0.7014810308028864,2
489,2024-09-20 21:35:48.015194824,0,014,-0.4768141796226144,0.21255535809944182,-0.13059663605826854,0.11490391867793517,0.06957031762448107,-0.07071545398928016,-1.4524492170800378,0.697123806205541,2
490,2024-09-20 21:35:48.942478027,0,014,-0.43584566976183176,0.18845015002704835,-0.24381999425260972,0.1780454733149736,0.08339577998861045,-0.08878703948995,-1.5303455888231074,0.6797887471800238,2
491,2024-09-20 21:35:49.010233887,0,014,-0.39205469001276333,0.16459822315411965,-0.3494956671420207,0.2406415266228463,0.0938124102227677,-0.10405479438343616,-1.6093822057573806,0.6507897063020184,2
492,2024-09-20 21:35:49.077986084,0,014,-0.3459542034236573,0.1413391450505327,-0.43838254113663955,0.29955558705279806,0.09985697901100815,-0.11593267827883862,-1.6793923934753563,0.6122094885741515,2
493,2024-09-20 21:35:49.145687012,0,014,-0.29813046403534593,0.11897331172633377,-0.5019345711868131,0.3516115914009335,0.10095656698936266,-0.12406758690345869,-1.7313299147467947,0.5668086495217729,2
494,2024-09-20 21:35:49.212564941,0,014,-0.24917206032453842,0.09774554098952502,-0.5331066250813313,0.3938072278154795,0.09706884087455062,-0.12837466461987038,-1.75800952438762,0.5178151535043727,2
495,2024-09-20 21:35:49.281171143,0,014,-0.19963587917619838,0.07784128664844144,-0.5272162000559124,0.4235633944274376,0.0887523840986642,-0.12904161514853174,-1.7544271204323303,0.46861469354524354,2
496,2024-09-20 21:35:49.348483887,0,014,-0.15004649999866865,0.05939258133489316,-0.4825686149932023,0.43894237746261405,0.07716552108507214,-0.12649783602670833,-1.7177761273754069,0.4224388740007902,2
497,2024-09-20 21:35:50.277743896,0,014,-0.10091723854686672,0.04249008704609037,-0.4006113642303258,0.43878636262150233,0.06399422389295549,-0.12135784501692239,-1.6473840230566856,0.38213507451249457,2
498,2024-09-20 21:35:50.355398926,0,014,-0.05277613754937988,0.02719532329403071,-0.2856799446984157,0.4227767711765809,0.05130872343658735,-0.11435647858161259,-1.5445988085540925,0.3500023441106056,2
499,2024-09-20 21:35:50.424830811,0,014,-0.006192469975435999,0.013549558711249394,-0.14451654286199345,0.39143874685053953,0.041353126411316825,-0.10628705457868723,-1.412474812111562,0.32763457478918384,2
500,2024-09-20 21:35:50.496587891,0,014,0.03819114785823237,0.001581692096419571,0.014394174567686874,0.34609913383926866,0.036276342190300126,-0.0979400119881746,-1.2551978165994664,0.31576324413378026,2
501,2024-09-20 21:35:50.556983887,0,014,0.0796398691892783,-0.0086842161845556,0.18169250646885926,0.2887870533748682,0.037837427828358666,-0.09003680946460468,-1.0773857920296894,0.314138603819238,2
502,2024-09-20 21:35:50.632110107,0,014,0.11736449095142887,-0.017227777840702063,0.3481082799568175,0.2220765199015656,0.0471519028390568,-0.08316513509039679,-0.8834945237173305,0.32148907660173975,2
503,2024-09-20 21:35:50.686799072,0,014,0.15063580030015086,-0.024042308882621138,0.505321529176276,0.1488965969539316,0.06453631425047375,-0.0777308977936718,-0.6775449286818732,0.3355914452162062,2
504,2024-09-20 21:35:51.640682861,0,014,0.17894145013532983,-0.029152991638562175,0.6465464649406469,0.07234904197086177,0.0894652940086171,-0.07393811416344011,-0.46324850676402746,0.3534697424850973,2
505,2024-09-20 21:35:51.711327148,0,014,0.20212183599382225,-0.03263488415635169,0.7667634358556515,-0.004437664715562038,0.12062761637431114,-0.07179401078439394,-0.24437871971113012,0.3717007342113653,2
506,2024-09-20 21:35:51.779389893,0,014,0.22043127655675676,-0.034621751885401134,0.8626774254924823,-0.0784215223340374,0.15606318058395185,-0.0711277608608861,-0.025129568415781785,0.386770660505062,2
507,2024-09-20 21:35:51.847326904,0,014,0.23450585375700556,-0.03530055870075135,0.9325483337434732,-0.14675275442687885,0.1933609602747777,-0.07161571225643389,0.18975388230541537,0.3954195524091076,2
508,2024-09-20 21:35:51.906387207,0,014,0.24525773489549918,-0.03489308552721868,0.9759425825942861,-0.20689218920097283,0.22989251105080113,-0.072816800491643,0.39523321670036793,0.39489885842354294,2
509,2024-09-20 21:35:51.982266846,0,014,0.2537302122780926,-0.03362886969659517,0.9933850353632365,-0.25674449471389343,0.26305981576330073,-0.0742249664001049,0.5866413883061601,0.3830806882448031,2
510,2024-09-20 21:35:52.048495117,0,014,0.26094173362057677,-0.0317133479387843,0.9859206547305001,-0.29478236078780057,0.2905413417214591,-0.07533454244911289,0.7604707825515997,0.3584409663457643,2
511,2024-09-20 21:35:52.982667969,0,014,0.26774304717106573,-0.02929720253516402,0.9546478651193765,-0.3201203465599406,0.3105007565898051,-0.07570065286015464,0.9148203969973359,0.32002461879374067,2
512,2024-09-20 21:35:53.061865967,0,014,0.2747071842773629,-0.02645410661849072,0.9003425964594025,-0.3325156535903508,0.3217089412493934,-0.07497768584911708,1.049263840071777,0.26747029958734053,2
513,2024-09-20 21:35:53.129563965,0,014,0.2820650462972946,-0.023170523884974113,0.823311516119036,-0.3323079560059738,0.32356446699472136,-0.07293492969715017,1.1643330642094623,0.201058869753703,2
514,2024-09-20 21:35:53.192468018,0,014,0.2896970725248631,-0.0193476785685902,0.7235452212327166,-0.32032364200102986,0.3160427358873619,-0.06945939001867962,1.2609797933062978,0.1217168044650733,2
515,2024-09-20 21:35:53.265041016,0,014,0.29719023914252624,-0.014815940822931632,0.6011312543124822,-0.2977608762061892,0.2996064854840063,-0.06454998759055804,1.340155670103497,0.030989752346426067,2
516,2024-09-20 21:35:53.323831055,0,014,0.3039560921372492,-0.00936140812489196,0.4567896696587526,-0.266061817499417,0.2750903359926496,-0.05829808678473456,1.4024432084790088,-0.06895540505470234,2
517,2024-09-20 21:35:53.386316895,0,014,0.30937635558356597,-0.002759987480464008,0.2923619136136529,-0.22678777505721903,0.2435706153845892,-0.050852538636202226,1.4478057258553056,-0.17531866067556642,2
518,2024-09-20 21:35:54.319073975,0,014,0.312925030654506,0.005189358638905496,0.11115675666293785,-0.1815374726772818,0.20624354352379928,-0.0423785869774334,1.4757320264482972,-0.2847331720960948,2
519,2024-09-20 21:35:54.378746094,0,014,0.31423313724447427,0.014638319567054393,-0.08186842713605218,-0.13194020029818507,0.16433281379577774,-0.033025328882308004,1.4858307130910895,-0.39344880816461486,2
520,2024-09-20 21:35:54.441201904,0,014,0.31309434221469057,0.02566992512976403,-0.2801266665303172,-0.07970259307644129,0.11902861009788182,-0.022911068285865935,1.4784310186950533,-0.4975713829195648,2
521,2024-09-20 21:35:54.518819092,0,014,0.30942852585437713,0.03828236413635994,-0.47564558573667653,-0.026649590034971946,0.07144474965392386,-0.012125028910779793,1.4547090949638146,-0.5932761760755676,2
522,2024-09-20 21:35:54.590194092,0,014,0.30322919363058826,0.052374747001648736,-0.6595042024558235,0.02529191429627807,0.022585876668050574,-0.0007368573255552658,1.416397248614256,-0.6769840214065553,2
523,2024-09-20 21:35:54.657979004,0,014,0.29453034270591244,0.06773757143351058,-0.8224696333681105,0.07419228426064768,-0.026660244537761463,0.011191863615115996,1.3654736840186446,-0.7455322416541436,2
524,2024-09-20 21:35:54.714970947,0,014,0.28342658506305907,0.08404768743165592,-0.9559248308354826,0.1183077025643903,-0.07547590141610863,0.02359143492614502,1.3040163710334676,-0.7963473300377056,2
525,2024-09-20 21:35:55.668863037,0,014,0.2701508309547701,0.10086442840053561,-1.053073720264477,0.15633672712577382,-0.12301093794662578,0.03635866933777879,1.2341481012960154,-0.8276011806527187,2
526,2024-09-20 21:35:55.732310059,0,014,0.25516609135354296,0.11763124563580288,-1.1101059739563945,0.18766464142461106,-0.16827795267662446,0.049327172562967925,1.1580340313471282,-0.8383397453168482,2
527,2024-09-20 21:35:55.793843994,0,014,0.23920541313706764,0.13369607338879705,-1.1268291089035456,0.2124789228786343,-0.2101109646950346,0.062246237264033846,1.0779959702705855,-0.828583753231195,2
528,2024-09-20 21:35:55.872412109,0,014,0.22322910123788267,0.14835785280087113,-1.1064910506560965,0.2316924663200604,-0.24720811650036922,0.07477768064548389,0.996779684100029,-0.7993965099237956,2
529,2024-09-20 21:35:55.933125977,0,014,0.20831709051600586,0.1609322042622034,-1.0549275434960752,0.24669923714411363,-0.2782342278626531,0.08651176019724273,0.9178948581526754,-0.7528969230798653,2
530,2024-09-20 21:35:56.007977051,0,014,0.19552687425442583,0.1708204459463589,-0.9794199439846968,0.25903310835642285,-0.30194269530936546,0.09699784292626212,0.8458563128601996,-0.6921921078297569,2
531,2024-09-20 21:35:56.075672119,0,014,0.18575462303971652,0.1775645741028816,-0.8876444425186218,0.27002130144653524,-0.3172775292504863,0.10578155821645345,0.786149030082216,-0.6212232785738458,2
532,2024-09-20 21:35:57.006985840,0,014,0.17965243097975486,0.1808758217615687,-0.7869175098226144,0.2805224643544878,-0.32344277681769185,0.11244047762283105,0.7448193072528488,-0.5445316478815683,2
533,2024-09-20 21:35:57.086967041,0,014,0.17762995676800772,0.18063591009999422,-0.683738928715184,0.29079179029217195,-0.3199628409417525,0.11661696424848063,0.7277750230070285,-0.4669476389481395,2
534,2024-09-20 21:35:57.146596924,0,014,0.17991124418278842,0.17688008675810107,-0.5835348323018897,0.30046395178269836,-0.30675257142916723,0.11805037101623289,0.7400350618983318,-0.393210749809217,2
535,2024-09-20 21:35:57.221625977,0,014,0.18659057193266768,0.16977313445022904,-0.4905108581084431,0.3086379853517541,-0.28417779214810746,0.11660454224041909,0.7850551871897327,-0.32754476488920575,2
536,2024-09-20 21:35:57.286219971,0,014,0.19765175034926621,0.1595850910134106,-0.4076222008275691,0.31406129335155264,-0.25307692592235215,0.11228175728434993,0.864037805084914,-0.2732396476050566,2
537,2024-09-20 21:35:57.348284912,0,014,0.21295580453669802,0.14666652797205498,-0.33677806593858206,0.31539533520963925,-0.21473375488792437,0.10521968256104701,0.9752167004206276,-0.23232256732902004,2
538,2024-09-20 21:35:57.410321045,0,014,0.23223326688845838,0.13142045609812758,-0.2793103494568943,0.311501749126534,-0.17080015227464168,0.09567346528055613,1.1133910498449886,-0.20540463089646563,2
539,2024-09-20 21:35:58.363718018,0,014,0.2551135708998213,0.114271609187545,-0.2364883730983846,0.30165989382561065,-0.12317566465323472,0.08398670033433732,1.2700822926213367,-0.1917572282180005,2
540,2024-09-20 21:35:58.437086182,0,014,0.28118722222443676,0.09563745525231511,-0.20978070572343493,0.2856540794153551,-0.07386156927123139,0.07055851225330034,1.4345038238865162,-0.18962200182586925,2
541,2024-09-20 21:35:58.504705811,0,014,0.3100645558431688,0.07590535705412839,-0.20072502051123223,0.26373138136472296,-0.02479574917264993,0.05581330173618747,1.5951741030534776,-0.196687039364241,2
542,2024-09-20 21:35:58.571544922,0,014,0.3414008899964302,0.05541824093206021,-0.2104908505361835,0.2364829195698146,0.022330938121148624,0.04017239545206898,1.741711248585297,-0.21059291596110327,2
543,2024-09-20 21:35:58.634910156,0,014,0.37489516283609625,0.03446632876187844,-0.23940924916403392,0.20472584257631954,0.06624903834727028,0.02402497297638458,1.8663122190129677,-0.22932009466105135,2
544,2024-09-20 21:35:58.708033203,0,014,0.41029013416242655,0.01328004210626858,-0.2867804014802252,0.1694526050026336,0.10622606753813393,0.007701303468807821,1.9645515561684128,-0.2513612752459412,2
545,2024-09-20 21:35:58.775718994,0,014,0.44737794225538385,-0.007975547142630034,-0.3510551789683471,0.1318572809516383,0.14208841281186727,-0.008545766303216311,2.035363104702755,-0.27568061210013745,2
546,2024-09-20 21:35:59.692354980,0,014,0.48598839259620735,-0.029200514242253863,-0.43019384269006006,0.09337565354050473,0.17415531169429943,-0.024548953243150345,2.0803890131657394,-0.3015602923991659,2
547,2024-09-20 21:35:59.760588867,0,014,0.5259486945543252,-0.050354059166896864,-0.5219260519396094,0.05565544895220478,0.2031215632672159,-0.040225667080737985,2.103076178945866,-0.3284518856649552,2
548,2024-09-20 21:35:59.828301025,0,014,0.5670232799762696,-0.0714445609439738,-0.6238197271183992,0.020427886640721468,0.22991516654904562,-0.0555673575565674,2.107843555124756,-0.35588690025168424,2
549,2024-09-20 21:35:59.896035889,0,014,0.6088438425492267,-0.09251284594571811,-0.7332823980805582,-0.010678651794128415,0.2555345061512044,-0.07061791825337016,2.0995047006260235,-0.38344307216331597,2
550,2024-09-20 21:35:59.963354980,0,014,0.6508400246231524,-0.11360564834544688,-0.8476317618685364,-0.03632060243577543,0.2808834720557401,-0.08544597559355377,2.082998011317299,-0.4107375769579275,2
551,2024-09-20 21:36:00.031446045,0,014,0.6921876228267498,-0.1347443836598393,-0.9642239119513074,-0.05557580657065589,0.3066432649971283,-0.10011941356901116,2.0633102618514005,-0.4374128363140351,2
552,2024-09-20 21:36:00.099243896,0,014,0.7317870139365199,-0.1558975333731604,-1.080576683462115,-0.06801611559476227,0.3332015199563863,-0.11468612472262181,2.045333358422586,-0.46309741458241016,2
553,2024-09-20 21:36:01.027745850,0,014,0.7682751889500649,-0.17695866647063246,-1.1945180393546038,-0.07370820595199418,0.36062981099243063,-0.1291596932023162,2.033384066401849,-0.4873404207361358,2
554,2024-09-20 21:36:01.110585938,0,014,0.8000791329491015,-0.19772975406327714,-1.3043611341662888,-0.0731555757200817,0.38870424573878876,-0.14350933007364938,2.030313927812068,-0.5095225213056004,2
555,2024-09-20 21:36:01.178248047,0,014,0.8255154909035269,-0.21791388105090406,-1.4089330624575707,-0.06722052720309135,0.41698025865621136,-0.1576560859578945,2.036466254446283,-0.5287674369655306,2
556,2024-09-20 21:36:01.246097168,0,014,0.8429121844020397,-0.23712051683699395,-1.5073076613919292,-0.0570513108424034,0.4449152135560536,-0.171476076613204,2.0489345172596867,-0.543899866055306,2
557,2024-09-20 21:36:01.309892822,0,014,0.8507145986170869,-0.2548804434183374,-1.5983560447592877,-0.04399877387500458,0.47198791010617674,-0.1848069618036359,2.0614515065922907,-0.5534801729473798,2
558,2024-09-20 21:36:01.372379883,0,014,0.8475673217516811,-0.2706666185833696,-1.6803785276741117,-0.02950451522346778,0.49774655870827883,-0.1974501615281977,2.064933971267944,-0.5559052051385589,2
559,2024-09-20 21:36:01.434864990,0,014,0.8323874282381677,-0.2839204563447308,-1.7509977802093768,-0.014972554836746758,0.5217650306914609,-0.20916477813005926,2.0485064255403853,-0.5495420917536779,2
560,2024-09-20 21:36:02.392854980,0,014,0.8044457980384315,-0.29408469635696594,-1.8073314364406825,-0.0016464870121391086,0.5435684123666,-0.21966135661353356,2.0008336596384892,-0.5328873373237503,2
561,2024-09-20 21:36:02.460436035,0,014,0.7634693043822502,-0.3006445879048378,-1.8463394190559557,0.009496898446370975,0.5626076697428805,-0.2286097331827121,1.9116709777190475,-0.5047804620376767,2
562,2024-09-20 21:36:02.522903809,0,014,0.7097596819844416,-0.3031758555846619,-1.8652122231770973,0.017834904076233483,0.578290838762499,-0.23566446250547526,1.7734742277062938,-0.4646627622486796,2
563,2024-09-20 21:36:02.589145996,0,014,0.6442877062437012,-0.3013895738024271,-1.861696186353691,0.023156168000338994,0.5900219835330339,-0.24049704893332438,1.582746633266848,-0.4127887968060465,2
564,2024-09-20 21:36:02.663650879,0,014,0.5687076422990136,-0.2951607087046195,-1.8342746509915824,0.02566040461018615,0.5972259821825684,-0.2428204983303061,1.3408291508996348,-0.3503026029158763,2
565,2024-09-20 21:36:02.730760986,0,014,0.48527129097334754,-0.28453417330350117,-1.7821675580196787,0.02588463639924336,0.5993639344672423,-0.24239497198348933,1.054045129887667,-0.2791706030393784,2
566,2024-09-20 21:36:02.799185059,0,014,0.3966615684049721,-0.26971110234364176,-1.7052000978804995,0.024577074639615077,0.5959274154501388,-0.2390118292791665,0.7332232845303538,-0.20200792725404498,2
567,2024-09-20 21:36:03.743633057,0,014,0.3057808169729588,-0.2510222876419429,-1.6036933319329814,0.022563285392784092,0.5864074184844907,-0.2324679799863956,0.39266970336714035,-0.12184327788288693,2
568,2024-09-20 21:36:03.811463135,0,014,0.2155338632516694,-0.22889667851298398,-1.478523786888967,0.020643664247013246,0.5702640953861076,-0.22254879834303082,0.04881949780134457,-0.04188839970608827,2
569,2024-09-20 21:36:03.879259033,0,014,0.12864181005331468,-0.20383132074090485,-1.3312796393874489,0.01952535770442043,0.5469119408821288,-0.20902714001274697,-0.28104537812819697,0.03462308131334497,2
570,2024-09-20 21:36:03.946871094,0,014,0.04750285545935778,-0.1763664340573887,-1.1642770373167306,0.019759767626501185,0.5157135375280519,-0.19167696638848974,-0.5797774419395519,0.10453515119333376,2
571,2024-09-20 21:36:04.014582031,0,014,-0.02589921818896543,-0.14706807093335653,-0.9803720678137294,0.021678140836757023,0.4760003977584514,-0.1703047588112428,-0.8311871801104799,0.16488695684095248,2
572,2024-09-20 21:36:04.082552002,0,014,-0.09004319540011259,-0.11651861160985105,-0.7827481455650841,0.02535626108359014,0.4271559428042234,-0.1448009007654379,-1.0210061932195995,0.21309947320719855,2
573,2024-09-20 21:36:04.140857910,0,014,-0.14388569622915595,-0.08531064677089073,-0.5748735560645393,0.030635309011025635,0.3687453400386791,-0.1151955296754674,-1.1381156182224967,0.24720970401007267,2
574,2024-09-20 21:36:05.053231934,0,014,-0.18685750723670305,-0.05403825143306431,-0.3606652138035171,0.0371965486159402,0.3006267601067439,-0.0816929129656186,-1.175934020157022,0.2661170201062241,2
575,2024-09-20 21:36:05.136492920,0,014,-0.21884946801096442,-0.02328316618376594,-0.1447095468533067,0.04466637577245462,0.22300418978767786,-0.04467396008967243,-1.1336939936915096,0.2698165791299882,2
576,2024-09-20 21:36:05.203375000,0,014,-0.240183555514179,0.0064023544559473865,0.06764176170981616,0.05272066201323547,0.13644732084846023,-0.004680242873017821,-1.0172509448451463,0.259562187369831,2
577,2024-09-20 21:36:05.271146973,0,014,-0.2515533280008906,0.03451078578166575,0.2703473317267294,0.06115573261803791,0.041928787873480006,0.0376018989589989,-0.8390949638275043,0.2378651619058163,2
578,2024-09-20 21:36:05.339556885,0,014,-0.25392307698764854,0.06058633031557069,0.4569033188278769,0.06989839306049153,-0.05911070617617435,0.08135269930744593,-0.617389645216173,0.20827079215562416,2
579,2024-09-20 21:36:05.407458984,0,014,-0.24839382009422922,0.08422166132082361,0.6207337803862839,0.07896103202968814,-0.1647122506949128,0.12563408320942973,-0.3741127176912498,0.17494224130390584,2
580,2024-09-20 21:36:05.475161133,0,014,-0.2360613084705304,0.10504933531549562,0.7556872887161963,0.08839531452072952,-0.272411548517148,0.1694165488325493,-0.13262329829344094,0.14214727739998678,2
581,2024-09-20 21:36:06.418394043,0,014,-0.21790028080899987,0.12273554068694424,0.8564851153101805,0.09829201802179965,-0.37932390723871345,0.2116199331737706,0.08489934251352284,0.1137628924179862,2
582,2024-09-20 21:36:06.486526855,0,014,-0.19470162270974312,0.13698070907504808,0.9190535020395744,0.10880442607165984,-0.4822796156408713,0.25116562221463573,0.2597504263123655,0.09289282583927122,2
583,2024-09-20 21:36:06.553247070,0,014,-0.16706710057467392,0.1475273125112151,0.9408376672403715,0.12012451133716037,-0.5779928943526196,0.2870349215997055,0.3784207038680222,0.08163958795018425,2
584,2024-09-20 21:36:06.621963135,0,014,-0.13545664329282803,0.15417487164704513,0.9211642725514474,0.132381125183544,-0.663271885203937,0.31833086966612406,0.4334880043897322,0.08103072167797955,2
585,2024-09-20 21:36:06.674997070,0,014,-0.10028656005377452,0.15680446670285292,0.8615384919911515,0.1455099367968663,-0.7352734050759415,0.34434376734436567,0.4235855786926015,0.0910909081412111,2
586,2024-09-20 21:36:06.753127197,0,014,-0.06206049427250891,0.15541295904139804,0.7656884509008028,0.1591755189408775,-0.7917554208787093,0.3646117378106547,0.35261301253299976,0.11103842944185704,2
587,2024-09-20 21:36:06.825159180,0,014,-0.021486396822497762,0.15014958437323206,0.6392408609374507,0.1727911963109474,-0.8312475192345785,0.3789559860817986,0.22847676686093152,0.1395508150815105,2
588,2024-09-20 21:36:07.768193848,0,014,0.020462354833275895,0.14134302374862254,0.48905463032682883,0.18562666835302458,-0.8531113524264297,0.3874775038110841,0.06162092305692905,0.1750251603512034,2
589,2024-09-20 21:36:07.834316895,0,014,0.06254727576268464,0.12951001725760883,0.32244341717386454,0.1969516728762049,-0.8575457621259921,0.3905231704465806,-0.1363772481194568,0.21577467965160313,2
590,2024-09-20 21:36:07.904293945,0,014,0.10330595417971536,0.11534271371818076,0.1465872907076025,0.20615686795228527,-0.8456014421653171,0.3886417956728096,-0.35384602063157083,0.2601335796322098,2
591,2024-09-20 21:36:07.972020996,0,014,0.14110976529947564,0.09967761133768308,-0.0317914768362935,0.21282435541566802,-0.8192051653402026,0.38254613982754343,-0.5795559795198554,0.3064728205491379,2
