,time,MARKER,pid,L_O_DSI,L_D_DSI,L_O_DSphi,L_D_DSphi,R_O_DSI,R_D_DSI,R_O_DSphi,R_D_DSphi,trial_id
0,2024-09-20 21:27:21.343358976,0,014,-0.6576731088103207,0.49313224409499273,-1.3264821940029485,0.33327463128412727,-2.114513006108421,0.7992268501636013,-2.5747141861520317,1.7463387736718785,1
1,2024-09-20 21:27:22.267379200,0,014,-0.6519142283612996,0.5198453475938299,-1.818078829947659,0.29240988675436996,-2.148876374285516,0.7819273780641924,-2.823883356132805,1.462667969893377,1
2,2024-09-20 21:27:22.331426048,0,014,-0.6492717876466728,0.5476806761660599,-2.2965070564178856,0.2519169875356904,-2.1853702370535704,0.7661606739559897,-3.0741686583493517,1.1914289660900048,1
3,2024-09-20 21:27:22.394397952,0,014,-0.6515968445422039,0.5776484782234461,-2.74404842825807,0.21093486482059248,-2.2238079775368282,0.7526742500229096,-3.321774798831773,0.941741704111675,1
4,2024-09-20 21:27:22.456413184,0,014,-0.6601444037976143,0.6105605870120275,-3.1445827439241927,0.16851917573161315,-2.2640148123721615,0.7420835234864045,-3.561740178569969,0.7205870946430025,1
5,2024-09-20 21:27:22.538479104,0,014,-0.6754962514294256,0.6469893708732223,-3.484580210577392,0.12371351573287319,-2.305777585403757,0.7348427867050062,-3.78778860432611,0.5323985012675869,1
6,2024-09-20 21:27:22.606249984,0,014,-0.6975859137811348,0.6872518240776826,-3.753755793631031,0.07561187161330919,-2.3487171306365995,0.7312186258840482,-3.992524979912728,0.3790674966948922,1
7,2024-09-20 21:27:22.674025216,0,014,-0.725758385251519,0.7313991628632274,-3.945360740108919,0.023402272103893063,-2.392167254540311,0.7312698543647619,-4.1680508282340325,0.2602576835236493,1
8,2024-09-20 21:27:23.617392128,0,014,-0.7588350235843713,0.7792072663839394,-4.0561824510474285,-0.03359289679171236,-2.4351479883648204,0.734843601324676,-4.306936503966425,0.17384901613032522,1
9,2024-09-20 21:27:23.674983936,0,014,-0.7952133517842428,0.8301821208971792,-4.086229306535831,-0.0958825287559699,-2.4764548013969043,0.7415896337557055,-4.40321073246776,0.11633689834476398,1
10,2024-09-20 21:27:23.742131200,0,014,-0.8330242323616683,0.8835948281877904,-4.0381948954282585,-0.1637824586081222,-2.514811607981045,0.7509876772704729,-4.453004180874046,0.08313239793455798,1
11,2024-09-20 21:27:23.814724096,0,014,-0.8703112788537053,0.9385450802778069,-3.9170434265281306,-0.23737773345715907,-2.549027431822443,0.7623850283417779,-4.454838450470126,0.06885571719252959,1
12,2024-09-20 21:27:23.876804096,0,014,-0.9051837684103514,0.9940399744578661,-3.729963621262764,-0.3164562595740593,-2.578123715360107,0.7750440002277877,-4.409739969937724,0.06771167542039416,1
13,2024-09-20 21:27:23.954653184,0,014,-0.9359408555174651,1.0490769876510737,-3.4865229189674958,-0.4004435741537377,-2.6014010882325795,0.7881930012613814,-4.3212081963134015,0.07390639439214436,1
14,2024-09-20 21:27:24.023936000,0,014,-0.9611907495419524,1.1027264768461713,-3.198589379614503,-0.4883774489777859,-2.6184229714325435,0.8010712970642292,-4.1949738681025,0.08201668542118494,1
15,2024-09-20 21:27:24.965073920,0,014,-0.9799668379062006,1.1542101205324837,-2.879742165586805,-0.5789211931546354,-2.628947464016459,0.8129646732231841,-4.038503505499052,0.08729099813850154,1
16,2024-09-20 21:27:25.026635008,0,014,-0.9918158309709891,1.2029665453869194,-2.5442535688077226,-0.6703986717195619,-2.632866405042868,0.8232344162762567,-3.8602049551942117,0.08588771532706596,1
17,2024-09-20 21:27:25.094127872,0,014,-0.9968221583296154,1.248689159326545,-2.2059534359885187,-0.7608603129171314,-2.6301714633633817,0.8313365110469545,-3.668374949593669,0.07502291552651343,1
18,2024-09-20 21:27:25.170833920,0,014,-0.9955557783071467,1.291326155573382,-1.8772659148040423,-0.8481947652497749,-2.6209465959479648,0.8368297292560306,-3.470141474693716,0.0530068080419675,1
19,2024-09-20 21:27:25.228710912,0,014,-0.9889866086602126,1.3310513159852053,-1.5685176459424317,-0.93027554005309,-2.6054029860359704,0.8393831419794561,-3.270781915420643,0.01920345204537358,1
20,2024-09-20 21:27:25.291196928,0,014,-0.9784252121857846,1.3682254207090345,-1.2874846629307926,-1.0051123869056025,-2.583955754727697,0.8387928253335268,-3.0736627442715005,-0.02601994639330686,1
21,2024-09-20 21:27:25.374129152,0,014,-0.965486298520039,1.4033575062133148,-1.0392092923300464,-1.070971513739269,-2.5573054638790818,0.8350055966457854,-2.8807249200808647,-0.08133413847524015,1
22,2024-09-20 21:27:26.292643072,0,014,-0.9520109259431675,1.4370589674898164,-0.826117875343242,-1.1264544279090971,-2.5264757578612365,0.8281397854205189,-2.693185577242696,-0.14454801685584895,1
23,2024-09-20 21:27:26.346021888,0,014,-0.9399043407341585,1.4699800529261113,-0.6483351340890923,-1.1705614844973156,-2.492762142328789,0.8184880412369085,-2.5121161555077762,-0.21283444466186574,1
24,2024-09-20 21:27:26.423649280,0,014,-0.9309124661962138,1.5027273554448186,-0.5041559858327161,-1.2027438361505949,-2.457585529237188,0.8064902387523659,-2.338728745132097,-0.2830279912353254,1
25,2024-09-20 21:27:26.485257984,0,014,-0.9263961059079386,1.5357753245848205,-0.39071529099585645,-1.2229199410752662,-2.4223126037876375,0.7926807198046287,-2.1743953911095213,-0.35187578463984076,1
26,2024-09-20 21:27:26.562015232,0,014,-0.9271570670032199,1.5693953717214955,-0.304647652597237,-1.2314859658814554,-2.3881137341245156,0.777626107450687,-2.0205627132325157,-0.4162027695446133,1
27,2024-09-20 21:27:26.626112000,0,014,-0.933349050584299,1.603622397784402,-0.24243187419638582,-1.2293715693702958,-2.35586296047886,0.7618665008608199,-1.8787009239425871,-0.47305102384143044,1
28,2024-09-20 21:27:26.688612096,0,014,-0.9444810659596663,1.638262318657855,-0.20046531446556903,-1.2180992858602888,-2.32604656244853,0.7458651282400705,-1.7502266055310025,-0.519861848408725,1
29,2024-09-20 21:27:27.640808192,0,014,-0.9595095990286417,1.6729300163816792,-0.1751458452475608,-1.199743647801682,-2.298686909963443,0.729970320108552,-1.6362700496344997,-0.5547056197972815,1
30,2024-09-20 21:27:27.711523072,0,014,-0.9770162236410047,1.7071047787894915,-0.16311227217014668,-1.1767445617419308,-2.2733346304154725,0.7143954902755039,-1.5373438685294902,-0.5764869156157374,1
31,2024-09-20 21:27:27.779289088,0,014,-0.9954518910764829,1.7401955581528075,-0.16160918713369493,-1.1516201105548731,-2.249153357683015,0.6992189091589809,-1.4530810870828952,-0.5850351660560282,1
32,2024-09-20 21:27:27.847012864,0,014,-1.0134031506794634,1.7716112038086622,-0.16878566557065008,-1.1266772253173918,-2.225045544301714,0.6843967655644477,-1.3821391765422735,-0.5810622465630652,1
33,2024-09-20 21:27:27.903939840,0,014,-1.0298180180950922,1.8008251129450903,-0.18367319557395673,-1.1038178790009026,-2.199744677649063,0.6697807045613987,-1.3223519040700082,-0.5660380840702588,1
34,2024-09-20 21:27:27.982641920,0,014,-1.0441221228773572,1.8274155478778393,-0.20579526912441473,-1.0844811007719957,-2.171848812825045,0.6551354704376953,-1.2711956312484207,-0.5420219846109441,1
35,2024-09-20 21:27:28.043417088,0,014,-1.0561867615571565,1.8510675688111267,-0.2346895502042427,-1.0696801942764913,-2.139816031014071,0.6401525711499942,-1.226424779725136,-0.5114558881940728,1
36,2024-09-20 21:27:28.980859136,0,014,-1.066186690809049,1.8715422124594099,-0.2696734504153104,-1.0600581124563815,-2.101961328485826,0.6244568036933874,-1.1865864698850372,-0.4769451377896095,1
37,2024-09-20 21:27:29.061557248,0,014,-1.0744342968308234,1.8886354724556245,-0.3098634686493053,-1.0559269977141734,-2.0565185625801496,0.6076174403787138,-1.1512731200922484,-0.4410699838417425,1
38,2024-09-20 21:27:29.120044032,0,014,-1.0812483658446654,1.9021507478104065,-0.3541636864846431,-1.0573052051854381,-2.001812616867803,0.5891849582967832,-1.12115180619055,-0.4062404193150608,1
39,2024-09-20 21:27:29.196680192,0,014,-1.0868589976013439,1.9118962022302324,-0.40105032854940237,-1.063948587865106,-1.9364936293914554,0.5687537410941387,-1.0978502518075004,-0.37457593451003945,1
40,2024-09-20 21:27:29.259168000,0,014,-1.0913267387607717,1.917700962296381,-0.44834867237200304,-1.0753560654701644,-1.8597255795948355,0.546024348019849,-1.0837648258132757,-0.34780499825527667,1
41,2024-09-20 21:27:29.321652736,0,014,-1.094470396019278,1.9194338032000864,-0.49332661369743647,-1.0907659949672546,-1.7712695902681377,0.5208367047286214,-1.0818173014467836,-0.32719956074945983,1
42,2024-09-20 21:27:29.399760128,0,014,-1.0958268818554626,1.9170156685453066,-0.5331349355003231,-1.109190900278996,-1.6714857852035565,0.49316587021111363,-1.0951669369680757,-0.3135485562044349,1
43,2024-09-20 21:27:30.342790912,0,014,-1.094670489215342,1.9104320385041589,-0.5652944193940797,-1.12951618727966,-1.5613132073401383,0.4630958342366716,-1.1269248681903121,-0.3071555351694251,1
44,2024-09-20 21:27:30.406639104,0,014,-1.0900868006982234,1.8997504057652936,-0.5879198569556553,-1.1506505755400005,-1.4422574305014435,0.4307943193722028,-1.179939772445574,-0.30784474078817714,1
45,2024-09-20 21:27:30.469267968,0,014,-1.0810694246552315,1.8851345147429164,-0.5996097815153869,-1.1716999361890914,-1.3163622225559646,0.396499812378923,-1.2566419284636157,-0.31497641326980785,1
46,2024-09-20 21:27:30.531336192,0,014,-1.066618013612667,1.8668434425639533,-0.5992188436233823,-1.1921212153975245,-1.186132556001804,0.36052028053183316,-1.3588201336523582,-0.3274988512409653,1
47,2024-09-20 21:27:30.613871104,0,014,-1.0458347248394093,1.8452152554539045,-0.5858344903880879,-1.2117908768861017,-1.0544139480105261,0.3232422987415693,-1.4872308692052634,-0.34407284321856996,1
48,2024-09-20 21:27:30.681637888,0,014,-1.0180165671987387,1.8206459589264277,-0.5590267434923296,-1.2309449903835843,-0.9242520956299305,0.2851493361962805,-1.641106917479133,-0.3632668369151234,1
49,2024-09-20 21:27:30.747417088,0,014,-0.9827345824856125,1.7935737369189024,-0.5191044114533414,-1.2500288473416346,-0.7987219641814031,0.24683854337933703,-1.8177783280421465,-0.3837650116574003,1
50,2024-09-20 21:27:31.685811968,0,014,-0.9398855038573036,1.7644688056206543,-0.46710190703793664,-1.269555666134414,-0.6806775659607849,0.20901295067138081,-2.0126152612067636,-0.4045164319560573,1
51,2024-09-20 21:27:31.747880960,0,014,-0.8897022403876026,1.7338207104111456,-0.4044506397401712,-1.2900493225359209,-0.5724150609080247,0.17242921812624934,-2.219331313878055,-0.4247946679451145,1
52,2024-09-20 21:27:31.825988096,0,014,-0.8327301951117713,1.7021185049173357,-0.3324753027708194,-1.3120567609254608,-0.47534421870788574,0.13780617661457598,-2.4305368203063384,-0.4441609572985904,1
53,2024-09-20 21:27:31.888011008,0,014,-0.7698028396247062,1.6698328277301289,-0.25196713942296195,-1.336149833006995,-0.389802738515252,0.10572575707597201,-2.6384953375698355,-0.4623078650591612,1
54,2024-09-20 21:27:31.950850048,0,014,-0.7020400507354447,1.637412636228959,-0.16313468347754081,-1.3628466530023093,-0.3150800758262595,0.07656282731174181,-2.836077798116404,-0.4788011900484739,1
55,2024-09-20 21:27:32.031635968,0,014,-0.6308504668044924,1.6052951168498912,-0.0661090574689646,-1.3924365502010931,-0.24963248446614864,0.05046287563701029,-3.017701450849197,-0.49283666664998277,1
56,2024-09-20 21:27:32.099317248,0,014,-0.5579066213620018,1.5739150995395037,0.03816176690518969,-1.4247567483455061,-0.1914299010955665,0.02736165470115596,-3.179889715805639,-0.5031543902528871,1
57,2024-09-20 21:27:33.010035200,0,014,-0.485092445907551,1.54370483572065,0.14712560359030463,-1.459025751605456,-0.1383610791849537,0.007028181119459668,-3.3212449140779823,-0.5081895362365584,1
58,2024-09-20 21:27:33.072040960,0,014,-0.4144338939445085,1.5150855319799366,0.25636758933600157,-1.493827517422658,-0.08862411248278379,-0.010882558246700227,-3.4418980293999963,-0.5064505623523137,1
59,2024-09-20 21:27:33.149174016,0,014,-0.34799502115242004,1.4884565572959279,0.35985208237833777,-1.5272486381751738,-0.04102808673633709,-0.026773302239935886,-3.542695954824335,-0.49701274713184135,1
60,2024-09-20 21:27:33.221818880,0,014,-0.2877147767917482,1.464185908556014,0.45037409450767135,-1.5571042885266957,0.0048677350287406156,-0.041049938375663376,-3.624442209914246,-0.4799343053022187,1
61,2024-09-20 21:27:33.288408832,0,014,-0.23520575734022853,1.4425993040559304,0.5200858634240415,-1.5811931772985148,0.04879124991663725,-0.05407375582309711,-3.687403826922622,-0.4564217867545277,1
62,2024-09-20 21:27:33.350896896,0,014,-0.19158455015141526,1.4239633599096206,0.5610969907382374,-1.5975210708530496,0.08989750113342558,-0.06612590372214719,-3.7311499691587335,-0.4286818295582596,1
63,2024-09-20 21:27:33.412977920,0,014,-0.15739462648587257,1.40846519729357,0.5660512217432607,-1.604435577277873,0.12692818204040132,-0.0773917943030116,-3.7546960323702256,-0.39952735067588324,1
64,2024-09-20 21:27:34.368633088,0,014,-0.13262458481451794,1.3961951996300717,0.5285809415988012,-1.6006783446021913,0.1583707232377128,-0.08796864195570113,-3.75685744430031,-0.3718933520319158,1
65,2024-09-20 21:27:34.436273152,0,014,-0.11677946503615554,1.387135048839634,0.44371452637592323,-1.5854135828865585,0.18264390550993537,-0.09788836991658612,-3.7366390749484992,-0.34841650099794325,1
66,2024-09-20 21:27:34.497999872,0,014,-0.10896837805456396,1.3811507809496693,0.3083871707003562,-1.5582712540405688,0.19833021573699966,-0.10714447370917081,-3.6934562710503425,-0.3311591819345301,1
67,2024-09-20 21:27:34.560008960,0,014,-0.1079996369479488,1.3779938949712893,0.12206909318036172,-1.5194006146862085,0.20442720477301327,-0.11571594300093092,-3.6271029239741437,-0.3214877536962405,1
68,2024-09-20 21:27:34.639339776,0,014,-0.11248604001590394,1.3773128422861156,-0.11270052595832002,-1.4695009115674464,0.20053512903303083,-0.1235826720537661,-3.5376023421123164,-0.32008292884825856,1
69,2024-09-20 21:27:34.707195136,0,014,-0.12096007209879862,1.3786716427235455,-0.3901897848091564,-1.4097893703806164,0.18689627971721504,-0.1307254591909288,-3.42517499652967,-0.3270282958382599,1
70,2024-09-20 21:27:34.774632192,0,014,-0.1319931762291703,1.3815698810180963,-0.7019001102223579,-1.3419006342367976,0.16428789684891296,-0.13711185614720195,-3.290451492534043,-0.3418855843485938,1
71,2024-09-20 21:27:35.717177088,0,014,-0.14429556186167986,1.3854599260550444,-1.0373866521425235,-1.267748259644275,0.1338699306497152,-0.14268456608886712,-3.134896253585389,-0.3636791221929038,1
72,2024-09-20 21:27:35.784964096,0,014,-0.15675831961184175,1.3897585528942207,-1.3852191156755203,-1.1893782253380767,0.09707839599112095,-0.14736951941003537,-2.9612980121912895,-0.39079923221348967,1
73,2024-09-20 21:27:35.837635072,0,014,-0.16843090079123638,1.3938539523641071,-1.733920958044972,-1.1088392996041323,0.05555415042493646,-0.15109989478072977,-2.774093984222889,-0.4209514369285683,1
74,2024-09-20 21:27:35.920408832,0,014,-0.17848155341238622,1.39711762789769,-2.0727647348582687,-1.0281028694611702,0.011049741372912834,-0.15383612583341058,-2.5792806463944236,-0.45132041148931423,1
75,2024-09-20 21:27:35.988160000,0,014,-0.1861867569550697,1.3989331610992621,-2.3922341225184263,-0.9490617602273146,-0.03469812817124356,-0.1555679807460751,-2.383912162723425,-0.4789873791266439,1
76,2024-09-20 21:27:36.055212800,0,014,-0.1909424972149412,1.3987432549959304,-2.6840057442807694,-0.8736103270967089,-0.0801039195245194,-0.15629901452985556,-2.1955240331409347,-0.5014295633384984,1
77,2024-09-20 21:27:36.117131776,0,014,-0.19227049587248435,1.3961041758088235,-2.9405518688636856,-0.8037656071467161,-0.12386185262755932,-0.15602069037683206,-2.0217926329109135,-0.516874895093588,1
78,2024-09-20 21:27:37.042437888,0,014,-0.18982663870910899,1.3907353098877275,-3.1546874037242265,-0.7417635603784511,-0.1650680549950795,-0.15468629902663833,-1.8704131271780324,-0.5244218655007163,1
79,2024-09-20 21:27:37.098871808,0,014,-0.18344443361275575,1.3825571954484468,-3.3194111808359033,-0.6900672978689063,-0.2033177487645556,-0.15219667125812278,-1.7489438905651413,-0.5239671679873317,1
80,2024-09-20 21:27:37.176513024,0,014,-0.17321992045376258,1.3717136974662936,-3.428233234212491,-0.6512463050321421,-0.23873301855817874,-0.14840378889525385,-1.6643530634480892,-0.516011354790019,1
81,2024-09-20 21:27:37.239011072,0,014,-0.1595965297441004,1.3585749476152096,-3.4758924997375162,-0.6277357269479895,-0.2718959139184883,-0.14312649319610105,-1.622244518904398,-0.5014022324138391,1
82,2024-09-20 21:27:37.300629760,0,014,-0.14339810832984498,1.3437218903299541,-3.459156999196428,-0.6215394625530891,-0.3037131104884204,-0.13616989435850818,-1.6260905075851284,-0.4810803902375376,1
83,2024-09-20 21:27:37.378784000,0,014,-0.1257923127464195,1.3279147556619204,-3.377400423312748,-0.6339569741048204,-0.335258050086718,-0.12734827909114174,-1.676851360653066,-0.4558971584128224,1
84,2024-09-20 21:27:37.441271040,0,014,-0.108207769065828,1.3120471677314036,-3.2327694904124282,-0.6654009381221182,-0.36761838090435406,-0.11651461938008742,-1.7730983197596837,-0.4265390327983801,1
85,2024-09-20 21:27:38.392292864,0,014,-0.09224599847566094,1.2970920153246295,-3.029911771922174,-0.7153503243974375,-0.4017566134190399,-0.10359399273339774,-1.9115118138123803,-0.3935216354933481,1
86,2024-09-20 21:27:38.453251072,0,014,-0.07960676335033037,1.2840478191532125,-2.775375544089447,-0.7824431877736209,-0.4383842853108081,-0.08861182267511801,-2.0874969549212947,-0.3572068600398666,1
87,2024-09-20 21:27:38.515736064,0,014,-0.07200558068427285,1.2738872859443648,-2.4768856905011822,-0.8646590942823676,-0.4778500004738023,-0.07170806402648104,-2.295639879526487,-0.31785749973071137,1
88,2024-09-20 21:27:38.595493888,0,014,-0.07105770066982435,1.267502542686425,-2.1427254798868507,-0.959507792152403,-0.520045607850889,-0.053136195451895844,-2.529859213464361,-0.27575545655700207,1
89,2024-09-20 21:27:38.661504768,0,014,-0.078142072625857,1.2656456617679206,-1.7813628164625834,-1.0641619375477027,-0.5643530656724456,-0.03325137437746402,-2.7832264956774044,-0.23136113071820597,1
90,2024-09-20 21:27:38.728613888,0,014,-0.094283383803653,1.268872647598945,-1.4013267235426834,-1.175533554768159,-0.609670062897423,-0.012490815691421233,-3.0475236184549663,-0.18545284749132557,1
91,2024-09-20 21:27:38.785649920,0,014,-0.12006601260680239,1.2775020633049976,-1.0112548674671573,-1.2903481701969455,-0.6545212492001266,0.00865014555374025,-3.312912861961912,-0.13915042073026918,1
92,2024-09-20 21:27:39.741686016,0,014,-0.1555739009025926,1.2915972713131334,-0.6199529730151601,-1.4052723436807317,-0.6972136612593726,0.029642839163563903,-3.568360257240856,-0.0937377243328925,1
93,2024-09-20 21:27:39.804356096,0,014,-0.2003649991999684,1.3109761065954986,-0.2363193933287098,-1.5170951825175876,-0.735998968402641,0.049954802858708416,-3.8030985158727537,-0.050324221437711036,1
94,2024-09-20 21:27:39.866380800,0,014,-0.25348895801429855,1.3352406322796415,0.13085381132039076,-1.622910350538883,-0.7692388017398467,0.06908977605200047,-4.008618589554331,-0.009519143052307076,1
95,2024-09-20 21:27:39.945068032,0,014,-0.3135426306125696,1.363813498151913,0.4731066590492564,-1.720240727745002,-0.7955695455684331,0.08662973957226718,-4.180200137254068,0.028709118659064208,1
96,2024-09-20 21:27:40.006083072,0,014,-0.3787651935843309,1.395975371620566,0.7825297090172488,-1.807077046970919,-0.8140461127892737,0.10226049972417495,-4.31726738159593,0.06492972341893727,1
97,2024-09-20 21:27:40.069114112,0,014,-0.4471726437085102,1.4309051889472708,1.051997385902755,-1.881838664531699,-0.8242470141520469,0.11577449867157337,-4.4226454671870865,0.09997089029489421,1
98,2024-09-20 21:27:40.146855168,0,014,-0.5167017201256866,1.4677219549368739,1.275463843831038,-1.9432937374145052,-0.8263239974667197,0.12706263925097114,-4.501294706269373,0.13458998580871753,1
99,2024-09-20 21:27:41.091879936,0,014,-0.5853193386625182,1.5055242768090682,1.4483699904026022,-1.9904789754192087,-0.8209750623082132,0.13610785530598718,-4.558905572709107,0.16917168416166717,1
100,2024-09-20 21:27:41.152745216,0,014,-0.65108158695954,1.543426816037357,1.5680919674448695,-2.0226429785295843,-0.8093411150257319,0.1429812956005458,-4.600419885091176,0.20348224624911468,1
101,2024-09-20 21:27:41.227375872,0,014,-0.7121693232995587,1.5805947190369503,1.6342160609669687,-2.0392229661884116,-0.7928596900334515,0.1478360330559486,-4.628646540203653,0.23652209194262244,1
102,2024-09-20 21:27:41.291250944,0,014,-0.766942661064244,1.616276582498072,1.648503687831255,-2.0398609960640393,-0.7731207288079842,0.15089790563663585,-4.643425198772607,0.2665346052260439,1
103,2024-09-20 21:27:41.362871808,0,014,-0.8140327350623384,1.6498365571236773,1.6146505218765894,-2.0244758090610677,-0.7517547830879103,0.15245717423124128,-4.641789625204275,0.29119767475423225,1
104,2024-09-20 21:27:41.430624000,0,014,-0.8524495545975699,1.6807836607675728,1.5380090265105002,-1.9934042393491809,-0.7303527196257089,0.15286079039635317,-4.619174214463672,0.3079737835186007,1
105,2024-09-20 21:27:41.492146944,0,014,-0.8816625532968554,1.7087902004057562,1.425276246343969,-1.9475777286312634,-0.7103940879692358,0.15249871807168242,-4.571174934230983,0.3145408434407718,1
106,2024-09-20 21:27:42.437114880,0,014,-0.9016257830346671,1.7336901224820391,1.2840517536746008,-1.88864877845341,-0.6931708732597792,0.1517775514094869,-4.4951423577414,0.30919362410464774,1
107,2024-09-20 21:27:42.499600128,0,014,-0.9127534828524854,1.7554565639226867,1.1222865186845656,-1.8189958043311771,-0.6797188330111265,0.15108205360345228,-4.391096429116726,0.2911262973998811,1
108,2024-09-20 21:27:42.567121152,0,014,-0.9158708199635859,1.7741688678475074,0.947717662993715,-1.7415835071317418,-0.6707781350558297,0.15073339479478734,-4.2618353382661525,0.26056273376519273,1
109,2024-09-20 21:27:42.644747008,0,014,-0.9121650183870724,1.789984694019563,0.7673051863345932,-1.6596936040779642,-0.6667914540533845,0.15095651758141898,-4.11237744587392,0.21874855553327827,1
110,2024-09-20 21:27:42.706801152,0,014,-0.9031468951041878,1.803127410594608,0.5867343568872341,-1.576584141265187,-0.6679240080930213,0.15186653215412985,-3.949001433028764,0.167826478783719,1
111,2024-09-20 21:27:42.781276928,0,014,-0.8906087130721178,1.8138848351350152,0.4102125710905894,-1.4951702036850396,-0.6740705682781871,0.1534737666523219,-3.778155752486904,0.1105942438592118,1
112,2024-09-20 21:27:42.845936128,0,014,-0.8765595808260812,1.822605189109298,0.2407037141482212,-1.417806360706587,-0.6848267441591078,0.15569734002749638,-3.605410400395668,0.050143748943564666,1
113,2024-09-20 21:27:43.756256000,0,014,-0.8631375011018151,1.829678612066419,0.08045165148784315,-1.346211585190381,-0.6994446094734665,0.15837733626942538,-3.434559377196697,-0.010568661784057404,1
114,2024-09-20 21:27:43.834579712,0,014,-0.8525040093894669,1.8355036646584446,-0.0684806256961187,-1.2815282153374756,-0.7168143798673525,0.16128288395600837,-3.2670497726493015,-0.06910409713839209,1
115,2024-09-20 21:27:43.896620032,0,014,-0.8467161401671355,1.8404490293634548,-0.2038449825592234,-1.2244485605205808,-0.735500963290688,0.16412315294819924,-3.1019509168538764,-0.12375597281829606,1
116,2024-09-20 21:27:43.970897920,0,014,-0.8475653696615432,1.8448215941949886,-0.32308293539292465,-1.175334401517734,-0.7538427693600288,0.16657209803214063,-2.9364733461737624,-0.17357611155516192,1
117,2024-09-20 21:27:44.038685184,0,014,-0.856385263412454,1.8488413613940282,-0.4234167004350073,-1.1343187535821704,-0.7700971192414814,0.16830855511578366,-2.7667629548936397,-0.21830915822956373,1
118,2024-09-20 21:27:44.098657024,0,014,-0.8738520554600232,1.8526163135350242,-0.5021228092411619,-1.1014158368344096,-0.7826124132323051,0.16906297318461896,-2.588687624965041,-0.25834239554720967,1
119,2024-09-20 21:27:44.160662784,0,014,-0.8998199028184523,1.8561178490778887,-0.556995435766589,-1.0766262624067682,-0.7900348539367971,0.16866338881111406,-2.398599646123499,-0.29466141837540644,1
120,2024-09-20 21:27:45.102967040,0,014,-0.9332330126946664,1.8591676731272209,-0.5869139758436661,-1.0600001575223157,-0.7915586673320611,0.16707908798107515,-2.194225779799857,-0.3286977289576899,1
121,2024-09-20 21:27:45.185475072,0,014,-0.972143534485462,1.861445648790707,-0.5922597131008188,-1.0516538948714012,-0.7871580429566442,0.16445509689675403,-1.9756747745206436,-0.3619986268412009,1
122,2024-09-20 21:27:45.241422848,0,014,-1.0138449275694945,1.8625185688112673,-0.5749943282154383,-1.0517535717485498,-0.7776741273597396,0.16111531836686185,-1.7462363381127257,-0.39581329290546974,1
123,2024-09-20 21:27:45.319035904,0,014,-1.0551127488632304,1.8618831413433299,-0.5384880569553757,-1.0604470658377583,-0.7646710365367287,0.15751170710224688,-1.512535907994212,-0.43079624851033665,1
124,2024-09-20 21:27:45.388617984,0,014,-1.0925264746172532,1.8590151045065058,-0.4872290453591581,-1.0777291896920875,-0.7500909910369328,0.1541250559666452,-1.2838843844953371,-0.4669488235857609,1
125,2024-09-20 21:27:45.456302080,0,014,-1.122817989031231,1.8534165848494062,-0.42633540066674763,-1.1032981373992505,-0.7358351817087079,0.15135587947154758,-1.0710749395192776,-0.5037413475218872,1
126,2024-09-20 21:27:45.524012288,0,014,-1.143180387220756,1.8446576723122734,-0.3608372495243462,-1.136485598741002,-0.7234230006078728,0.14944926480782805,-0.8850119607789049,-0.5402830137278902,1
127,2024-09-20 21:27:46.467749888,0,014,-1.1515013425318406,1.832416141695884,-0.2950030514248353,-1.176261807006612,-0.7138196259297297,0.14847274907160696,-0.7353946238942634,-0.5754603978610252,1
128,2024-09-20 21:27:46.529414912,0,014,-1.146514393508684,1.8165191423776026,-0.23203457023652524,-1.221255738587306,-0.7074113078579625,0.14833583540275502,-0.6295007382699215,-0.6080435654166455,1
129,2024-09-20 21:27:46.594162944,0,014,-1.1278571031287234,1.7969783093032903,-0.17423118032065638,-1.2697562914225922,-0.7040538295510631,0.1488278810525644,-0.5711002860097305,-0.6368076969576333,1
130,2024-09-20 21:27:46.657968896,0,014,-1.0960381291611883,1.7740034107047984,-0.12351344931147662,-1.3197101767684825,-0.7031571137148528,0.14966042933339188,-0.5596939660613126,-0.660701142172435,1
131,2024-09-20 21:27:46.738724864,0,014,-1.052354253933477,1.7479903547534508,-0.08197654614419259,-1.3687676969078622,-0.703818502710783,0.15051154971517433,-0.5904058427567612,-0.6790075747315009,1
132,2024-09-20 21:27:46.801991936,0,014,-0.9987908519641702,1.719491730388154,-0.0520449307266304,-1.41443051360334,-0.7050053064767765,0.1510672356715708,-0.6547118704287362,-0.6914099657702713,1
133,2024-09-20 21:27:46.874158080,0,014,-0.9378871340132731,1.6891770865746263,-0.03609402403785065,-1.4543025534026628,-0.7057325859971478,0.15104736213467637,-0.7418536719666483,-0.6979288840464051,1
134,2024-09-20 21:27:47.806274048,0,014,-0.8725321917468287,1.657782106632528,-0.03581030766057465,-1.4863735424864524,-0.7051702912154436,0.1502091170213673,-0.8405305032147722,-0.6987925585204858,1
135,2024-09-20 21:27:47.881264896,0,014,-0.805695633013542,1.626046018371138,-0.051649179942110726,-1.509235347641293,-0.7026765840992233,0.1483358688798115,-0.9404090739663464,-0.6943168932711259,1
136,2024-09-20 21:27:47.943749888,0,014,-0.7401461551572012,1.594648127661515,-0.08264662262813377,-1.5221520113780336,-0.6978109331427514,0.14522585649999098,-1.0331466105058227,-0.6848387090570242,1
137,2024-09-20 21:27:48.020956160,0,014,-0.6782354119844957,1.5641617117893638,-0.12675439536851626,-1.5249582990171158,-0.6903632938686067,0.14068875718722587,-1.1128667131677301,-0.6707062923697467,1
138,2024-09-20 21:27:48.088772864,0,014,-0.6217894709739326,1.5350346471527156,-0.1816587998007046,-1.51783977723055,-0.6803834577814779,0.13454984331367534,-1.176174209298905,-0.6523183539851896,1
139,2024-09-20 21:27:48.156488960,0,014,-0.572085597370751,1.507591325092812,-0.2456776815958632,-1.5011204722536846,-0.6681780229877352,0.12665795213675268,-1.2218380316568502,-0.6301960759227615,1
140,2024-09-20 21:27:48.224198912,0,014,-0.529876887883416,1.4820444649246187,-0.31817043733746614,-1.4751888491277712,-0.6542747334491801,0.11689642282840375,-1.250327426674861,-0.6050517839798768,1
141,2024-09-20 21:27:49.142920960,0,014,-0.4954577515477865,1.4585094095427902,-0.3992460951221576,-1.4405904230793982,-0.6393873192970646,0.10520312742092965,-1.263392895050694,-0.5778128756265803,1
142,2024-09-20 21:27:49.210722048,0,014,-0.4687746239406451,1.4370210814107607,-0.48908935601505693,-1.3981867493384308,-0.6244002156876296,0.09160588346924138,-1.2637225644453252,-0.5495937077323063,1
143,2024-09-20 21:27:49.278483968,0,014,-0.44956570617486075,1.4175584911842471,-0.5873235237637898,-1.3492679900842957,-0.6103484454563283,0.07626702028749319,-1.2545744330885638,-0.5216309000367999,1
144,2024-09-20 21:27:49.332395008,0,014,-0.43748505111290903,1.4000771601048527,-0.6925129644046714,-1.295597557366291,-0.5983472814666487,0.05951668918166879,-1.2394147397658744,-0.49517265317108544,1
145,2024-09-20 21:27:49.408454912,0,014,-0.43216369097265056,1.3845396391803084,-0.8017381622017433,-1.2394099740262905,-0.5894514536251586,0.04185190196244798,-1.2217265944450273,-0.47130626504530504,1
146,2024-09-20 21:27:49.470024192,0,014,-0.4332115107299265,1.3709341323630058,-0.9103599886541726,-1.1833382924298397,-0.5844807006234948,0.023891715523865754,-1.2050046729736963,-0.45076891020665727,1
147,2024-09-20 21:27:49.549483264,0,014,-0.44021493377142523,1.3592829778561213,-1.012285924509595,-1.1302238582863193,-0.5838885384800934,0.0063043511483937996,-1.1927703808371355,-0.4338353510260291,1
148,2024-09-20 21:27:50.481337088,0,014,-0.45276360069602534,1.3496491437635583,-1.1009107233097422,-1.0828119676918095,-0.5877284202225918,-0.010259800470134934,-1.188470747083614,-0.42033572658061347,1
149,2024-09-20 21:27:50.543994880,0,014,-0.47048612843163384,1.3421436609152821,-1.170494983021127,-1.043396644241529,-0.595716947323859,-0.025205720813591733,-1.195199884548247,-0.40978267627808984,1
150,2024-09-20 21:27:50.626311936,0,014,-0.493065864940956,1.3369294067151012,-1.2174029011158645,-1.0134932151938452,-0.60735899345483,-0.03800802803937729,-1.215238913769426,-0.401561070905042,1
151,2024-09-20 21:27:50.684278016,0,014,-0.520228088184056,1.3342133454991296,-1.2406272474612776,-0.9936088105102786,-0.6220882418591395,-0.04822239178620549,-1.2496182850339024,-0.3951274606918924,1
152,2024-09-20 21:27:50.746295040,0,014,-0.5517012145758736,1.3342232124520008,-1.2414527574840095,-0.9831706417991621,-0.6393903000611642,-0.05549965345710826,-1.298103347422891,-0.39014077138960146,1
153,2024-09-20 21:27:50.823949824,0,014,-0.5871619471034153,1.3371756147547107,-1.2226074458282996,-0.9806500343152371,-0.6588973678101548,-0.05959158269793976,-1.3597844033294433,-0.3864669753582725,1
154,2024-09-20 21:27:50.886434048,0,014,-0.626188970244124,1.3432498832248525,-1.1873857509822694,-0.983867034138463,-0.6804338843203728,-0.060343668031756725,-1.433983078175339,-0.38409844657403386,1
155,2024-09-20 21:27:51.831127040,0,014,-0.6682498105901425,1.3525747207576535,-1.139044794988423,-0.9903874992454944,-0.703982900189353,-0.05768491479208682,-1.5209926912637755,-0.38309439519844585,1
156,2024-09-20 21:27:51.896320000,0,014,-0.7127189840307216,1.3652201718349752,-1.080522250987979,-0.9979035095222251,-0.7295801067847829,-0.0516258528762445,-1.6222834204274226,-0.38360339691410933,1
157,2024-09-20 21:27:51.970938880,0,014,-0.7589103363426043,1.3811842955831808,-1.0143115001702288,-1.0045444696404398,-0.7571870528857225,-0.04226670899696632,-1.7400155778523572,-0.385939109300632,1
158,2024-09-20 21:27:52.032985856,0,014,-0.8061193932735302,1.4003757758418187,-0.9423168598605826,-1.0091062095389134,-0.7865996363961056,-0.029806140307078503,-1.875982250827033,-0.3906479290620123,1
159,2024-09-20 21:27:52.111095040,0,014,-0.8536757283602233,1.4226039717230519,-0.8656668225075718,-1.0111667658332395,-0.8174163096977531,-0.014536402685978242,-2.0303573908386894,-0.3985319571768608,1
160,2024-09-20 21:27:52.179766016,0,014,-0.9009919593093967,1.447583830802984,-0.7845211180386066,-1.0110688434887107,-0.8490452315040338,0.0031769595796966054,-2.2007232568008277,-0.4105899899428966,1
161,2024-09-20 21:27:52.235670272,0,014,-0.9475898408058226,1.4749516097780262,-0.6978846444332443,-1.009812541851617,-0.880706683577444,0.022916675860018356,-2.381712308920623,-0.4278226298903902,1
162,2024-09-20 21:27:53.190984960,0,014,-0.9930930766492314,1.5042830076832097,-0.6035220849764552,-1.008917353933281,-0.9114183130339777,0.044224602299081886,-2.565254948116509,-0.45091354711193565,1
163,2024-09-20 21:27:53.258790912,0,014,-1.0371952355957892,1.535111728015572,-0.49817412285186297,-1.0102472328536125,-0.9400109529865809,0.06660853495350094,-2.741157610989997,-0.4799137023002261,1
164,2024-09-20 21:27:53.326607872,0,014,-1.0796246075746279,1.5669530084240748,-0.37819391082868337,-1.015753097779121,-0.9652281552474429,0.08956227604653541,-2.897789204153649,-0.5140744423822081,1
165,2024-09-20 21:27:53.394331136,0,014,-1.1201198122404965,1.5993313922770522,-0.24045634635850682,-1.0271471169034048,-0.9858906290324433,0.11260185552836949,-3.0229066419293824,-0.5518759930752458,1
166,2024-09-20 21:27:53.457035264,0,014,-1.1584055770847619,1.6317998563028777,-0.08322730807929539,-1.0456014766759307,-1.0010557919541498,0.13529804038918058,-3.1048117439117062,-0.5911940974309997,1
167,2024-09-20 21:27:53.519520000,0,014,-1.1941520726993884,1.6639376740266816,0.09321160662387216,-1.0715567360516924,-1.010133375460702,0.15728555053049106,-3.133924411269315,-0.6295262159799545,1
168,2024-09-20 21:27:53.597608192,0,014,-1.226930960153911,1.6953301884355398,0.28620294809023905,-1.1046573075898811,-1.0129616569260655,0.1782502150337981,-3.104562894104435,-0.6642290008713104,1
169,2024-09-20 21:27:54.530932736,0,014,-1.2562000140423335,1.7255454244110404,0.490613912507887,-1.1437922412559336,-1.0098427627099984,0.197908035835906,-3.016513797426982,-0.6927270428304453,1
170,2024-09-20 21:27:54.608936960,0,014,-1.2813292267475198,1.7541212713331171,0.6990643808932069,-1.1872196162486455,-1.0015118075980394,0.21598728498634628,-2.8759479890700956,-0.7126538025874605,1
171,2024-09-20 21:27:54.665445120,0,014,-1.3016680148391577,1.780570802520989,0.9025292629801719,-1.2327519816891195,-0.9890297261224789,0.23221856377501215,-2.6953158509756623,-0.7219286022689284,1
172,2024-09-20 21:27:54.744472832,0,014,-1.316654088796282,1.8044064344849435,1.0912356207454814,-1.277973894956835,-0.9736418632318924,0.24633528044829886,-2.492114530995264,-0.7188134575190036,1
173,2024-09-20 21:27:54.803697920,0,014,-1.3259456702049317,1.8251771830653736,1.2556624276169128,-1.3204644515471113,-0.9566722675364693,0.25808813033853045,-2.28682368732296,-0.7019890203121901,1
174,2024-09-20 21:27:54.865763840,0,014,-1.3295312649075937,1.8425098624963685,1.387430162932813,-1.3580092080786634,-0.9394799025179505,0.2672734808838921,-2.1004920158547193,-0.6706832181928675,1
175,2024-09-20 21:27:54.943386112,0,014,-1.3277713583244422,1.856144774717723,1.4799287791319524,-1.3887962849039357,-0.9234246493704475,0.2737615584021788,-1.9523240003386144,-0.6248679278350431,1
176,2024-09-20 21:27:55.858331904,0,014,-1.3213610513510046,1.865958810009375,1.5286246583402872,-1.4115728599898067,-0.9097762445656491,0.2775047645821933,-1.8575097743474969,-0.5654622784888169,1
177,2024-09-20 21:27:55.934422016,0,014,-1.3112417692157043,1.8719726460804051,1.531053010760402,-1.4257013623131076,-0.899580094906087,0.27852561410503657,-1.8256297780526187,-0.4944143455809075,1
178,2024-09-20 21:27:55.996604928,0,014,-1.298496103084737,1.8743417706374446,1.4865828388926279,-1.431076461889379,-0.8935658020399062,0.276904508524855,-1.8599804571924254,-0.4145728112402371,1
179,2024-09-20 21:27:56.059081984,0,014,-1.284244986151573,1.8733352709926092,1.3961635700967197,-1.4279567156629591,-0.8921492903801275,0.27278194826606894,-1.9578749909510016,-0.3293773305814309,1
180,2024-09-20 21:27:56.137135104,0,014,-1.2695619103173974,1.8693098878448842,1.262211470578238,-1.4168130501048208,-0.8954924785461913,0.2663684942803554,-2.111607248208331,-0.24247512681244957,1
181,2024-09-20 21:27:56.199220992,0,014,-1.2554082612098074,1.862682739446904,1.088542312651702,-1.398244300718586,-0.9035571540514468,0.257944600355018,-2.3096969616127585,-0.15736106240901737,1
182,2024-09-20 21:27:56.274032896,0,014,-1.2425756912373003,1.8538997891849545,0.8801808157543849,-1.3729526899117135,-0.9161267349738679,0.2478391639953069,-2.538200585618582,-0.07709923706973056,1
183,2024-09-20 21:27:57.219176960,0,014,-1.231629846012281,1.8433995432960308,0.6430576142774943,-1.3417672771118467,-0.9328033686392648,0.236390669857988,-2.7819971143266824,-0.004166944040474449,1
184,2024-09-20 21:27:57.286910208,0,014,-1.2228641199938408,1.8315779524205913,0.3836968344604005,-1.3056962588839076,-0.9530022487988733,0.22390540436808995,-3.0260042527475313,0.0595618896977585,1
185,2024-09-20 21:27:57.345978112,0,014,-1.2162624680592664,1.8187624134138665,0.10892818085272038,-1.2659664214008566,-0.9759672791953657,0.21062944053484683,-3.256282325923761,0.11271950355010929,1
186,2024-09-20 21:27:57.422347264,0,014,-1.2114708224442512,1.8052014317861753,-0.1743144134702765,-1.2240267251676582,-1.0008042504928685,0.19674313077706887,-3.4608987195242147,0.1542835160696576,1
187,2024-09-20 21:27:57.485666048,0,014,-1.2077971473401559,1.7910713718500562,-0.45895406777735065,-1.1815378281252533,-1.0265023378048272,0.18236997254415063,-3.6303643650813693,0.183408924977213,1
188,2024-09-20 21:27:57.547683072,0,014,-1.204267314125883,1.7764934994216717,-0.7375115169298831,-1.1403563167750175,-1.05194593937064,0.1675849726685884,-3.7575902731453814,0.1993147757004234,1
189,2024-09-20 21:27:57.625082112,0,014,-1.199755346382401,1.7615541560368788,-1.0019567295452196,-1.1024623896472099,-1.0759540847017537,0.15241961939622145,-3.837595889410742,0.20128064145927407,1
190,2024-09-20 21:27:58.565413120,0,014,-1.1931828052052362,1.7463280121542673,-1.2439236712588169,-1.069789475461738,-1.097352513303032,0.1368692720598551,-3.867327419842743,0.1887783844705078,1
191,2024-09-20 21:27:58.630640896,0,014,-1.183741307842641,1.7309042519258404,-1.4551386685297438,-1.0440111533548282,-1.1150439273087585,0.12090532437680455,-3.845664625805833,0.1616917298958385,1
192,2024-09-20 21:27:58.692733184,0,014,-1.1710707711221973,1.7154096914725303,-1.6278153040176138,-1.026388838633834,-1.128067730714307,0.10449193748385296,-3.7733262087757753,0.12050212846713138,1
193,2024-09-20 21:27:58.772429056,0,014,-1.155345966569271,1.700023381652358,-1.7550250825056584,-1.0177225619847574,-1.1356782278373705,0.08760702896892102,-3.6524765140614437,0.0663423380778,1
194,2024-09-20 21:27:58.840176896,0,014,-1.1372639428401121,1.6849822356493853,-1.831190543142335,-1.0183746690682094,-1.1374547777178343,0.07026585172681597,-3.4862204154564513,0.0008956261358728406,1
195,2024-09-20 21:27:58.907931904,0,014,-1.1179621843677865,1.670580039556023,-1.8527544788290398,-1.028319025235011,-1.1334163668123252,0.052543759752670116,-3.2782973004994864,-0.07383112752587256,1
196,2024-09-20 21:27:58.971601152,0,014,-1.0989060766105334,1.6571607811833104,-1.8189217382003235,-1.0471780562940274,-1.1240875702300543,0.03459159409837001,-3.0331170599421493,-0.15576753201899118,1
197,2024-09-20 21:27:59.886974976,0,014,-1.081753557597031,1.64510042864239,-1.7322390179458658,-1.0742285184322469,-1.1104616096153779,0.016635005745727103,-2.7560394082342676,-0.24294675473199007,1
198,2024-09-20 21:27:59.948977152,0,014,-1.0681812766761727,1.634767158345455,-1.5987818681724555,-1.1083875340582607,-1.0938437172861146,-0.0010469678617203116,-2.453580744057855,-0.33353966483970754,1
199,2024-09-20 21:28:00.026607872,0,014,-1.059681672046637,1.6264602772020713,-1.4278509187963748,-1.1482172825608061,-1.075624493948811,-0.01815743965973475,-2.133235878690973,-0.4258170979627003,1
200,2024-09-20 21:28:00.089093888,0,014,-1.0573809272017163,1.6203461676699262,-1.2311781234323533,-1.1919843240006311,-1.0570636874894956,-0.03441349380218963,-1.8029052438401982,-0.5181079890929423,1
201,2024-09-20 21:28:00.151089920,0,014,-1.0619293387399742,1.616416152140212,-1.0217355589629422,-1.237766520432385,-1.0391331676274633,-0.049558641674641794,-1.4702004781788143,-0.6087982524018504,1
202,2024-09-20 21:28:00.228729856,0,014,-1.0734782243579508,1.6144806435807562,-0.8123881398592048,-1.2835595390719476,-1.0224321711940016,-0.0633536911298491,-1.1418871829875228,-0.6964044869567839,1
203,2024-09-20 21:28:00.300599040,0,014,-1.0917164703213411,1.6141971222037301,-0.6146808411708558,-1.3273543316263776,-1.0071814789458284,-0.0755545517539032,-0.8235679636753267,-0.7797010771539515,1
204,2024-09-20 21:28:01.236079872,0,014,-1.115922060962366,1.6151172941886378,-0.437967778947365,-1.3672041377668864,-0.9932970498075699,-0.08589218180839013,-0.5196739901854036,-0.8577999221729056,1
205,2024-09-20 21:28:01.310597888,0,014,-1.1450098290003576,1.6167379863619913,-0.2889497337574483,-1.4013095768281103,-0.980531365102497,-0.09407091992821161,-0.23383655152682478,-0.9300928070797564,1
206,2024-09-20 21:28:01.375387904,0,014,-1.1776056550036986,1.618549544597403,-0.17151541006525353,-1.4281331865151767,-0.9686588716904382,-0.0997881014715684,0.03050269066601205,-0.9960753775397654,1
207,2024-09-20 21:28:01.437440000,0,014,-1.2121805544108961,1.6200821630238278,-0.08679628884316772,-1.4465271368658306,-0.9576560544199844,-0.10276156190292673,0.2696350323847416,-1.0551538272165826,1
208,2024-09-20 21:28:01.500081152,0,014,-1.2472250449763407,1.6209470122623546,-0.03355326007712997,-1.4558162540784998,-0.9478103254424239,-0.10275365027612561,0.4795414756450003,-1.106521609020961,1
209,2024-09-20 21:28:01.581597184,0,014,-1.2814067444237225,1.6208634764690506,-0.008963752292371108,-1.4557725256291751,-0.9397252986488682,-0.09959398273861943,0.6561698266162357,-1.1491333203393446,1
210,2024-09-20 21:28:01.649293056,0,014,-1.3136720051835806,1.6196668537156544,-0.009519341548249429,-1.4464849273778113,-0.9342452629881715,-0.09320485235236106,0.7958416297421068,-1.1817649675691,1
211,2024-09-20 21:28:02.580686080,0,014,-1.3432840583328163,1.6172987552192728,-0.03161248763730047,-1.4282100229433285,-0.932342648905578,-0.08362198868279029,0.8956844813683437,-1.2031423395896486,1
212,2024-09-20 21:28:02.658317056,0,014,-1.3697949415242565,1.6137845534088253,-0.07168286972913758,-1.4013016735461779,-0.9349912239768601,-0.0709998739783667,0.9539641009039443,-1.2121053730016562,1
213,2024-09-20 21:28:02.721102080,0,014,-1.3929543846719505,1.6092004486643736,-0.12613250644113172,-1.3662467211704319,-0.9430216085944475,-0.05560275428692335,0.9701612343987109,-1.2077584424139374,1
214,2024-09-20 21:28:02.782722048,0,014,-1.4125940118343314,1.603634426973037,-0.19126320358741222,-1.3237524206064968,-0.9569715631219083,-0.03779207107489459,0.9447819519703711,-1.189569785303949,1
215,2024-09-20 21:28:02.859939840,0,014,-1.4285473927484915,1.5971482692323116,-0.2632819880561304,-1.2748291447554259,-0.9769920917022826,-0.018013400817429987,0.8791044982251641,-1.157418083952129,1
216,2024-09-20 21:28:02.922427904,0,014,-1.4406368420347033,1.5897484517556197,-0.338286055692661,-1.2208584292257862,-1.0028678180516999,0.0032262050364543866,0.775095735440792,-1.1116135314750153,1
217,2024-09-20 21:28:02.991427072,0,014,-1.4487108078393582,1.581374909996575,-0.4122391382486752,-1.1636452816053982,-1.0341354649113834,0.025398506773966413,0.6355006196592239,-1.0529284227964553,1
218,2024-09-20 21:28:03.930838016,0,014,-1.4526949023996725,1.5719151092712769,-0.4810471405895238,-1.1054265879357035,-1.0702301605708866,0.04800814003132311,0.46392182565486867,-0.9826402999066489,1
219,2024-09-20 21:28:04.007983872,0,014,-1.4526197525756945,1.561238500592292,-0.5407714375040273,-1.048794064412699,-1.1105979785835756,0.07064268787888092,0.264802440097194,-0.9025510891330206,1
220,2024-09-20 21:28:04.077997056,0,014,-1.4485986950690477,1.5492315951504299,-0.587918872344457,-0.996511201333392,-1.1547341660129584,0.09299304895721969,0.043326248690283085,-0.8149529737118928,1
221,2024-09-20 21:28:04.131217152,0,014,-1.4407585084603507,1.5358156412024428,-0.6197219399401375,-0.9512468551858955,-1.202123983574505,0.11482825411965145,-0.19482714300154033,-0.7225446820860217,1
222,2024-09-20 21:28:04.209324032,0,014,-1.4291646116825296,1.520945511107887,-0.6343497178204318,-0.9152881957434489,-1.2521033900356746,0.13593364333213243,-0.44389786742207304,-0.628309558862528,1
223,2024-09-20 21:28:04.271809024,0,014,-1.4137819576090975,1.50460017363363,-0.6309969292228009,-0.8903177653742306,-1.303699541095778,0.1560393992995451,-0.698456387208458,-0.535357906123799,1
224,2024-09-20 21:28:04.334294272,0,014,-1.3944664602417147,1.4867725232166247,-0.6098191232032953,-0.8773131343611043,-1.3555043113700105,0.17476560328706803,-0.9535757801608088,-0.44674414388488043,1
225,2024-09-20 21:28:05.282867968,0,014,-1.3709569267178023,1.4674581477363997,-0.5718188256017722,-0.8765449115185071,-1.4056003216556534,0.19159845594689495,-1.2046805442441941,-0.3652913669509874,1
226,2024-09-20 21:28:05.344903936,0,014,-1.3428728058709292,1.4466417976941701,-0.5188709323200159,-0.8875994744482273,-1.4515702529807064,0.20590263609729118,-1.4471806329349546,-0.2934631895767064,1
227,2024-09-20 21:28:05.422592000,0,014,-1.3097567183022278,1.4242872964056197,-0.4539108867675623,-0.9093985383482288,-1.4906474866960155,0.21697096018101303,-1.6761253533106664,-0.23329722620274418,1
228,2024-09-20 21:28:05.484653056,0,014,-1.2711797493348964,1.4003413722662799,-0.3810919423167163,-0.9402466712849815,-1.5200255990500766,0.22410866461297926,-1.8860623389903195,-0.1863797867483581,1
229,2024-09-20 21:28:05.560029952,0,014,-1.226885108751004,1.3747573455581337,-0.30572090668251867,-0.9779270571660046,-1.537257249514049,0.22673661989862273,-2.0710784438675245,-0.15383575932445648,1
230,2024-09-20 21:28:05.627591936,0,014,-1.1769296126321995,1.3475324146408525,-0.23395977569370474,-1.0198259741999245,-1.5406114021116069,0.22447946159612703,-2.224948016731585,-0.13631457343751568,1
231,2024-09-20 21:28:05.688218112,0,014,-1.1217945078310698,1.3187436013555238,-0.1724180924428485,-1.0630641151126967,-1.5292565521259138,0.21720347456433578,-2.3415030906844128,-0.13395513826020333,1
232,2024-09-20 21:28:06.618999040,0,014,-1.0624500280690836,1.2885702978112434,-0.1277668608849039,-1.104632792682083,-1.5032172019920103,0.20499749320626204,-2.415324891823266,-0.1463389064981299,1
233,2024-09-20 21:28:06.685904128,0,014,-1.0003586416560983,1.2572989216661012,-0.10639710650265753,-1.1415412186924059,-1.463168937889198,0.18812266814051348,-2.442565065774936,-0.17246636839103086,1
234,2024-09-20 21:28:06.754582016,0,014,-0.937403122217586,1.2253100715404677,-0.11402842491308451,-1.1709831928267165,-1.4101924705583377,0.16696043975072647,-2.421621029331117,-0.21076976499101402,1
235,2024-09-20 21:28:06.809590016,0,014,-0.8757331409187856,1.1930509926216042,-0.15520474197223896,-1.190522327512476,-1.3455783535762265,0.14197044907181033,-2.353552411343749,-0.25915219569159803,1
236,2024-09-20 21:28:06.887892992,0,014,-0.8175401625808614,1.1609966293991154,-0.23273348369732252,-1.198272397391452,-1.270722193647577,0.11366163425777792,-2.2421570935196558,-0.315079407719722,1
237,2024-09-20 21:28:06.950379776,0,014,-0.7648062515126295,1.1296040948291277,-0.34713148368253205,-1.1930498381117918,-1.1871020099100142,0.08258082669452828,-2.093558907734094,-0.3757832754153448,1
238,2024-09-20 21:28:07.012376064,0,014,-0.7190951303470152,1.0992683836005284,-0.49611741214353094,-1.174493287602711,-1.096295471040582,0.04931730158835636,-1.9153092621986525,-0.4385761591748178,1
239,2024-09-20 21:28:07.962157056,0,014,-0.681413672179041,1.0702858484323574,-0.6743221384110869,-1.143136564589086,-1.0000067101372183,0.014514638372593558,-1.7153062870562306,-0.501174330830728,1
240,2024-09-20 21:28:08.035218944,0,014,-0.652118210766801,1.042828783743169,-0.8734842764786647,-1.1004066815326496,-0.900111199991007,-0.021118455877053344,-1.5009536737272937,-0.5619033068826738,1
241,2024-09-20 21:28:08.100833024,0,014,-0.6308575979522515,1.0169360204740547,-1.0832023979668208,-1.0485290248856747,-0.7987226008658984,-0.056808417425319696,-1.2788219809862094,-0.6197184741320753,1
242,2024-09-20 21:28:08.163273216,0,014,-0.6165983738059747,0.9925259168845708,-1.2920284806371045,-0.9903381060547104,-0.6982376955859295,-0.09174012453828961,-1.0547565423398935,-0.6740692794551408,1
243,2024-09-20 21:28:08.238424064,0,014,-0.6077701437794686,0.9694325593761756,-1.4885867784495401,-0.9290091138313835,-0.6012977664720909,-0.12510285195584658,-0.8341017153942051,-0.7247094642850044,1
244,2024-09-20 21:28:08.303646976,0,014,-0.6025012503626612,0.9474568149000161,-1.6624712983122252,-0.8677491297345955,-0.5106453106154847,-0.1561410249275473,-0.6217313823535395,-0.7715437639245694,1
245,2024-09-20 21:28:08.365647872,0,014,-0.5988700173983373,0.9264177130978587,-1.8048222629239141,-0.8095074413088711,-0.42891491728743514,-0.18418991234669593,-0.4218149402256248,-0.8145339463775223,1
246,2024-09-20 21:28:09.311500032,0,014,-0.5951132326241896,0.9061890029884588,-1.9086126938174168,-0.7567715761802569,-0.3584203709390711,-0.2086905294532318,-0.23740140124343753,-0.8536583813560528,1
247,2024-09-20 21:28:09.373499904,0,014,-0.5897709500493069,0.8867120412844942,-1.968755773422675,-0.7114791624465412,-0.30097169437777094,-0.22919475691301058,-0.07004035848474502,-0.8889059116022091,1
248,2024-09-20 21:28:09.450639872,0,014,-0.5817732056739965,0.8679886134854119,-1.9822161310865514,-0.6750055378712934,-0.2577295443719474,-0.2453764867414934,0.08018051261877657,-0.920241121540695,1
249,2024-09-20 21:28:09.513125888,0,014,-0.5704925932018361,0.8500669197572222,-1.9482367420351474,-0.6481728068444194,-0.22910435704567667,-0.2570548487315294,0.21401889541251504,-0.9474939457671471,1
250,2024-09-20 21:28:09.575210240,0,014,-0.5557801687844944,0.8330289858349968,-1.8685420876764967,-0.6312752835992398,-0.21469720477252505,-0.26422499974473496,0.33220081402591584,-0.9702269712392074,1
251,2024-09-20 21:28:09.652587008,0,014,-0.5379641429255838,0.8169734725973411,-1.7473030711888222,-0.6241275767484554,-0.21327498861830504,-0.26708885422058454,0.43466077261426195,-0.9876636232145234,1
252,2024-09-20 21:28:09.714586880,0,014,-0.517778600269657,0.8019876279889397,-1.590833943427472,-0.6261129127117108,-0.22280531101840273,-0.26607878729661566,0.520002555012019,-0.9986852588384594,1
253,2024-09-20 21:28:10.635554816,0,014,-0.4962362836752499,0.788119260437223,-1.4070805964565833,-0.6362240154230394,-0.24059024342554491,-0.26186589586226156,0.5852873534153513,-1.0018849647416173,1
254,2024-09-20 21:28:10.710984960,0,014,-0.47450130353285186,0.7753661079409319,-1.2049376278664883,-0.6531204449552759,-0.2634966046504885,-0.25533806786800906,0.626356993680797,-0.9957160809652081,1
255,2024-09-20 21:28:10.774076928,0,014,-0.4538020477121575,0.7636850627211337,-0.9935569240394636,-0.675206002985616,-0.288243366853624,-0.24753211965662858,0.6386116554150723,-0.978745543040282,1
256,2024-09-20 21:28:10.835657984,0,014,-0.43538326435083885,0.7530095026032483,-0.7819410166060298,-0.7007001177038044,-0.31171227316488986,-0.23952016829914408,0.6178191422760545,-0.94992564499111,1
257,2024-09-20 21:28:10.914120960,0,014,-0.4204674922670464,0.7432631982590506,-0.5789535617172691,-0.7276918225092032,-0.33125620390242194,-0.2322744798206835,0.5606982827323022,-0.9087955458418834,1
258,2024-09-20 21:28:10.976527872,0,014,-0.4101966341368319,0.7343676769683088,-0.3934902398752069,-0.7541996404647758,-0.3449648589753514,-0.2265476566989985,0.46537020371171967,-0.8556203443662815,1
259,2024-09-20 21:28:11.049585152,0,014,-0.40555996598050453,0.7262487568838608,-0.23430346203975277,-0.7782801579307062,-0.35183106875845666,-0.2227980790425245,0.33172200020512377,-0.7915027330657117,1
260,2024-09-20 21:28:11.981556992,0,014,-0.40734383172133143,0.7188504064081845,-0.10921892723671728,-0.7982011691377071,-0.35177098874031,-0.22117248914019763,0.16156479162583814,-0.718439260677842,1
261,2024-09-20 21:28:12.059667968,0,014,-0.41611695571208795,0.7121561323237737,-0.02407863344515495,-0.8126234523540198,-0.3455005318581558,-0.22153725945407693,-0.041386173908417284,-0.6392782115257798,1
262,2024-09-20 21:28:12.121736192,0,014,-0.4322228925691126,0.7062067633690777,0.01794258862617511,-0.8206990353795064,-0.33433289099546104,-0.22353414273631553,-0.2715741180301158,-0.5575767616908679,1
263,2024-09-20 21:28:12.183582976,0,014,-0.45574624223476173,0.7011022849961684,0.016297256462053787,-0.8220494101727741,-0.3199775047200398,-0.226639347850488,-0.5217365309475787,-0.47736695419106495,1
264,2024-09-20 21:28:12.260773888,0,014,-0.4864557447917891,0.6969864266925105,-0.02750248548639798,-0.8166750867053264,-0.304378993641538,-0.2302225363622842,-0.7832742970046078,-0.40283838756014134,1
265,2024-09-20 21:28:12.323261952,0,014,-0.5237558144486619,0.6940222519674273,-0.11053040951976184,-0.8048732541439017,-0.28958484461880996,-0.2336100530077227,-1.0469705110785572,-0.33796683322535503,1
266,2024-09-20 21:28:12.386713088,0,014,-0.5666705728572251,0.6923665845994736,-0.2289010902853304,-0.7871878787897851,-0.2776112602756763,-0.23615131115418134,-1.3040403092458694,-0.28613108937233905,1
267,2024-09-20 21:28:13.328064000,0,014,-0.6138663494708299,0.692147001310233,-0.37806736115957235,-0.7643619431835412,-0.27030396805082296,-0.23728090624679637,-1.5472810679037072,-0.24975237050328833,1
268,2024-09-20 21:28:13.406633984,0,014,-0.6637132068126977,0.6934433992801288,-0.5530719041069675,-0.737268141539432,-0.26923507459414947,-0.23656269061785715,-1.7719182905849056,-0.23000746187355367,1
269,2024-09-20 21:28:13.468625920,0,014,-0.7143859968740086,0.6962779654691031,-0.7487712578292147,-0.7068293107894457,-0.27567083468251086,-0.23370147577035097,-1.97580785054286,-0.2267050056018172,1
270,2024-09-20 21:28:13.546733824,0,014,-0.7640033084204406,0.7006209627598741,-0.9599836540253817,-0.673951052100831,-0.2905912859971346,-0.2285217586573151,-2.158972673781025,-0.2383820388446664,1
271,2024-09-20 21:28:13.614173952,0,014,-0.8107947312342174,0.7064157071951256,-1.1814756239043889,-0.6394864482340035,-0.31471198605919115,-0.2209297184260824,-2.322804594208228,-0.26257019806735477,1
272,2024-09-20 21:28:13.679590144,0,014,-0.8532700738180855,0.7136117201656669,-1.4077636084033263,-0.6042408895962117,-0.34848243480777186,-0.21087733517428142,-2.469379850971628,-0.29612110775914774,1
273,2024-09-20 21:28:13.742077184,0,014,-0.8903579235605059,0.7221886789784377,-1.6329317605468041,-0.5689932248928196,-0.39207795735591344,-0.19833716681759136,-2.601113913428519,-0.33550668097933806,1
274,2024-09-20 21:28:14.680290048,0,014,-0.9215020449448714,0.7321654532916365,-1.8507869891526054,-0.5344903379427772,-0.4454083905784482,-0.18328812328898725,-2.720608918072934,-0.377062482464887,1
275,2024-09-20 21:28:14.758490880,0,014,-0.9467177092331333,0.7435986747159642,-2.055480687208383,-0.5013929520758942,-0.5081358991963166,-0.16571224003244073,-2.830410176180701,-0.41719503953224196,1
276,2024-09-20 21:28:14.820504832,0,014,-0.9665859325279226,0.7565716840656379,-2.2423721257837497,-0.470202580705342,-0.5796651191596661,-0.1456033011529399,-2.932618350926504,-0.45259037441354294,1
277,2024-09-20 21:28:14.882512896,0,014,-0.9821520211438166,0.771172172899036,-2.408668667822744,-0.4412376610003241,-0.6590704608835891,-0.12298805517087605,-3.028515137820871,-0.48042326682111347,1
278,2024-09-20 21:28:14.960621056,0,014,-0.9947419238056104,0.7874641108231657,-2.5535259971269313,-0.4146842541203047,-0.7449740713113686,-0.09795842533860749,-3.1182886531038894,-0.49854340764108684,1
279,2024-09-20 21:28:15.022628864,0,014,-1.005763146903701,0.8054651091011242,-2.6777423679312227,-0.39066334679195763,-0.8354552470492562,-0.0707035688001738,-3.2008499740672303,-0.5056259551474505,1
280,2024-09-20 21:28:15.085114880,0,014,-1.0165484878773587,0.8251349247008092,-2.783401290517383,-0.3692477846170091,-0.9280755644931725,-0.041524304936408976,-3.2737555254947526,-0.5012662384330725,1
281,2024-09-20 21:28:16.042682880,0,014,-1.0282480446731423,0.8463698549172958,-2.8735883018588524,-0.3504237597098092,-1.0200287829634038,-0.010822896657839438,-3.333271523992481,-0.48597969041124883,1
282,2024-09-20 21:28:16.111261952,0,014,-1.0417415477656813,0.8689924038819608,-2.9520514181563295,-0.33403892430360904,-1.1083627210838913,0.020922390756273643,-3.3746538425377977,-0.4610881687326181,1
283,2024-09-20 21:28:16.179011840,0,014,-1.0575540436998672,0.8927311249251517,-3.02272730990128,-0.3197802848392796,-1.1902238018653986,0.05318161983961909,-3.3926871914865755,-0.428528802926912,1
284,2024-09-20 21:28:16.246717952,0,014,-1.0757873759442929,0.9171980223262762,-3.089190644621706,-0.307205155434638,-1.2630954688305227,0.08538480745353773,-3.382288206160816,-0.3906639263219664,1
285,2024-09-20 21:28:16.314448896,0,014,-1.0960954664232834,0.9418797489435118,-3.15405398985911,-0.29583629957683844,-1.3250020173449923,0.11692345089977428,-3.3388491883324347,-0.35015228821166144,1
286,2024-09-20 21:28:16.367072000,0,014,-1.1177214251275986,0.9661557573573403,-3.218310587331486,-0.2853136802842695,-1.374645850160108,0.14715585575586668,-3.258298942055864,-0.3098662837119494,1
287,2024-09-20 21:28:16.444664064,0,014,-1.1395925033634409,0.9893438779944316,-3.280717779812403,-0.27555373685205603,-1.411453612140358,0.17542556850444563,-3.1372129237804587,-0.27278709300640497,1
288,2024-09-20 21:28:17.368008960,0,014,-1.1604599505409328,1.0107613114181586,-3.337443521772069,-0.2668412243810638,-1.4355363805480201,0.20109402917375643,-2.973281824755042,-0.24182893233679018,1
289,2024-09-20 21:28:17.435760896,0,014,-1.179071377730534,1.0297848133024887,-3.382205461102431,-0.2598029348544881,-1.4476147787317937,0.22359007748678036,-2.766145462947652,-0.21958961295264046,1
290,2024-09-20 21:28:17.503575808,0,014,-1.1943498459908357,1.045899159380489,-3.406981513695417,-0.255271060715198,-1.448962330791673,0.24247501828445506,-2.5182753172186083,-0.20806434352621017,1
291,2024-09-20 21:28:17.571279104,0,014,-1.205534958774227,1.0587315160419497,-3.4031290669617,-0.2540956734221746,-1.4413590816664343,0.25750545206148256,-2.2354417412649052,-0.20840561505637695,1
292,2024-09-20 21:28:17.630615040,0,014,-1.2122426818766712,1.068071167252294,-3.36258453361163,-0.25697388396929854,-1.4270045928227646,0.26866871031449124,-1.9264671211945044,-0.22082771507706134,1
293,2024-09-20 21:28:17.705870080,0,014,-1.2144248151741197,1.0738677598740431,-3.2788751489439614,-0.2643246086054091,-1.4083619857780538,0.2761761072330097,-1.602306312266054,-0.24468915985659875,1
294,2024-09-20 21:28:17.769942016,0,014,-1.2122499548320094,1.0762019824731972,-3.1478830918362424,-0.2762014872157367,-1.3879464658337626,0.28041610829027835,-1.2747376421569914,-0.27868650094958697,1
295,2024-09-20 21:28:18.718096896,0,014,-1.2059707451696828,1.0752394821020281,-2.9683814843808722,-0.29225232576958116,-1.3681004330883568,0.2818875457885221,-0.9550348343820797,-0.3210479544562823,1
296,2024-09-20 21:28:18.771579136,0,014,-1.1958398664793968,1.0711914423456323,-2.742275746263011,-0.3117638517104806,-1.3508026719788593,0.28114110401083575,-0.6529792221443127,-0.3696425500724434,1
297,2024-09-20 21:28:18.848781056,0,014,-1.1820777151536068,1.0642940861007932,-2.4744569876044564,-0.3338033872402797,-1.3375345016570632,0.2787433860259483,-0.37641833618015924,-0.42198975763959534,1
298,2024-09-20 21:28:18.911268096,0,014,-1.1648501609757318,1.0547993122744195,-2.1722641485959,-0.35740643142945944,-1.32920470710332,0.2752564226663583,-0.13129849719932127,-0.4752312556260289,1
299,2024-09-20 21:28:18.989065984,0,014,-1.1442345191324375,1.0429639808684983,-1.8447046835625982,-0.38172764403140136,-1.3261337339382206,0.27121853210185554,0.07810379771622342,-0.5261600644580541,1
300,2024-09-20 21:28:19.049873152,0,014,-1.1201966223492061,1.0290366563384201,-1.5017371849401318,-0.40609273683644437,-1.3280841153349694,0.26711900894064683,0.2489961681115767,-0.5713751031610595,1
301,2024-09-20 21:28:19.112360960,0,014,-1.092612493158471,1.0132495853714194,-1.1538643040922518,-0.42995572596762716,-1.3343080245509755,0.26336840255555355,0.37996579233849104,-0.6075690262347647,1
302,2024-09-20 21:28:20.054196992,0,014,-1.0613354027422743,0.9958196341794917,-0.8119838284643816,-0.4528297708978134,-1.3436089825353124,0.2602754242309732,0.47080356311561655,-0.6318836556917189,1
303,2024-09-20 21:28:20.132429056,0,014,-1.0262821145909655,0.9769558851062141,-0.48722850893837044,-0.4742512038271997,-1.3544551261735605,0.2580446631388711,0.5221037364497843,-0.6422234529892245,1
304,2024-09-20 21:28:20.201076992,0,014,-0.987520953888881,0.956872728227721,-0.19057844332881949,-0.4937877629075596,-1.3651644126205715,0.25679696679398223,0.5346527611498573,-0.6374487789312413,1
305,2024-09-20 21:28:20.271632896,0,014,-0.9453490960175137,0.9358059397448647,0.0677946975189766,-0.5110834099942785,-1.3741212880006128,0.25659617366002385,0.508803613609905,-0.6174357960827387,1
306,2024-09-20 21:28:20.334364928,0,014,-0.9003327821351815,0.9140236754014295,0.27928912352564633,-0.5259214426304343,-1.3799566892045152,0.25746229759569517,0.4441021128812175,-0.5830255739507316,1
307,2024-09-20 21:28:20.396214016,0,014,-0.8532958138050049,0.8918261203308913,0.4373968876015736,-0.5382582233182244,-1.381645667640955,0.2593637039321666,0.3393817964686546,-0.5358954336201451,1
308,2024-09-20 21:28:20.473826816,0,014,-0.8052675470184573,0.869532916372629,0.5377448604485724,-0.5481777399625309,-1.3785111494481979,0.262195031948291,0.19341290134597638,-0.47839634297673267,1
309,2024-09-20 21:28:21.382656000,0,014,-0.757394061603827,0.8474572050461135,0.5778254968471965,-0.5557708680768575,-1.3701547156166463,0.2657558709802953,0.005952580766695588,-0.41340286776833235,1
310,2024-09-20 21:28:21.460787200,0,014,-0.7108075956943575,0.8258679941047383,0.5568212856954877,-0.5610076499783098,-1.356371106065863,0.26974690818132185,-0.22120112520058022,-0.34419090416561055,1
311,2024-09-20 21:28:21.523271936,0,014,-0.6664846294112253,0.8049535192229694,0.47564569282508257,-0.5636744344253254,-1.3371104808448997,0.2737932901742104,-0.4835654339046897,-0.2743129957050426,1
312,2024-09-20 21:28:21.598129152,0,014,-0.6251546257202805,0.7848030986345269,0.3369489664670459,-0.563381634907517,-1.312492830180933,0.27748916981443733,-0.7739620059444784,-0.2074366884652144,1
313,2024-09-20 21:28:21.665873920,0,014,-0.5872935293342989,0.765414651876418,0.14489817095684324,-0.5596090365608661,-1.2828125805541433,0.28044315046402857,-1.083168294842401,-0.14713613345308268,1
314,2024-09-20 21:28:21.733618944,0,014,-0.5531755635728591,0.7467191000739439,-0.09506381234431571,-0.5518041528121596,-1.248489580359681,0.2823051476079338,-1.4010358241990064,-0.0966423903429853,1
315,2024-09-20 21:28:21.795259904,0,014,-0.5229277315506634,0.7286062954209714,-0.3761134390449568,-0.5395787535848551,-1.2099869411920048,0.28277025128799804,-1.7175981822966329,-0.05859099100745418,1
316,2024-09-20 21:28:22.736629760,0,014,-0.4965538467535791,0.7109447836301686,-0.689564333759947,-0.5229653775878883,-1.1677478364444696,0.2815724344123245,-2.023709301006416,-0.0348401179228932,1
317,2024-09-20 21:28:22.799117312,0,014,-0.4739284873623522,0.6935997632274599,-1.024427521557109,-0.5026001276983665,-1.1221937478556039,0.27848848505866314,-2.3111807424049813,-0.026399494447464773,1
318,2024-09-20 21:28:22.879375104,0,014,-0.45476942477025534,0.6764563983070145,-1.367499048679167,-0.4797265061962502,-1.0737763192472372,0.27336059767046134,-2.5727069101813376,-0.033441666756205767,1
319,2024-09-20 21:28:22.947070976,0,014,-0.43859784547487435,0.6594472891909535,-1.7041140481208052,-0.45603282973412573,-1.0230234773743279,0.26612376383578895,-2.8018412569402162,-0.055334555430398696,1
320,2024-09-20 21:28:22.999844096,0,014,-0.42471615849673516,0.6425763373991328,-2.0193363977465255,-0.4334095136393097,-0.970546275695561,0.25681909912347967,-2.993173141646552,-0.0906474220719957,1
321,2024-09-20 21:28:23.082569984,0,014,-0.412245501827443,0.6259352570126531,-2.299234256075723,-0.41369977828075727,-0.9170451333136699,0.2455904662047788,-3.1427002656553285,-0.137141407829766,1
322,2024-09-20 21:28:23.147964160,0,014,-0.40022908440335697,0.6097149379729524,-2.5319590677161425,-0.398479841614894,-0.8633569960385422,0.23267296132263157,-3.2481893940752142,-0.19181017770604825,1
323,2024-09-20 21:28:24.090563072,0,014,-0.387753740271653,0.5942128431917565,-2.708468928572146,-0.3888891677842588,-0.810505994238373,0.21837567956267306,-3.309348168893055,-0.251010226789862,1
324,2024-09-20 21:28:24.157696000,0,014,-0.3740348314215421,0.5798322342786423,-2.8228749275612826,-0.3855282737515706,-0.759677553500969,0.2030541281831479,-3.3279006088369107,-0.31066213315757785,1
325,2024-09-20 21:28:24.214073856,0,014,-0.3584572109561195,0.5670653924420265,-2.872525491699356,-0.3884196273424311,-0.7121042920401454,0.1870759618906611,-3.3076738494265534,-0.36652173499235197,1
326,2024-09-20 21:28:24.291686912,0,014,-0.34061531749668844,0.5564567988448405,-2.8580501937885385,-0.39699053386026906,-0.668946634630401,0.17079782601818386,-3.2544676297664337,-0.41457673174995424,1
327,2024-09-20 21:28:24.364798208,0,014,-0.32039026554688194,0.5485519990698186,-2.7835187573889204,-0.41005040462765174,-0.6312469732396458,0.1545677438263961,-3.1754526117501745,-0.4515657153720482,1
328,2024-09-20 21:28:24.432566784,0,014,-0.29803844709692034,0.5438416675212959,-2.6565648328102767,-0.42581161095914344,-0.5999357712969685,0.13874317654945617,-3.0783257852809847,-0.4754534090086764,1
329,2024-09-20 21:28:24.492567040,0,014,-0.2742114755174522,0.5427013745010263,-2.4881006866170425,-0.44204081014670216,-0.5757886362678221,0.12369453357391194,-2.970689375172536,-0.4856523316370958,1
330,2024-09-20 21:28:25.439874048,0,014,-0.24984287240782488,0.5453162777252688,-2.2914096619274837,-0.456367044589723,-0.5592703303180954,0.10977364691066599,-2.85982391459897,-0.4829316216724277,1
331,2024-09-20 21:28:25.496344064,0,014,-0.22591409000204296,0.5515848925411015,-2.0807493228414744,-0.46667676169537786,-0.5503145380990985,0.09725835672490363,-2.752759026837624,-0.4691093583980758,1
332,2024-09-20 21:28:25.573565952,0,014,-0.20318427608849857,0.5610179788699712,-1.869819166980931,-0.4714641742141538,-0.5481498358868023,0.08630219512796243,-2.656497730897663,-0.4466512075161521,1
333,2024-09-20 21:28:25.645155072,0,014,-0.18197098159273994,0.5726625325881373,-1.6704750794009047,-0.47001911876476865,-0.5512475133985567,0.07690878674349157,-2.578186118707855,-0.4182447314325042,1
334,2024-09-20 21:28:25.702818048,0,014,-0.1620132890330691,0.5850705901232832,-1.4919150698079373,-0.46243412083608093,-0.557402277804116,0.06893383797730616,-2.5249927768649316,-0.3863931364741068,1
335,2024-09-20 21:28:25.779954176,0,014,-0.14240462722512323,0.5963121514980537,-1.340321546020253,-0.449512769813196,-0.563922978876422,0.06210965838644439,-2.5035578931495923,-0.3531085094670351,1
336,2024-09-20 21:28:25.841821952,0,014,-0.12158517113079599,0.6040200215755891,-1.2188579463555285,-0.43265264224402056,-0.5679052314649818,0.05608634446289938,-2.518986944609023,-0.3197998677865023,1
337,2024-09-20 21:28:26.791122688,0,014,-0.09740380505172554,0.6054558379218467,-1.1280258345372185,-0.4136820591583013,-0.566551107664686,0.05048336032255443,-2.5735016262424613,-0.2873892525863665,1
338,2024-09-20 21:28:26.859675904,0,014,-0.06725933400206933,0.5975960337772223,-1.066456089053299,-0.3945875439691352,-0.5574816482067707,0.04494278892277038,-2.665087097418049,-0.2565952999399352,1
339,2024-09-20 21:28:26.925764096,0,014,-0.028305977970681212,0.5772435742323617,-1.032016164492837,-0.3771453372165483,-0.5389788089765242,0.03917436283647533,-2.7866900292069667,-0.22824931092534434,1
340,2024-09-20 21:28:26.987904000,0,014,0.022315594357233317,0.5411679640097523,-1.0227567080540314,-0.36257738156065333,-0.5101195354231213,0.032985026903681894,-2.9264643345152703,-0.2034971504388793,1
341,2024-09-20 21:28:27.049907968,0,014,0.08725719937539696,0.48627022242181,-1.0371298248369831,-0.35136315568525445,-0.4708072945400654,0.026289337266705227,-3.0690986788679937,-0.18381943496150202,1
342,2024-09-20 21:28:27.130702848,0,014,0.16876675151989276,0.40977123318449543,-1.073409245995631,-0.34323835939567443,-0.4217267440314167,0.019102539669104347,-3.197700292889781,-0.17091786842659762,1
343,2024-09-20 21:28:27.198477056,0,014,0.2685216705857035,0.30942334520600395,-1.1289092438636996,-0.3373111780397826,-0.36424600693775167,0.01152778284520302,-3.295503793126845,-0.1665769370756034,1
344,2024-09-20 21:28:28.117562112,0,014,0.38749517167457,0.18373817004604767,-1.1996442197533776,-0.3322284236318324,-0.3002832236023599,0.0037487543573646903,-3.3469871191473057,-0.17257025240970747,1
345,2024-09-20 21:28:28.177139200,0,014,0.525851705139165,0.03221402841378396,-1.2805361246892657,-0.32637598462334977,-0.2321400818881289,-0.003979347915680498,-3.338578811296425,-0.19057281432857193,1
346,2024-09-20 21:28:28.253101056,0,014,0.6828638893904941,-0.14445811990362775,-1.365903453459319,-0.3181076954697168,-0.16231053911738408,-0.011359132395896032,-3.259404825526077,-0.22198923653782315,1
347,2024-09-20 21:28:28.320461824,0,014,0.8568445622027756,-0.344230445259146,-1.4499788499018988,-0.30598593880682423,-0.09330930805561372,-0.018103302697968993,-3.1021823435182303,-0.2676857912004303,1
348,2024-09-20 21:28:28.387639808,0,014,1.0450963497655013,-0.563595460549556,-1.527314127775796,-0.2890129690047099,-0.02757524763390628,-0.023989135171550376,-2.864022212854991,-0.3277249506983892,1
349,2024-09-20 21:28:28.456176128,0,014,1.243896745133351,-0.7975698913280714,-1.5930188005803632,-0.2668130169989666,0.0325500384740279,-0.02889163577992683,-2.5469605554786185,-0.4012259309830426,1
350,2024-09-20 21:28:28.524076032,0,014,1.4485482307291178,-1.0398013204660845,-1.642875739404703,-0.23971798580317089,0.08483949908610589,-0.032790090077580464,-2.158189931520759,-0.4864077866790077,1
351,2024-09-20 21:28:29.463568128,0,014,1.6535350390110717,-1.282841522495205,-1.6734371770048684,-0.20874278163492418,0.12727092223132083,-0.03575869382181691,-1.7099488251534851,-0.5807863552590654,1
352,2024-09-20 21:28:29.525183744,0,014,1.8528233198993833,-1.518605296443429,-1.6821400093670613,-0.1754755464774666,0.1581979497984798,-0.03795121679154785,-1.2189653526987794,-0.681453686748157,1
353,2024-09-20 21:28:29.604741888,0,014,2.0402847771620354,-1.7389629070072048,-1.6673693416196185,-0.14191522896952988,0.17654974057727546,-0.039584396057662063,-0.7054125942304412,-0.7853556066363067,1
354,2024-09-20 21:28:29.668852992,0,014,2.2101666536320637,-1.9363578014367562,-1.6284151245645917,-0.11027494954853549,0.1820064764599134,-0.04092363522920694,-0.19150403186903353,-0.8894859835395066,1
355,2024-09-20 21:28:29.740205056,0,014,2.357538562163506,-2.1043549235002534,-1.5653889831378556,-0.08276368686662436,0.17510933283060776,-0.042268172600427624,0.3000885536989595,-0.9909752519477504,1
356,2024-09-20 21:28:29.807968000,0,014,2.4786659251732166,-2.2380727632121715,-1.4792080646246089,-0.06136615415104738,0.15726458894585776,-0.04392632813719327,0.7479514429402789,-1.0871463049600973,1
357,2024-09-20 21:28:29.874790912,0,014,2.571247735577034,-2.334478896524449,-1.3716284874147655,-0.04765687979637583,0.13062555032596337,-0.04618004715772076,1.1337623804593564,-1.1756284251785227,1
358,2024-09-20 21:28:30.816163072,0,014,2.6344713289657995,-2.392533980418455,-1.2451803545536855,-0.04270193075982853,0.09787523413659205,-0.049251054431844646,1.4439139249160668,-1.2545175337735697,1
359,2024-09-20 21:28:30.880760064,0,014,2.668897292428211,-2.4131752471484025,-1.1029072351556017,-0.047086164478805335,0.06195114522582453,-0.05328015955304401,1.6703964377838505,-1.3224725169924914,1
360,2024-09-20 21:28:30.940921088,0,014,2.6762375564675636,-2.3991456791650196,-0.9479749969929018,-0.061042479214024586,0.025760929107686584,-0.05832341220565132,1.8108029822228309,-1.3786634881671969,1
361,2024-09-20 21:28:31.023133952,0,014,2.6591035357437516,-2.3546955178630173,-0.7833107948159677,-0.08460174351874271,-0.008051941606486758,-0.06436440429679327,1.867833060246547,-1.4225951661290985,1
362,2024-09-20 21:28:31.080126976,0,014,2.6207885738007537,-2.285201357814128,-0.6114599700555903,-0.11766899020190998,-0.037250814433373684,-0.07133608060917279,1.8486764312824946,-1.4539114968718503,1
363,2024-09-20 21:28:31.158558976,0,014,2.5651093030586085,-2.1967544068366753,-0.43480430043442847,-0.15996480083842793,-0.060069309786573925,-0.07913727172997516,1.7644431278197197,-1.4723088169196286,1
364,2024-09-20 21:28:31.221573888,0,014,2.496277535795817,-2.0957580940826244,-0.25610948626643487,-0.21084012091836166,-0.07524438599079152,-0.08763028805013429,1.6296899215674707,-1.4776259540554038,1
365,2024-09-20 21:28:32.137620224,0,014,2.41875152506889,-1.9885571305116043,-0.07919595295246575,-0.26903917800560667,-0.08204082140999419,-0.09662152034096164,1.4618778503378396,-1.4700500288632454,1
366,2024-09-20 21:28:32.202497024,0,014,2.337040665437792,-1.8811097692575214,0.09051955827716798,-0.3325084853317005,-0.08023671592436507,-0.10584311504829387,1.2804203250436939,-1.450292088100285,1
367,2024-09-20 21:28:32.281052928,0,014,2.25547630899116,-1.7787134583704785,0.2458690537567493,-0.3983349022394708,-0.07003722378620754,-0.11495457451452974,1.105138093550439,-1.4196248140804177,1
368,2024-09-20 21:28:32.341437952,0,014,2.177977720105191,-1.6857938543306803,0.37835434519918437,-0.46285561439239964,-0.051937651650733045,-0.12357098414986044,0.9542195495286001,-1.3797536758309297,1
369,2024-09-20 21:28:32.416460032,0,014,2.1078346619173867,-1.6057615176859392,0.47908127155238794,-0.5219211065689227,-0.02660842913099299,-0.1313067669354619,0.8419900426364837,-1.332547327431047,1
370,2024-09-20 21:28:32.484184064,0,014,2.0475208608472752,-1.540931042238077,0.5398878587534638,-0.5712464161091668,0.005125502496152114,-0.1378092063489058,0.7769703405326788,-1.279717576672608,1
371,2024-09-20 21:28:32.551570688,0,014,1.9985683414340827,-1.4924953482076446,0.5543440382909952,-0.606795524964665,0.04219792034202415,-0.14276482583594693,0.7607299735840418,-1.222591351312285,1
372,2024-09-20 21:28:33.494105856,0,014,1.96154510838499,-1.4605570779067498,0.5184999481987889,-0.62516607233733,0.08317809834055531,-0.14589205678886716,0.7877935933295694,-1.1620663237153817,1
373,2024-09-20 21:28:33.562108160,0,014,1.9361440927466682,-1.4442240569186928,0.43137191990490015,-0.6239191891218333,0.12621852252009985,-0.14694690552586334,0.8465476490706836,-1.0987162284596113,1
374,2024-09-20 21:28:33.630556160,0,014,1.9213419764666209,-1.4417653311797187,0.295042085123408,-0.6017788362011239,0.16912978265863102,-0.14574832725070797,0.9209178296123505,-1.0329534422607303,1
375,2024-09-20 21:28:33.693711872,0,014,1.9155840176225254,-1.4508090072061675,0.11422081395117938,-0.5586710889873578,0.20955626615925027,-0.14220638240139827,0.9925080180924479,-0.9651964468242851,1
376,2024-09-20 21:28:33.756196096,0,014,1.9169746971085742,-1.4685564739697972,-0.10454910663108011,-0.49564208343649785,0.2451941452742574,-0.13633544367433745,1.0428798753877575,-0.8960210196991956,1
377,2024-09-20 21:28:33.832852992,0,014,1.9234545063589967,-1.4919891232922593,-0.35357672026388537,-0.4147154645198986,0.2740094260472465,-0.12824995770050632,1.0556895283345453,-0.8262627079268525,1
378,2024-09-20 21:28:33.901299968,0,014,1.9329370464406903,-1.5180475155804523,-0.624324992475159,-0.3187388696771759,0.2944227823798536,-0.11814959306723678,1.0184410339358725,-0.7570540484639326,1
379,2024-09-20 21:28:34.845138176,0,014,1.9433963448845006,-1.5437668988197903,-0.9074747893877118,-0.21125447018850396,0.30542492073639055,-0.10629794415870016,0.9236655594313777,-0.689808156806404,1
380,2024-09-20 21:28:34.912877312,0,014,1.9529072456438346,-1.5663578726099332,-1.1929893456860483,-0.096405123973411,0.30660962856422713,-0.09299699312483241,0.7693709951686019,-0.6261354720880995,1
381,2024-09-20 21:28:34.975744768,0,014,1.9596333811147801,-1.5832296218279254,-1.4701952608437383,0.021139998436854837,0.2981481858035032,-0.07856251106920607,0.5586809540773539,-0.5676692688716712,1
382,2024-09-20 21:28:35.048332032,0,014,1.9617648372729255,-1.5919690683159349,-1.727785234877337,0.13627199625119796,0.2807316130339789,-0.06330654477717818,0.29875350953219576,-0.5158432614663411,1
383,2024-09-20 21:28:35.116056832,0,014,1.9574453227817128,-1.5903062613381724,-1.9538014891275723,0.24358003967278088,0.2554927662160542,-0.04753179320093401,-0.0007781790487590245,-0.47171853609876824,1
384,2024-09-20 21:28:35.183731968,0,014,1.944736662544612,-1.5760975554304992,-2.1358377963286883,0.3375777661951335,0.22392993481396517,-0.031539526408777246,-0.32954833195847133,-0.4359150723601929,1
385,2024-09-20 21:28:35.251461888,0,014,1.9216288041426748,-1.5473421737810265,-2.2617072236508644,0.4130307976897794,0.18785413982121668,-0.015644843272342945,-0.67806398887259,-0.4086088740236601,1
386,2024-09-20 21:28:36.193679104,0,014,1.8860870731125778,-1.5022348472430367,-2.3206273903548413,0.46535593926896734,0.14933822881608674,-0.00018729206222270662,-1.0388049829310588,-0.3895146669474078,1
387,2024-09-20 21:28:36.261435136,0,014,1.836152008584528,-1.4392560678962605,-2.3046641050092984,0.4910252150843355,0.11062412957090947,0.01446894650434694,-1.406500425723021,-0.3778363649318607,1
388,2024-09-20 21:28:36.329180928,0,014,1.770106864203078,-1.3572992123327219,-2.2100031764238297,0.4878908367197492,0.07399410685592485,0.027939038404073736,-1.7775788756781499,-0.3722415850022108,1
389,2024-09-20 21:28:36.396897024,0,014,1.6866878288680283,-1.2558240308891777,-2.0377608011707635,0.45536669892666587,0.04165266563828221,0.0398170092312126,-2.1491756703787654,-0.3709184204538687,1
390,2024-09-20 21:28:36.452631808,0,014,1.5852833895635354,-1.1350170754719158,-1.7942790318143385,0.39445054889907194,0.01563886881663282,0.049673243356054324,-2.5181773918925106,-0.3717409590677061,1
391,2024-09-20 21:28:36.530740992,0,014,1.4660805347535713,-0.995931817516564,-1.4908668873669948,0.3076034434468837,-0.002248862634136795,0.05706408430763516,-2.880609877695653,-0.37252565588121117,1
392,2024-09-20 21:28:36.600148992,0,014,1.3301406723455707,-0.8405684883781879,-1.1428573673106885,0.198507490857838,-0.0105344153634074,0.061564839352902224,-3.231452151545401,-0.3713039673550129,1
393,2024-09-20 21:28:37.539218944,0,014,1.1794026982743642,-0.6718502123712514,-0.7680191577087199,0.07173621657885346,-0.008151776839336728,0.06281959005613369,-3.564769864907133,-0.3665325421165211,1
394,2024-09-20 21:28:37.613159936,0,014,1.0166176523750237,-0.49347735184064917,-0.3847289683886999,-0.06760393912870148,0.005481061594555446,0.06058557524187277,-3.873985898804684,-0.3572144379380933,1
395,2024-09-20 21:28:37.675415040,0,014,0.845221872822319,-0.30968303664620245,-0.010421663335407835,-0.21420665883407045,0.030425172846883876,0.054753657078012524,-4.15216464203928,-0.3429425363527256,1
396,2024-09-20 21:28:37.737469952,0,014,0.6691536911065928,-0.12493606517748977,0.33946194984112393,-0.36285935893233495,0.06621977997623643,0.04534524049948843,-4.392248549788794,-0.32389530801377575,1
397,2024-09-20 21:28:37.814793984,0,014,0.49261635332642995,0.056366572764826234,0.652170704215926,-0.5087188003345393,0.11189682194723984,0.03250124927609514,-4.587223427337673,-0.30082126026478145,1
398,2024-09-20 21:28:37.877176064,0,014,0.3197966005014261,0.23018531782472743,0.918224599827306,-0.6475830761881378,0.1660017653532634,0.016478818950530508,-4.730245073903271,-0.27502156914142856,1
399,2024-09-20 21:28:37.939662848,0,014,0.15457115768003973,0.39307216147075974,1.132001655812871,-0.7761456321427831,0.22662660366460627,-0.0023405764109674532,-4.81483340028435,-0.24829866673699144,1
400,2024-09-20 21:28:38.868379136,0,014,0.00025161519407054236,0.5423298513629367,1.292252805148564,-0.8921998396508678,0.2914631113980609,-0.02343913575092313,-4.83535333710773,-0.2228120867745989,1
401,2024-09-20 21:28:38.936548864,0,014,-0.14059760097864113,0.6760914992394296,1.4022508188466962,-0.9947443782525619,0.35788660250671006,-0.046157327255759474,-4.787904830509795,-0.20082048604452798,1
402,2024-09-20 21:28:39.004290048,0,014,-0.26627059714546436,0.7933344626141118,1.469193571213095,-1.0839246810490186,0.42307610202004015,-0.06970373472347248,-4.671323935673238,-0.18438125191880797,1
403,2024-09-20 21:28:39.072027904,0,014,-0.37597309267575824,0.8938433900996047,1.502725713079604,-1.1607714107562488,0.48416117830683003,-0.09318515743408759,-4.4878536505792646,-0.17509760427796714,1
404,2024-09-20 21:28:39.139739136,0,014,-0.46980671957434,0.9781271809493954,1.5128787351527868,-1.2267644256985377,0.5383817494168857,-0.11565603598384196,-4.243376026551085,-0.17393683663956055,1
405,2024-09-20 21:28:39.203807232,0,014,-0.5486786636323341,1.0472971162639684,1.508005999044556,-1.2833274255919234,0.5832559730302682,-0.13618111071630618,-3.9472797088677223,-0.1811218593966684,1
406,2024-09-20 21:28:39.273391104,0,014,-0.6141725552801237,1.1029281054245716,1.493280917163406,-1.33140248754236,0.6167506261745904,-0.1539037109417722,-3.6119469439001857,-0.19611080452955507,1
407,2024-09-20 21:28:40.215077888,0,014,-0.6684132467855453,1.1469248047531175,1.4701292060104705,-1.3712312380815714,0.6374500542489973,-0.16811463257942488,-3.251863834147648,-0.21765757397747806,1
408,2024-09-20 21:28:40.277169920,0,014,-0.7138961376025004,1.1813934556145174,1.4366469876962484,-1.4023844995251866,0.6447163832047489,-0.1783149011973782,-2.8824616915051804,-0.24394935784081043,1
409,2024-09-20 21:28:40.339654912,0,014,-0.7532332250478083,1.208505405783133,1.3887039062044824,-1.4239756336539044,0.6387856652082259,-0.18425341663552589,-2.5188201071562717,-0.27285675780668817,1
410,2024-09-20 21:28:40.419249920,0,014,-0.7888353478769257,1.2303489708309032,1.321259120027984,-1.4349353931331004,0.6207145253805427,-0.18591883430250386,-2.1743184537461455,-0.302311737251738,1
411,2024-09-20 21:28:40.478256128,0,014,-0.8226275350506151,1.2487908487794834,1.2295259071467672,-1.434258829393224,0.5921627440438797,-0.18348950781343018,-1.8593189683175744,-0.3307404960581351,1
412,2024-09-20 21:28:40.556365056,0,014,-0.8559044695049748,1.2653800778806725,1.1098420804832874,-1.4211984945623728,0.5550953355840456,-0.17726825738329638,-1.5801603519769947,-0.357402516850533,1
413,2024-09-20 21:28:40.624679168,0,014,-0.8893608869802867,1.2813129663459182,0.960269944900594,-1.3954070802699987,0.5115100954278925,-0.16762716423651733,-1.3389161747119835,-0.38248747548956413,1
414,2024-09-20 21:28:41.553201920,0,014,-0.9232323645141071,1.2974485203694202,0.7810106556855623,-1.357041315744302,0.463248147227593,-0.1549743885005343,-1.13409304785315,-0.406933714467153,1
415,2024-09-20 21:28:41.636392960,0,014,-0.9574472930338747,1.314347542242245,0.5746071391506063,-1.3068380578568901,0.411877410891795,-0.13974374466064124,-0.9619098983661131,-0.4320844711821051,1
416,2024-09-20 21:28:41.703196928,0,014,-0.9917384750248118,1.3323166803150837,0.3457521862852311,-1.2461509312161845,0.35860943702549275,-0.12239850977068754,-0.8175973700445958,-0.4593383897766313,1
417,2024-09-20 21:28:41.771799040,0,014,-1.0257160519999897,1.3514539863443134,0.10066741888030105,-1.176922474679134,0.3042423453618493,-0.10343396857958612,-0.6964010497190934,-0.4898616781627187,1
418,2024-09-20 21:28:41.831510016,0,014,-1.0589177990891265,1.3716963547070244,-0.15365334172655293,-1.1015841645264344,0.24915549042181118,-0.08336274191008006,-0.5942688467630528,-0.5243537028875684,1
419,2024-09-20 21:28:41.904092928,0,014,-1.0908504934204206,1.3928641230438354,-0.4100564989651124,-1.0228937914031588,0.1933588292035125,-0.06267766688324726,-0.5082518948551112,-0.5628785357723899,1
420,2024-09-20 21:28:41.966757120,0,014,-1.1210334573121015,1.4146953455618145,-0.6616850873314545,-0.9437290953990565,0.13657053949030737,-0.04180339680281335,-0.436638610424489,-0.6048108781100906,1
421,2024-09-20 21:28:42.917257984,0,014,-1.149049542216126,1.436866215352524,-0.9023369515990737,-0.8668826911902319,0.07830791148846275,-0.02105385845222529,-0.37895063974016147,-0.648907018859014,1
422,2024-09-20 21:28:42.978859008,0,014,-1.1745959313005505,1.458999749040988,-1.1266865520909353,-0.7949171015196848,0.01798663978619564,-0.0006052301905802059,-0.3359036619877291,-0.693448758833691,1
423,2024-09-20 21:28:43.052748032,0,014,-1.1975144506223157,1.4806682194522565,-1.3303152789371149,-0.7300963259194446,-0.0449846297405097,0.019513284153463224,-0.3092311656766207,-0.7364048431053968,1
424,2024-09-20 21:28:43.121284864,0,014,-1.217785066357466,1.5013969582746813,-1.50956005627274,-0.6743620815205964,-0.11111674171001258,0.03941086416971698,-0.3012445444171172,-0.7755949367984375,1
425,2024-09-20 21:28:43.189025792,0,014,-1.235487438327647,1.5206754098260933,-1.661260309636955,-0.629331911056081,-0.18074793996939992,0.05931050503828052,-0.3142015239198145,-0.8088506719408647,1
426,2024-09-20 21:28:43.242993920,0,014,-1.250760402983525,1.5379774621398081,-1.782525050040867,-0.5963160614465994,-0.2539552638864331,0.079511015390112,-0.3496994333560268,-0.8341375466566322,1
427,2024-09-20 21:28:43.324542976,0,014,-1.2637955271861827,1.552793145500823,-1.8706468395252638,-0.5763206045598703,-0.33049797281473503,0.10033675151124745,-0.4082921397051084,-0.8496128037049779,1
428,2024-09-20 21:28:44.243111936,0,014,-1.2748708049688156,1.5646726185877424,-1.9232738768740765,-0.5699708711926271,-0.40980741807114873,0.12207902207569864,-0.4893979652849525,-0.8536623251305526,1
429,2024-09-20 21:28:44.310532864,0,014,-1.2843888392551792,1.5732757770469954,-1.9388414316270637,-0.5773374649570805,-0.49101642600157475,0.14494022117343508,-0.5913892702059649,-0.8449891123449635,1
430,2024-09-20 21:28:44.378635008,0,014,-1.2928704875353998,1.5784122453795069,-1.9170233503562804,-0.5977613891082655,-0.5730126610783979,0.16899132782507933,-0.7116525113254157,-0.8227855068390338,1
431,2024-09-20 21:28:44.434668032,0,014,-1.30088233763175,1.5800547911749236,-1.8588692722382016,-0.6298152406379012,-0.6544926987702361,0.1941436944300304,-0.8465082657827757,-0.7869547364767685,1
432,2024-09-20 21:28:44.512775936,0,014,-1.3089243736954674,1.5783192714754342,-1.7665489719574936,-0.6714382428083872,-0.7340041969991479,0.22013352306237421,-0.9911172395002699,-0.7382888912313843,1
433,2024-09-20 21:28:44.575422208,0,014,-1.3173285380295556,1.573421060029816,-1.642947199986872,-0.7201728680056011,-0.8099944033943433,0.24652593501068143,-1.1396059692897043,-0.6785063139713859,1
434,2024-09-20 21:28:44.639617792,0,014,-1.326203492294182,1.56562864409428,-1.4914009075312011,-0.7734200696412815,-0.8808835634003908,0.27274664181382363,-1.2855173904468022,-0.6101174030436736,1
435,2024-09-20 21:28:45.593249024,0,014,-1.3354320111410514,1.5552308259241263,-1.3156562979133777,-0.8286699881461593,-0.9451491660963454,0.2981358238340942,-1.4225072432377261,-0.5361568606800727,1
436,2024-09-20 21:28:45.652916992,0,014,-1.3447036184079593,1.5425173848759086,-1.1198961274593966,-0.8836859763862921,-1.001398373249221,0.32200846663693344,-1.5450747404698564,-0.45985484550936145,1
437,2024-09-20 21:28:45.728679936,0,014,-1.3535499533123514,1.5277605942797816,-0.9087124180895608,-0.9366095030843002,-1.0484324747521403,0.34371122587009195,-1.6489729318159803,-0.38435564896041735,1
438,2024-09-20 21:28:45.791253248,0,014,-1.3613522959964635,1.5111903368351505,-0.6871404137217979,-0.9859384386344893,-1.085322432252072,0.3626756128603496,-1.730982686005564,-0.31259073964250567,1
439,2024-09-20 21:28:45.853737984,0,014,-1.3673219639971068,1.4929711297979653,-0.4609436953847353,-1.0303663105206187,-1.1114897653803997,0.3784647886919465,-1.7881537296143644,-0.2473025032032195,1
440,2024-09-20 21:28:45.931422976,0,014,-1.3704962524717086,1.4731957665162305,-0.23701812587854,-1.0685628220290884,-1.1267504970848572,0.3908023421240875,-1.816996286027297,-0.1910938267669938,1
441,2024-09-20 21:28:45.999696128,0,014,-1.369795735808358,1.4519009323568752,-0.023459314067877487,-1.0990349111508653,-1.131283101739917,0.3995716185047753,-1.8130126329704985,-0.14638499132944324,1
442,2024-09-20 21:28:46.932285952,0,014,-1.364148701747229,1.4290981491686297,0.1709626935782481,-1.1201515085477323,-1.125531657473495,0.40478704433297696,-1.7706601871006111,-0.1152638804716678,1
443,2024-09-20 21:28:47.010361856,0,014,-1.352643470529105,1.404809589690435,0.33771520032914926,-1.130301537125783,-1.1100891409629374,0.40655267255417776,-1.6837543798069767,-0.099305550067584,1
444,2024-09-20 21:28:47.071969024,0,014,-1.3346450308931774,1.3790990625188482,0.46943215984356323,-1.1280994856732538,-1.0855817912912318,0.40502438776839256,-1.5463508674933015,-0.09945163639361104,1
445,2024-09-20 21:28:47.134455808,0,014,-1.3098274201784643,1.3520898459367505,0.5606201474528921,-1.1125782916164912,-1.0525685612494722,0.4003840858855688,-1.3539578668903747,-0.11599251365645936,1
446,2024-09-20 21:28:47.212562944,0,014,-1.2781233528256744,1.3239644407911673,0.6080923725954687,-1.0833568078825524,-1.011515419527122,0.3928256945473467,-1.104669969286204,-0.14863265792434024,1
447,2024-09-20 21:28:47.274637056,0,014,-1.2396404172148747,1.2949485105145433,0.6111975763412936,-1.040779035367329,-0.9628900582272008,0.3825458403106054,-0.799897951582279,-0.19658375013276583,1
448,2024-09-20 21:28:47.336666112,0,014,-1.1946069847133245,1.2652906623568394,0.5718337772979368,-0.98599418262061,-0.9073270222345595,0.369734005542416,-0.4446780114956165,-0.25863300183888455,1
449,2024-09-20 21:28:48.293077760,0,014,-1.1433822429716998,1.235252574890945,0.49412653531719275,-0.920938490249738,-0.8457623235066589,0.3545687372595013,-0.0476710730234827,-0.3331529065382627,1
450,2024-09-20 21:28:48.361019904,0,014,-1.0865116043817584,1.2051140881506455,0.3837379380382619,-0.8482055316071241,-0.7794581400460894,0.33722617004650435,0.3791495220287765,-0.4180530426526919,1
451,2024-09-20 21:28:48.419064064,0,014,-1.024771809116525,1.1751841975210442,0.24698966656974822,-0.7708184176774048,-0.7098847413386592,0.317891346063788,0.8211883525064059,-0.5107281784219267,1
452,2024-09-20 21:28:48.496256000,0,014,-0.9591603628158747,1.145804692167081,0.09016251523431466,-0.691952869702897,-0.6385036470265345,0.29676035005188867,1.2621839457497135,-0.6080659230924106,1
453,2024-09-20 21:28:48.564944128,0,014,-0.8908301886655107,1.1173391427593136,-0.0806848653286332,-0.6146990931630393,-0.5665600555917183,0.2740376058990087,1.6851369397202136,-0.7065208993099354,1
454,2024-09-20 21:28:48.632698112,0,014,-0.8210042042046964,1.0901493798711728,-0.25937270600172085,-0.5419308796953004,-0.49496759829515175,0.24994015479998077,2.0730475748013735,-0.8022369795398927,1
455,2024-09-20 21:28:48.700535808,0,014,-0.7508998786011217,1.064568983961914,-0.4391180183552964,-0.4762705193354138,-0.42429092489515974,0.22470944218512506,2.409608040149702,-0.8912477448538514,1
456,2024-09-20 21:28:49.618379264,0,014,-0.6816771247381243,1.0408816104980307,-0.6123021473705509,-0.42008580623760633,-0.3547855736515968,0.19861740391169694,2.680113393587008,-0.9698040720141831,1
457,2024-09-20 21:28:49.685185024,0,014,-0.6144108698107621,1.019301437594722,-0.7705930994605524,-0.3754705677535084,-0.2864606185949523,0.171955174015299,2.8726657350818305,-1.0347913635349493,1
458,2024-09-20 21:28:49.753906944,0,014,-0.5500703802298471,0.9999486073069838,-0.9053892330732792,-0.3441881167183798,-0.21916281238731328,0.1450101439902454,2.9794605147375095,-1.0841014918018765,1
459,2024-09-20 21:28:49.821660928,0,014,-0.48947931542863504,0.9828226517846619,-1.0085675882050111,-0.32756720911550213,-0.15269924699779416,0.11804936343004667,2.997795046725384,-1.1168346353257934,1
460,2024-09-20 21:28:49.881216000,0,014,-0.4332617622519976,0.9677899534029751,-1.0734509267418537,-0.326364091029229,-0.08699441714482775,0.09132177387861108,2.930464768495912,-1.1332959936440326,1
461,2024-09-20 21:28:49.957133056,0,014,-0.3818183015095165,0.9546027713922975,-1.0957683578895623,-0.34064121394324903,-0.022238795354911613,0.06507906616353056,2.78537542139229,-1.1348221658247117,1
462,2024-09-20 21:28:50.020514816,0,014,-0.3353605946716954,0.9429521028262264,-1.074373565200202,-0.3697186506898603,0.041034897718295514,0.03960300368823562,2.574462942378192,-1.123495384352395,1
463,2024-09-20 21:28:50.967883008,0,014,-0.2939768906867589,0.9325333206661854,-1.0116589584723434,-0.4122148593525196,0.10199246644095908,0.015218480537548098,2.3122240796376876,-1.101815218447303,1
464,2024-09-20 21:28:51.031592960,0,014,-0.25768482403924153,0.9230949263413569,-0.9137145990684434,-0.4661478849326146,0.15963871806124943,-0.007722138070283774,2.0141802531915984,-1.072405126798563,1
465,2024-09-20 21:28:51.093619200,0,014,-0.22645916877160094,0.9144578347252059,-0.790136143869068,-0.5290612733319591,0.21298076579020486,-0.02887462904318205,1.6955397679564717,-1.0378221445033884,1
466,2024-09-20 21:28:51.171166976,0,014,-0.2002410744313202,0.9065160791724538,-0.6532769903009596,-0.5981697506704908,0.2611454962897692,-0.047933543977376446,1.3702607508112252,-1.000493448392638,1
467,2024-09-20 21:28:51.238850048,0,014,-0.1789332055598866,0.8992338307508629,-0.5169365125485752,-0.6705424430431053,0.3034480299324783,-0.06464448664720773,1.0504888165471964,-0.9627077100880476,1
468,2024-09-20 21:28:51.306641152,0,014,-0.16237838147081513,0.8926373378277516,-0.3947410348622248,-0.7433219529601616,0.3394538091183782,-0.07880896396771389,0.7461319059441536,-0.9265254870083578,1
469,2024-09-20 21:28:51.372883968,0,014,-0.15031557974972606,0.8867901253033743,-0.29854341175256793,-0.8139408030940245,0.3690643141990053,-0.09029982960820594,0.4644947342297248,-0.8935490720848019,1
470,2024-09-20 21:28:52.313030144,0,014,-0.14233074138523838,0.8817531601716867,-0.2371016345113234,-0.8802880008426822,0.3926139850991163,-0.09909139267456767,0.21010682899139652,-0.8646285948133511,1
471,2024-09-20 21:28:52.375043072,0,014,-0.13785313686582848,0.8775497654655445,-0.21521682510634474,-0.9408031915971957,0.41093243103023647,-0.1052915704149045,-0.01522385952464769,-0.8396426821076669,1
472,2024-09-20 21:28:52.453521920,0,014,-0.13623516993819282,0.8741531210906078,-0.23342991695970763,-0.9945116620715687,0.4253174718526961,-0.10915652838463413,-0.21217361629811163,-0.8174843401962395,1
473,2024-09-20 21:28:52.515154944,0,014,-0.13689607402050713,0.8714953910079122,-0.28829432420257395,-1.0410211887228835,0.4373932528694001,-0.11107572307124522,-0.38343314708240656,-0.7963163649514755,1
474,2024-09-20 21:28:52.588992256,0,014,-0.13945999721826138,0.8694807424379455,-0.3731930432631348,-1.0804669608411162,0.44888462959585174,-0.11153420475168498,-0.5330240396779673,-0.7740259721102974,1
475,2024-09-20 21:28:52.646977792,0,014,-0.1438160861992349,0.8679852266704704,-0.4796344509575398,-1.1133710534404022,0.4613704119317886,-0.11107138479291122,-0.6655338179128106,-0.7487156802804373,1
476,2024-09-20 21:28:52.709025792,0,014,-0.15007471790352253,0.8668439737855484,-0.5988246368497626,-1.1404193024664295,0.4760625379268452,-0.11024707110940815,-0.7853284435830455,-0.7191010443978626,1
477,2024-09-20 21:28:53.664054016,0,014,-0.15844841498913484,0.8658413901758545,-0.7230531409585452,-1.1622202028708961,0.4936471357692307,-0.10961014064812617,-0.8957828459170654,-0.6847600472078862,1
478,2024-09-20 21:28:53.725193984,0,014,-0.16910291986182324,0.8647182030447503,-0.846347813314308,-1.1791436639515807,0.5142354045211539,-0.10966373286044326,-0.9986774151527482,-0.6462234524862204,1
479,2024-09-20 21:28:53.804352000,0,014,-0.18200959992687787,0.8631946970509995,-0.9642386426121784,-1.191298104236608,0.5374542125198883,-0.11083014106995527,-1.0938274567715227,-0.6049396436899451,1
480,2024-09-20 21:28:53.866260992,0,014,-0.19682352532169498,0.8609972068986526,-1.0730217867092784,-1.1986180592435793,0.562640249860391,-0.11342442333549523,-1.1788183400319783,-0.5631739694427966,1
481,2024-09-20 21:28:53.939744768,0,014,-0.21282388514659376,0.8578761854052094,-1.1690936029540986,-1.200987979637382,0.5890483868988248,-0.1176431878564988,-1.248841382949992,-0.5238618582233318,1
482,2024-09-20 21:28:54.005922048,0,014,-0.2289593501928049,0.8536155608545665,-1.2486627602070546,-1.198349050640879,0.615995165698846,-0.12356563363648766,-1.2969329098370648,-0.4903763052437859,1
483,2024-09-20 21:28:54.075247104,0,014,-0.24400809060919448,0.8480403975859481,-1.3078148634903286,-1.1907699528156732,0.642908068349422,-0.13115718305410565,-1.3148594770956283,-0.46617450259300774,1
484,2024-09-20 21:28:54.992207104,0,014,-0.25679585654332004,0.8410268492106191,-1.3427983192230442,-1.1784751068400274,0.6692971165004998,-0.14027158659010824,-1.294502067995033,-0.4543450210053239,1
485,2024-09-20 21:28:55.050981888,0,014,-0.26638094595322626,0.8325128671599562,-1.3504353277437562,-1.1618478458620318,0.6946978239813999,-0.15065846817327677,-1.229317421902038,-0.4571377640765613,1
486,2024-09-20 21:28:55.113467136,0,014,-0.2721520897681587,0.8225057936763159,-1.3285278504979254,-1.141462637364059,0.7186388694464025,-0.16198523721648275,-1.115442364810716,-0.4755986566622155,1
487,2024-09-20 21:28:55.195713024,0,014,-0.2738375299486969,0.811080274031324,-1.276103293082166,-1.1181808057223908,0.740646293629034,-0.1738721201373461,-0.9522181038351141,-0.5094224432081486,1
488,2024-09-20 21:28:55.263437056,0,014,-0.2714385989744137,0.7983606689070326,-1.1934632473299556,-1.0932629356237227,0.7602525551288856,-0.18592884982147756,-0.7421991737088247,-0.5570680681399133,1
489,2024-09-20 21:28:55.331159296,0,014,-0.26511273040734445,0.7844947366706895,-1.0821536126823357,-1.06839512894166,0.776991032528641,-0.19778214085651796,-0.49078465618329187,-0.6160896723351525,1
490,2024-09-20 21:28:55.392914176,0,014,-0.25506228611561876,0.7696379863714237,-0.9450180063889666,-1.045546893497044,0.7903940468397963,-0.20908990090864665,-0.20546845531611804,-0.683583038781195,1
491,2024-09-20 21:28:56.336292864,0,014,-0.24149407031919273,0.753962353077898,-0.7863974012930397,-1.0266613810821323,0.800016011119892,-0.21954433161066544,0.1052338756924511,-0.756639185465292,1
492,2024-09-20 21:28:56.399866112,0,014,-0.22467725627587704,0.7376850557791359,-0.6123224418536549,-1.0132856031739004,0.8054832239875078,-0.22887225228590438,0.43277056566494815,-0.8326893581626488,1
493,2024-09-20 21:28:56.476055040,0,014,-0.20507062089939407,0.7211013392966008,-0.4303738066074558,-1.0063017586949008,0.8065583287634839,-0.23684296633246243,0.7689629589059673,-0.9096443417226334,1
494,2024-09-20 21:28:56.539035136,0,014,-0.18344356116754254,0.7046035736943866,-0.24903412811264733,-1.0058508530358423,0.8031995334485242,-0.2432857192532085,1.1057709947494891,-0.9858258716848922,1
495,2024-09-20 21:28:56.614706176,0,014,-0.16091132965304766,0.6886764954747514,-0.0767387970264123,-1.0114152997645194,0.7955893146541793,-0.24810599724311477,1.434716120223302,-1.0597881226544685,1
496,2024-09-20 21:28:56.675101952,0,014,-0.13885546810328703,0.6738693119332982,0.07902035816211377,-1.0219847740943955,0.7841075170784354,-0.25128516139963275,1.7463271149167539,-1.1301442127231298,1
497,2024-09-20 21:28:56.737586944,0,014,-0.11876605653091041,0.660754934483276,0.2123840558319055,-1.0362591719292589,0.7692405411408456,-0.2528571784659499,2.029982857355608,-1.1954739434307209,1
498,2024-09-20 21:28:57.693901056,0,014,-0.10207485055822456,0.6498926378019183,0.31960015572457096,-1.052847297898339,0.7514608233189869,-0.25287183922211187,2.2744903229504585,-1.254351213554835,1
499,2024-09-20 21:28:57.761681920,0,014,-0.09003612809899791,0.6418077176568854,0.3991998092236573,-1.0704016551121305,0.7311395982043135,-0.25136115414279064,2.4694350974185117,-1.3054830232650914,1
500,2024-09-20 21:28:57.815229952,0,014,-0.08366643615482183,0.6369876439168156,0.45176140913646945,-1.0876493125528528,0.7085240851956619,-0.24832056835429497,2.6067977734662624,-1.3478929907704171,1
501,2024-09-20 21:28:57.896587008,0,014,-0.08370434960966094,0.635879656929222,0.47932807456331034,-1.1033366068733996,0.6837510026421229,-0.24370761527313964,2.6820762366410706,-1.3810704543111127,1
502,2024-09-20 21:28:57.964802048,0,014,-0.09055266186292645,0.638874516112927,0.48470721019443647,-1.1161448971664538,0.6568504582129072,-0.2374537739978877,2.6945833581364176,-1.4050462984115522,1
503,2024-09-20 21:28:58.018480896,0,014,-0.10422772965121412,0.6462758411725894,0.4708376317115865,-1.1246371682050558,0.6277275107975429,-0.22948246244841888,2.6471334193268086,-1.4203782719273872,1
504,2024-09-20 21:28:58.099687936,0,014,-0.12437706265565167,0.6582678473341983,0.44031251128579885,-1.1272900490871895,0.5961457624340908,-0.21972739155852236,2.5454165266810023,-1.4280349901190927,1
505,2024-09-20 21:28:59.044521984,0,014,-0.15038125689901233,0.67489433493211,0.39511304061056846,-1.1226392326169732,0.561744018313867,-0.20814662462883962,2.397294567689243,-1.4292150167411422,1
506,2024-09-20 21:28:59.110348800,0,014,-0.18149305865141427,0.6960538062074859,0.3365316286752868,-1.1094967021963154,0.5241018052120381,-0.1947272861128479,2.2122021518197803,-1.4251798957315354,1
507,2024-09-20 21:28:59.172424960,0,014,-0.2169567708628783,0.7215081204810255,0.26516168861580913,-1.0871406374660488,0.4828419968730448,-0.17947948030639171,2.0005867333727223,-1.417137074061766,1
508,2024-09-20 21:28:59.234522112,0,014,-0.25608813741296066,0.7508993103943221,0.1808632056204286,-1.055394148717107,0.4377274512608397,-0.16242512893559585,1.7731750975963925,-1.4061473045485107,1
509,2024-09-20 21:28:59.312624896,0,014,-0.29832657083044684,0.7837705243996165,0.08278840360323543,-1.014582619688816,0.3887049702717817,-0.14358942934243207,1.540123085623396,-1.3930479315985105,1
510,2024-09-20 21:28:59.375110144,0,014,-0.34326797770940365,0.819587898587327,-0.030321885197003982,-0.9654314504998888,0.33588367703667427,-0.12299738089934208,1.3103588572432847,-1.378418491001565,1
511,2024-09-20 21:28:59.450899968,0,014,-0.3906675655447876,0.8577604183248118,-0.1594864693306385,-0.9089864533012626,0.2794784113141965,-0.1006731019849868,1.0912795023893214,-1.3625924344982565,1
512,2024-09-20 21:29:00.367809024,0,014,-0.44040239032829887,0.8976578240482704,-0.3046704522694793,-0.8466047552386426,0.21977270848296201,-0.07664117222505037,0.8886919450151402,-1.3456811380126754,1
513,2024-09-20 21:29:00.435317248,0,014,-0.49240673232351334,0.9386298142452515,-0.46411425880843094,-0.7800043524708423,0.15713145746014062,-0.05093190226373556,0.7068310728067378,-1.3275839232141218,1
514,2024-09-20 21:29:00.503521024,0,014,-0.5466122282751507,0.9800279236223948,-0.6340171988451624,-0.7113000862792587,0.09203219421518466,-0.023589260758917263,0.5483150434619077,-1.3079903269871762,1
515,2024-09-20 21:29:00.570835200,0,014,-0.6029119588509163,1.021226216726791,-0.8086758674793664,-0.6429369131628587,0.02505762113760146,0.0053241956833514625,0.41386390742937523,-1.2863822559071771,1
516,2024-09-20 21:29:00.630302976,0,014,-0.6611363852982294,1.0616357798413658,-0.9810119880689379,-0.5775059087720247,-0.04316986884294559,0.0357281507372604,0.3017494472955115,-1.2620269241993647,1
517,2024-09-20 21:29:00.703794944,0,014,-0.7210204272891665,1.1007122941290932,-1.1432353493305196,-0.5175275158000585,-0.11207633950523559,0.06752471013342223,0.20733111254222927,-1.233966210249152,1
518,2024-09-20 21:29:00.773788928,0,014,-0.7821617551490513,1.1379599923215404,-1.2874652443598196,-0.46527770398099066,-0.18119661743779156,0.10058808929633703,0.12319620921363035,-1.201040715579748,1
519,2024-09-20 21:29:01.704243968,0,014,-0.8439907856609066,1.1729359289642767,-1.406380993142295,-0.42264374163789803,-0.25019044297946225,0.1347454930675186,0.04007645493099766,-1.1619914451477862,1
520,2024-09-20 21:29:01.785344000,0,014,-0.9057728632634681,1.2052555634368591,-1.4939519334966005,-0.39097160709238266,-0.3188282139848071,0.16976188537995476,-0.05181090131136158,-1.1156437268741202,1
521,2024-09-20 21:29:01.853101056,0,014,-0.966642990094596,1.2345965019623375,-1.5461213723521057,-0.37091560061771567,-0.38695245460825334,0.20533403196955832,-0.1615491613361699,-1.0611297066770218,1
522,2024-09-20 21:29:01.920092160,0,014,-1.0256550935544066,1.2606982043768322,-1.5613598716667498,-0.36233101982159543,-0.4544159099530562,0.2410883945144784,-0.2967311660873902,-0.9980879449693679,1
523,2024-09-20 21:29:01.988560128,0,014,-1.0818349256107247,1.283361490341498,-1.5410493062364552,-0.3642562987833588,-0.5210066878126662,0.2765796199858936,-0.46303984810675536,-0.92678217478691,1
524,2024-09-20 21:29:02.046014208,0,014,-1.1342412885720723,1.302454019872451,-1.4895118859857526,-0.3750288667904466,-0.5863823911930418,0.31129426811031247,-0.6640462144102866,-0.8481037230383929,1
525,2024-09-20 21:29:02.123949824,0,014,-1.1820286301974199,1.317921851613508,-1.4135455873213525,-0.3925281338259306,-0.650055022764134,0.3446681242948945,-0.9011153497472035,-0.7634780831264695,1
526,2024-09-20 21:29:03.066798848,0,014,-1.224482138037353,1.3297988985430933,-1.3216196897391685,-0.4144657424236621,-0.7114513065297066,0.3761202880280766,-1.1733188699622268,-0.6747380202680848,1
527,2024-09-20 21:29:03.135379200,0,014,-1.2610151640644938,1.3382062988637673,-1.2229584567025946,-0.4386417317174509,-0.7700070148393319,0.4050984382712844,-1.4772870124216575,-0.5840042107864516,1
528,2024-09-20 21:29:03.203126016,0,014,-1.2911586681199037,1.3433413930768956,-1.1266177982505143,-0.46314001584766645,-0.8252313847184733,0.43112702080037435,-1.8070794972817834,-0.49356345075562047,1
529,2024-09-20 21:29:03.256603136,0,014,-1.3145668081640924,1.345459704486887,-1.04065276958428,-0.48645445930938347,-0.8767183841111896,0.4538477408649043,-2.154200138245486,-0.40572186923470244,1
530,2024-09-20 21:29:03.334681856,0,014,-1.3310287085406445,1.3448525822917106,-0.9714979037006102,-0.5075221574884092,-0.9241141440203329,0.4730366191503097,-2.5077113865908967,-0.32265119795464764,1
531,2024-09-20 21:29:03.396753152,0,014,-1.3404808974639015,1.3418261460179703,-0.9236021357546749,-0.5256665857441786,-0.9670640420188544,0.4885900359651518,-2.8543802820101103,-0.2462753333719968,1
532,2024-09-20 21:29:03.473398016,0,014,-1.3430380309307088,1.3366902809118573,-0.8992547093153366,-0.5405083665788177,-1.005176270578723,0.500494807132774,-3.1790536554430777,-0.17820872548998468,1
533,2024-09-20 21:29:04.412050176,0,014,-1.3390389724956255,1.3297604018641007,-0.8984895208641358,-0.5519025216332977,-1.0380306647569784,0.5088081445960123,-3.465581485756882,-0.119701968137369,1
534,2024-09-20 21:29:04.486069760,0,014,-1.329070085267927,1.3213642145603726,-0.9190529690422529,-0.5599021679925684,-1.0652278461328701,0.5136577930108966,-3.6982973329877433,-0.07155675556506295,1
535,2024-09-20 21:29:04.551237120,0,014,-1.3139404660080554,1.3118422561380998,-0.9566290383591921,-0.5647089538510197,-1.0864474852465245,0.5152494874375081,-3.8636294316244055,-0.03404429495002073,1
536,2024-09-20 21:29:04.620696064,0,014,-1.2946227250239157,1.301535272138736,-1.0055246021707422,-0.5665947514209022,-1.101493055398381,0.5138641405529116,-3.951326652017555,-0.00691016007591676,1
537,2024-09-20 21:29:04.683772928,0,014,-1.2721864604852797,1.2907577631776332,-1.0596764556748066,-0.5658341055544637,-1.11032827243388,0.5098408266242006,-3.9550606921245515,0.010482596931644547,1
538,2024-09-20 21:29:04.756968960,0,014,-1.2477359581594432,1.2797634210455842,-1.1135156992645259,-0.5627047972916835,-1.1131146020419034,0.503553535618704,-3.872487006861947,0.018913496358177732,1
539,2024-09-20 21:29:04.820763136,0,014,-1.222339436520348,1.2687133481187938,-1.1623388469888682,-0.5575608867058793,-1.11024028817451,0.49539236623654165,-3.7050829588076746,0.019110008083784925,1
540,2024-09-20 21:29:05.768355072,0,014,-1.1969334604632411,1.2576575055661399,-1.202266853714747,-0.5509052962353886,-1.1023272233025954,0.4857567228945382,-3.458141072968964,0.01174564528498745,1
541,2024-09-20 21:29:05.836083968,0,014,-1.1722163342369583,1.246532242253238,-1.2301276785504094,-0.5433757711144793,-1.0902042397958878,0.4750550785478462,-3.1410520395027617,-0.002356853834030356,1
542,2024-09-20 21:29:05.901555968,0,014,-1.1485703759159616,1.235168561782836,-1.2434231830629294,-0.5356368236772932,-1.074824177135083,0.4636914919542877,-2.7676808109642015,-0.021953120410798627,1
543,2024-09-20 21:29:05.964043008,0,014,-1.1260416168884702,1.2233060424532283,-1.2402473778795315,-0.5282512311370609,-1.057114755456423,0.4520261670725905,-2.3564459116110186,-0.04520459730589869,1
544,2024-09-20 21:29:06.038618112,0,014,-1.1043787790947126,1.2106151600972759,-1.2190977221874109,-0.5215947464257111,-1.0378040117056668,0.440322552303703,-1.929682135359121,-0.06970681084553076,1
545,2024-09-20 21:29:06.104771072,0,014,-1.0831125236271093,1.196733341619687,-1.178823437426112,-0.5158228075257574,-1.0172912606085436,0.4287078088760735,-1.5121244178237645,-0.09271130076687203,1
546,2024-09-20 21:29:06.174785024,0,014,-1.0616446003646713,1.1813118035615493,-1.118912336855783,-0.51087734549589,-0.9956100822215969,0.41716382796684576,-1.1287611641897106,-0.11144313496914557,1
547,2024-09-20 21:29:07.093424128,0,014,-1.0393336252645484,1.1640630680179158,-1.0399844035707508,-0.5065181731707253,-0.9724829483083043,0.40554669636909924,-0.8024524528945831,-0.12340829888629073,1
548,2024-09-20 21:29:07.148829184,0,014,-1.0155927987414683,1.1448007500323103,-0.9442260093659633,-0.502364338382158,-0.9474338296030705,0.39362231303074824,-0.5516558524678368,-0.12665251325575372,1
549,2024-09-20 21:29:07.226934784,0,014,-0.9900049876012104,1.123466952638487,-0.8355619862672989,-0.49795641526190887,-0.9199206689206028,0.38110926272580187,-0.38867318361071207,-0.1199650976768578,1
550,2024-09-20 21:29:07.296637952,0,014,-0.9624311365393723,1.1001451232120036,-0.7194161838042973,-0.49286074732332213,-0.8894692954456871,0.3677274019392333,-0.3188406928037027,-0.10298386210381297,1
551,2024-09-20 21:29:07.351031040,0,014,-0.9330866450649885,1.0750591592850307,-0.6020514450737369,-0.4868037789200107,-0.8557996462827457,0.3532489939280637,-0.3407096418775706,-0.0761653433546094,1
552,2024-09-20 21:29:07.431770880,0,014,-0.9025677275693019,1.0485599630585238,-0.4897170545101156,-0.4797984580316718,-0.8189205504106489,0.3375409677432955,-0.4467819545657997,-0.04067302490374236,1
553,2024-09-20 21:29:07.499773952,0,014,-0.8718072656883621,1.021099078895659,-0.3879443014556289,-0.4722218740749,-0.7791693239527181,0.3205877437584315,-0.6243685748581953,0.001741137519032946,1
554,2024-09-20 21:29:08.433881088,0,014,-0.8419628965697157,0.993192065848326,-0.3012453907109498,-0.4647929960951159,-0.7371990370564242,0.30249293643195063,-0.8566167343616807,0.04888204847368111,1
555,2024-09-20 21:29:08.495939072,0,014,-0.8142848302233652,0.965381303891426,-0.23325980287114179,-0.45841040775008834,-0.6939327991174387,0.2834622286713008,-1.1239484983958872,0.09833928689451421,1
556,2024-09-20 21:29:08.573554944,0,014,-0.7900100462221994,0.9382078696335369,-0.18713338838471866,-0.45388918925321464,-0.6504962031300984,0.26377387702438176,-1.4057234293905756,0.14773380832861918,1
557,2024-09-20 21:29:08.646133760,0,014,-0.7702773314458042,0.912190466554711,-0.16581179270390872,-0.4517150043983323,-0.608123414646669,0.24375081160276477,-1.68161654972083,0.19484284463201804,1
558,2024-09-20 21:29:08.711323904,0,014,-0.7560304337252954,0.8877997564616984,-0.1721093282796577,-0.45191014742945407,-0.5680343668979319,0.22374419087640585,-1.9325549144358,0.2375780325808062,1
559,2024-09-20 21:29:08.782163968,0,014,-0.747907318545621,0.8654233850362281,-0.20861353362445745,-0.4540256763882398,-0.5313077783806711,0.204122650049576,-2.1415436618850463,0.2739414835528149,1
560,2024-09-20 21:29:08.849904128,0,014,-0.7461595122564778,0.8453348022239295,-0.2774402932701889,-0.45723665046520023,-0.4987857919153954,0.18525314865662548,-2.294672026113385,0.30207317570326975,1
561,2024-09-20 21:29:09.793575936,0,014,-0.7506534933953493,0.8276861122866438,-0.37974261641697027,-0.46051916189058506,-0.4710127372175998,0.1674657706331752,-2.3821769746876007,0.32037919708372087,1
562,2024-09-20 21:29:09.861358848,0,014,-0.7609553557482043,0.8125314653243955,-0.514984797605534,-0.46288382393991634,-0.4481865299149205,0.15101173994413972,-2.39921530463863,0.32766796223205674,1
563,2024-09-20 21:29:09.920090880,0,014,-0.7764332026834669,0.7998669865810218,-0.6802512077703506,-0.4636198502617657,-0.4301304720135492,0.13603860433741555,-2.3461541991017176,0.32325493389708576,1
564,2024-09-20 21:29:09.995081728,0,014,-0.7962993509342285,0.7896630541763554,-0.8699313943497522,-0.4624790159371464,-0.4163182204370107,0.12259869531610278,-2.2284537522415273,0.30701408706158356,1
565,2024-09-20 21:29:10.057566976,0,014,-0.8195738100519924,0.7818718450240757,-1.0759131572397918,-0.45973510895319214,-0.40595457630554516,0.11068184632406881,-2.0562507011349846,0.2793298544436553,1
566,2024-09-20 21:29:10.132280064,0,014,-0.8450300892965245,0.7764145405114932,-1.288209045722185,-0.4561020663527122,-0.3980811165373609,0.10025174067765105,-1.8436061758862636,0.24092902444572314,1
567,2024-09-20 21:29:10.197318144,0,014,-0.8712066997180975,0.773168098089858,-1.4959188275809985,-0.45254258203463726,-0.3916818861095913,0.09127408136121869,-1.607367662959921,0.19267248876390589,1
568,2024-09-20 21:29:11.117983232,0,014,-0.8965167908422873,0.7719655757579258,-1.6884272946273282,-0.45002563827968306,-0.38577479680604915,0.08373457549728956,-1.3657425048265137,0.13545294150031986,1
569,2024-09-20 21:29:11.179133184,0,014,-0.919425887235448,0.772609622611734,-1.8566285449353213,-0.449307037777676,-0.3794680599200979,0.07764345660445648,-1.1367134794851146,0.07025919323602901,1
570,2024-09-20 21:29:11.254272000,0,014,-0.9386331150736864,0.7748904600235714,-1.993885330220047,-0.4508013380589701,-0.3719730818065287,0.07301892748628275,-0.9363880699658743,-0.0017096666317145313,1
571,2024-09-20 21:29:11.317632768,0,014,-0.9531919088860364,0.7785977290842726,-2.096501151265009,-0.45456882255477865,-0.36260927932368536,0.06985226107814708,-0.7775323253025446,-0.07904247502133191,1
572,2024-09-20 21:29:11.389470208,0,014,-0.9625492254594662,0.7835206480472651,-2.163637873010535,-0.46038812416635183,-0.3508573100989935,0.06807781145562485,-0.6686838056232752,-0.1602442949857474,1
573,2024-09-20 21:29:11.457096192,0,014,-0.9665245016390736,0.7894395334163282,-2.196783157606328,-0.4678689397706146,-0.33646729997875247,0.0675730930180486,-0.6139297800351656,-0.24390271898946858,1
574,2024-09-20 21:29:11.525193728,0,014,-0.9652476644170424,0.7961135106727399,-2.1990414952160386,-0.4765742479891978,-0.31955685903875075,0.0681901742234346,-0.6130030689868771,-0.32883254714671045,1
575,2024-09-20 21:29:12.465916928,0,014,-0.9590747915443468,0.8032668723745765,-2.1745241743009767,-0.486129133792319,-0.3006313581279894,0.06979569603475146,-0.6614388463665068,-0.4141640949293502,1
576,2024-09-20 21:29:12.525923072,0,014,-0.9485238676753628,0.8105811552976395,-2.1278739746128625,-0.4962811009172167,-0.2805211721637763,0.07229282502532182,-0.7508825379902786,-0.49932272324405896,1
577,2024-09-20 21:29:12.603693824,0,014,-0.9342569137785374,0.8177042661376199,-2.063784028932151,-0.5068776164264844,-0.2602660772753107,0.07560884616044541,-0.8696206258556981,-0.5838995699003863,1
578,2024-09-20 21:29:12.671503872,0,014,-0.9170792478739008,0.8242783406148515,-1.986472662140265,-0.5177670707874032,-0.24096123662156185,0.07964742508649472,-1.0032034161379373,-0.6675046556324505,1
579,2024-09-20 21:29:12.738208000,0,014,-0.897912174474614,0.8299734353823095,-1.8992647109699816,-0.5286792637485787,-0.22357191375369465,0.08422391253069991,-1.135063145847254,-0.7497074399965523,1
580,2024-09-20 21:29:12.802390016,0,014,-0.8777307251825847,0.834512990770547,-1.8044709450106442,-0.5391570861687474,-0.2087456209483376,0.0890151529321076,-1.2472206427978445,-0.8300920796682886,1
581,2024-09-20 21:29:12.863956992,0,014,-0.857488160691965,0.8376884894862511,-1.703639793522764,-0.5485785306919384,-0.19666245177969063,0.09354577081181449,-1.321315362084007,-0.9083490912363159,1
582,2024-09-20 21:29:13.810765056,0,014,-0.8380485087393474,0.8393674528010505,-1.5981129235129472,-0.5562472468608034,-0.18694854243217718,0.09720913519312084,-1.3401777563798318,-0.9842894445688445,1
583,2024-09-20 21:29:13.872361728,0,014,-0.8201306333976645,0.8394940749725591,-1.4897129826497308,-0.5614975274973724,-0.17866053411292251,0.09930960718786971,-1.2898772545294934,-1.0577496298641182,1
584,2024-09-20 21:29:13.949565952,0,014,-0.8042570887700629,0.8380777859920671,-1.3813209729087883,-0.5637744739132082,-0.1703512503279761,0.09911899908928153,-1.1617971930157087,-1.128450927215789,1
585,2024-09-20 21:29:14.011580160,0,014,-0.7907098880442748,0.8351718004091866,-1.2771423471761625,-0.5626609067006262,-0.16023181562483133,0.09594818720281607,-0.9541849381889317,-1.1958784852067568,1
586,2024-09-20 21:29:14.088794880,0,014,-0.779511346081431,0.8308542292990725,-1.1826312011380222,-0.5578242698292277,-0.14642768554538516,0.0892337451100875,-0.6728105133463748,-1.2592239964914718,1
587,2024-09-20 21:29:14.152246016,0,014,-0.7704537809869102,0.8252240183510622,-1.1042023835681665,-0.5488866441284874,-0.12727903915395553,0.07862757640574151,-0.33054143940332,-1.3174527238230542,1
588,2024-09-20 21:29:14.213666048,0,014,-0.7631873955910002,0.8184113359037264,-1.048875778699205,-0.5352683771048172,-0.10159675621064097,0.06406251539542634,0.054212464613337556,-1.3695259172718697,1
589,2024-09-20 21:29:15.164851712,0,014,-0.7573406000586074,0.8105920526284576,-1.0238226428600259,-0.5160963448567477,-0.06881565517430535,0.04577103780074466,0.45989811158548577,-1.4146908215146565,1
590,2024-09-20 21:29:15.227032064,0,014,-0.752619222817569,0.8019972515779709,-1.035623343439946,-0.4902719260411525,-0.02906077413099454,0.02426278606935428,0.8644220984285126,-1.4526709547745478,1
591,2024-09-20 21:29:15.289071104,0,014,-0.7488464107107597,0.7929136989951823,-1.089193956379029,-0.4567232215911211,0.016842542460107184,0.0002860683693498843,1.2472929662011965,-1.4836553359380509,1
592,2024-09-20 21:29:15.372081152,0,014,-0.7459441178507489,0.7836711386141578,-1.186679860798593,-0.41475875392313155,0.06742863843323951,-0.025215074412827936,1.5908961461979032,-1.5081146322341423,1
593,2024-09-20 21:29:15.439783936,0,014,-0.7438758713685556,0.7746104904405673,-1.326741482182741,-0.3643886349951614,0.12074310309660878,-0.05115925024219752,1.8808955459521213,-1.5265397482219605,1
594,2024-09-20 21:29:15.507501056,0,014,-0.7425702994537071,0.7660339654079692,-1.5044538506685,-0.3065122497187876,0.17455581768635073,-0.07641083947158071,2.106212068648235,-1.5392060494021003,1
595,2024-09-20 21:29:15.575215104,0,014,-0.7418459286582446,0.7581516421822624,-1.7117572534999705,-0.24293515028980572,0.22656755300219833,-0.0998759411617628,2.2591298346538546,-1.5460563432836147,1
596,2024-09-20 21:29:16.513594112,0,014,-0.7413619517699442,0.7510442521243954,-1.938265274763717,-0.17622488715378276,0.2745745690039461,-0.12058861027971118,2.3356376360508566,-1.5467507664717273,1
597,2024-09-20 21:29:16.586671104,0,014,-0.7406165104837066,0.7446542917121316,-2.172238382941144,-0.10945384682819731,0.3166164797840123,-0.13777599489993103,2.3357096386257474,-1.5408483268072561,1
598,2024-09-20 21:29:16.654499072,0,014,-0.738993961191879,0.738806317970792,-2.401559114317589,-0.04590359447536668,0.3511311895547427,-0.15090616590722916,2.2632867942483355,-1.528021168882881,1
