,time,MARKER,pid,L_O_DSI,L_D_DSI,L_O_DSphi,L_D_DSphi,R_O_DSI,R_D_DSI,R_O_DSphi,R_D_DSphi,trial_id
0,2024-09-20 21:21:26.387774976,TASK_BEGIN,014,0.18363973922722573,-0.005320040293825043,4.656158542467563,-0.14981292143666008,0.42988720636479794,0.12188682438665197,6.038990362980992,-1.9923892033648198,0
1,2024-09-20 21:21:26.455491840,TASK_BEGIN,014,0.21404278072733512,-0.00440106808095391,4.943622029396965,-0.3355018420103333,0.5525818743507005,0.11797077906387396,6.432848796124459,-1.9521632068966237,0
2,2024-09-20 21:21:26.509378816,TASK_BEGIN,014,0.2421628782168034,-0.0037199414729924547,5.232175208582173,-0.5180166282480106,0.6745043016354684,0.11312840487693952,6.8349641116690165,-1.9183836427810623,0
3,2024-09-20 21:21:27.456898048,TASK_BEGIN,014,0.2657330122370868,-0.003412246577529378,5.51751451938938,-0.6938420638029873,0.79354092855607,0.10658142219550205,7.235285185465267,-1.89183711756211,0
4,2024-09-20 21:21:27.534135040,TASK_BEGIN,014,0.28289321786995547,-0.0035963837220119805,5.796928221279618,-0.8600653445742424,0.9077291228341847,0.09770516498771019,7.621202693400462,-1.8722996543677446,0
5,2024-09-20 21:21:27.602957056,TASK_BEGIN,014,0.29233979727902554,-0.004363653891530419,6.069331405026898,-1.014486184540063,1.0153745382836872,0.08607965269288537,7.978574766671189,-1.8585377341527878,0
6,2024-09-20 21:21:27.661031936,TASK_BEGIN,014,0.2934202333265546,-0.005764096017752497,6.334731262631417,-1.1556033726261172,1.1151338121056251,0.07150891632188659,8.293855399902109,-1.8485762306281213,0
7,2024-09-20 21:21:27.723111936,TASK_BEGIN,014,0.286164707617553,-0.007794070930432905,6.593426918633302,-1.2825346711070136,1.206048297640888,0.05400895037736797,8.556467324919456,-1.8401213773003073,0
8,2024-09-20 21:21:27.799868160,TASK_BEGIN,014,0.271249541994562,-0.010393336794826204,6.845287148929611,-1.3949141980407553,1.2875383660301294,0.03377549057218109,8.760421063045843,-1.8309691897986387,0
9,2024-09-20 21:21:27.873826816,TASK_BEGIN,014,0.24990148295005907,-0.013454271867600572,7.089332035780484,-1.4927750166313178,1.3593768898441911,0.01114783948078929,8.904572629407799,-1.8192646234621521,0
10,2024-09-20 21:21:28.791912960,TASK_BEGIN,014,0.22376638430200524,-0.016840013324781355,7.323653155726661,-1.576415881918091,1.4216360907535017,-0.01341833500481683,8.991631957101008,-1.8036008322346038,0
11,2024-09-20 21:21:28.859728896,TASK_BEGIN,014,0.19477255808890728,-0.02040616874783498,7.545587111509464,-1.6462772829651138,1.4745953055444898,-0.03936954761311201,9.02656761359817,-1.7830244648046853,0
12,2024-09-20 21:21:28.927451904,TASK_BEGIN,014,0.16500384998173345,-0.024021132985103368,7.752064247272452,-1.7028613829074715,1.5186339852294068,-0.06607989416730069,9.01506360496376,-1.756977206726322,0
13,2024-09-20 21:21:28.995176960,TASK_BEGIN,014,0.13657528055480905,-0.027581465759683736,7.940020433379761,-1.7466914411802943,1.5541447982033414,-0.09289481418438938,8.96236279665834,-1.7251873847824912,0
14,2024-09-20 21:21:29.062637312,TASK_BEGIN,014,0.11150521061757004,-0.031019973623192847,8.106653933452513,-1.7782697921207338,1.5814748151435059,-0.11918246283523115,8.872512438378815,-1.6875424126996028,0
15,2024-09-20 21:21:29.129709056,TASK_BEGIN,014,0.0915917192225309,-0.03430416416407281,8.249429153884302,-1.7980338665737048,1.6008894241039395,-0.14436955808658788,8.747895858721899,-1.6439405145142343,0
16,2024-09-20 21:21:29.197951232,TASK_BEGIN,014,0.0783070151700642,-0.03742566028310178,8.366008637524562,-1.8063694294452997,1.612557199974832,-0.1679492328651685,8.589006279221127,-1.5941121245045669,0
17,2024-09-20 21:21:30.141454848,TASK_BEGIN,014,0.07272745575362637,-0.040387660827391744,8.45430292443306,-1.8037028766730578,1.6165646570976426,-0.18947050496260845,8.39453158143566,-1.5374718144501331,0
18,2024-09-20 21:21:30.209172736,TASK_BEGIN,014,0.0755043572340056,-0.04319768773591362,8.512627654451036,-1.790617684562036,1.6129702640408028,-0.20853192872699836,8.161853761701167,-1.4731176514944615,0
19,2024-09-20 21:21:30.276606208,TASK_BEGIN,014,0.08685059797616672,-0.04586464257047538,8.53989491141345,-1.7679431676123412,1.601879275815076,-0.22479350708776397,7.8879959812797384,-1.4000597766255658,0
20,2024-09-20 21:21:30.344623104,TASK_BEGIN,014,0.10652160134351031,-0.04839499939361169,8.535801424807506,-1.7368016458289528,1.5835077230007846,-0.23800254330649476,7.570888604189067,-1.3176490794425175,0
21,2024-09-20 21:21:30.412331008,TASK_BEGIN,014,0.13381392039308143,-0.050787301629677345,8.501008472851984,-1.698607013837629,1.558234731883357,-0.24802018057836742,7.21075866701851,-1.2260777967019625,0
22,2024-09-20 21:21:30.480108800,TASK_BEGIN,014,0.16762118620291575,-0.05302850372428991,8.437357881451042,-1.655021645724665,1.526664423831292,-0.25483999677635044,6.811466465029482,-1.1267960850901093,0
23,2024-09-20 21:21:30.547760896,TASK_BEGIN,014,0.20654391071318304,-0.055093874967432954,8.348075479073776,-1.6078935168056718,1.4896928678289394,-0.2585976094500304,6.381453937245092,-1.0227085901427166,0
24,2024-09-20 21:21:31.480308992,TASK_BEGIN,014,0.2490011356541253,-0.05694744130178955,8.23775025724782,-1.5591737133718317,1.4485364432981933,-0.2595684001097911,5.933805461912877,-0.9180813456862271,0
25,2024-09-20 21:21:31.559261952,TASK_BEGIN,014,0.29330108865845417,-0.05853973486964915,8.111981685290782,-1.5108027018531809,1.404676318467053,-0.2581437867573809,5.485137137097714,-0.8181882965702186,0
26,2024-09-20 21:21:31.626880768,TASK_BEGIN,014,0.337683544772491,-0.059804968141543915,7.9767687284706525,-1.4645753951058122,1.3597264778570928,-0.2547835646731195,5.053542267226037,-0.7287777553729305,0
27,2024-09-20 21:21:31.689380864,TASK_BEGIN,014,0.3803799756655704,-0.06066415321033064,7.837716502142583,-1.4220091867510838,1.3152891984212614,-0.24995944729693312,4.656263132896498,-0.6554409872651559,0
28,2024-09-20 21:21:31.751866112,TASK_BEGIN,014,0.4197115465859397,-0.06103733060856363,7.6992751769473795,-1.3842522665488282,1.2728412074991633,-0.2441071952039258,4.307826258163411,-0.6029853965302799,0
29,2024-09-20 21:21:31.830287872,TASK_BEGIN,014,0.45420276566181167,-0.060858201542306804,7.564456565335894,-1.3520814865452333,1.2336335235934242,-0.23759167418996444,4.019052902895404,-0.5749401661821834,0
30,2024-09-20 21:21:31.898106880,TASK_BEGIN,014,0.48268805310137974,-0.06008075816382179,7.435290842948278,-1.325999733452869,1.1985988717227765,-0.2306849594751214,3.7969457020722905,-0.5733008732911054,0
31,2024-09-20 21:21:32.842168832,TASK_BEGIN,014,0.5044106255487031,-0.05867578075992405,7.313786422648575,-1.3063777207179366,1.1683090927294522,-0.22356236863355045,3.645185078026423,-0.5985445404823633,0
32,2024-09-20 21:21:32.909906944,TASK_BEGIN,014,0.5191090169106072,-0.05662315560234815,7.202843736725343,-1.2935705750154753,1.1430124274782867,-0.2163198199417554,3.564886941722372,-0.6498547416613725,0
33,2024-09-20 21:21:32.977660928,TASK_BEGIN,014,0.5270670193123008,-0.053906664875625704,7.106650568707128,-1.2879733838641474,1.12273493100927,-0.2090091216030327,3.5553636984682213,-0.7254510387071034,0
34,2024-09-20 21:21:33.044791040,TASK_BEGIN,014,0.5291014986007272,-0.05051685519075373,7.03045264285902,-1.2900096906029135,1.1074102847497598,-0.20168276631427504,3.614726976857163,-0.8229218802594639,0
35,2024-09-20 21:21:33.113104896,TASK_BEGIN,014,0.5264773341492857,-0.04646476991127612,6.979900552338498,-1.3000480801147367,1.0969957615323032,-0.1944376102823879,3.740148791524096,-0.939457979776402,0
36,2024-09-20 21:21:33.180761856,TASK_BEGIN,014,0.5207567707817122,-0.0418015731810305,6.9601693549592145,-1.318241033846416,1.0915304399422794,-0.18744597695004017,3.92759014615275,-1.0718904561789357,0
37,2024-09-20 21:21:33.247565824,TASK_BEGIN,014,0.5136127962779846,-0.0366329227093988,6.974996731717589,-1.344321050922269,1.0911095336629424,-0.18096291541753687,4.170971165995828,-1.2165222713951918,0
38,2024-09-20 21:21:34.166445056,TASK_BEGIN,014,0.5066525954711731,-0.031120068022793417,7.025915549689117,-1.377440564621442,1.0957863609232492,-0.17530417644042606,4.4611423533390875,-1.3688903045006353,0
39,2024-09-20 21:21:34.235246848,TASK_BEGIN,014,0.5012829269401059,-0.025467696114960563,7.1119409599642225,-1.416121475730285,1.1054551028850332,-0.17080265607001877,4.785328605337662,-1.523685012073455,0
40,2024-09-20 21:21:34.302840064,TASK_BEGIN,014,0.4986138623093214,-0.019901803017758915,7.2296436640898945,-1.4583051272529441,1.1197748316560108,-0.16776080090633616,5.127448297018379,-1.6749633889173292,0
41,2024-09-20 21:21:34.371104000,TASK_BEGIN,014,0.49938727906166797,-0.014640709277732951,7.373308989445065,-1.5014643471488085,1.1381478616299083,-0.16641277567386473,5.4691016153721215,-1.8165913617416574,0
42,2024-09-20 21:21:34.438838016,TASK_BEGIN,014,0.503936077560217,-0.0098651163563314,7.535025384533113,-1.5427711952039167,1.1597175024646955,-0.1668996689183563,5.790821244925498,-1.9427372669309162,0
43,2024-09-20 21:21:34.506568192,TASK_BEGIN,014,0.5121854788336949,-0.005695186851993831,7.7048590495404135,-1.5793376328519877,1.1833591852407033,-0.1692556561845742,6.073379270831533,-2.048267584062173,0
44,2024-09-20 21:21:34.568697088,TASK_BEGIN,014,0.5236946620604714,-0.0021795237050095716,7.871404366338285,-1.6085200567254172,1.2076762096544091,-0.17340379502762235,6.29910016930119,-2.128998325915535,0
45,2024-09-20 21:21:35.516297216,TASK_BEGIN,014,0.5377341384138214,0.000703344201285082,8.022768426070257,-1.6282250905032751,1.2310242130445388,-0.1791617590686221,6.453157896440083,-2.1818357361372165,0
46,2024-09-20 21:21:35.584344064,TASK_BEGIN,014,0.5533973000036,0.003032204100883683,8.147691095958251,-1.6371340970378325,1.2515747356458893,-0.1862563869826495,6.5247956640403615,-2.2048432623569765,0
47,2024-09-20 21:21:35.638959872,TASK_BEGIN,014,0.5697341694442755,0.004922498055665786,8.236464728743181,-1.6348035355087869,1.2674115112957842,-0.19434098553436213,6.508342921259077,-2.1972504655327887,0
48,2024-09-20 21:21:35.716358912,TASK_BEGIN,014,0.5858776212165551,0.0065056826667448985,8.28157318685377,-1.6216463529040606,1.2766588909380283,-0.20300979845028674,6.403910956260206,-2.15942847995969,0
49,2024-09-20 21:21:35.778845952,TASK_BEGIN,014,0.6011310379940942,0.00791784372872696,8.278157153381818,-1.5988210376220657,1.2776653135151925,-0.21181517928008717,6.217687371528642,-2.092857907543216,0
50,2024-09-20 21:21:35.855866880,TASK_BEGIN,014,0.6150097001277379,0.009299436176391371,8.224453946426586,-1.5680762226289848,1.2692473358087488,-0.22029952192294944,5.961695289508378,-2.000082924973739,0
51,2024-09-20 21:21:35.918951936,TASK_BEGIN,014,0.6272526002196575,0.010798087374756404,8.122282854193704,-1.5316065677626125,1.2509328931131543,-0.22804263233938357,5.652819415105131,-1.884611950260606,0
52,2024-09-20 21:21:36.866457088,TASK_BEGIN,014,0.637820938908666,0.012564714219746132,7.977356879186996,-1.4919307166189146,1.22310583472144,-0.2347067460208555,5.311030001808343,-1.7507247382994593,0
53,2024-09-20 21:21:36.935116032,TASK_BEGIN,014,0.646876134407124,0.01474178903578477,7.798932569480881,-1.4517495677092702,1.1869883934083634,-0.24005552309481906,4.95708524194632,-1.6031969410192937,0
54,2024-09-20 21:21:37.002999040,TASK_BEGIN,014,0.6547120421928171,0.0174516486123944,7.59854331578153,-1.41374878906998,1.144467492469408,-0.24393797727348068,4.610316907486636,-1.4470215461198352,0
55,2024-09-20 21:21:37.069189888,TASK_BEGIN,014,0.6616360908672779,0.020791635579882662,7.388193654096697,-1.3803544937764116,1.0978179697830042,-0.24625015896805327,4.287028829013942,-1.28720426866699,0
56,2024-09-20 21:21:37.138511104,TASK_BEGIN,014,0.6678368470715342,0.024836120559467583,7.178767419032557,-1.3534921798961916,1.049381178540995,-0.24689729298144208,3.9996390533785435,-1.1286401078704835,0
57,2024-09-20 21:21:37.206281984,TASK_BEGIN,014,0.6732786703377259,0.029645199943458336,6.979164800849661,-1.334421938515223,1.0012571247365756,-0.24577462362672495,3.756497801807842,-0.976045586152135,0
58,2024-09-20 21:21:37.274100224,TASK_BEGIN,014,0.677627069339893,0.03528242993654277,6.7960922687553005,-1.323700272173762,0.9550691629467342,-0.24277124699380415,3.562303916898268,-0.8339255879891427,0
59,2024-09-20 21:21:38.217509120,TASK_BEGIN,014,0.6802053356598333,0.041838007583862705,6.634064403674912,-1.321246236951185,0.9118373378762498,-0.2377851068988085,3.4188274481504046,-0.7065202678000684,0
60,2024-09-20 21:21:38.284772096,TASK_BEGIN,014,0.6800151503707915,0.049444669149232484,6.495326805100516,-1.326438331824566,0.8719732275563743,-0.23073493764921535,3.3254679222864123,-0.5976520128789442,0
61,2024-09-20 21:21:38.339759104,TASK_BEGIN,014,0.6758426141771958,0.05827453873875619,6.379777561733065,-1.3381943940180023,0.8353935027345777,-0.22156678405300004,3.279478675118313,-0.5104517249947751,0
62,2024-09-20 21:21:38.420157952,TASK_BEGIN,014,0.6664226177722172,0.06851552521586993,6.285148562929769,-1.355047009830729,0.8017161125598018,-0.21026269441424997,3.276175646718539,-0.4470404198645413,0
63,2024-09-20 21:21:38.480629760,TASK_BEGIN,014,0.6506228653248493,0.0803351486650134,6.207619287000835,-1.375256748784933,0.7704763627422212,-0.19685974959530433,3.3095166984093662,-0.4082879985603101,0
64,2024-09-20 21:21:38.555862016,TASK_BEGIN,014,0.627626184387501,0.09384337475059679,6.142824410595072,-1.3969948714672609,0.7413105427217948,-0.18147895279220147,3.3730446957427342,-0.39373564773577263,0
65,2024-09-20 21:21:38.620629760,TASK_BEGIN,014,0.5970880298056161,0.1090650327823363,6.0870492379103736,-1.4185858466353933,0.7140891713064234,-0.164353194974315,3.4608038917347037,-0.4016746215803451,0
66,2024-09-20 21:21:39.542834944,TASK_BEGIN,014,0.5592414352373717,0.1259263204494836,6.038336245435485,-1.4387488826072277,0.689006793386701,-0.14584274115820356,3.5678065448986267,-0.42930056318393595,0
67,2024-09-20 21:21:39.610682880,TASK_BEGIN,014,0.5149358791824433,0.14425221409654332,5.997237636782836,-1.4567693583604786,0.6666224900692858,-0.12643250868263897,3.6899054658655213,-0.472885141821515,0
68,2024-09-20 21:21:39.677923840,TASK_BEGIN,014,0.4656032377189605,0.1637710499974688,5.967006330197874,-1.4725678417141543,0.6478253373210321,-0.10671073974624143,3.823233265596659,-0.5279786190496917,0
69,2024-09-20 21:21:39.746172160,TASK_BEGIN,014,0.41313347765012787,0.1841290400373029,5.953092433291459,-1.486648986400678,0.6337260214398482,-0.08733475166423066,3.963462706016445,-0.5896661429545621,0
70,2024-09-20 21:21:39.813875968,TASK_BEGIN,014,0.35965805054507705,0.2049179245137163,5.961989999306987,-1.4999164734135382,0.6255250403593497,-0.0689942018651541,4.105147992035819,-0.6528639875998792,0
71,2024-09-20 21:21:39.881355008,TASK_BEGIN,014,0.3072984045296538,0.22570779188005743,5.999809726233285,-1.5134044338568649,0.6244113709461506,-0.05238112404068917,4.241505783903974,-0.7126474641777913,0
72,2024-09-20 21:21:39.946567168,TASK_BEGIN,014,0.25797245111211203,0.24606920338401014,6.071175373246719,-1.528047372466044,0.631493736219783,-0.038170381300461416,4.364902137355259,-0.7646104877390477,0
73,2024-09-20 21:21:40.892094976,TASK_BEGIN,014,0.2133020055276328,0.26557806398000233,6.1788546225079,-1.5445844853207003,0.6477179898910532,-0.02700617450154654,4.467869341176515,-0.8052076198136775,0
74,2024-09-20 21:21:40.959803136,TASK_BEGIN,014,0.17458728501638837,0.2838126237331404,6.324039782145401,-1.5635903543168306,0.6737373421889374,-0.019482483529617557,4.544201932118717,-0.8319918370544944,0
75,2024-09-20 21:21:41.027552000,TASK_BEGIN,014,0.1428047666616012,0.3003550454813668,6.506784835192363,-1.5855351431490403,0.7097628474211248,-0.01610687345147855,4.589874244583225,-0.8437078464582911,0
76,2024-09-20 21:21:41.093046784,TASK_BEGIN,014,0.11862618602976271,0.3148005805368649,6.7261259984056725,-1.6107721704456788,0.7554575189084359,-0.017250723133779348,4.603807045350288,-0.8402936008178872,0
77,2024-09-20 21:21:41.163095040,TASK_BEGIN,014,0.10246575703918025,0.32677105447230986,6.979815050451807,-1.6394353597006763,0.8099229235971926,-0.023102552649493582,4.588534490384741,-0.8228617620309704,0
78,2024-09-20 21:21:41.230094848,TASK_BEGIN,014,0.094526980997035,0.33593217342953524,7.263903452744117,-1.6713137954988422,0.8718001755551683,-0.033645013822119374,4.550613471078291,-0.7936445709696924,0
79,2024-09-20 21:21:41.297862144,TASK_BEGIN,014,0.09480320232847278,0.342017787953398,7.572369895241228,-1.7057645626139546,0.9394743949035017,-0.048668533650856834,4.500486816051215,-0.7558476604592882,0
80,2024-09-20 21:21:42.242152960,TASK_BEGIN,014,0.10302051415568567,0.344860683906714,7.896841277547689,-1.7416687266489004,1.0113140424115152,-0.06781494265600589,4.451695835169515,-0.7134321447480378,0
81,2024-09-20 21:21:42.309870848,TASK_BEGIN,014,0.1185588646296483,0.34442179587632654,8.226459367670206,-1.7774262373152176,1.0858442678164337,-0.0906254155299174,4.419599784094863,-0.6708598581050442,0
82,2024-09-20 21:21:42.377594880,TASK_BEGIN,014,0.14040605990805008,0.34080620335304607,8.548061113565955,-1.8110294717306383,1.161806795455288,-0.11657020168578364,4.419790785579266,-0.6327652614998002,0
83,2024-09-20 21:21:42.444992256,TASK_BEGIN,014,0.16718629061108084,0.33425760760057743,8.846885465303485,-1.8402650981453155,1.238144766307942,-0.1450604495260077,4.4663264920221994,-0.6035379287699808,0
84,2024-09-20 21:21:42.499610880,TASK_BEGIN,014,0.19726695522298476,0.3251311115432778,9.107789549279351,-1.8630128257952987,1.3139744251480536,-0.17545852043228216,4.569969457330087,-0.5869115219712219,0
85,2024-09-20 21:21:42.580420864,TASK_BEGIN,014,0.22890906419916227,0.31385354577264846,9.316594929353565,-1.877520588604779,1.388561928882736,-0.20709684646617904,4.736753600529915,-0.5856808621898686,0
86,2024-09-20 21:21:42.648470016,TASK_BEGIN,014,0.2604254659563685,0.3008835995579138,9.4611386475255,-1.8825602301217772,1.4612788192271204,-0.23929901551564756,4.967179419294422,-0.6015813860531712,0
87,2024-09-20 21:21:43.590148864,TASK_BEGIN,014,0.2903371260766414,0.28667649295476016,9.531965333284665,-1.8774723844251864,1.5315170734940269,-0.2713936959913089,5.256112974862753,-0.6352780225652102,0
88,2024-09-20 21:21:43.658520064,TASK_BEGIN,014,0.3175210200115101,0.27164975169422034,9.522907491365455,-1.8621665593781407,1.598591680469655,-0.30272693096681585,5.593258999781807,-0.6863958603516341,0
89,2024-09-20 21:21:43.726217984,TASK_BEGIN,014,0.34132320555931334,0.25614779262942,9.431664538559804,-1.8371105456583334,1.6616837654073542,-0.3326902701928082,5.964090537697049,-0.753581277896727,0
90,2024-09-20 21:21:43.793948928,TASK_BEGIN,014,0.361609360616322,0.2404096841022298,9.260160074777339,-1.8032933401546685,1.7198574467381083,-0.3607705853618414,6.351144248542338,-0.8346221697691362,0
91,2024-09-20 21:21:43.861659904,TASK_BEGIN,014,0.3787510934552423,0.22454782044465557,9.014476139267648,-1.7621537817094,1.7721475890943863,-0.38660182969402557,6.735465158534806,-0.9266166103664129,0
92,2024-09-20 21:21:43.929368832,TASK_BEGIN,014,0.3935718143313206,0.20854189532559939,8.704482045760512,-1.7154998011421552,1.8176884063857213,-0.4099902616635145,7.097971404751067,-1.0261410206230288,0
93,2024-09-20 21:21:43.987955200,TASK_BEGIN,014,0.40727750138909674,0.192247460922273,8.343384976951379,-1.665430353646758,1.8558534906621758,-0.43090477979461,7.420717385471581,-1.1294070621503898,0
94,2024-09-20 21:21:44.935764224,TASK_BEGIN,014,0.4213712258529809,0.1754191498372277,7.947261256822537,-1.6142452604768058,1.8863936219765318,-0.4494502631125427,7.688127633808878,-1.232458755911509,0
95,2024-09-20 21:21:45.007139840,TASK_BEGIN,014,0.43751661877909337,0.1577524806847715,7.534487661691133,-1.5643392531971325,1.9095444448763008,-0.4658442146708794,7.888085092937842,-1.3314479137159163,0
96,2024-09-20 21:21:45.075048192,TASK_BEGIN,014,0.45732361551896245,0.13894326138115878,7.12492425354701,-1.5180897234731299,1.9260546552504412,-0.48039723505844284,8.012574373032908,-1.422931029797484,0
97,2024-09-20 21:21:45.137629184,TASK_BEGIN,014,0.4820954096161714,0.11874952077211555,6.738670609578103,-1.4777261540913496,1.937117670507273,-0.49348746318155207,8.05772917130432,-1.5040882124160424,0
98,2024-09-20 21:21:45.210901248,TASK_BEGIN,014,0.5126224832612704,0.09703569410505218,6.39438861844941,-1.4451502754678,1.9442426752039166,-0.5055307664866309,8.023492770504452,-1.5728404023458686,0
99,2024-09-20 21:21:45.278590720,TASK_BEGIN,014,0.5490787423322692,0.07379279057725247,6.107471825188108,-1.421706602089421,1.9491014006962055,-0.5169561792035998,7.913242594500106,-1.6279095162342614,0
100,2024-09-20 21:21:45.345978112,TASK_BEGIN,014,0.5910177738608,0.04914440651271035,5.888431293585039,-1.4079625956373656,1.9533556898735318,-0.5281830813518924,7.733545957406417,-1.6688424783895672,0
101,2024-09-20 21:21:46.261794816,TASK_BEGIN,014,0.6374389307744289,0.023348461193920332,5.741774929787974,-1.4035767122749203,1.9584770233002782,-0.5395862211287247,7.4939718555572945,-1.6959781349107648,0
102,2024-09-20 21:21:46.325120768,TASK_BEGIN,014,0.6868886272681368,-0.003204108225321113,5.665566722853476,-1.4072954903509372,1.9656041254832133,-0.551447127477502,7.2067661003911745,-1.7103349354396333,0
103,2024-09-20 21:21:46.402087936,TASK_BEGIN,014,0.7375753914919307,-0.029996412857177242,5.651774943869725,-1.4170889482284608,1.9754865515488491,-0.5639089454166577,6.886241917127436,-1.7134238043995018,0
104,2024-09-20 21:21:46.469585920,TASK_BEGIN,014,0.7874991295734883,-0.05640283111108806,5.687397314499775,-1.430420343399313,1.988515656149372,-0.5769530828224311,6.547898065186277,-1.7070332405121498,0
105,2024-09-20 21:21:46.536961280,TASK_BEGIN,014,0.8346021185921216,-0.08172233178609718,5.756190019610357,-1.444608860968273,2.0047928541328113,-0.5904006092370174,6.20742938308741,-1.6930586178283449,0
106,2024-09-20 21:21:46.605293056,TASK_BEGIN,014,0.8769333980441983,-0.10522709024094162,5.840736408205247,-1.4572081815167068,2.0241777616869263,-0.6039263998624113,5.879875531704046,-1.6734046950653882,0
107,2024-09-20 21:21:46.673088000,TASK_BEGIN,014,0.9127951411132643,-0.12621296116889238,5.924574152932991,-1.4663270928219503,2.0462937810835786,-0.6170746516721098,5.579074826547208,-1.6499192678431962,0
108,2024-09-20 21:21:47.617085952,TASK_BEGIN,014,0.9408351491890072,-0.14403781852727507,5.994024511316896,-1.4708297370935342,2.070509219712613,-0.6292790948704012,5.317386329186846,-1.6243175569855712,0
109,2024-09-20 21:21:47.675726848,TASK_BEGIN,014,0.9600739829287608,-0.15814797869964098,6.039399460841249,-1.4703797010354227,2.095930490609137,-0.6399015772366661,5.105549891583071,-1.5981135918689342,0
110,2024-09-20 21:21:47.738087936,TASK_BEGIN,014,0.9698835535545791,-0.16810029965853293,6.055554347716198,-1.4653529835864243,2.121424787238983,-0.6482925412248092,4.952511217660401,-1.5725718187080577,0
111,2024-09-20 21:21:47.816196096,TASK_BEGIN,014,0.9699438122155101,-0.17357923043592444,6.041963058634523,-1.4566773028626008,2.1456658815167295,-0.6538583426961815,4.864936146381092,-1.548643220660081,0
112,2024-09-20 21:21:47.877772032,TASK_BEGIN,014,0.9602047432506051,-0.17440240642864363,6.002418305309522,-1.4456344101171765,2.1672120135802793,-0.6561189952618667,4.846283152732964,-1.5268683761433643,0
113,2024-09-20 21:21:47.955469056,TASK_BEGIN,014,0.9408689373786893,-0.17051402844947663,5.944375931196533,-1.4336496530600469,2.184638966778201,-0.6547524018999681,4.8957574091120515,-1.5072965047586193,0
114,2024-09-20 21:21:48.017515008,TASK_BEGIN,014,0.91238088729669,-0.16197011972894804,5.878007388729997,-1.4221055726432623,2.19670864850703,-0.6496233419796338,5.0077110454588345,-1.4894745893405867,0
115,2024-09-20 21:21:48.965059072,TASK_BEGIN,014,0.8754033422810108,-0.14892020517602964,5.81505907773985,-1.412216456075171,2.202485059093906,-0.6407839046903417,5.171819171200525,-1.4725130630745416,0
116,2024-09-20 21:21:49.026707968,TASK_BEGIN,014,0.830787417820171,-0.13159053172446245,5.767606075884145,-1.4049739589773278,2.2013111985427054,-0.6284300656979109,5.374030957949929,-1.455224249699312,0
117,2024-09-20 21:21:49.102664960,TASK_BEGIN,014,0.779553386646051,-0.11027296816923196,5.7468437425230094,-1.4011468153656639,2.1926691863905385,-0.6128201024690711,5.598086950846433,-1.436335024435657,0
118,2024-09-20 21:21:49.166457088,TASK_BEGIN,014,0.7228891744703587,-0.0853216909892541,5.762154084702152,-1.4013258708716665,2.176044883821262,-0.5941835661501785,5.8271193701894575,-1.4147188060563407,0
119,2024-09-20 21:21:49.238152192,TASK_BEGIN,014,0.6621645710629886,-0.05715757104808192,5.820595394479616,-1.4060134875917185,2.150895134402681,-0.5726551273502024,6.044772915677953,-1.3895399080072097,0
120,2024-09-20 21:21:49.290922240,TASK_BEGIN,014,0.5989386295760933,-0.02627452431350351,5.9267285644708245,-1.41571588495288,2.116732992702574,-0.5482599850035047,6.235768458896462,-1.3602610312970722,0
121,2024-09-20 21:21:49.373630976,TASK_BEGIN,014,0.5349187634441258,0.006762895276012469,6.082586416713452,-1.4309698205842714,2.0732936873595236,-0.520956870675337,6.386302707392945,-1.3265638106740658,0
122,2024-09-20 21:21:50.292172800,TASK_BEGIN,014,0.47184895729919873,0.04133872746475021,6.287603940537683,-1.4522730635920902,2.0207136444383393,-0.4907160921735085,6.484536880218806,-1.2882627123868307,0
123,2024-09-20 21:21:50.344808192,TASK_BEGIN,014,0.41135056437822853,0.0768209431033387,6.538400693270743,-1.4799411191403995,1.9596484822918974,-0.457598689139891,6.521115367358161,-1.2452690241240956,0
124,2024-09-20 21:21:50.427665152,TASK_BEGIN,014,0.35477082677338423,0.11260194050277862,6.828556855935563,-1.5139449838329961,1.8912933101937837,-0.42181557565773325,6.489608290343635,-1.197614222770165,0
125,2024-09-20 21:21:50.483475712,TASK_BEGIN,014,0.30308644618992425,0.1481289236763466,7.148735679824368,-1.553799705745575,1.8173046015161773,-0.38375957294811086,6.386833866133201,-1.1454938493820412,0
126,2024-09-20 21:21:50.560704768,TASK_BEGIN,014,0.25687265085385014,0.18291687773351456,7.487328131644262,-1.5985529748627436,1.7396302422828056,-0.34400653179802526,6.213087529103691,-1.0893017949286963,0
127,2024-09-20 21:21:50.630743040,TASK_BEGIN,014,0.21632245986643872,0.21654865472494775,7.83142719050152,-1.646864974004317,1.6602854428137352,-0.30328742487630844,5.972334603245974,-1.0296672731677503,0
128,2024-09-20 21:21:50.698430976,TASK_BEGIN,014,0.181303654065132,0.24866903235056964,8.167803689216553,-1.6971249159998605,1.5811667278009285,-0.26244609626891474,5.672370818868614,-0.9675226984528503,0
129,2024-09-20 21:21:51.640886016,TASK_BEGIN,014,0.15144143996059,0.278975246398288,8.483655088814992,-1.7475540230954254,1.5039886101767659,-0.22240034121276864,5.32494186706158,-0.9042289707605844,0
130,2024-09-20 21:21:51.702483968,TASK_BEGIN,014,0.12619861471435345,0.30720502364809193,8.767059006057162,-1.7962886723038596,1.4303370095808463,-0.1841106602744426,4.945699174449596,-0.8417372517226185,0
131,2024-09-20 21:21:51.764539136,TASK_BEGIN,014,0.10492933399491047,0.33312495981409807,9.007244893731068,-1.8414819654018744,1.3617444238782581,-0.14854594562085777,4.553594686076368,-0.7826574886965653,0
132,2024-09-20 21:21:51.845550080,TASK_BEGIN,014,0.08692096985406293,0.35652337796235484,9.194849054020668,-1.8814453608811015,1.2996852318536851,-0.11663036911726915,4.169392270390086,-0.730075259734001,0
133,2024-09-20 21:21:51.905081088,TASK_BEGIN,014,0.071461133037942,0.377211403725945,9.322182628797844,-1.9147789088007119,1.2454642716214044,-0.08916464793791087,3.813468250634821,-0.6871047510012144,0
134,2024-09-20 21:21:51.981081088,TASK_BEGIN,014,0.057938888054720555,0.3950332849203039,9.383508166357927,-1.9404277508978087,1.20005610503311,-0.06673629061091944,3.5034304131582243,-0.656340535569453,0
135,2024-09-20 21:21:52.048770048,TASK_BEGIN,014,0.04594849770022695,0.40988153684980216,9.375415138384616,-1.9576799994359761,1.1639763376005114,-0.04965170600972715,3.2521661760596468,-0.6394035804161562,0
136,2024-09-20 21:21:52.991758080,TASK_BEGIN,014,0.03535927614959814,0.42170804849774557,9.297272898501133,-1.966153369194903,1.1372316967086609,-0.0379201180627214,3.0667961211785735,-0.6366865675808729,0
137,2024-09-20 21:21:53.044161024,TASK_BEGIN,014,0.026335855376202397,0.4305246876398087,9.15152179854492,-1.9657742273768763,1.1193541464434695,-0.031298059749280786,2.9486131265768196,-0.6473101525143915,0
138,2024-09-20 21:21:53.127262208,TASK_BEGIN,014,0.019310399409284477,0.4363948186508248,8.943642936106398,-1.9567398863850662,1.1095019843978762,-0.02937785176043852,2.893753672173448,-0.6692637526276688,0
139,2024-09-20 21:21:53.183312128,TASK_BEGIN,014,0.014917314922968529,0.4394237116023215,8.6818964136296,-1.9394840130596105,1.1066039633617493,-0.031684364906008775,2.894308535164479,-0.6996853612905158,0
140,2024-09-20 21:21:53.260572928,TASK_BEGIN,014,0.013902300574262217,0.43975531655243727,8.376949486494446,-1.9146608826251283,1.1095252747857152,-0.03774461551380951,2.939642702913425,-0.7352182925946761,0
141,2024-09-20 21:21:53.322601984,TASK_BEGIN,014,0.017018395860678076,0.4375729979779708,8.04138621509263,-1.8831293151286144,1.1172289716269763,-0.047117835335249554,3.0178048749858015,-0.7724024813852276,0
142,2024-09-20 21:21:53.384836864,TASK_BEGIN,014,0.02492541441250673,0.4330939282419257,7.689047640860166,-1.8459115424020553,1.1288955548497102,-0.05939986799563687,3.1170183169844905,-0.8080658194163599,0
143,2024-09-20 21:21:54.329309952,TASK_BEGIN,014,0.038107679290278584,0.42655381715174473,7.334218396122917,-1.8041360894454064,1.143984854251489,-0.07422518920903082,3.2271508092214107,-0.839635158064114,0
144,2024-09-20 21:21:54.409543936,TASK_BEGIN,014,0.056825093763628126,0.4181895486176993,6.990766689709298,-1.758998546478095,1.16226525449103,-0.09127919466936613,3.3408850458891255,-0.8653002355930718,0
145,2024-09-20 21:21:54.467974912,TASK_BEGIN,014,0.08111042325827073,0.40822734267002886,6.671386236650959,-1.7117562200550767,1.1838340356454198,-0.11031216869551899,3.4543335841759717,-0.884075168165998,0
146,2024-09-20 21:21:54.529509120,TASK_BEGIN,014,0.1108003883642405,0.39687901978409057,6.38705214710382,-1.663741444702602,1.2091156226339088,-0.1311373826748005,3.5670276940943095,-0.8958459787423587,0
147,2024-09-20 21:21:54.612657920,TASK_BEGIN,014,0.14556084941578915,0.3843469161511863,6.146736415232483,-1.6163745973955754,1.2388044992146015,-0.153609592402022,3.6813714698376447,-0.901395903240982,0
148,2024-09-20 21:21:54.670054912,TASK_BEGIN,014,0.18488131550505033,0.3708364765499043,5.957353567991951,-1.5711652065471922,1.2737248899134241,-0.17759306993913482,3.8017202615924637,-0.9023149743901292,0
149,2024-09-20 21:21:54.748169984,TASK_BEGIN,014,0.2280627813979299,0.35657154934539864,5.823797874268675,-1.5296817627720976,1.314606496599351,-0.2029234950961284,3.933258728142039,-0.9007507841233195,0
150,2024-09-20 21:21:55.685175040,TASK_BEGIN,014,0.2742473409808892,0.34180340920918323,5.748864039554822,-1.4934653099867987,1.361829160100621,-0.2293650302225766,4.080873184091711,-0.8990660408196252,0
151,2024-09-20 21:21:55.747662080,TASK_BEGIN,014,0.32249951091963286,0.3268071065741036,5.73297950219736,-1.4638834431725656,1.4152341283154541,-0.2565774915358035,4.2481723445326045,-0.8995039312075994,0
152,2024-09-20 21:21:55.825545216,TASK_BEGIN,014,0.3718855152630269,0.3118691417932231,5.773955206652205,-1.4419706040942866,1.4740730783318847,-0.284116549076692,4.436672943896185,-0.9039203556075651,0
153,2024-09-20 21:21:55.895472896,TASK_BEGIN,014,0.4214904519957399,0.2972762087161292,5.867008568079197,-1.4283290737730578,1.5370724850994006,-0.3114696223140927,4.64516433408329,-0.9136055893048896,0
154,2024-09-20 21:21:55.949501952,TASK_BEGIN,014,0.4703744301404264,0.28330780238647063,6.005047117805033,-1.4231220581352026,1.6025329302745237,-0.3381027299453948,4.869412203724506,-0.9292061763334323,0
155,2024-09-20 21:21:56.031142144,TASK_BEGIN,014,0.5175194362208281,0.2702277517604537,6.17904140361074,-1.4261240770556152,1.6684208873533288,-0.3634936480467258,5.102256944028614,-0.9507262406582849,0
156,2024-09-20 21:21:56.088640768,TASK_BEGIN,014,0.561818476236599,0.25827044091247797,6.378425749613312,-1.4367800757387685,1.7324714955150622,-0.3871481557318617,5.333948538885388,-0.9775664334622018,0
157,2024-09-20 21:21:57.003460864,TASK_BEGIN,014,0.6021382782291037,0.24762059519696747,6.591532286528717,-1.4542520728145902,1.7923266694063393,-0.4086101684560624,5.552678701366758,-1.008595984994236,0
158,2024-09-20 21:21:57.085339136,TASK_BEGIN,014,0.637459661646321,0.2383885944745146,6.805977260213187,-1.477453366109589,1.8457010399219238,-0.42747537392654505,5.745419592795306,-1.0422759146034855,0
159,2024-09-20 21:21:57.153136896,TASK_BEGIN,014,0.6670513601498373,0.23058900502342683,7.008949103079677,-1.5050728187243445,1.8905454328418663,-0.4434089398939204,5.899047603181027,-1.0768136922992206,0
160,2024-09-20 21:21:57.220837120,TASK_BEGIN,014,0.6905912555486029,0.2241343109847059,7.187548418874852,-1.5355949797784154,1.9251771103221518,-0.45615862016689657,6.001598460285962,-1.110303081059033,0
161,2024-09-20 21:21:57.288544000,TASK_BEGIN,014,0.7081692190011984,0.218852885038347,7.329411726804095,-1.567335141021557,1.948365947599602,-0.4655549940539064,6.0434532034266715,-1.140817042177671,0
162,2024-09-20 21:21:57.343843072,TASK_BEGIN,014,0.7201811036269721,0.21452884259251495,7.423726544727197,-1.5985125891075402,1.9593926221877862,-0.47150071895877765,6.018222934330243,-1.1664534350677909,0
163,2024-09-20 21:21:57.422074880,TASK_BEGIN,014,0.7271784362045367,0.21094779983064188,7.462537595594537,-1.6273662624006993,1.9580917840013266,-0.4739562385575443,5.923227378697072,-1.1853741166664937,0
164,2024-09-20 21:21:58.355648000,TASK_BEGIN,014,0.7297298869540546,0.2079315317886461,7.441988655538855,-1.652286658630623,1.9448607278639387,-0.472925842570328,5.759634673039287,-1.1958826685645,0
165,2024-09-20 21:21:58.435419136,TASK_BEGIN,014,0.7283156699252853,0.20535875823026498,7.3630416108134,-1.671927847868908,1.9206127217277507,-0.46844728000598823,5.53231309063953,-1.1965402332028239,0
166,2024-09-20 21:21:58.495380992,TASK_BEGIN,014,0.7232657580401727,0.20317871835076673,7.231452800472154,-1.6852848226683919,1.8866966180436828,-0.46059303443104377,5.249449007249739,-1.186298390572616,0
167,2024-09-20 21:21:58.570888960,TASK_BEGIN,014,0.714761781211222,0.20141747681946187,7.057072683066983,-1.691734867424684,1.8448279980077764,-0.44949098051114883,4.9221187244394,-1.16464813521393,0
168,2024-09-20 21:21:58.635716864,TASK_BEGIN,014,0.702910876585352,0.20016732270522722,6.852635317982398,-1.6910361114807804,1.7970503948060996,-0.43536396755419887,4.563902371829768,-1.1317787097632213,0
169,2024-09-20 21:21:58.706381056,TASK_BEGIN,014,0.6878629691774215,0.19955268748206748,6.632321226497888,-1.6832933924403866,1.745699200340177,-0.4185764104905764,4.190290077003555,-1.0886990462368247,0
170,2024-09-20 21:21:58.759725056,TASK_BEGIN,014,0.6699128673451218,0.1996814899244346,6.410476986834881,-1.6689267744970613,1.6933194721567444,-0.3996667246115064,3.817602368043055,-1.0372517271176733,0
171,2024-09-20 21:21:59.717750016,TASK_BEGIN,014,0.649535567578911,0.2006018830256368,6.200679079514133,-1.6486573632198376,1.6425204403167937,-0.3793495657543687,3.4615854184685158,-0.9799874262152105,0
172,2024-09-20 21:21:59.774866176,TASK_BEGIN,014,0.627358022443469,0.20227685522518357,6.015051420499396,-1.623489422476239,1.5958082820227437,-0.35848760209577174,3.136211962226677,-0.9199439906788504,0
173,2024-09-20 21:21:59.853228032,TASK_BEGIN,014,0.6041260920148538,0.2045739082526926,5.863774839155397,-1.5946846570042428,1.555453772924509,-0.33803956131064067,2.853071838792955,-0.8604002739853122,0
174,2024-09-20 21:21:59.920936960,TASK_BEGIN,014,0.5807063512999633,0.20726373730349737,5.754842338517113,-1.5637507157273893,1.5234118096567206,-0.31899335010925,2.621316859201311,-0.8046253906376376,0
175,2024-09-20 21:21:59.976069888,TASK_BEGIN,014,0.5580928290763403,0.21002873797533597,5.693999912845886,-1.5324254106493769,1.5012724095890997,-0.30229812992565924,2.4479572083608376,-0.7556287175470406,0
176,2024-09-20 21:22:00.054179072,TASK_BEGIN,014,0.5373756754355256,0.21248454303216935,5.684710703749695,-1.5025920599165297,1.4902121928736434,-0.288801706423045,2.338349000559605,-0.7159619566657238,0
177,2024-09-20 21:22:00.116197120,TASK_BEGIN,014,0.5196857382754285,0.21421271541363093,5.728106240420339,-1.476108231227963,1.4909296229398896,-0.2791836623571093,2.2966204374441856,-0.6876051867431977,0
178,2024-09-20 21:22:01.062290944,TASK_BEGIN,014,0.5061575889741508,0.21479789904140736,5.823070577631821,-1.454624357995201,1.5035796680120772,-0.2738803434838051,2.325767178455852,-0.671901158558857,0
179,2024-09-20 21:22:01.124313344,TASK_BEGIN,014,0.4979164220269628,0.2138613974548445,5.966615554833113,-1.4394817933780084,1.5277333536537323,-0.2730199738927743,2.4274102548609933,-0.6695125888700341,0
180,2024-09-20 21:22:01.202979072,TASK_BEGIN,014,0.4960574106576978,0.21108440580883606,6.154456846803884,-1.4316909665695143,1.5623726628915713,-0.2763926264659832,2.601318605601182,-0.6804044221288036,0
181,2024-09-20 21:22:01.270726912,TASK_BEGIN,014,0.5015948768594619,0.20621903383337542,6.381475115077309,-1.4319226783670616,1.6059301450636962,-0.2834676626112115,2.8446565420346737,-0.7038213555425752,0
182,2024-09-20 21:22:01.324685056,TASK_BEGIN,014,0.5153902362469015,0.19909181530347458,6.641909919354249,-1.440476568851392,1.656375088532961,-0.2934552872655013,3.1510338262572812,-0.7382461377514004,0
183,2024-09-20 21:22:01.401849088,TASK_BEGIN,014,0.5380804253605537,0.18960729296715695,6.929447473317754,-1.4572552885449679,1.7113296921125951,-0.305395427812456,3.509826243098584,-0.781413015212178,0
184,2024-09-20 21:22:01.463852032,TASK_BEGIN,014,0.5700116603815124,0.17775627933053786,7.237410372594642,-1.4817989923854469,1.7682229009537733,-0.3182556003718483,3.9063319296245287,-0.8304578328855068,0
185,2024-09-20 21:22:02.378311936,TASK_BEGIN,014,0.611161553115073,0.1636279874458459,7.559060069569371,-1.5134047234302863,1.8245201832664466,-0.3310302063932723,4.322917400728612,-0.8821698192368318,0
186,2024-09-20 21:22:02.456304896,TASK_BEGIN,014,0.6610329607992541,0.1474231591322383,7.887788132407751,-1.5512790423201834,1.8780126301878095,-0.3428370666417517,4.740802443887939,-0.9332516463747226,0
187,2024-09-20 21:22:02.518790144,TASK_BEGIN,014,0.7185372743620059,0.1294645583478821,8.216900738279877,-1.5946140228702255,1.9270597223236656,-0.35299706953574767,5.1419613945317195,-0.980573562443484,0
188,2024-09-20 21:22:02.595067136,TASK_BEGIN,014,0.781925630414367,0.1101991183131257,8.538927051920473,-1.6425059559254473,1.9706924926970624,-0.3610791311677523,5.510709901546696,-1.0214493609268094,0
189,2024-09-20 21:22:02.648737792,TASK_BEGIN,014,0.8488234237477709,0.09018845559626791,8.844778389519698,-1.693744371919209,2.0085890815040153,-0.3669049608952183,5.834689680227358,-1.0538865453822885,0
190,2024-09-20 21:22:02.727855872,TASK_BEGIN,014,0.9163810861278278,0.07008809388948835,9.123300220115917,-1.7466111581554495,2.0409985456185114,-0.3705254267086158,6.10519434382104,-1.0767223254118479,0
191,2024-09-20 21:22:02.789493248,TASK_BEGIN,014,0.9815188074253812,0.05061203662606883,9.361542175893863,-1.798841973493548,2.0686571927497184,-0.3721891201776263,6.317041974574563,-1.0896181196876487,0
192,2024-09-20 21:22:03.741309696,TASK_BEGIN,014,1.0412266654217692,0.032477299835510204,9.545604552631541,-1.8477735979307106,2.0926851893895497,-0.3723150963857708,6.468234587962057,-1.0929481952463873,0
193,2024-09-20 21:22:03.803309824,TASK_BEGIN,014,1.0928656498455531,0.016334424346261582,9.661687366874053,-1.8905585964237694,2.114436721957231,-0.3714615557281338,6.559514092182836,-1.087628352503425,0
194,2024-09-20 21:22:03.865309184,TASK_BEGIN,014,1.13440228008093,0.0027049662298382353,9.697166414238334,-1.9243422713616563,2.1353076732879592,-0.3702761050716458,6.593943067793654,-1.0749237697034624,0
195,2024-09-20 21:22:03.945191936,TASK_BEGIN,014,1.1645306787535226,-0.008054857804408967,9.641793189445986,-1.9464270423686605,2.1565489664574318,-0.36943124598822646,6.576715881837698,-1.0562811630791935,0
196,2024-09-20 21:22:04.004132096,TASK_BEGIN,014,1.182691646643609,-0.01576456230894102,9.489045647386318,-1.9544967611323831,2.1791332623253825,-0.3695613145777315,6.515214426187034,-1.0332273672293089,0
197,2024-09-20 21:22:04.066125056,TASK_BEGIN,014,1.189031720376747,-0.020416301947428047,9.237372229182743,-1.9468871325626185,2.2036705330485757,-0.37120624479805187,6.418956579494751,-1.0073272832677713,0
198,2024-09-20 21:22:04.144748032,TASK_BEGIN,014,1.184314785706104,-0.022160802017977724,8.891003280537282,-1.9228185326675595,2.2303557159720824,-0.37476096970050016,6.299011385617591,-0.9801356659549824,0
199,2024-09-20 21:22:05.092062976,TASK_BEGIN,014,1.1697632387139245,-0.021272877507257332,8.460197208075623,-1.8825346423101075,2.2589724995074665,-0.3804391912035004,6.16685190780713,-0.9530918555505692,0
200,2024-09-20 21:22:05.149400832,TASK_BEGIN,014,1.1468499388191236,-0.018097200436425744,7.960951235760324,-1.8273413475217983,2.288971671062968,-0.3882615813832002,6.033026770884015,-0.9273752497816434,0
201,2024-09-20 21:22:05.211885056,TASK_BEGIN,014,1.1171309856404752,-0.012993954311536214,7.414211699457972,-1.7595554017999364,2.3195917980111114,-0.39806888659798734,5.906025672466889,-0.9037782675918208,0
202,2024-09-20 21:22:05.289992192,TASK_BEGIN,014,1.0821770075131547,-0.006303159128059253,6.844527972352232,-1.68235457785291,2.349970696770901,-0.4095550091493095,5.791554980841565,-0.8826639671512726,0
203,2024-09-20 21:22:05.352062976,TASK_BEGIN,014,1.0435524467218134,0.0016733271853159367,6.278052551892025,-1.5995014617740735,2.379209354823893,-0.4223085399532888,5.692450346386657,-0.864072627283688,0
204,2024-09-20 21:22:05.430341120,TASK_BEGIN,014,1.0027534679510295,0.010685443659814156,5.740050125864446,-1.5149519684781283,2.4063799710197156,-0.43584475169042936,5.609338668925501,-0.847976244877872,0
205,2024-09-20 21:22:05.498196992,TASK_BEGIN,014,0.9610880701223332,0.020550316482372766,5.252544765310406,-1.432456367010419,2.430510666369963,-0.4496192284897178,5.5417103486925985,-0.8345746761507197,0
206,2024-09-20 21:22:06.427539968,TASK_BEGIN,014,0.9195556053040091,0.03116448530386221,4.832804059308933,-1.3552938992223973,2.45059244579488,-0.4630344419392226,5.488795079059915,-0.8244970834734122,0
207,2024-09-20 21:22:06.505162752,TASK_BEGIN,014,0.8787798744648726,0.04250599310032983,4.492864098289207,-1.2861816131266515,2.4656302858091097,-0.475461718244395,5.449939668811766,-0.8188546279717768,0
208,2024-09-20 21:22:06.567649792,TASK_BEGIN,014,0.8390176778443126,0.05462120053686436,4.23982579684749,-1.227277120829187,2.474732725579149,-0.4862914494484247,5.424635890341352,-0.8191890948296442,0
209,2024-09-20 21:22:06.643830016,TASK_BEGIN,014,0.8002378882522432,0.0675963728446169,4.076590647378962,-1.1801916475985041,2.4772090954498225,-0.49499831023303553,5.412442880823858,-0.8273560062566904,0
210,2024-09-20 21:22:06.713125120,TASK_BEGIN,014,0.7622336510230685,0.0815241267099188,4.002799491318512,-1.1460059423419253,2.4726286066998684,-0.501189930879134,5.412870346832849,-0.845304736536093,0
211,2024-09-20 21:22:06.768250880,TASK_BEGIN,014,0.7247226218699284,0.09647682003772934,4.015686781723455,-1.1253021224400697,2.460819689926791,-0.5046185486764786,5.425214583110014,-0.8747532935017613,0
212,2024-09-20 21:22:06.846359040,TASK_BEGIN,014,0.6874243134551375,0.11248787092023561,4.110560908633713,-1.118189253148141,2.4418268458457746,-0.5051630097482394,5.448435264547492,-0.9168724990899587,0
213,2024-09-20 21:22:07.787374080,TASK_BEGIN,014,0.6501302568108825,0.12953334331606192,4.28090287020951,-1.124307538012679,2.41585565442625,-0.5028057689241754,5.481050468012174,-0.9720571944843168,0
214,2024-09-20 21:22:07.860253184,TASK_BEGIN,014,0.6127686646301181,0.1475106108840674,4.5182913296682745,-1.1428254751563003,2.383238314628655,-0.4976265633367886,5.5207740629417215,-1.039734471482001,0
215,2024-09-20 21:22:07.926619136,TASK_BEGIN,014,0.5754386323966513,0.16622171898327043,4.812272534962218,-1.172434275254055,2.3444416464179714,-0.48981530241585775,5.563890863944699,-1.1182033139766971,0
216,2024-09-20 21:22:07.995396864,TASK_BEGIN,014,0.5383964533723229,0.1853725165336677,5.15027747506565,-1.2113421636033292,2.300101650168136,-0.47968548164095903,5.604986076939121,-1.204625623141946,0
217,2024-09-20 21:22:08.051278080,TASK_BEGIN,014,0.502018540995188,0.20458921159559118,5.51782195869405,-1.2572957988479858,2.2510469857829203,-0.46766756719349895,5.637555293971723,-1.2952389338689778,0
218,2024-09-20 21:22:08.128060160,TASK_BEGIN,014,0.46678158863457264,0.22344308243771113,5.899098765957951,-1.3076407393716627,2.198300280761575,-0.4542807895090928,5.655177719101035,-1.3856979461772347,0
219,2024-09-20 21:22:08.190058752,TASK_BEGIN,014,0.433262959015241,0.24147508149668515,6.277750828988206,-1.3593988770097154,2.1430720610289185,-0.44009623807429543,5.65246894237869,-1.4714026540627267,0
220,2024-09-20 21:22:09.135289088,TASK_BEGIN,014,0.4021254471725212,0.25822116515640364,6.637546467749208,-1.4093590120165018,2.086745289904815,-0.4256994356941861,5.62545392431643,-1.5477759665460662,0
221,2024-09-20 21:22:09.210125056,TASK_BEGIN,014,0.37405853044105264,0.2732425032321244,6.9628805866727035,-1.454208074541824,2.030821780156114,-0.41165118003183737,5.571674563194242,-1.6105683332209262,0
222,2024-09-20 21:22:09.277889792,TASK_BEGIN,014,0.3496875679981792,0.2861584612895899,7.239258092141542,-1.4907163172026423,1.976818121007532,-0.3984472342709078,5.490496735227417,-1.6562560407799811,0
223,2024-09-20 21:22:09.336176128,TASK_BEGIN,014,0.3294900059400741,0.29667413070939674,7.454049083703514,-1.5159656063033833,1.9261555665368215,-0.38648671083989383,5.38365879982367,-1.682482009855477,0
224,2024-09-20 21:22:09.398660864,TASK_BEGIN,014,0.3137478101241875,0.3045965334183776,7.5976487300104925,-1.527603993867446,1.8801122685431049,-0.3760614344284949,5.25565922564275,-1.6883925829606201,0
225,2024-09-20 21:22:09.476326912,TASK_BEGIN,014,0.3025293741371099,0.30984185909043527,7.664762089788275,-1.5241015673359066,1.8398509177009945,-0.36736640835878825,5.11356111764652,-1.6747415340353413,0
226,2024-09-20 21:22:09.538811904,TASK_BEGIN,014,0.29567228333842915,0.31244118861841136,7.655346243359737,-1.504975915862485,1.806467324621361,-0.3605162672195968,4.966180104898574,-1.6437466100936815,0
227,2024-09-20 21:22:10.490910976,TASK_BEGIN,014,0.29275307331781697,0.3125477296815258,7.574936711112384,-1.470952357718062,1.781006959072764,-0.35555430117925096,4.823031243893049,-1.5987857326547539,0
228,2024-09-20 21:22:10.560802048,TASK_BEGIN,014,0.2930607394461741,0.31043897626610484,7.4343047668821844,-1.4240100000017386,1.764444986983479,-0.3524569643377125,4.693397990502473,-1.544017902079969,0
229,2024-09-20 21:22:10.625166080,TASK_BEGIN,014,0.29560889628926773,0.30650344617499975,7.248475265997996,-1.3672604288501702,1.7576462296987438,-0.3511451196998151,4.5855544643178066,-1.4839610259712075,0
230,2024-09-20 21:22:10.687665152,TASK_BEGIN,014,0.2992141561278956,0.3012074904589443,7.035165438840905,-1.304635508846171,1.761296652671094,-0.3515044394075214,4.506073912432133,-1.4230606390007676,0
231,2024-09-20 21:22:10.750149888,TASK_BEGIN,014,0.30263374462551934,0.29504739799105295,6.8127592511075585,-1.2404223039752151,1.7757849058479824,-0.35340561793148784,4.459325081925379,-1.3653143633564886,0
232,2024-09-20 21:22:10.831738112,TASK_BEGIN,014,0.304713702163356,0.2884999137066435,6.598109579081563,-1.178760351550668,1.8010477179867699,-0.35671516102288936,4.447250303897495,-1.313996302773406,0
233,2024-09-20 21:22:10.899492864,TASK_BEGIN,014,0.3044914890158442,0.28198525752803943,6.404689670105087,-1.1232509108259026,1.836432067725134,-0.3612957714782436,4.469358461935423,-1.2714770977510101,0
234,2024-09-20 21:22:11.815095040,TASK_BEGIN,014,0.3012419838174434,0.2758464117620608,6.241598240662153,-1.0767576725792558,1.880633552983164,-0.3670040521061123,4.5228325720180145,-1.2391060972340906,0
235,2024-09-20 21:22:11.877134080,TASK_BEGIN,014,0.29450750054729685,0.2703353722204726,6.113549061896433,-1.0413511878307629,1.9317564548648924,-0.3736996930629661,4.602650764175361,-1.2171159832998095,0
236,2024-09-20 21:22:11.952914944,TASK_BEGIN,014,0.28415259419503025,0.2655961062900856,6.021526350042922,-1.0182932954232087,1.9874940379538293,-0.38127123886937603,4.701643970406728,-1.2045631241635952,0
237,2024-09-20 21:22:12.016841728,TASK_BEGIN,014,0.2704407760584312,0.2616448917307333,5.96366207838696,-1.0080163538318212,2.0453544608053638,-0.38965827174448586,4.810663842724976,-1.1993984370012452,0
238,2024-09-20 21:22:12.088361984,TASK_BEGIN,014,0.25408747070468357,0.2583602845137966,5.936157006083546,-1.0101367070994076,2.1028369760824828,-0.39884148893973626,4.919201757291091,-1.1987350484933283,0
239,2024-09-20 21:22:12.156033024,TASK_BEGIN,014,0.23623564542662423,0.25549705660655847,5.934285693657822,-1.0235557963151471,2.157524447131984,-0.40879648078564396,5.016488758620577,-1.1992520923681573,0
240,2024-09-20 21:22:12.217678080,TASK_BEGIN,014,0.21834068982402519,0.2527265468986697,5.9533783582646285,-1.0466452855545727,2.2071325919015536,-0.4194351081405377,5.092697328699644,-1.1976227099433783,0
241,2024-09-20 21:22:13.133488896,TASK_BEGIN,014,0.20200831505311978,0.24968876123336786,5.9894925946418445,-1.0774650492615057,2.249580059844411,-0.43056430140618235,5.139833332553083,-1.1909028875321335,0
242,2024-09-20 21:22:13.209112832,TASK_BEGIN,014,0.1888485409584663,0.2460358293395295,6.039648052174138,-1.1139764609159022,2.28310917367066,-0.44187923391317313,5.1521035138665905,-1.1768362867631836,0
243,2024-09-20 21:22:13.272419072,TASK_BEGIN,014,0.18037586644390807,0.24145868173935528,6.10180779456854,-1.1542479810962993,2.306421962924525,-0.45298829139807745,5.125755998275017,-1.154007515578781,0
244,2024-09-20 21:22:13.334904064,TASK_BEGIN,014,0.17793727609550283,0.23570623179774797,6.1748361304388455,-1.1966440796821733,2.318757462428464,-0.46345279905746073,5.05864423456718,-1.121823094452066,0
245,2024-09-20 21:22:13.396926976,TASK_BEGIN,014,0.18263220576964043,0.22860869889986063,6.258381776545081,-1.2399490744496477,2.3198819448366015,-0.472825982576393,4.949941412744052,-1.0804056431244637,0
246,2024-09-20 21:22:13.475035904,TASK_BEGIN,014,0.19521604995076283,0.22010310980891098,6.352465295740813,-1.283374628185112,2.310051738117383,-0.48068973862830044,4.800272397961165,-1.0305062210243536,0
247,2024-09-20 21:22:13.539926016,TASK_BEGIN,014,0.21601370928919492,0.2102481252666115,6.45678818876398,-1.3264582288529099,2.290018142354853,-0.48669650172272255,4.61207379901878,-0.9734435131099733,0
248,2024-09-20 21:22:14.492562944,TASK_BEGIN,014,0.2448673540998208,0.19921783817426073,6.570064252831818,-1.3689133453675673,2.2610628037022824,-0.4906161544984174,4.389711528839371,-0.9110111453745796,0
249,2024-09-20 21:22:14.555048192,TASK_BEGIN,014,0.28112225018825954,0.1872739302577193,6.689626281329997,-1.4104883397652683,2.2249927173875674,-0.49237446034159765,4.139137031333781,-0.8453349586046782,0
250,2024-09-20 21:22:14.628181760,TASK_BEGIN,014,0.32365413564124695,0.17472453376105587,6.8113821532008565,-1.4508601203465703,2.1840452855505,-0.4920667762401861,3.867320057988528,-0.778723315603929,0
251,2024-09-20 21:22:14.685273856,TASK_BEGIN,014,0.3709397693276317,0.1618844401579932,6.930157739895909,-1.4895813995953853,2.1407139215442945,-0.48994225408810876,3.5818274201987714,-0.7135529415153076,0
252,2024-09-20 21:22:14.763681792,TASK_BEGIN,014,0.42115638456020194,0.1490500339480306,7.04041543211569,-1.526100956542103,2.097552655562412,-0.4863691982429908,3.2907501254666225,-0.6522062130165749,0
253,2024-09-20 21:22:14.831453184,TASK_BEGIN,014,0.4722993562666299,0.13648935753276875,7.137122743789636,-1.5598356711996306,2.05702326143656,-0.48179982323804316,3.0029522958121744,-0.5970624719733508,0
254,2024-09-20 21:22:14.887487744,TASK_BEGIN,014,0.522324427738045,0.12443664853193236,7.2164608416102904,-1.590243429298235,2.021409017087769,-0.4767468911571068,2.728378551492731,-0.5505026470057167,0
255,2024-09-20 21:22:15.841517824,TASK_BEGIN,014,0.5693124433898438,0.11308640766243364,7.276254218441323,-1.6168892607040966,1.9927715353039424,-0.4717701643678288,2.478051352260632,-0.5148279357619926,0
256,2024-09-20 21:22:15.903112704,TASK_BEGIN,014,0.6116220495000471,0.10259399938749234,7.316116160420673,-1.6395312618775681,1.9729050214589758,-0.4674588652671734,2.2635685795040152,-0.4920383996045241,0
257,2024-09-20 21:22:15.965164032,TASK_BEGIN,014,0.6479831423366221,0.09308863261522854,7.33724846594769,-1.6582096823300017,1.9632567907892902,-0.4643974841979402,2.0962421238393403,-0.48355368957011025,0
258,2024-09-20 21:22:16.045854976,TASK_BEGIN,014,0.6775220567799227,0.08469145579584686,7.341921926215602,-1.6732813296707403,1.9648210063172795,-0.46311540308150745,1.986173187711117,-0.49000746248274335,0
259,2024-09-20 21:22:16.113570048,TASK_BEGIN,014,0.6997554051310719,0.07752527346568831,7.332878384394868,-1.6853728827089638,1.9780329007231086,-0.4640321487401442,1.9414358386943802,-0.5111650490919546,0
260,2024-09-20 21:22:16.181242880,TASK_BEGIN,014,0.7145806242085571,0.07171207294067064,7.312885252178302,-1.69527380060401,2.002668577155832,-0.4674076766276923,1.9674048786265563,-0.5459414392644836,0
261,2024-09-20 21:22:16.248946944,TASK_BEGIN,014,0.7222580704577428,0.06736605261665293,7.284445412870037,-1.7037922919217112,2.0377337005145892,-0.4732990725069944,2.06626199279789,-0.5924974185153821,0
262,2024-09-20 21:22:17.192087040,TASK_BEGIN,014,0.7233766381462401,0.06459016574411074,7.249583044069437,-1.7116007974838563,2.0813601973524656,-0.48152870081392063,2.2367018415090545,-0.6484024715698213,0
263,2024-09-20 21:22:17.260539136,TASK_BEGIN,014,0.7188007774731795,0.06347774173750687,7.2097178870366845,-1.7191161489503453,2.1307949847242686,-0.4916797681152998,2.473821321504333,-0.7108451851917765,0
264,2024-09-20 21:22:17.315291904,TASK_BEGIN,014,0.7095934136340887,0.06411357879205438,7.165640073514532,-1.7264367903029927,2.182567577810975,-0.5031341298628573,2.769223237343433,-0.776862667436626,0
265,2024-09-20 21:22:17.392944128,TASK_BEGIN,014,0.6969173425912232,0.06656577189506455,7.117520957017172,-1.7333170789293282,2.232833998230235,-0.5151516796825123,3.1114214764981534,-0.8435516106259363,0
266,2024-09-20 21:22:17.463633152,TASK_BEGIN,014,0.681927242362456,0.07086592152417351,7.064888675086762,-1.7391574183006697,2.2777926559922457,-0.5269742811352045,3.486524719129836,-0.9082337941966653,0
267,2024-09-20 21:22:17.517310976,TASK_BEGIN,014,0.6656607007098841,0.07698510094452365,7.006529180857905,-1.7430177025688574,2.3140524067918395,-0.5379283387441968,3.879026472402771,-0.9685900171434049,0
268,2024-09-20 21:22:17.599106816,TASK_BEGIN,014,0.6489348737892462,0.08481637872819718,6.94034311396373,-1.7436893722321551,2.3388992544621523,-0.547500658882531,4.272566720798289,-1.0227897835633857,0
269,2024-09-20 21:22:18.538364928,TASK_BEGIN,014,0.6322597975724481,0.09417226600644316,6.863327523988391,-1.7398614429458699,2.3504719687854676,-0.5553736942949514,4.6506238091778505,-1.0695875448714078,0
270,2024-09-20 21:22:18.608476928,TASK_BEGIN,014,0.6157816361556483,0.1047995866164326,6.7718786939055144,-1.7303666038698602,2.347864640230272,-0.5614225800319854,4.997149589870193,-1.1083086600148826,0
271,2024-09-20 21:22:18.665455104,TASK_BEGIN,014,0.5992705410586907,0.11640677844737221,6.662405700478439,-1.7144345405820913,2.331134570367072,-0.5656829300983636,5.297260835615427,-1.1386941974900229,0
272,2024-09-20 21:22:18.743961088,TASK_BEGIN,014,0.5821681214456538,0.12869408943293242,6.5320517585452516,-1.6918671553055904,2.301174361934081,-0.5682949825240009,5.538072029222625,-1.1606598713705405,0
273,2024-09-20 21:22:18.804350208,TASK_BEGIN,014,0.5636959049126081,0.14137850779769723,6.379321417624237,-1.663069005632587,2.2594642125632864,-0.5694316845722022,5.709580987963487,-1.1740660660032212,0
274,2024-09-20 21:22:18.879448064,TASK_BEGIN,014,0.5429939963327219,0.15421172670121663,6.204463611017745,-1.6289011572157002,2.2077937078119936,-0.5692258443878204,5.8054769780045765,-1.1785936874451797,0
275,2024-09-20 21:22:18.943105024,TASK_BEGIN,014,0.5192434781271302,0.16699381399953786,6.009528793850614,-1.590409461840548,2.148043663918913,-0.5677129762960246,5.823761307432766,-1.1737750522726313,0
276,2024-09-20 21:22:19.878046976,TASK_BEGIN,014,0.4917538533280095,0.1795818241127722,5.798189826782657,-1.5485678483571752,2.0820621322088506,-0.5648011243630345,5.76702591089564,-1.159134305868913,0
277,2024-09-20 21:22:19.955287808,TASK_BEGIN,014,0.4600263174896542,0.19188989911632323,5.575524938197516,-1.5041643541774625,2.0116156270405217,-0.5602727040284281,5.642240031458062,-1.1343246132723503,0
278,2024-09-20 21:22:20.017774080,TASK_BEGIN,014,0.4237997732193488,0.2038828542981214,5.347822862627744,-1.4578356718831698,1.938378256931289,-0.5538188748384183,5.459924813775896,-1.0991880937960234,0
279,2024-09-20 21:22:20.079327232,TASK_BEGIN,014,0.38308231976471474,0.21556952480506053,5.122313311571052,-1.4101570163150865,1.863931196969705,-0.5450984747844392,5.2327271846816235,-1.0537559918111274,0
280,2024-09-20 21:22:20.161243904,TASK_BEGIN,014,0.33818480874709694,0.22699655719127237,4.906791464649795,-1.3617149712765542,1.7897593421540359,-0.5338007324129346,4.97375624020469,-0.9982423577093231,0
281,2024-09-20 21:22:20.229043968,TASK_BEGIN,014,0.2897723737905041,0.23823497302856642,4.709191306920584,-1.3131651140968892,1.7172376152534063,-0.5196922900839297,4.695262765544514,-0.9330684852741327,0
282,2024-09-20 21:22:20.296107008,TASK_BEGIN,014,0.23892392916347494,0.2493526367095264,4.53712259067864,-1.2652957243623724,1.6475929892780652,-0.5026482267586155,4.408029093260824,-0.8589520832616384,0
283,2024-09-20 21:22:21.240641024,TASK_BEGIN,014,0.18716566813701171,0.26037644504769847,4.397373282269499,-1.2190805978816845,1.5818247273886472,-0.48267636738916114,4.121416982110771,-0.7770868272580188,0
284,2024-09-20 21:22:21.305192960,TASK_BEGIN,014,0.13643530122792344,0.2712599938577896,4.295412744649775,-1.1756658535172646,1.5205926855777034,-0.4599348286766397,3.8437110718899277,-0.6893810741444986,0
285,2024-09-20 21:22:21.367288064,TASK_BEGIN,014,0.08893752910602108,0.28187668656670106,4.234928540397018,-1.1362466431023501,1.4641340064386206,-0.43473827016354305,3.582370446000094,-0.5986486583204812,0
286,2024-09-20 21:22:21.429570048,TASK_BEGIN,014,0.046887162529700224,0.29204780940243,4.217423359994563,-1.101860707087311,1.4122877424803961,-0.4075563558509907,3.3440350075962013,-0.5086297289749254,0
287,2024-09-20 21:22:21.507678976,TASK_BEGIN,014,0.01220596942739265,0.30159384564780906,4.241949264543385,-1.073199247746096,1.3646536464086474,-0.3790090077961835,3.1343826202616687,-0.42380511498577556,0
288,2024-09-20 21:22:21.570163968,TASK_BEGIN,014,-0.013720713448425,0.3103830496279445,4.3051235632879195,-1.0505355511507222,1.3208217278635541,-0.34985258630406224,2.9579764831693867,-0.3490653256760672,0
289,2024-09-20 21:22:21.646892032,TASK_BEGIN,014,-0.030161278777613806,0.3183559923601539,4.401480854134591,-1.0337927302908785,1.2805700827243447,-0.32094640601544794,2.8180793277950027,-0.28930041907474174,0
290,2024-09-20 21:22:22.562632192,TASK_BEGIN,014,-0.037033116968155394,0.32552066284283887,4.523971394374754,-1.0226830172894812,1.2439713163525616,-0.2931970684720427,2.716310115455895,-0.24894529971920293,0
291,2024-09-20 21:22:22.629282048,TASK_BEGIN,014,-0.03480929914691123,0.331925288680965,4.664326923634224,-1.0168266611405472,1.2114207013395817,-0.2674909822739936,2.652202615776538,-0.23153074871903948,0
292,2024-09-20 21:22:22.702586880,TASK_BEGIN,014,-0.024365173367597245,0.3376208977742267,4.813238416205286,-1.0158075894872787,1.1836397862401693,-0.24463498247345788,2.6229705041589244,-0.23931220971585745,0
293,2024-09-20 21:22:22.768600064,TASK_BEGIN,014,-0.006799777247354247,0.3426270632694862,4.960579223803374,-1.0191799744474535,1.1616863289803336,-0.22532192278625326,2.623716618555573,-0.27303081580085226,0
294,2024-09-20 21:22:22.838040064,TASK_BEGIN,014,0.016712748750850596,0.34691388219481745,5.0959321806968525,-1.0264485021945744,1.1469319875323867,-0.21011857713495596,2.648025937774315,-0.3318278198847411,0
295,2024-09-20 21:22:22.905665024,TASK_BEGIN,014,0.044996766302893,0.35040686710779273,5.209407762757833,-1.0370285040736145,1.1409371653919873,-0.1994552140826163,2.6887555476442118,-0.41331032556558356,0
296,2024-09-20 21:22:22.973351936,TASK_BEGIN,014,0.07688812136057878,0.3530090168759249,5.292474622472222,-1.0501958782560137,1.1452174345377202,-0.19360203946796622,2.7389423571530993,-0.5137632551280749,0
297,2024-09-20 21:22:23.892129024,TASK_BEGIN,014,0.11124782635630559,0.35462558921451653,5.338564586213369,-1.0650569634240998,1.1609812318693713,-0.1926393989592855,2.792797391279792,-0.6285016271783213,0
298,2024-09-20 21:22:23.948809984,TASK_BEGIN,014,0.1470139666226923,0.3551793702618902,5.343460226375498,-1.080570215815078,1.1889207667493302,-0.19644094075980156,2.8465992172788916,-0.7523136013624695,0
299,2024-09-20 21:22:24.027601152,TASK_BEGIN,014,0.18327621161534885,0.3546133467371293,5.305534809090998,-1.0956188875933854,1.2290891542135463,-0.20468459058461086,2.8991354204615174,-0.8798841263071259,0
300,2024-09-20 21:22:24.088058880,TASK_BEGIN,014,0.21933689520031957,0.35288529321100803,5.225759291049611,-1.109103777314309,1.2808745007925635,-0.2168926629866752,2.951494444820134,-1.0061045664625787,0
301,2024-09-20 21:22:24.150038016,TASK_BEGIN,014,0.25473388425680155,0.34996009923315674,5.107385704512889,-1.120036887371738,1.3430756675941535,-0.23248754949141515,3.0064311293150063,-1.1262589578869993,0
302,2024-09-20 21:22:24.226843904,TASK_BEGIN,014,0.2892248496200926,0.3458030275633848,4.95539586847772,-1.1276349204463931,1.4140639771528973,-0.25084526864590584,3.067761442966602,-1.2361357510498374,0
303,2024-09-20 21:22:24.291739136,TASK_BEGIN,014,0.32275675341448223,0.3403761636369237,4.775889183870193,-1.1314020092694537,1.4919968403122839,-0.27134146227344225,3.1400853005901648,-1.3321223215183813,0
304,2024-09-20 21:22:25.238283008,TASK_BEGIN,014,0.3554466648498051,0.33363878844452916,4.575557948559373,-1.1311855422515136,1.5750437681599274,-0.2933975201039912,3.228791962305521,-1.4113228070454182,0
305,2024-09-20 21:22:25.310036992,TASK_BEGIN,014,0.3875692371357285,0.32554807398269153,4.36132907254168,-1.1271909487089937,1.6615775176228988,-0.3165302007837343,3.3399859564298873,-1.4716905490747474,0
306,2024-09-20 21:22:25.362333952,TASK_BEGIN,014,0.41950902188531974,0.3160580273243972,4.140121542338659,-1.1199330734916955,1.7502756522864604,-0.34039088385647925,3.4799385388133772,-1.5121136044651051,0
307,2024-09-20 21:22:25.439597824,TASK_BEGIN,014,0.4516460778229345,0.30512205635875755,3.9186522174811906,-1.1101202715814564,1.8401031525033378,-0.3647726950830411,3.6540627545613114,-1.5324037811871034,0
308,2024-09-20 21:22:25.506866944,TASK_BEGIN,014,0.48420632212488113,0.29270356280975096,3.7033370702631268,-1.0985207477944672,1.9302125052350079,-0.38957862212447936,3.8658353586316725,-1.5332149175730396,0
309,2024-09-20 21:22:25.580781056,TASK_BEGIN,014,0.5171554886840974,0.27878835802699775,3.500289215918779,-1.0858776237516887,2.0198393347380854,-0.41476618442212154,4.116109143927588,-1.5159694294624404,0
310,2024-09-20 21:22:25.643718912,TASK_BEGIN,014,0.5501934338747494,0.26338918192971733,3.3152470819416,-1.0728861561502767,2.108230878883901,-0.4402890761862757,4.402977725776871,-1.4828333635982915,0
311,2024-09-20 21:22:26.582136064,TASK_BEGIN,014,0.5828396141993548,0.2465420431809215,3.153306219512927,-1.060187956612621,2.194576094917891,-0.46604383460915066,4.722038956013202,-1.4366857753600266,0
312,2024-09-20 21:22:26.658763008,TASK_BEGIN,014,0.6145559751093036,0.22830198509812127,3.0185927125788603,-1.048346368884171,2.2779080371201936,-0.4918209715632328,5.066748075885554,-1.3809960577685998,0
313,2024-09-20 21:22:26.721247744,TASK_BEGIN,014,0.6448564199477893,0.2087435114402207,2.914195276609953,-1.0378275829662607,2.3570110598792917,-0.5172648449997771,5.428687064350911,-1.3195968887638707,0
314,2024-09-20 21:22:26.795707904,TASK_BEGIN,014,0.6733790109518232,0.18796625254179494,2.842503935469864,-1.0290332088690788,2.4303919773468197,-0.541855252026968,5.797816858552808,-1.2564182816072123,0
315,2024-09-20 21:22:26.861272320,TASK_BEGIN,014,0.6999209991029156,0.1661040656711269,2.805693279399,-1.0223742591880567,2.4963379153321306,-0.5649251297049205,6.162846888036347,-1.1952336309105602,0
316,2024-09-20 21:22:26.931095040,TASK_BEGIN,014,0.7244461921642299,0.14333311671284724,2.805896386055158,-1.0183238670780173,2.5530402091784867,-0.5857200172430322,6.511787140340371,-1.139420416429101,0
317,2024-09-20 21:22:26.985466112,TASK_BEGIN,014,0.747066876130567,0.11987511576651519,2.8449004268637776,-1.0174114398824141,2.598747006702373,-0.6034873332025062,6.832678467429308,-1.0917547255590287,0
318,2024-09-20 21:22:27.937657856,TASK_BEGIN,014,0.7679951546015732,0.09599760200923542,2.9236252034562784,-1.020177990731063,2.6319164709542564,-0.6175689747544424,7.114441105620103,-1.0542960631441183,0
319,2024-09-20 21:22:28.000402176,TASK_BEGIN,014,0.7874758330695429,0.07201438908328987,3.0417828257663704,-1.0271304657470026,2.651373487978191,-0.6274770277128073,7.347751664843461,-1.028386826191421,0
320,2024-09-20 21:22:28.077878784,TASK_BEGIN,014,0.8057373182126548,0.04828169964650517,3.1979438064054944,-1.0387182554718448,2.656485302621178,-0.6329503696106421,7.525831794913199,-1.0147219483094165,0
321,2024-09-20 21:22:28.139624960,TASK_BEGIN,014,0.8229887415080216,0.025181052141234103,3.389939340774858,-1.0553350655713922,2.6473320907138778,-0.6339927913272755,7.644935014821232,-1.013419352256489,0
322,2024-09-20 21:22:28.201691904,TASK_BEGIN,014,0.8394574866297542,0.003087871323268772,3.6152966532858177,-1.0773339878988308,2.624808469808125,-0.6308845188207305,7.704294552187012,-1.0240513673099017,0
323,2024-09-20 21:22:28.279020032,TASK_BEGIN,014,0.8554338052034961,-0.01766270209557916,3.8713866341076097,-1.1050326917548126,2.5906030106804048,-0.6241598556010618,7.705568661456873,-1.0456457042456522,0
324,2024-09-20 21:22:28.341039104,TASK_BEGIN,014,0.8712866638495261,-0.03679775639291751,4.155145979745223,-1.13868149430538,2.5470439703903085,-0.6145524040559993,7.6521974834636515,-1.0767077119014459,0
325,2024-09-20 21:22:29.292048128,TASK_BEGIN,014,0.8874442545340043,-0.05411032523024207,4.462496573877989,-1.1783919588312248,2.496847815970817,-0.6029190614431973,7.549128448583741,-1.1153356340884535,0
326,2024-09-20 21:22:29.359426048,TASK_BEGIN,014,0.9043695274483059,-0.06945224704966783,4.787729626689582,-1.2240530599678234,2.442841245653525,-0.5901635266304539,7.403010156519148,-1.1594563011556378,0
327,2024-09-20 21:22:29.427928832,TASK_BEGIN,014,0.9225580577674107,-0.08272937320218883,5.123031335634603,-1.275245433561226,2.3877088523082146,-0.5771757307234839,7.222551409201389,-1.2071038374919723,0
328,2024-09-20 21:22:29.485947904,TASK_BEGIN,014,0.942541212475587,-0.09390555710789975,5.458219595718215,-1.3311476695871554,2.3337726171605455,-0.564785049242061,7.018621521401479,-1.2566023179462202,0
329,2024-09-20 21:22:29.563401984,TASK_BEGIN,014,0.964852479496215,-0.10300926132570366,5.780835127685435,-1.3904611124785815,2.2828060986192806,-0.5537187083839932,6.803837190040428,-1.306565246156453,0
330,2024-09-20 21:22:29.625879808,TASK_BEGIN,014,0.9899380204686851,-0.11013049206071794,6.076806976706565,-1.451411727153326,2.2359234442530505,-0.5445698547274774,6.591640209522031,-1.3557380064135756,0
331,2024-09-20 21:22:29.698875904,TASK_BEGIN,014,1.0180271676562807,-0.1154010396632369,6.331768057821528,-1.5118717966075352,2.193587169977287,-0.5377875025160557,6.395063648402696,-1.402792763772579,0
332,2024-09-20 21:22:30.642781952,TASK_BEGIN,014,1.048999257069138,-0.1189616042860522,6.532737621055749,-1.5695788937419837,2.1557090937522263,-0.5336855551470013,6.22544494455193,-1.4461884902262447,0
333,2024-09-20 21:22:30.703654144,TASK_BEGIN,014,1.0822851763670334,-0.12092491929997684,6.6696098718746,-1.6223591951575314,2.1217508831283154,-0.5324464881050025,6.091301388249323,-1.4841524789596565,0
334,2024-09-20 21:22:30.777424128,TASK_BEGIN,014,1.1168232176962816,-0.12134133986938003,6.73601789528197,-1.6682596603412971,2.0907700013025643,-0.534098609578986,5.99754313193466,-1.514772328880261,0
335,2024-09-20 21:22:30.846030080,TASK_BEGIN,014,1.1510769070463807,-0.12017126499946423,6.729510739861482,-1.705555069784331,2.0614577366256803,-0.5384749393914823,5.945127099468826,-1.5361340807639017,0
336,2024-09-20 21:22:30.913714944,TASK_BEGIN,014,1.1831234104228154,-0.11727098320740646,6.65120479069882,-1.7326652020281987,2.0322343258740188,-0.5451801259911304,5.931056205748324,-1.5464312772881181,0
337,2024-09-20 21:22:30.966628096,TASK_BEGIN,014,1.210796232240164,-0.112394923964939,6.505136599735169,-1.7480705098912217,2.0013987663423074,-0.5535829112187066,5.948533349067063,-1.5440162669772552,0
338,2024-09-20 21:22:31.044306176,TASK_BEGIN,014,1.231830613877267,-0.10520824123456687,6.297586661255395,-1.750319846851457,1.9672984363763268,-0.5628400668430233,5.987319494480214,-1.5274324810558215,0
339,2024-09-20 21:22:31.987959040,TASK_BEGIN,014,1.2439755372727732,-0.09530637318210072,6.036627289367364,-1.7381641170302171,1.9285087906382448,-0.5719556241059839,6.034554693909784,-1.495493452035778,0
340,2024-09-20 21:22:32.049957888,TASK_BEGIN,014,1.2450914550344025,-0.08225081220800186,5.731987366287455,-1.710779014181188,1.8840276961609217,-0.579874094656955,6.0760882221844055,-1.4474343826145404,0
341,2024-09-20 21:22:32.128093952,TASK_BEGIN,014,1.2332733822748256,-0.0656279291958201,5.395090194840031,-1.6680103267202229,1.8334685242947244,-0.5855968602366085,6.098024873404693,-1.3831031418305475,0
342,2024-09-20 21:22:32.195776000,TASK_BEGIN,014,1.20699838852784,-0.04511759027592808,5.039023488736446,-1.6105829718834284,1.7771943739153901,-0.5882997742457787,6.088075018205856,-1.3031219297815508,0
343,2024-09-20 21:22:32.263532032,TASK_BEGIN,014,1.1652567176139987,-0.020548420032287223,4.6782886282978575,-1.5402351977282285,1.7163176576707306,-0.5874204902926242,6.03632829032023,-1.2089357665280605,0
344,2024-09-20 21:22:32.329773056,TASK_BEGIN,014,1.1076474967448664,0.008069146841815703,4.328262312432061,-1.459749688306164,1.6525519132376283,-0.5826936882906368,5.935335712855957,-1.1027067063720208,0
345,2024-09-20 21:22:32.388534272,TASK_BEGIN,014,1.0344612166207592,0.040522388045453696,4.004333462548849,-1.3728499578471813,1.5879953087626117,-0.5741396075764098,5.779872058204162,-0.9871108603280033,0
346,2024-09-20 21:22:33.317661184,TASK_BEGIN,014,0.9467565516054817,0.07637748107968775,3.7207761396276213,-1.2839435295139137,1.524934337436642,-0.5620251800306211,5.566924097451094,-0.865149242746218,0
347,2024-09-20 21:22:33.385467904,TASK_BEGIN,014,0.8463950495530929,0.11496205489291246,3.4895546132546107,-1.1977409102532897,1.4656822555230218,-0.5468097810575356,5.296125091420016,-0.7400556725814645,0
348,2024-09-20 21:22:33.453152768,TASK_BEGIN,014,0.7359983232534527,0.1553547646078793,3.3192846078728504,-1.118823229931641,1.4124051363534509,-0.5290809642350828,4.970418280040219,-0.6153071219940912,0
349,2024-09-20 21:22:33.505892096,TASK_BEGIN,014,0.6188293716167202,0.1963870600112863,3.214538114114328,-1.0512348489969716,1.3669000972914986,-0.509487989869605,4.5964375048480814,-0.49464289086663227,0
350,2024-09-20 21:22:33.588592896,TASK_BEGIN,014,0.49861920829569806,0.23666120196166518,3.175657696717607,-0.9981556517787875,1.3303546431444893,-0.4886825025103311,4.184144073119222,-0.38195392804008815,0
351,2024-09-20 21:22:33.655617024,TASK_BEGIN,014,0.3793639867925166,0.27458457749376547,3.199130533534677,-0.9616776820556951,1.3031625619765206,-0.46727150648086235,3.7456823592395025,-0.28095960451489016,0
352,2024-09-20 21:22:33.715368960,TASK_BEGIN,014,0.26512338782728845,0.3084147159961185,3.278356531858789,-0.9426713148138323,1.2848746486670797,-0.4457862830457777,3.293810508710195,-0.19470345317609863,0
353,2024-09-20 21:22:34.638025216,TASK_BEGIN,014,0.1598377495793816,0.3363114410399617,3.404582827123464,-0.9407179745472148,1.274341265874093,-0.42467589653461296,2.8404031833880787,-0.12502349498743798,0
354,2024-09-20 21:22:34.711115008,TASK_BEGIN,014,0.0671533774110795,0.3563997316095043,3.567934198229653,-0.9541442702023384,1.2700377380174708,-0.4043292688886152,2.3954473189990773,-0.07221639169898401,0
355,2024-09-20 21:22:34.776827904,TASK_BEGIN,014,-0.009752461239937064,0.36684738034965914,3.7585292328685798,-0.9802265777928441,1.2704641259626204,-0.38511048917834545,1.9666907124990929,-0.035048980678982815,0
356,2024-09-20 21:22:34.846352128,TASK_BEGIN,014,-0.06832427040918572,0.36595447848092727,3.967498348561679,-1.0155512652707797,1.2744806998428169,-0.3673862999608839,1.5598638764077186,-0.011117556514962438,0
357,2024-09-20 21:22:34.914249984,TASK_BEGIN,014,-0.10672656550089267,0.35224408810032837,4.18761685283383,-1.0564133753507512,1.2815096296605217,-0.35154350245725907,1.1792951075453177,0.0025792872835363493,0
358,2024-09-20 21:22:34.982023936,TASK_BEGIN,014,-0.12387940704269068,0.32454098081991645,4.4133797489141555,-1.0991447444146771,1.2915997637513665,-0.3380054600158843,0.8286525079150644,0.009038184719350893,0
359,2024-09-20 21:22:35.049702912,TASK_BEGIN,014,-0.119444659125357,0.28203042676279766,4.640494441641846,-1.140330739826105,1.3053615460217847,-0.3272436526151313,0.511502139266242,0.010782118344363779,0
360,2024-09-20 21:22:35.976747008,TASK_BEGIN,014,-0.09377296294306324,0.22429787184579067,4.865000231944309,-1.1769305242915582,1.323786492089449,-0.3197659988826675,0.23153380289200534,0.009618670401143482,0
361,2024-09-20 21:22:36.054390016,TASK_BEGIN,014,-0.04780765584580702,0.15135528425982717,5.082538728700102,-1.2063619004617092,1.3479955394211782,-0.31607074659460255,-0.007402507505450308,0.006599016662241078,0
362,2024-09-20 21:22:36.116355840,TASK_BEGIN,014,0.01705349849047424,0.0636578234328286,5.288212177864978,-1.2266097860834646,1.3789792105218457,-0.31657813644881483,-0.2012238170155022,0.002073697020848801,0
363,2024-09-20 21:22:36.194439936,TASK_BEGIN,014,0.09910854454641176,-0.03788896648749055,5.476929156070729,-1.236349786645511,1.4173799653843537,-0.3215674916068254,-0.3454838366840706,-0.004224977612162961,0
364,2024-09-20 21:22:36.262741248,TASK_BEGIN,014,0.1964585486000304,-0.15193173231749624,5.643860473382285,-1.2350273971071608,1.463339277745106,-0.3311370661319122,-0.43537720655523315,-0.013084086771044274,0
365,2024-09-20 21:22:36.323023872,TASK_BEGIN,014,0.30702708156230357,-0.27668158544704524,5.7848394278597235,-1.2228564052867343,1.5164185632157814,-0.3451834376601399,-0.46614293622951364,-0.025668681490444704,0
366,2024-09-20 21:22:36.396197888,TASK_BEGIN,014,0.42848844996743246,-0.40993229696000544,5.896724761247915,-1.2007618057918554,1.575605146683368,-0.363391763717193,-0.4339928905521167,-0.04329478170022022,0
367,2024-09-20 21:22:37.341584896,TASK_BEGIN,014,0.5581472742881999,-0.5490767677133845,5.977675394938956,-1.1703132926197917,1.6394005589426748,-0.3852348434485159,-0.33732285910886106,-0.0671130012506979,0
368,2024-09-20 21:22:37.409739008,TASK_BEGIN,014,0.6928411949488834,-0.691125409391408,6.027239983339581,-1.1336442872025985,1.7059503853171474,-0.4099826117384547,-0.17770569848705486,-0.09776538748346406,0
369,2024-09-20 21:22:37.477423872,TASK_BEGIN,014,0.8289373201899553,-0.8327508491103653,6.046259874797152,-1.0933119429109412,1.7731551361629168,-0.4367235759960892,0.03970041206567939,-0.1351056681120004,0
370,2024-09-20 21:22:37.530226176,TASK_BEGIN,014,0.9624624051816805,-0.9703855883942439,6.036642311036148,-1.0520892177387748,1.8387406398217885,-0.4644008904325601,0.30638608005993007,-0.17806994140636215,0
371,2024-09-20 21:22:37.612918016,TASK_BEGIN,014,1.0893639735747385,-1.1003777178031884,6.001059770607679,-1.0127241048743147,1.9003246253422363,-0.4918661010197,0.6112762400182616,-0.22477053605416686,0
372,2024-09-20 21:22:37.679982848,TASK_BEGIN,014,1.2058577932257817,-1.21918808029509,5.942678793424888,-0.9777027117213803,1.9555207993669999,-0.5179502875222618,0.9419801237333758,-0.27282710377965885,0
373,2024-09-20 21:22:37.745937920,TASK_BEGIN,014,1.3087836702264168,-1.3236061479959151,5.8649828411780405,-0.9490413747837497,2.002079545475966,-0.5415462386950232,1.2862781565209112,-0.3198195543752218,0
374,2024-09-20 21:22:38.682806016,TASK_BEGIN,014,1.3958850126859825,-1.4109625171703313,5.771560426924651,-0.9281175633610602,2.0380337914989353,-0.5616870404868212,1.6333392654019203,-0.3636428625906939,0
375,2024-09-20 21:22:38.759708928,TASK_BEGIN,014,1.4659567322338793,-1.4793090663682344,5.665727144370223,-0.9155408849745362,2.0618258235514677,-0.577605844549542,1.9742045132032877,-0.40261051823056976,0
376,2024-09-20 21:22:38.826556928,TASK_BEGIN,014,1.518845412500379,-1.5275305438213351,5.550165849177231,-0.9110943186740341,2.072414126253334,-0.588775455473423,2.301567293873195,-0.43535132944280647,0
377,2024-09-20 21:22:38.882535936,TASK_BEGIN,014,1.5553127336530475,-1.5553647238574244,5.42691572290288,-0.9138064964150194,2.0693573087936636,-0.5949347597723671,2.609312344012273,-0.46067484413903603,0
378,2024-09-20 21:22:38.962894080,TASK_BEGIN,014,1.5768002188729433,-1.5633393869218581,5.2977574712546724,-0.9221800011204271,2.0528514836825704,-0.5960985370344655,2.8922293670821118,-0.47754497430149423,0
379,2024-09-20 21:22:39.030649856,TASK_BEGIN,014,1.5851605936704016,-1.5526544374526794,5.164738804162433,-0.9345120178195356,2.0237048263648627,-0.5925382743619618,3.146009156101793,-0.4851832793884721,0
380,2024-09-20 21:22:39.097917952,TASK_BEGIN,014,1.5824168742787028,-1.5250360413770114,5.030541281721093,-0.9491892812321723,1.9832601838559205,-0.584729482412042,3.367453379568753,-0.48324354759406385,0
381,2024-09-20 21:22:40.042077952,TASK_BEGIN,014,1.5705795568990428,-1.4825843829391505,4.898491098630969,-0.9648690255229728,1.933286659175168,-0.57327644499409,3.5547269710694014,-0.47197213378826386,0
382,2024-09-20 21:22:40.099760896,TASK_BEGIN,014,1.5515300058139048,-1.4276349274518962,4.772247023104028,-0.9805368038078682,1.8758504833554654,-0.5588346222365758,3.707316272858822,-0.4522579220259332,0
383,2024-09-20 21:22:40.176569856,TASK_BEGIN,014,1.5269590813882952,-1.362644143650931,4.655431461425284,-0.9954874552575655,1.8131530613419808,-0.5420466625615774,3.825470811590427,-0.4255194069651534,0
384,2024-09-20 21:22:40.245183232,TASK_BEGIN,014,1.4983285771215018,-1.2900956541454824,4.551381302113406,-1.0092678549412866,1.747329594338201,-0.5234977893416383,3.9094159411080422,-0.3934904519078704,0
385,2024-09-20 21:22:40.300483840,TASK_BEGIN,014,1.4668290172557195,-1.2124173341974496,4.462919260086513,-1.0215877190124925,1.6802541661489518,-0.5036923698081981,3.958833922309719,-0.35801901193398433,0
386,2024-09-20 21:22:40.378307072,TASK_BEGIN,014,1.4333389926553244,-1.1319078532448021,4.392002011215808,-1.0322053906345228,1.6134118795182726,-0.48304965169363734,3.97272283548066,-0.3209154920820983,0
387,2024-09-20 21:22:40.440346880,TASK_BEGIN,014,1.3984098858068905,-1.0506783716711374,4.339283459245792,-1.0408198834276154,1.5478321035286966,-0.4619060369728217,3.949510148210252,-0.28383748691964,0
388,2024-09-20 21:22:41.392110080,TASK_BEGIN,014,1.3622928421075873,-0.9706105750531583,4.303807743123437,-1.0470111662951398,1.4840337098593337,-0.44050674949525764,3.887538961211927,-0.24824773233643949,0
389,2024-09-20 21:22:41.459884800,TASK_BEGIN,014,1.3250138490883114,-0.8933261689657033,4.283092642772776,-1.0502626546852287,1.421979720462963,-0.418982623000123,3.7860532311858335,-0.2154685017431593,0
390,2024-09-20 21:22:41.522816000,TASK_BEGIN,014,1.2864943862607605,-0.8201680884563851,4.27368007159282,-1.0500676057139466,1.361098674020047,-0.3973285751180042,3.646353349493173,-0.18674712162343282,0
391,2024-09-20 21:22:41.587410944,TASK_BEGIN,014,1.2466866353472699,-0.7521988652051247,4.2719374970750055,-1.0460697201781122,1.300423894699261,-0.3754090413822464,3.4725430401547963,-0.16322522240741477,0
392,2024-09-20 21:22:41.662298880,TASK_BEGIN,014,1.205663471819696,-0.6902145057899516,4.274828544900538,-1.0381719325454297,1.238833012162937,-0.3530004948990296,3.271569430925482,-0.14580471392195818,0
393,2024-09-20 21:22:41.724783872,TASK_BEGIN,014,1.163627685642468,-0.6347648845682161,4.280520945373441,-1.0265837521930674,1.1753039771329454,-0.3298550560304769,3.0526653701987847,-0.1349868044567636,0
394,2024-09-20 21:22:41.798376960,TASK_BEGIN,014,1.1208630708685023,-0.5861757837684383,4.28874603083613,-1.0118068456921343,1.109108631880117,-0.30575907756110915,2.8264766904215994,-0.13077114522794098,0
395,2024-09-20 21:22:42.741765120,TASK_BEGIN,014,1.0776836159173309,-0.5445762116237276,4.30077353529477,-0.9945624330778592,1.0399258419483703,-0.280572965036043,2.6041666596530177,-0.13267714905683017,0
396,2024-09-20 21:22:42.802454016,TASK_BEGIN,014,1.0344307309170173,-0.5099366104263432,4.318945193722267,-0.9756777353725878,0.9678996849216378,-0.25425360776785555,2.396679364965947,-0.13989224108575388,0
397,2024-09-20 21:22:42.877736192,TASK_BEGIN,014,0.991527547120559,-0.4821159485633265,4.345872091570638,-0.9559580982620004,0.8936518468290584,-0.22686149096643132,2.214081667500553,-0.15147821133100284,0
398,2024-09-20 21:22:42.944742912,TASK_BEGIN,014,0.9495516600540682,-0.4609057080853336,4.38352032830633,-0.9360617904504266,0.8182126100784015,-0.19854870774316735,2.0648506463375633,-0.16655261045055247,0
399,2024-09-20 21:22:43.003572992,TASK_BEGIN,014,0.9092782523037508,-0.4460575564535023,4.432502127339498,-0.9164051102098515,0.7428505183081551,-0.16953051311889253,1.9552618102187571,-0.18441239599204542,0
400,2024-09-20 21:22:43.081014016,TASK_BEGIN,014,0.8716703595953788,-0.43729100183335917,4.4918508315609325,-0.8971381513018095,0.668872841733726,-0.14005811285718797,1.8891037718329509,-0.2046015360520519,0
401,2024-09-20 21:22:43.142417920,TASK_BEGIN,014,0.8378182412681046,-0.4342895148658539,4.559288593301291,-0.878189223166582,0.5975123451165648,-0.11041229898838206,1.8676967677322676,-0.22693110749814463,0
402,2024-09-20 21:22:44.062695936,TASK_BEGIN,014,0.80884704215021,-0.43669744366939495,4.631748038864262,-0.8593337701319608,0.5299264773996444,-0.08091939794211832,1.8900920366649279,-0.251470730694777,0
403,2024-09-20 21:22:44.135122176,TASK_BEGIN,014,0.7858191442504989,-0.4441223401833559,4.705932315144847,-0.8402728663556799,0.46722263913669876,-0.05197051726227002,1.9533832465986771,-0.27853655455494997,0
404,2024-09-20 21:22:44.196000000,TASK_BEGIN,014,0.7696444538821299,-0.45613881781559606,4.77878824765931,-0.8207361982902928,0.4104332730190416,-0.024023075547894568,2.05311697127623,-0.3086948204107834,0
405,2024-09-20 21:22:44.270513920,TASK_BEGIN,014,0.7609924964889616,-0.47229102043697047,4.847737998654559,-0.8005859852841551,0.36045769026275354,0.002422086024703727,2.183868959747164,-0.3427748432205973,0
406,2024-09-20 21:22:44.336729088,TASK_BEGIN,014,0.7602047929628465,-0.4920969374853192,4.910595768683854,-0.7798677602224539,0.31802164811978717,0.026860740776592815,2.340018413349219,-0.3818599373171226,0
407,2024-09-20 21:22:44.406011904,TASK_BEGIN,014,0.7672220354496057,-0.5150580652242935,4.965356572269511,-0.7588011300242218,0.2836620867270741,0.04882830805318275,2.5165596943038007,-0.4272240156919165,0
408,2024-09-20 21:22:44.473627904,TASK_BEGIN,014,0.7815391122058266,-0.5406714201330693,5.010135636709379,-0.7377620300306241,0.25771433662501436,0.06793184799380407,2.7095867444363684,-0.48015508033985,0
409,2024-09-20 21:22:45.406633984,TASK_BEGIN,014,0.8021986656215854,-0.5684383967214649,5.04334619065586,-0.717302098801012,0.24030193515610787,0.08386382869196729,2.9160556800553996,-0.5415808215428121,0
410,2024-09-20 21:22:45.485142016,TASK_BEGIN,014,0.8278403478069362,-0.5978695133492533,5.063992821106206,-0.6981996939984496,0.2313738442656905,0.09639709086187424,3.1327902629655853,-0.6115247923143209,0
411,2024-09-20 21:22:45.545876992,TASK_BEGIN,014,0.8568078180297853,-0.6284874954678887,5.071874048373117,-0.6814916455528857,0.23083851096945412,0.10536230533485656,3.35519664964241,-0.6886032766576302,0
412,2024-09-20 21:22:45.612177920,TASK_BEGIN,014,0.88728423878932,-0.6598320230170741,5.067538101915781,-0.6684310480699097,0.23875438367788696,0.11061493553886717,3.5762413970675704,-0.7697956814022897,0
413,2024-09-20 21:22:45.675958016,TASK_BEGIN,014,0.9174221352756425,-0.6914705278038928,5.051997789826378,-0.6603537866470428,0.25543078484251663,0.11201018079832768,3.7859984625712246,-0.8505775621565401,0
414,2024-09-20 21:22:45.755563008,TASK_BEGIN,014,0.9454573433178602,-0.7230170673621285,5.026332663622452,-0.6584748022915876,0.2813327614768081,0.10940508107878548,3.971930869382688,-0.9253613107606047,0
415,2024-09-20 21:22:45.823644160,TASK_BEGIN,014,0.9698210360264781,-0.754157082873185,4.9912865853081625,-0.6636528766858533,0.31684262538402436,0.10269053560565114,4.119989680817156,-0.9881266660006521,0
416,2024-09-20 21:22:46.741168896,TASK_BEGIN,014,0.9892655818157201,-0.7846751988580445,4.946901185342827,-0.6761680974658469,0.36201120845602636,0.09183957356849203,4.21632120856439,-1.033106402960214,0
417,2024-09-20 21:22:46.798270976,TASK_BEGIN,014,1.0029879997948241,-0.8144825013130521,4.892226010508296,-0.6955579930661292,0.41637632309169476,0.07695565820302588,4.249036233439687,-1.0553986178804409,0
418,2024-09-20 21:22:46.876500992,TASK_BEGIN,014,1.0107045941042858,-0.84363542696586,4.82521415885773,-0.720561424037736,0.4788686764587378,0.05831050951790404,4.209500099059294,-1.0514329065812478,0
419,2024-09-20 21:22:46.938632192,TASK_BEGIN,014,1.012651534617438,-0.8723352884501108,4.742923555247128,-0.7492041857298263,0.5478362270789844,0.03636244378139412,4.092975064029924,-1.0192904982527466,0
420,2024-09-20 21:22:47.000633088,TASK_BEGIN,014,1.0095302772873138,-0.9009003348115892,4.642017965894972,-0.7790107762487957,0.6212171352433432,0.011743582154498803,3.898838690203121,-0.9589037661705768,0
421,2024-09-20 21:22:47.077939968,TASK_BEGIN,014,1.002426789946577,-0.9297118506841356,4.519449363312206,-0.8072868414706711,0.6968183456647004,-0.014789060719987203,3.6307148645309812,-0.8721427789810862,0
422,2024-09-20 21:22:47.147660800,TASK_BEGIN,014,0.9927223287832608,-0.9591493330055999,4.373237344481333,-0.8314305369299705,0.7725804829198898,-0.04242640905998918,3.2966383895150604,-0.7627555152670871,0
423,2024-09-20 21:22:48.091310080,TASK_BEGIN,014,0.982010616271354,-0.9895369802260398,4.203299865247434,-0.8492573922196386,0.8467323967759912,-0.07038098424502323,2.909004820897245,-0.6360954561406957,0
424,2024-09-20 21:22:48.159070976,TASK_BEGIN,014,0.9720292900026384,-1.0211137389201081,4.012190109653632,-0.8592987298407456,0.917834201722912,-0.0979407673479008,2.483920757622129,-0.4986185339680308,0
425,2024-09-20 21:22:48.220207104,TASK_BEGIN,014,0.9645971167496693,-1.0540201938214522,3.8054788013083387,-0.8609871535055169,0.9847676365652493,-0.12449378455896677,2.0399520814160836,-0.35725303903490235,0
426,2024-09-20 21:22:48.282694144,TASK_BEGIN,014,0.9615406134361612,-1.088289525817158,3.5915744843997333,-0.8546566407504133,1.0467336410786368,-0.14953223056916298,1.596770989360297,-0.2188061741724887,0
427,2024-09-20 21:22:48.361278976,TASK_BEGIN,014,0.9645907480035502,-1.1238395335362268,3.380966495845898,-0.8413663924780699,1.103289413777792,-0.17265850296784138,1.1741505243178985,-0.08950784029150127,0
428,2024-09-20 21:22:48.422446080,TASK_BEGIN,014,0.9752263196297686,-1.1604696219747517,3.1850618005664364,-0.8226337243998079,1.154407024543094,-0.19360588319221833,0.7912627985467149,0.02528714124821627,0
429,2024-09-20 21:22:48.493974784,TASK_BEGIN,014,0.9944716417939781,-1.1978643046748936,3.0149193521966042,-0.80017581730975,1.2004984828963114,-0.21226284098316633,0.4659537868499871,0.12124093285648567,0
430,2024-09-20 21:22:49.433105920,TASK_BEGIN,014,1.0227189408324011,-1.2356034114748662,2.880216792904206,-0.7757249885989844,1.2423658226961287,-0.2286793900119524,0.2138035095010571,0.1950451217194004,0
431,2024-09-20 21:22:49.500605952,TASK_BEGIN,014,1.0596559988014895,-1.2731805736472015,2.788612785354605,-0.7509380866388511,1.2810778845534982,-0.24304517915312474,0.04707574354232806,0.2443761121422693,0
432,2024-09-20 21:22:49.573116928,TASK_BEGIN,014,1.1043188440142013,-1.3100316556621645,2.7453630100160726,-0.7273741897551879,1.3178147916797547,-0.255649586119492,-0.026162157626307084,0.267871093165358,0
433,2024-09-20 21:22:49.645853952,TASK_BEGIN,014,1.1552311786904343,-1.3455729450614478,2.7528884688625936,-0.7064658926666488,1.3537337381980619,-0.2668440570087908,-0.002507148693421757,0.2651408706662101,0
434,2024-09-20 21:22:49.703164928,TASK_BEGIN,014,1.2105685195792204,-1.379241691280417,2.8102077290139578,-0.6894141334567983,1.3898825296001518,-0.27701564618953983,0.11678443987468294,0.23677554411960472,0
435,2024-09-20 21:22:49.780406016,TASK_BEGIN,014,1.2682919788333902,-1.4105239828799816,2.9125662432874013,-0.6770269213371669,1.42714180983624,-0.28656190321671265,0.32616152576438256,0.18430409644627027,0
436,2024-09-20 21:22:49.842005248,TASK_BEGIN,014,1.3262415844423991,-1.4389622605192434,3.051682039036137,-0.6696021611012108,1.4661554813742965,-0.29585335811850466,0.6163547391342618,0.11010262376409198,0
437,2024-09-20 21:22:50.792481024,TASK_BEGIN,014,1.382229890233725,-1.4641540977642937,3.2165880853272175,-0.666924764780762,1.5072390178850237,-0.3051870998140977,0.975105390371971,0.017244845653468552,0
438,2024-09-20 21:22:50.860254208,TASK_BEGIN,014,1.434169113068955,-1.48576068908047,3.3946498748518388,-0.6683629363511736,1.5503123134587493,-0.31475618752469137,1.388038103230308,-0.09072136016427335,0
439,2024-09-20 21:22:50.928003840,TASK_BEGIN,014,1.4802024794757702,-1.5035277411784984,3.5724541788518116,-0.6730136049182879,1.594916959644773,-0.3246572420228122,1.8396160354079305,-0.21005607433421622,0
440,2024-09-20 21:22:50.982669312,TASK_BEGIN,014,1.5187823394054365,-1.5173042979309403,3.7366164495894787,-0.6798609263774746,1.6403222338461303,-0.33493045061827414,2.3140972720574555,-0.33710875803954143,0
441,2024-09-20 21:22:51.063479040,TASK_BEGIN,014,1.5486874858452164,-1.5270470584694344,3.87463794506902,-0.6879123985585457,1.6856630220668243,-0.3456029325986233,2.7964351547689907,-0.46853145978674926,0
442,2024-09-20 21:22:51.131182848,TASK_BEGIN,014,1.5690227459306838,-1.5328111072221884,3.975757932803035,-0.6962693367367281,1.7300529156183626,-0.3567098568612269,3.2729608372295442,-0.6013694594698846,0
443,2024-09-20 21:22:51.198627072,TASK_BEGIN,014,1.5792272143535748,-1.5347347859464937,4.031629749178409,-0.7041203899167559,1.7726559175045833,-0.3682890446483948,3.7315774620835924,-0.7329929524383915,0
444,2024-09-20 21:22:52.142779904,TASK_BEGIN,014,1.5790761778712408,-1.5330234523951944,4.036742804256893,-0.710700642944468,1.8127102643488568,-0.3803600212734104,4.16144474858194,-0.8608907697703327,0
445,2024-09-20 21:22:52.203303936,TASK_BEGIN,014,1.568652628630372,-1.5279304013787218,3.9886351653910728,-0.7152773106135807,1.8494915559384841,-0.3928980519735526,4.55256957249596,-0.9824260265827889,0
446,2024-09-20 21:22:52.277155072,TASK_BEGIN,014,1.5482803538885421,-1.5197295457309887,3.8879303571196915,-0.7171972119136814,1.8822508561652807,-0.40581120993910613,4.8957354133670465,-1.0946732975844762,0
447,2024-09-20 21:22:52.341607168,TASK_BEGIN,014,1.5184302759532344,-1.5086789884254408,3.7382056622658593,-0.7159885716652465,1.9102104680213534,-0.41892883419232857,5.182803308579153,-1.194422366752456,0
448,2024-09-20 21:22:52.404512000,TASK_BEGIN,014,1.4796265412102814,-1.4949854542561776,3.5457913585283656,-0.7114807492520626,1.932642451205937,-0.43200355031625604,5.4071449751536935,-1.2783747362847233,0
449,2024-09-20 21:22:52.466000896,TASK_BEGIN,014,1.4323823985271678,-1.4787847899399666,3.3196462100959137,-0.703908039312531,1.948965194972781,-0.4447221903255306,5.563956005537994,-1.3434523575871604,0
450,2024-09-20 21:22:52.549110784,TASK_BEGIN,014,1.3771902514943664,-1.4601471442301615,3.0712642793463387,-0.6939777364590962,1.958794939938754,-0.45672408552798727,5.650301809986764,-1.387071151230735,0
451,2024-09-20 21:22:53.489801984,TASK_BEGIN,014,1.3145793920297284,-1.4391042736577784,2.8143470016713374,-0.6828790840687542,1.9619528373531931,-0.4676302976043218,5.665005659326114,-1.4073242948491171,0
452,2024-09-20 21:22:53.558374144,TASK_BEGIN,014,1.2452339807427881,-1.4156888722365455,2.564057136460737,-0.6722013695437428,1.958468224392984,-0.4770844318074516,5.608683474619433,-1.4031479213851528,0
453,2024-09-20 21:22:53.620000000,TASK_BEGIN,014,1.1701335070379641,-1.3899746720062267,2.3359495659197216,-0.6637566019699984,1.9486100661161467,-0.4847983223533822,5.484007802963083,-1.374506406717589,0
454,2024-09-20 21:22:53.693463040,TASK_BEGIN,014,1.0906495339071047,-1.3621081255442016,2.1448107178898743,-0.6593591999299079,1.9329279853085704,-0.4905881470605582,5.2959109457097915,-1.3225058824048237,0
455,2024-09-20 21:22:53.761591808,TASK_BEGIN,014,1.0085289770694332,-1.3323223958481385,2.003609207835687,-0.6606330376651842,1.9122350131805437,-0.4943818648207962,5.051461217829504,-1.2493329079147264,0
456,2024-09-20 21:22:53.821784832,TASK_BEGIN,014,0.9257421374656668,-1.3009268070145434,1.9226858987506836,-0.6688738694692383,1.8874865848692024,-0.49618785411878646,4.759502480826095,-1.158038793376198,0
457,2024-09-20 21:22:53.897059840,TASK_BEGIN,014,0.8442496405480442,-1.268275882061122,1.9091934838492983,-0.6849589124079306,1.8595973953224496,-0.49603732652549914,4.430344819642839,-1.0522830380099293,0
458,2024-09-20 21:22:54.815998976,TASK_BEGIN,014,0.7657778026495742,-1.2347326226305362,1.9667183033340738,-0.7092968563697998,1.8292909903366075,-0.4939295144009926,4.0756086852427185,-0.9361067479594714,0
459,2024-09-20 21:22:54.883686144,TASK_BEGIN,014,0.6916659718088911,-1.2006391533675338,2.095082135005806,-0.7418109405975126,1.7970391717707956,-0.489803392760214,3.708045689797833,-0.8137227256104071,0
460,2024-09-20 21:22:54.951451904,TASK_BEGIN,014,0.6228011954026446,-1.1662965890982429,2.290363391949093,-0.7819281642150732,1.7630682294674562,-0.48353910587193316,3.3411947985871233,-0.6893301408742489,0
461,2024-09-20 21:22:55.019027712,TASK_BEGIN,014,0.5596166650503192,-1.1319464962094934,2.545075997581237,-0.8285482594521154,1.7273725072223949,-0.4749738104913586,2.9889436109781995,-0.5670276636277289,0
462,2024-09-20 21:22:55.086791936,TASK_BEGIN,014,0.5021156051330562,-1.0977468928081182,2.8483819472283853,-0.8800047968147833,1.6897194189794533,-0.4639156407846641,2.6650411118123403,-0.45084478623194485,0
463,2024-09-20 21:22:55.154650880,TASK_BEGIN,014,0.4499081158209318,-1.063746445153958,3.1862724737534966,-0.9340598916251099,1.649693239210814,-0.45015671516666084,2.3824522403242003,-0.3447873240566985,0
464,2024-09-20 21:22:55.222381056,TASK_BEGIN,014,0.40229154672000955,-1.029873047537693,3.5418031513796815,-0.9879775409306848,1.6068080599655414,-0.4334980945243031,2.1524957145179506,-0.25277328158506257,0
465,2024-09-20 21:22:56.166997760,TASK_BEGIN,014,0.358397763503395,-0.995953129432046,3.895713585017763,-1.0387287296355452,1.5606376301402576,-0.41378646966726385,1.983904356598953,-0.17842047390017116,0
466,2024-09-20 21:22:56.234558208,TASK_BEGIN,014,0.31737018629564906,-0.9617607683062037,4.227768955654974,-1.0833443407061023,1.5108911161920662,-0.39094589520168516,1.88199779049323,-0.12471714918451257,0
467,2024-09-20 21:22:56.301733888,TASK_BEGIN,014,0.2785008538186786,-0.9270757908327568,4.5186848487558855,-1.1193264170509656,1.4574478119141396,-0.3649984393907823,1.8480656731475649,-0.0936362004961255,0
468,2024-09-20 21:22:56.365687040,TASK_BEGIN,014,0.24128623000525132,-0.8917268787961561,4.752100413370879,-1.1449851588090203,1.4004215962617403,-0.3360868668425173,1.8790875013047024,-0.08579743536099256,0
469,2024-09-20 21:22:56.428446976,TASK_BEGIN,014,0.20540400548259938,-0.8556117276863103,4.91621658572338,-1.1596379990165604,1.340255379690276,-0.3045044433452696,1.9679935553783932,-0.1003038972053346,0
470,2024-09-20 21:22:56.505711104,TASK_BEGIN,014,0.1706404119865078,-0.81870428313386,5.004972443209219,-1.1636625096321784,1.2777462412677547,-0.27071283115725503,2.1044870138820366,-0.13479117868708976,0
471,2024-09-20 21:22:56.573408000,TASK_BEGIN,014,0.13681699452018986,-0.7810618775213312,5.018607897288122,-1.1583987511716314,1.21394192412181,-0.23532837491896255,2.276127984577658,-0.1856061128725229,0
472,2024-09-20 21:22:57.492061952,TASK_BEGIN,014,0.10377249935934628,-0.7428351954423438,4.96344296300343,-1.1459289338647431,1.1499862688813465,-0.19908297192890986,2.4693128719976154,-0.2480228923088793,0
473,2024-09-20 21:22:57.559806208,TASK_BEGIN,014,0.07142306239556741,-0.7042760517241329,4.850883580711579,-1.1288062742100649,1.087025688817728,-0.16278307956104107,2.669975336240672,-0.31648859526812856,0
474,2024-09-20 21:22:57.627491072,TASK_BEGIN,014,0.03986557760234326,-0.6657388075686616,4.695831220105343,-1.1097860221739841,1.0261935169230512,-0.12728076143511866,2.8640641245041665,-0.3849400321480386,0
475,2024-09-20 21:22:57.695218944,TASK_BEGIN,014,0.009457977367717887,-0.6276727788260055,4.514740348235217,-1.0915620549253162,0.9686130651210344,-0.09344985547350584,3.0380190527960202,-0.44722335816352554,0
476,2024-09-20 21:22:57.762995200,TASK_BEGIN,014,-0.019172306229265967,-0.5905987415175764,4.323622219566236,-1.0765034377868008,0.9153590005054824,-0.06214859408357269,3.1795097807674524,-0.4976127760470894,0
477,2024-09-20 21:22:57.830647040,TASK_BEGIN,014,-0.045195819154424346,-0.5550644839551027,4.1363042173141364,-1.0664103097338746,0.867350222842851,-0.034156871212289,3.2785195524676594,-0.5313685332480624,0
478,2024-09-20 21:22:57.896951808,TASK_BEGIN,014,-0.06769772748648814,-0.5215878852545968,3.963168146313459,-1.0623225441188477,0.8252081691057329,-0.01009899804602165,3.328500313639896,-0.5452251573146667,0
479,2024-09-20 21:22:58.842149888,TASK_BEGIN,014,-0.08581919146379022,-0.4906035310404657,3.810463310007793,-1.0644029069627086,0.789156108696831,0.009619217786227251,3.3271548937978515,-0.5377122565173476,0
480,2024-09-20 21:22:58.909897984,TASK_BEGIN,014,-0.09889960684425504,-0.46242431706297205,3.6802117331724116,-1.0719178193453707,0.7589935434349014,0.02483613372153161,3.276668389792773,-0.5092741260111994,0
481,2024-09-20 21:22:58.977620224,TASK_BEGIN,014,-0.10657733212865078,-0.4372249106614406,3.5707270119035197,-1.0833680811915696,0.7341171717853249,0.03562230391656143,3.1835400153266935,-0.462208309230904,0
482,2024-09-20 21:22:59.040229120,TASK_BEGIN,014,-0.10881305856769935,-0.41504790698544675,3.477699798965247,-1.0967915856534567,0.7135621790202993,0.042246094631080824,3.058077026067591,-0.40043861170523504,0
483,2024-09-20 21:22:59.113059072,TASK_BEGIN,014,-0.10584805864117236,-0.3958215779983674,3.3955406448901955,-1.110141228417492,0.6960676877169228,0.045130829698333264,2.9133757978909114,-0.32910353125783104,0
484,2024-09-20 21:22:59.180798976,TASK_BEGIN,014,-0.09814588409459989,-0.37937440946929724,3.3184966591996328,-1.1215748562646872,0.6801702171664784,0.04481073155730174,2.7637286907697836,-0.2539602436187987,0
485,2024-09-20 21:22:59.248514816,TASK_BEGIN,014,-0.08634742940598004,-0.3654452411716573,3.241263011127417,-1.129574055340918,0.6643202369382509,0.04188880792330539,2.6227190085234486,-0.18068737762480863,0
486,2024-09-20 21:23:00.192210944,TASK_BEGIN,014,-0.07122934459514021,-0.3537017044129048,3.159196977587439,-1.1329338276942609,0.6470246597719685,0.036994286784876505,2.501487227652009,-0.11425011470725359,0
487,2024-09-20 21:23:00.259991040,TASK_BEGIN,014,-0.05365458625213126,-0.3437740861451075,3.068464947459065,-1.1307134424333303,0.6270175311007105,0.030736190649180147,2.4076758012272936,-0.058501503212728075,0
488,2024-09-20 21:23:00.325113088,TASK_BEGIN,014,-0.034529050398504596,-0.33529496249679186,2.966392019323057,-1.1222203298491389,0.6034394075432279,0.02365986960755657,2.345323585925628,-0.01609499419783231,0
489,2024-09-20 21:23:00.388030976,TASK_BEGIN,014,-0.014774027890984982,-0.3279310273294431,2.8519924750983394,-1.1070565566090675,0.575993358641597,0.016216902697284884,2.3156397404125424,0.011368408360399141,0
490,2024-09-20 21:23:00.463059712,TASK_BEGIN,014,0.004700090706356815,-0.3214048894359436,2.7263894815426246,-1.0851970810382394,0.545057710888246,0.008743705282189899,2.3182978805464973,0.023130540423737744,0
491,2024-09-20 21:23:00.527260928,TASK_BEGIN,014,0.023034438020510858,-0.3155116877604608,2.592887395458618,-1.0570440747284695,0.511747611229698,0.0014354644511034046,2.352603767643188,0.019166830194303132,0
492,2024-09-20 21:23:00.598426112,TASK_BEGIN,014,0.03947352000775374,-0.31013026225075596,2.456706965870226,-1.023443366484053,0.47790508115486896,-0.005682230814586098,2.417865269219481,0.00022739680952678056,0
493,2024-09-20 21:23:01.542433024,TASK_BEGIN,014,0.053411760824616655,-0.3052229724863413,2.324430474879774,-0.9856682884025831,0.445978891380337,-0.012765880302656976,2.5128630953181386,-0.032076691475949166,0
494,2024-09-20 21:23:01.610183168,TASK_BEGIN,014,0.06442694120944678,-0.30082215856409994,2.203070002152591,-0.9453320256634856,0.4187774091655083,-0.02013805164644256,2.6350669461577256,-0.07531591005871636,0
495,2024-09-20 21:23:01.675548160,TASK_BEGIN,014,0.07231746755121266,-0.29701019565366543,2.098752221940466,-0.904185824843648,0.39913774982555894,-0.02824378525223957,2.7803542949993476,-0.12648508566507097,0
496,2024-09-20 21:23:01.738087936,TASK_BEGIN,014,0.07715555028075032,-0.29390227704052796,2.015390689398104,-0.863851368577663,0.3895934929394962,-0.037588718609389705,2.9434282840472936,-0.18234438223538327,0
497,2024-09-20 21:23:01.800225024,TASK_BEGIN,014,0.07932312444608337,-0.29163403099795127,1.9540036113356576,-0.8256171851111236,0.39211083476794023,-0.048672452684199674,3.1186095672024456,-0.2397170868711315,0
498,2024-09-20 21:23:01.877551104,TASK_BEGIN,014,0.07948327882912043,-0.29035100655002605,1.913087158744721,-0.7903953182157383,0.40792376181161016,-0.061927100304043206,3.3005566570825726,-0.2957109774232608,0
499,2024-09-20 21:23:01.939902976,TASK_BEGIN,014,0.07849248079711216,-0.29020028358716443,1.8897862020331666,-0.7588231862613243,0.437466428310124,-0.07766308904008742,3.4846442380364135,-0.3479076980058817,0
500,2024-09-20 21:23:02.881228032,TASK_BEGIN,014,0.0773056620862723,-0.2913268520711388,1.8811467013065497,-0.7314166359989807,0.48039451854191995,-0.09602869714784144,3.667066092162184,-0.39454487479155786,0
501,2024-09-20 21:23:02.958885888,TASK_BEGIN,014,0.07690885310628572,-0.2938729230580053,1.8848495696453789,-0.708678491055486,0.5356850550638055,-0.11699884061503169,3.8449115054273286,-0.4346757665397916,0
502,2024-09-20 21:23:03.027731968,TASK_BEGIN,014,0.07827096762630505,-0.29797462331442826,1.8992714972402909,-0.6911135243000225,0.6017790705208185,-0.14039575493653622,4.01630165034583,-0.468281828051368,0
503,2024-09-20 21:23:03.095542016,TASK_BEGIN,014,0.0822954344407778,-0.3037527280383649,1.9231133487178234,-0.6791607436539084,0.6767272638892755,-0.1659217778931667,4.1805192343488216,-0.49631611459029873,0
504,2024-09-20 21:23:03.160646912,TASK_BEGIN,014,0.08977300338671163,-0.31129836668468297,1.95504301470595,-0.6731009481804998,0.7583380204128048,-0.19318769171143974,4.338109022029554,-0.520638044383968,0
505,2024-09-20 21:23:03.231046912,TASK_BEGIN,014,0.10135107661721743,-0.3206572026420448,1.9937379527108072,-0.6730012925136457,0.844341199563205,-0.22173989022831095,4.490893185404393,-0.5437872882328956,0
506,2024-09-20 21:23:03.284766208,TASK_BEGIN,014,0.1175288998305583,-0.3318147910099763,2.038320166792419,-0.6787175872841272,0.9325503780585336,-0.2510932318555301,4.6417606210378475,-0.5685967841385924,0
507,2024-09-20 21:23:04.232758016,TASK_BEGIN,014,0.13867810403080302,-0.34468387726288197,2.0887675830104655,-0.6899329837012345,1.0209908287152012,-0.28076688283642826,4.794162496025707,-0.5977298273546109,0
508,2024-09-20 21:23:04.294825216,TASK_BEGIN,014,0.1650790084286025,-0.3590956174192159,2.1459364392619142,-0.7062032752115547,1.1079720435562026,-0.3103176496483929,4.951353897617585,-0.6332545430219503,0
509,2024-09-20 21:23:04.377923072,TASK_BEGIN,014,0.19694928229173622,-0.3747966511255834,2.2112264164737607,-0.7269908176097557,1.1920936101885227,-0.33936582695353357,5.115529171219998,-0.6763535967505122,0
510,2024-09-20 21:23:04.435813888,TASK_BEGIN,014,0.23443595595987923,-0.39144837774806235,2.28609709996689,-0.7516681492152341,1.2721897569790028,-0.36760529286962085,5.287142306147119,-0.7272434706885771,0
511,2024-09-20 21:23:04.498313984,TASK_BEGIN,014,0.2775603557776337,-0.40862438669193185,2.371501836741112,-0.7794680686006442,1.347246723798483,-0.3947926867451225,5.464668298862932,-0.7853056691470497,0
512,2024-09-20 21:23:04.575516160,TASK_BEGIN,014,0.326133563764795,-0.4258116604293802,2.4672404721929797,-0.8093905762534053,1.4163389941207107,-0.42072399868021637,5.644838954027726,-0.8493322311903218,0
513,2024-09-20 21:23:04.648766208,TASK_BEGIN,014,0.3796693436366854,-0.4424247720078958,2.5713600233696132,-0.8401276088657863,1.4786196476987523,-0.44521592833875046,5.8231826755708775,-0.9177504046220045,0
514,2024-09-20 21:23:05.567048960,TASK_BEGIN,014,0.4373125328904752,-0.45783212011715774,2.679834144339222,-0.8700719453911219,1.5333815010768501,-0.4681022037548861,5.99455094319179,-0.988735871015629,0
515,2024-09-20 21:23:05.625886976,TASK_BEGIN,014,0.497797671926973,-0.4713848559113687,2.7867311376062935,-0.8974428745598252,1.5801745601882589,-0.48924108825803425,6.1533482765363186,-1.060222014770728,0
516,2024-09-20 21:23:05.687951872,TASK_BEGIN,014,0.5594627138479122,-0.48244336033785357,2.884966186428553,-0.9205249894547671,1.618932656349779,-0.5085271076797269,6.293492256499474,-1.1299058414564718,0
517,2024-09-20 21:23:05.766379264,TASK_BEGIN,014,0.6203424782011823,-0.490404676824069,2.967513790632037,-0.9379674345469021,1.6500488768421244,-0.5259047233822843,6.408383747032891,-1.195333501818591,0
518,2024-09-20 21:23:05.834790144,TASK_BEGIN,014,0.6783353462531669,-0.49473603699710794,3.0286559331224945,-0.9490329451383498,1.674343859387682,-0.5413774294564486,6.4911184907617026,-1.2540421673590179,0
519,2024-09-20 21:23:05.905602048,TASK_BEGIN,014,0.7313958633544275,-0.49501373166192364,3.06472854052254,-0.9536935363727019,1.6929067584918698,-0.5549977247898976,6.535015036463568,-1.3037006049468518,0
520,2024-09-20 21:23:05.968535040,TASK_BEGIN,014,0.7777022528853943,-0.49096178715080685,3.0741586769623352,-0.952570380177003,1.706866572565827,-0.5668318560121842,6.534396837387226,-1.3422452666643399,0
521,2024-09-20 21:23:06.917175040,TASK_BEGIN,014,0.8157876693321401,-0.48248756792847086,3.0570542022453555,-0.9468003803567864,1.7172087877353726,-0.576914431776327,6.485466585010629,-1.3680388199377758,0
522,2024-09-20 21:23:06.985393152,TASK_BEGIN,014,0.8446536497267155,-0.46971683338609627,3.0147041095590437,-0.9378919199520852,1.724710209139158,-0.5852177158506926,6.387160973884181,-1.3800603309583162,0
523,2024-09-20 21:23:07.040385024,TASK_BEGIN,014,0.8638667522180561,-0.45303074492493767,2.9491506360561024,-0.9275726620247043,1.729960546902896,-0.5916493981272425,6.241894258094867,-1.3780853533750974,0
524,2024-09-20 21:23:07.117665024,TASK_BEGIN,014,0.873603780584795,-0.43310027228018594,2.8628946221568503,-0.9176224241763855,1.7333915082640416,-0.596074986646912,6.055897398953013,-1.362763012560361,0
525,2024-09-20 21:23:07.188570112,TASK_BEGIN,014,0.8746037467741569,-0.4109052516599263,2.7587708905748483,-0.9097034058071135,1.7352708236632188,-0.5983498374136723,5.8388027206398,-1.3355439352123353,0
526,2024-09-20 21:23:07.256311040,TASK_BEGIN,014,0.8680253757078522,-0.3877257011629761,2.63991087734346,-0.9052019567648297,1.7356710079718212,-0.5983437528816716,5.602402890954505,-1.2985057468550578,0
527,2024-09-20 21:23:07.323200000,TASK_BEGIN,014,0.8552720823863429,-0.3651060376345118,2.5096487520832516,-0.9050940933633045,1.7344575903966943,-0.5959512715347871,5.358794666802553,-1.2541124001933828,0
528,2024-09-20 21:23:08.232024832,TASK_BEGIN,014,0.837867151479068,-0.3448060051661088,2.371340015974705,-0.909852109295665,1.7313516001646179,-0.5910966984237856,5.118300685028633,-1.204899962731022,0
529,2024-09-20 21:23:08.294895104,TASK_BEGIN,014,0.8174186730403383,-0.32874989024317586,2.2281993844552184,-0.9194119042667652,1.7260778698413175,-0.5837439786664009,4.887715953839773,-1.153125132553241,0
530,2024-09-20 21:23:08.377191168,TASK_BEGIN,014,0.7956612193606034,-0.31897376689185875,2.083310287416008,-0.9332240572070539,1.7185342198350118,-0.5739067210325264,4.669422512759809,-1.1004820095469552,0
531,2024-09-20 21:23:08.435141120,TASK_BEGIN,014,0.7745360404662807,-0.3175636862630756,1.9398346161666806,-0.9503819622055453,1.7088872891139735,-0.5616478639628554,4.461654897059285,-1.0480005177136986,0
532,2024-09-20 21:23:08.513082112,TASK_BEGIN,014,0.7562597797479613,-0.3265766486851664,1.8012161677833498,-0.9697489198911086,1.6975522381051171,-0.5470723544081204,4.259733960583174,-0.9961697387749922,0
533,2024-09-20 21:23:08.575098880,TASK_BEGIN,014,0.7433281360711835,-0.3479365140952155,1.6711795398141585,-0.9900094827487775,1.6850771922807317,-0.5303270886591327,4.057708747797526,-0.9452191842827115,0
534,2024-09-20 21:23:08.649139968,TASK_BEGIN,014,0.738417564121118,-0.3833011183601325,1.553603712295541,-1.0096728422771488,1.67196501464055,-0.5116086144979124,3.8498629646569142,-0.8954171130061893,0
535,2024-09-20 21:23:09.593039104,TASK_BEGIN,014,0.7441806170932705,-0.43390551903669855,1.452402717835423,-1.0270995101816196,1.6584649956982846,-0.49116046834246935,3.6318121300210215,-0.8472519149618287,0
536,2024-09-20 21:23:09.660325888,TASK_BEGIN,014,0.7629592410270656,-0.5003938242389805,1.3713167312720334,-1.0405636411615211,1.644398929612148,-0.4692513267865702,3.401155869396989,-0.8014492315369887,0
537,2024-09-20 21:23:09.728261888,TASK_BEGIN,014,0.7964637564843944,-0.5826581237355284,1.3134785290228472,-1.0483207863278792,1.629101811578443,-0.44615158020124585,3.157766999215219,-0.7588846841178193,0
538,2024-09-20 21:23:09.796292096,TASK_BEGIN,014,0.8454898254140158,-0.679710437475387,1.2808491722368591,-1.0486725327849828,1.6115154603578294,-0.4221326682617703,2.9037517414784415,-0.7204725860715453,0
539,2024-09-20 21:23:09.856513792,TASK_BEGIN,014,0.909745186015369,-0.7896151298757005,1.2737513753643281,-1.0400518754805115,1.5904091263674718,-0.39749305038198984,2.6431023576809385,-0.6870498763410047,0
540,2024-09-20 21:23:09.931798784,TASK_BEGIN,014,0.987812834043335,-0.9095001438431227,1.2906608143144285,-1.0211559143575248,1.5646580890040882,-0.3725909465955668,2.381247254530092,-0.6592525665825103,0
541,2024-09-20 21:23:09.997363968,TASK_BEGIN,014,1.0772297719921418,-1.0356548810534176,1.3283295724900035,-0.9911346133671495,1.5334985073796568,-0.3478576563990052,2.124720357085857,-0.6374178383115643,0
542,2024-09-20 21:23:10.941367040,TASK_BEGIN,014,1.174657572320477,-1.1637188014109803,1.3822457572484401,-0.9498143307086507,1.4966960071820712,-0.3237780871760121,1.8808909867441064,-0.6215589476433837,0
543,2024-09-20 21:23:11.009689856,TASK_BEGIN,014,1.2761396619083452,-1.2889604724450492,1.4473283325212345,-0.8978915050125883,1.4546103623290105,-0.30084645067855564,1.657573785550073,-0.6114296951875662,0
544,2024-09-20 21:23:11.072759040,TASK_BEGIN,014,1.3774260075889266,-1.406624124071104,1.5187216482414536,-0.8370171094511993,1.4081744790946755,-0.2795169972192423,1.4625035475164392,-0.6066446797124956,0
545,2024-09-20 21:23:11.145111040,TASK_BEGIN,014,1.474304650017137,-1.512285017516076,1.592567625436602,-0.7697381370471502,1.3588056885778672,-0.2601619921781859,1.3027777829378768,-0.6067798966259199,0
546,2024-09-20 21:23:11.212002816,TASK_BEGIN,014,1.562867822170754,-1.602145134256145,1.6665333630255936,-0.6993166224089551,1.3082580545925957,-0.24303809829783007,1.1842863181428995,-0.6113731508438607,0
547,2024-09-20 21:23:11.273103104,TASK_BEGIN,014,1.6396735236200584,-1.6732324733249384,1.739819715601468,-0.6294649970469051,1.2584365838771976,-0.2282651232978624,1.1110607085832096,-0.619790587558255,0
548,2024-09-20 21:23:11.335649792,TASK_BEGIN,014,1.7018111869263879,-1.7235073726659207,1.8126332539222485,-0.5640402245463165,1.2112011639267002,-0.21582620069848393,1.0846565165033522,-0.6310266781731602,0
549,2024-09-20 21:23:12.281959936,TASK_BEGIN,014,1.7469190032961759,-1.7518974474860538,1.885452724972019,-0.5067353063615899,1.1681717790920136,-0.20559100396222926,1.103959026726713,-0.6435866064334073,0
550,2024-09-20 21:23:12.359693056,TASK_BEGIN,014,1.7732096556618926,-1.7582789676160608,1.9584520308442694,-0.4607902089849376,1.130539730011762,-0.19735091040169211,1.1656776737449188,-0.6555548671900895,0
551,2024-09-20 21:23:12.427296000,TASK_BEGIN,014,1.7795344539937523,-1.743411035515978,2.031197981211697,-0.4287447660079887,1.098903012790304,-0.19085218384260558,1.2652850970491236,-0.6648204253304635,0
552,2024-09-20 21:23:12.480353024,TASK_BEGIN,014,1.7654802728697172,-1.7088242481224691,2.1025721614938075,-0.412274827220469,1.0731671456789877,-0.18582367928773064,1.3978236980137857,-0.6693536037328225,0
553,2024-09-20 21:23:12.557568000,TASK_BEGIN,014,1.7314669164651817,-1.6566699174964172,2.1708697980935847,-0.412144861012601,1.0525701046400189,-0.18200705791915892,1.5581616675468488,-0.6674642997927864,0
554,2024-09-20 21:23:12.630628096,TASK_BEGIN,014,1.6787976205633983,-1.5895420519762098,2.234060870891947,-0.42827463133088717,1.035849736356036,-0.17919455454088803,1.7407299506448162,-0.6580303884461469,0
555,2024-09-20 21:23:12.697972224,TASK_BEGIN,014,1.6096320869794267,-1.5102906838556795,2.2901609196482853,-0.4598895249059254,1.0214876279189027,-0.17726428922015675,1.9391147563816817,-0.6406869835503085,0
556,2024-09-20 21:23:13.635670016,TASK_BEGIN,014,1.5268944547525778,-1.4218503830503706,2.3375549549751997,-0.5056972672251597,1.0079432507741641,-0.17619541640919306,2.1459064048689336,-0.615937242080932,0
557,2024-09-20 21:23:13.698168064,TASK_BEGIN,014,1.43414059249745,-1.3271025561840883,2.375093798810205,-0.5640133317315295,0.9938469335427347,-0.17605571440653422,2.352967125810409,-0.5851355254532413,0
558,2024-09-20 21:23:13.778036992,TASK_BEGIN,014,1.3353722850518468,-1.2287744621747803,2.4019490628567333,-0.632792469051077,0.9781482466796895,-0.17697057347406592,2.551936220704014,-0.5502986293946128,0
559,2024-09-20 21:23:13.838460928,TASK_BEGIN,014,1.234772868248347,-1.129366472096968,2.4173592041675565,-0.7095916677734067,0.960196690312725,-0.17908517263992468,2.734581692187793,-0.5137374449325782,0
560,2024-09-20 21:23:13.913528832,TASK_BEGIN,014,1.1363882300652404,-1.031097519474201,2.420356396543415,-0.7915206606926765,0.9397349299059888,-0.18252182777192497,2.8927831148822216,-0.47759935774122636,0
561,2024-09-20 21:23:13.981278720,TASK_BEGIN,014,1.0438122516840593,-0.9358581078101721,2.4095550336752893,-0.87524428345652,0.9168270952015931,-0.1873328616860288,3.018369909929224,-0.4434890003065264,0
562,2024-09-20 21:23:14.038437120,TASK_BEGIN,014,0.9599054110403302,-0.8451608236177245,2.383172500808439,-0.9570994352370449,0.8917694889437308,-0.1934590047162384,3.103225171664276,-0.41228708031212585,0
563,2024-09-20 21:23:14.992103936,TASK_BEGIN,014,0.8865505499549527,-0.7600902678506898,2.3393564731071366,-1.0333284938557976,0.8650084217966577,-0.20070589145813234,3.139792374589375,-0.3841576095872517,0
564,2024-09-20 21:23:15.059972096,TASK_BEGIN,014,0.8244803522119617,-0.6812709151492491,2.2766266805748017,-1.1003441252558572,0.8370550401456651,-0.20874161131270874,3.1217849645123383,-0.35864622888759545,0
565,2024-09-20 21:23:15.126444032,TASK_BEGIN,014,0.7732338001208257,-0.6088718786143723,2.1941232309134246,-1.1549271109308878,0.8083952254241481,-0.21710935511734172,3.044820187884663,-0.33478063825003807,0
566,2024-09-20 21:23:15.188524800,TASK_BEGIN,014,0.7312721292544376,-0.5426517347480907,2.0914656596865298,-1.1943216718564773,0.7794295013716203,-0.22524946799002038,2.906824070818202,-0.31115307941827375,0
567,2024-09-20 21:23:15.250539008,TASK_BEGIN,014,0.6962465234725969,-0.48203428809104854,1.9682784272456122,-1.2162628977397747,0.7504678059631561,-0.23252958738500137,2.708263384818627,-0.2860225845921508,0
568,2024-09-20 21:23:15.330845184,TASK_BEGIN,014,0.6653714784389394,-0.42620297173668226,1.8237436256105757,-1.2190087327497419,0.7217513557315544,-0.23828374486809906,2.452355627449615,-0.2574791917398414,0
569,2024-09-20 21:23:15.398551040,TASK_BEGIN,014,0.6358094160361368,-0.37419761942235585,1.6566368421989777,-1.2014332048199357,0.6934510787692515,-0.2418605087081051,2.1452802640037882,-0.2236816601095838,0
570,2024-09-20 21:23:16.310842112,TASK_BEGIN,014,0.6049601692838508,-0.3249957001832273,1.4659696086573597,-1.1631680407042964,0.6656080757036977,-0.2426733684818635,1.7963103133756517,-0.1831526518742772,0
571,2024-09-20 21:23:16.372918016,TASK_BEGIN,014,0.5706084354874076,-0.27757056177394707,1.251862082770019,-1.1047176852299925,0.6380164363172997,-0.24023764770105258,1.4177948339760176,-0.135094393876822,0
572,2024-09-20 21:23:16.450126080,TASK_BEGIN,014,0.5309602089547955,-0.23093140619966612,1.016128493325577,-1.027488262072503,0.610104543749203,-0.23418264936081365,1.024903802233096,-0.07966477950291444,0
573,2024-09-20 21:23:16.512613120,TASK_BEGIN,014,0.48462951176195446,-0.18415046826299752,0.7623787368002424,-0.9337462942988605,0.580902237489174,-0.22424661188775896,0.6350963542445327,-0.018153520453045805,0
574,2024-09-20 21:23:16.574681856,TASK_BEGIN,014,0.43061567084225416,-0.13637992650109862,0.49575347117516877,-0.826560214063122,0.5491331630323737,-0.2102753390887908,0.26736034936644476,0.0469860377592268,0
575,2024-09-20 21:23:16.648281856,TASK_BEGIN,014,0.36827835537920384,-0.08686268662303893,0.2224105744814083,-0.7097292989543668,0.513396092195121,-0.19223793894806288,-0.058821996881734416,0.11230066871935605,0
576,2024-09-20 21:23:16.709403136,TASK_BEGIN,014,0.2973113553357305,-0.03494400126415808,-0.05118241705374586,-0.5876485457668175,0.47238186649431035,-0.17025330708540506,-0.32487605602724334,0.17372296034029908,0
577,2024-09-20 21:23:17.664673024,TASK_BEGIN,014,0.21772905041619553,0.019909241794134766,-0.31897684149983396,-0.4650803763576667,0.4250982549012858,-0.1446098101407956,-0.5147470042841368,0.22709788972788653,0
578,2024-09-20 21:23:17.726104064,TASK_BEGIN,014,0.12987605823211537,0.07807992680298294,-0.5757792111638882,-0.34686693737597407,0.3710756751061832,-0.11576476242905756,-0.6163103056844498,0.26869029407200296,0
579,2024-09-20 21:23:17.788141056,TASK_BEGIN,014,0.034453021038385274,0.13976865697617755,-0.8172286670896503,-0.23762736335990894,0.31049479385584716,-0.08431927930645952,-0.6222637191947499,0.2955594484426868,0
580,2024-09-20 21:23:17.865825024,TASK_BEGIN,014,-0.06745982559795756,0.2049681716572108,-1.0395646362270692,-0.14144316084092465,0.24416838802608168,-0.05097225311888661,-0.5305492376541023,0.305794874383154,0
581,2024-09-20 21:23:17.938246144,TASK_BEGIN,014,-0.17439797916534186,0.27345207581224246,-1.2396232955764872,-0.061522219861950896,0.1733668230858142,-0.01646441937150556,-0.34459112724675467,0.29867351574934103,0
