,time,MARKER,pid,L_O_DSI,L_D_DSI,L_O_DSphi,L_D_DSphi,R_O_DSI,R_D_DSI,R_O_DSphi,R_D_DSphi,trial_id
0,2024-09-20 21:34:15.273572096,0,014,-1.0346723760209826,0.33588819804157727,3.8629544675900043,0.0012789224245396923,-1.3583573844457082,0.4954147623523405,-3.346427085962108,-0.0672113038720882,2
1,2024-09-20 21:34:16.209047040,0,014,-1.123629643577091,0.33171219714580685,3.3174593545088644,-0.026608405982493862,-1.5049142258197339,0.4792292079662579,-3.704524917300746,0.21922349236669025,2
2,2024-09-20 21:34:16.274136064,0,014,-1.2116704997753704,0.3277018772434017,2.7922404187032455,-0.055840013450229216,-1.6502057883993222,0.4640156206201248,-4.0543132562909285,0.49602142510875014,2
3,2024-09-20 21:34:16.349627904,0,014,-1.2980305035398172,0.32416506778615484,2.3003238956313994,-0.08674146009615631,-1.7922759061069677,0.45072066709004754,-4.385381269976559,0.754544018197683,2
4,2024-09-20 21:34:16.411201024,0,014,-1.3821208783960997,0.3213769065198903,1.8536101363682291,-0.11942742341750133,-1.929590057507498,0.4402405085402663,-4.688517566256045,0.9874204588313996,2
5,2024-09-20 21:34:16.473224192,0,014,-1.4635421320054773,0.31956191214123114,1.4625684037553814,-0.1537667306759799,-2.0611123997398786,0.43341653073445485,-4.95662202594811,1.1890450038843945,2
6,2024-09-20 21:34:16.556513792,0,014,-1.542027231268021,0.3188786657832923,1.136009067349284,-0.1893836806899265,-2.1862816938439837,0.43102456116235516,-5.185437107613405,1.3558760228722775,2
7,2024-09-20 21:34:16.624260096,0,014,-1.6173285177209793,0.31940293142168297,0.880811404710974,-0.22567203725946322,-2.304941599611112,0.43374461818235166,-5.373918454747233,1.486491876944601,2
8,2024-09-20 21:34:17.554495232,0,014,-1.6891113874071495,0.32111573714703134,0.701481158835671,-0.2617898937680236,-2.4172660493420524,0.4421166743641291,-5.524201066772751,1.581408862060201,2
9,2024-09-20 21:34:17.637537792,0,014,-1.7569221510294806,0.3239078736809209,0.599636147576368,-0.29665737773689815,-2.523676427360909,0.456498930366503,-5.641166814384266,1.64272427474365,2
10,2024-09-20 21:34:17.703272192,0,014,-1.8202475143367558,0.3276021575018756,0.5736386202809035,-0.3289968834420643,-2.6247233878026948,0.47703682763233435,-5.731686892749895,1.6736876248145247,2
11,2024-09-20 21:34:17.765309184,0,014,-1.8786281849989601,0.3319846599278296,0.6184388494175457,-0.3574019004627216,-2.7209200927929045,0.5036356102451615,-5.803680098204689,1.6782879123213879,2
12,2024-09-20 21:34:17.827298048,0,014,-1.9317696630595387,0.33683543642539104,0.7255290304138328,-0.3803899304860293,-2.812570504091377,0.5359341465888734,-5.865081179028844,1.66089262728415,2
13,2024-09-20 21:34:17.904483072,0,014,-1.979607872665334,0.3419507709490287,0.8830075393237953,-0.39644062520183815,-2.8996843864888926,0.5732989078905708,-5.92282296115645,1.6259566746900103,2
14,2024-09-20 21:34:17.966846976,0,014,-2.022315314459731,0.34715126319962725,1.0759705515394598,-0.4040690474430619,-2.98201415805617,0.6148573749309517,-5.982047055863469,1.5778351505651522,2
15,2024-09-20 21:34:18.918632192,0,014,-2.0602607091324567,0.3522790183053132,1.2874234890219554,-0.4019719319652369,-3.059126742211762,0.6595619622543119,-6.045706102032641,1.5207170499951859,2
16,2024-09-20 21:34:18.986445056,0,014,-2.0939439934809476,0.3571940977960955,1.499651467704585,-0.3892466306176912,-3.130402628555381,0.706254695145065,-6.114606240474885,1.4586534295676403,2
17,2024-09-20 21:34:19.054163200,0,014,-2.1239138971908558,0.3617740611131854,1.6958285828591237,-0.36565981650791995,-3.1949752850182875,0.7537161690454198,-6.187946603421034,1.3956267489726402,2
18,2024-09-20 21:34:19.121844992,0,014,-2.1506690464940066,0.3659122782685076,1.8616384865792979,-0.3319179372175123,-3.2517278447471356,0.8007114654229222,-6.264237276698234,1.335591468079724,2
19,2024-09-20 21:34:19.189569024,0,014,-2.1745610891549156,0.3695135336911736,1.9866490348438974,-0.28985166484739067,-3.299423081806697,0.8460521707441143,-6.342157990384948,1.2824152657076484,2
20,2024-09-20 21:34:19.257256960,0,014,-2.1957279546823285,0.37249007746603335,2.0651534846008404,-0.24241025259870214,-3.3369320461027563,0.8886725698684215,-6.420982066032365,1.239699497282865,2
21,2024-09-20 21:34:19.324974080,0,014,-2.2140741077353807,0.37475991252439744,2.09632048656561,-0.19341383433875753,-3.363476187956077,0.9276991974479388,-6.500563954880508,1.2105295648719274,2
22,2024-09-20 21:34:20.235985152,0,014,-2.2293035745260963,0.37624945027240453,2.083742304770263,-0.14711288642025794,-3.3788184729247184,0.9624939859425038,-6.581071326010146,1.1972281862882703,2
23,2024-09-20 21:34:20.311439872,0,014,-2.2410012009349787,0.37690565238453727,2.034586094431711,-0.10767122975059196,-3.383377981136863,0.9926659198319334,-6.662586210454439,1.2011570918447834,2
24,2024-09-20 21:34:20.378966016,0,014,-2.2487383807775507,0.37671825662620756,1.9584918552905366,-0.07868781422141759,-3.3782648425843864,1.0180601853737647,-6.744667594688937,1.2225944645002882,2
25,2024-09-20 21:34:20.446923008,0,014,-2.2521659797366174,0.3757422412835009,1.8663286060218567,-0.06283754342089815,-3.3652250620852135,1.0387350679381069,-6.825987779187203,1.260702422870141,2
26,2024-09-20 21:34:20.514673152,0,014,-2.2510665981575437,0.3741073860317519,1.7689588749163456,-0.06166281441322228,-3.346472871224475,1.0549269526987222,-6.9041346103875085,1.313576011885168,2
27,2024-09-20 21:34:20.581656064,0,014,-2.245367201557242,0.37200942133153203,1.6762060936764884,-0.07550935407776418,-3.324422181055079,1.0669993370940118,-6.975689032636364,1.3783830744622156,2
28,2024-09-20 21:34:20.649583104,0,014,-2.2351410069221624,0.3696887915250095,1.596229866305186,-0.10359513882023998,-3.3013921857888335,1.0753807539372864,-7.036721618511013,1.4516377696356417,2
29,2024-09-20 21:34:21.593691136,0,014,-2.220625965656508,0.36740989060333623,1.5353310928102109,-0.14419610685957088,-3.279363625597817,1.0805047343413279,-7.083661974616746,1.5296011769238793,2
30,2024-09-20 21:34:21.661503232,0,014,-2.202249404321728,0.3654497107722858,1.4979259423591165,-0.1949033462032812,-3.2597965253901053,1.0827624131931814,-7.1141317517753535,1.608708595900616,2
31,2024-09-20 21:34:21.728688896,0,014,-2.1806193105321316,0.3640929860425765,1.4864553641572644,-0.2528884207810841,-3.2434956379394237,1.0824752658200276,-7.127262872477134,1.6858985186409214,2
32,2024-09-20 21:34:21.793604096,0,014,-2.156467344979231,0.3636226089984236,1.5012933977193685,-0.3151391902283841,-3.230555420906764,1.0798945505850903,-7.1234280578090114,1.7587680679053035,2
33,2024-09-20 21:34:21.855698944,0,014,-2.1305743891281064,0.3642975199824166,1.540808341789984,-0.3786723793297596,-3.220439241539766,1.0752242146463495,-7.103715597269874,1.8255542475082782,2
34,2024-09-20 21:34:21.917722880,0,014,-2.103720239466892,0.3663218534925962,1.6015479625387192,-0.4407260971461208,-3.21218653904933,1.0686482982974437,-7.069475966460329,1.8850076340669226,2
35,2024-09-20 21:34:21.994850048,0,014,-2.0766779964687845,0.3698175576378957,1.6784552146701786,-0.49889433361881846,-3.204656928837565,1.0603410130778717,-7.022107241027001,1.9362554909264966,2
36,2024-09-20 21:34:22.934642176,0,014,-2.0502375564242588,0.37480978018260774,1.7651962607173752,-0.5511787430110274,-3.196717102859046,1.0504551271729108,-6.963156644642443,1.9787254170773583,2
37,2024-09-20 21:34:23.011528192,0,014,-2.0252031592671664,0.38122360846885484,1.8547491467914634,-0.5960020926834407,-3.1873515836069397,1.0391041666542362,-6.894576882825002,2.012126352872642,2
38,2024-09-20 21:34:23.073097984,0,014,-2.0023196779370793,0.3888853801149769,1.9402097809547336,-0.6322493597667611,-3.17572773265541,1.026353454322858,-6.818743278315938,2.036421813471584,2
39,2024-09-20 21:34:23.135585024,0,014,-1.9821535175950893,0.3975277835518553,2.0156236162675416,-0.659344858445937,-3.1612247585219935,1.0122187642370726,-6.738045077236947,2.051746910405343,2
40,2024-09-20 21:34:23.213314816,0,014,-1.9649976851936235,0.4068052149946784,2.07667365165971,-0.6773039155651674,-3.143402478532233,0.9966639988953543,-6.654249740064574,2.058290056135872,2
41,2024-09-20 21:34:23.275966720,0,014,-1.9508385827039822,0.416323525395935,2.121065251783404,-0.6866842401884633,-3.1219112669210776,0.9795999663845115,-6.5679228099015825,2.05620467134151,2
42,2024-09-20 21:34:23.338432000,0,014,-1.939375190809657,0.4256792036924952,2.1484783541456203,-0.6884181190025765,-3.0964161210827457,0.9609000557003597,-6.478096212337405,2.045604275937727,2
43,2024-09-20 21:34:24.261957120,0,014,-1.9300695245409587,0.43449841993517924,2.1601689214310746,-0.6835826217388911,-3.0666182412444947,0.9404451029749417,-6.382338651345255,2.0266400511879348,2
44,2024-09-20 21:34:24.335385088,0,014,-1.9222208132416245,0.4424704374382414,2.1584783254184225,-0.6731993028887091,-3.0323827637490157,0.9181887385078047,-6.277287438232199,1.9996023606267805,2
45,2024-09-20 21:34:24.396967168,0,014,-1.9150652765233858,0.4493729011273811,2.1463618946567373,-0.6581218869609794,-2.993914855365243,0.8942185766209099,-6.159545197728356,1.9649812925935795,2
46,2024-09-20 21:34:24.458999040,0,014,-1.9078843905443292,0.4550830220714082,2.126841358903218,-0.639005545843695,-2.951902693852258,0.8687923893344967,-6.0267698267166905,1.9234727886733285,2
47,2024-09-20 21:34:24.536652032,0,014,-1.9000854627784887,0.4595711261348845,2.1023868830575694,-0.6163236455455041,-2.907549042055007,0.8423440703195392,-5.878727995148463,1.8759724340102064,2
48,2024-09-20 21:34:24.607686144,0,014,-1.8912422980947083,0.4628839898903574,2.074449387797066,-0.5904166302636505,-2.862452919081295,0.8154641979530157,-5.717977281347323,1.8236092262090648,2
49,2024-09-20 21:34:24.675435008,0,014,-1.8811096457047345,0.46512671401427313,2.0433935595730386,-0.5615774173350756,-2.818358814049975,0.788856469204891,-5.549853245283485,1.7678084341517493,2
50,2024-09-20 21:34:25.618899200,0,014,-1.8696123360512475,0.46644339708383536,2.008932100709744,-0.5301753287456137,-2.776840721865918,0.7632698571213946,-5.381639142867891,1.7102811001949831,2
51,2024-09-20 21:34:25.686682880,0,014,-1.8568057417474346,0.46699641879696113,1.970916579214614,-0.49679382765382285,-2.739032404408661,0.7394196399840219,-5.221124621512136,1.6528578680806696,2
52,2024-09-20 21:34:25.744483840,0,014,-1.8428286776781613,0.466948339867774,1.930143713610443,-0.4623263526175673,-2.7055107468732658,0.7179219219767236,-5.075092640121494,1.5972310456265029,2
53,2024-09-20 21:34:25.806971136,0,014,-1.827879450654127,0.46644815939156226,1.8888619825285125,-0.4279857312245575,-2.6763529791176537,0.6992576245841368,-4.948277788157838,1.5447507449360727,2
54,2024-09-20 21:34:25.885077760,0,014,-1.8122222374219235,0.46562080269843725,1.850865782742047,-0.39523278043858795,-2.6512863623858274,0.6837607858762232,-4.842962733056705,1.4963550061416493,2
55,2024-09-20 21:34:25.949061888,0,014,-1.7961970273785197,0.4645585501609557,1.8212356860803092,-0.36565693739183375,-2.629828349672855,0.6716144730633887,-4.759084479284392,1.4526190228232336,2
56,2024-09-20 21:34:26.024689920,0,014,-1.7802030982567068,0.463312518263642,1.8058526201756744,-0.34083659288383605,-2.611383438412505,0.6628450092243174,-4.694676693695219,1.4138597530233428,2
57,2024-09-20 21:34:26.960864000,0,014,-1.7646622531089333,0.46188465508983567,1.8108222465186485,-0.3222104711092659,-2.5953332150479027,0.6573190479869274,-4.646472115016454,1.3802292332702153,2
58,2024-09-20 21:34:27.036252928,0,014,-1.749988648158589,0.46022555842891494,1.8418433233067972,-0.3109798484576205,-2.581154457999157,0.654752184625552,-4.610467763625492,1.3517665347523231,2
59,2024-09-20 21:34:27.100118016,0,014,-1.7365727402222806,0.45824419266431204,1.903407842525948,-0.3080107064979106,-2.5685360118722422,0.6547301562429899,-4.582279564742491,1.3284000866860664,2
60,2024-09-20 21:34:27.162890752,0,014,-1.7247701953539427,0.4558307567326238,1.9978023971768522,-0.3137011923006372,-2.557419765928844,0.6567350089562356,-4.557304571857821,1.3098986204708745,2
61,2024-09-20 21:34:27.224958976,0,014,-1.7148910578692773,0.452886293181866,2.124179771437757,-0.32786019736833893,-2.547932776499414,0.6601675008667065,-4.530973322028007,1.295821888599538,2
62,2024-09-20 21:34:27.307153152,0,014,-1.7071854026308375,0.4493462119202141,2.2781335573440886,-0.3496917958060978,-2.5402591247685122,0.6643620317865716,-4.499334525131426,1.2855621988382417,2
63,2024-09-20 21:34:27.364958976,0,014,-1.7018068081502762,0.4451850900417203,2.452036286017036,-0.3779225712288963,-2.5345199929327373,0.6685986597557826,-4.459889179652187,1.2785070211984917,2
64,2024-09-20 21:34:28.304420864,0,014,-1.6987380432391377,0.440400592939791,2.636008861470103,-0.41101206764718407,-2.5306818414218113,0.6721244586852956,-4.412341093076206,1.2742397892655757,2
65,2024-09-20 21:34:28.382969088,0,014,-1.6977060008483258,0.4349887032958173,2.819072768727806,-0.4473407568722967,-2.5284655953840893,0.6741932375678948,-4.358848036439295,1.2726298820402573,2
66,2024-09-20 21:34:28.444999936,0,014,-1.6981390959067684,0.4289253701633115,2.990083289323213,-0.4852963191372051,-2.5272416324916422,0.6741184008509734,-4.303503404583169,1.2737215044622894,2
67,2024-09-20 21:34:28.507600128,0,014,-1.6991877049801292,0.4221597166466754,3.138371450582859,-0.5232407058097408,-2.525967319711983,0.6713282083525847,-4.2511960639021575,1.277488744514333,2
68,2024-09-20 21:34:28.587633920,0,014,-1.6997800054307162,0.4146156479348925,3.2542165624739696,-0.5593993687096591,-2.523259173691911,0.6654205368134638,-4.206335632981947,1.2836222389130112,2
69,2024-09-20 21:34:28.647862784,0,014,-1.6986780849945409,0.406198726733746,3.329226047458385,-0.5917617143361565,-2.517609737773946,0.6562144790432494,-4.1719557870786135,1.2914781508995061,2
70,2024-09-20 21:34:28.710350080,0,014,-1.694538587180503,0.3968093031261723,3.356702221265785,-0.6180991045565687,-2.5076563400450826,0.6437877611542018,-4.149555699117556,1.3002179729347965,2
71,2024-09-20 21:34:29.662574848,0,014,-1.6860105322131491,0.38636409693607204,3.3321196086313796,-0.6361477452749309,-2.492401942385097,0.6284899946304956,-4.13969175472187,1.3090588159191965,2
72,2024-09-20 21:34:29.724620032,0,014,-1.6718683129641683,0.37482134866592526,3.253655831570541,-0.6438808486252747,-2.4713388142344526,0.6109280080423286,-4.142834310647178,1.3174948345662467,2
73,2024-09-20 21:34:29.801804032,0,014,-1.6511336067927835,0.36219797008578875,3.1224851538043805,-0.6397305582057028,-2.4444693286108734,0.5919206691720207,-4.159802344158709,1.3253743499727073,2
74,2024-09-20 21:34:29.863862016,0,014,-1.6231671780245995,0.34857454326696846,2.942687786113231,-0.6227045371820494,-2.4122492851218675,0.5724243612561325,-4.191436044811046,1.3328057489624836,2
75,2024-09-20 21:34:29.925898240,0,014,-1.587766703788781,0.3340967429949254,2.7209758077088417,-0.5924617874837305,-2.3754921848085373,0.5534404785001659,-4.237727718667128,1.3399725493068713,2
76,2024-09-20 21:34:30.003563008,0,014,-1.5452873522827102,0.3189801274840461,2.466431476016481,-0.5494072322678212,-2.3352695321567905,0.5359239321259677,-4.296925880235585,1.34696371231741,2
77,2024-09-20 21:34:30.065584896,0,014,-1.4967332747051303,0.3035129724592201,2.1901790350671373,-0.49478210566165254,-2.2928347627051875,0.520709971657623,-4.36509949613032,1.3536607022428804,2
78,2024-09-20 21:34:30.994241024,0,014,-1.4437607920677795,0.28804898629742076,1.9048397314051153,-0.43069685636442634,-2.249577597255556,0.5084652126928042,-4.436482082398927,1.3597068344884682,2
79,2024-09-20 21:34:31.062087936,0,014,-1.3885932602579873,0.2729921130382541,1.623760931964933,-0.360074217475325,-2.206983302242194,0.49965517516378943,-4.504574879775544,1.364602348837882,2
80,2024-09-20 21:34:31.125763840,0,014,-1.3338840335018272,0.2587822644578595,1.3601317956479952,-0.2864915894212163,-2.166560864243658,0.4945195008823096,-4.563555585216316,1.3678901029007948,2
81,2024-09-20 21:34:31.197443840,0,014,-1.2825431897067285,0.2458832714416202,1.126116875634219,-0.21392880583155502,-2.1297230377938847,0.4930572097927286,-4.609425611597294,1.3693142821655309,2
82,2024-09-20 21:34:31.264950016,0,014,-1.2375169459247715,0.2347648062176953,0.9320652874744068,-0.14644412053106193,-2.0976297068134246,0.49503008743669236,-4.640627569344135,1.3688925232373086,2
83,2024-09-20 21:34:31.328445184,0,014,-1.2015168338514735,0.22587073266475777,0.7857968503375883,-0.08781720663384152,-2.071043492653096,0.4999875188650418,-4.658182727275767,1.3669407465440386,2
84,2024-09-20 21:34:31.397239040,0,014,-1.1767240290162975,0.21957275504542864,0.692005883426245,-0.04121296543400445,-2.050270374428762,0.507308774043792,-4.665482177495421,1.3640942500319762,2
85,2024-09-20 21:34:32.339248128,0,014,-1.1645210802047503,0.21611677546996758,0.651883048175601,-0.008923365607870609,-2.035225437340285,0.5162528785849758,-4.667807925494125,1.3613114400644997,2
86,2024-09-20 21:34:32.409892096,0,014,-1.1653105457963746,0.21557872705718237,0.6630478101131652,0.007782446541073458,-2.0255975082917015,0.5260081459152193,-4.671601929150139,1.3598039111813476,2
87,2024-09-20 21:34:32.477602048,0,014,-1.1784515392336858,0.21784506021034974,0.719794071158681,0.008719001955802108,-2.0210393232138366,0.5357428540779504,-4.683520377483587,1.3608578681103551,2
88,2024-09-20 21:34:32.540391936,0,014,-1.2023038311679835,0.22261769002673695,0.8135632753033085,-0.005200628670025463,-2.02130287030097,0.5446609363871543,-4.709388582007138,1.3655985777654513,2
89,2024-09-20 21:34:32.613146112,0,014,-1.2343526070368163,0.22943230213303578,0.9335844816059797,-0.03198751968779069,-2.026280133830191,0.5520595807998339,-4.753209744603121,1.3748041044904853,2
90,2024-09-20 21:34:32.674715136,0,014,-1.2713998837927232,0.23768443124324873,1.0677378948752485,-0.06869318174534397,-2.0359687544379472,0.5573810990869164,-4.816433103824372,1.3888458482943662,2
91,2024-09-20 21:34:32.737507072,0,014,-1.3098238318973459,0.24666861311943888,1.203748397555976,-0.1116942712798672,-2.0504046614878026,0.560251828590033,-4.897763969983362,1.4077768549056793,2
92,2024-09-20 21:34:33.692110080,0,014,-1.3458920529815652,0.2556351254854806,1.330644368679603,-0.1571402205670418,-2.0695860663030587,0.5605030981560299,-4.993636478540671,1.4315228419564578,2
93,2024-09-20 21:34:33.754595072,0,014,-1.3760803289904393,0.2638563624114673,1.4401052845514848,-0.20144003178523603,-2.093394057220662,0.5581728938903235,-5.099107069989315,1.460079226658911,2
94,2024-09-20 21:34:33.817080064,0,014,-1.3973430162512428,0.2706870532586023,1.5272347968990614,-0.24163506831471526,-2.1215100695752382,0.5534880886609556,-5.208784305817297,1.4936300171571593,2
95,2024-09-20 21:34:33.880072960,0,014,-1.4073133918255767,0.2756070302037193,1.5906114575902854,-0.2755891188978573,-2.1533387066732614,0.5468266069823551,-5.317567624538593,1.5325426023391662,2
96,2024-09-20 21:34:33.963241216,0,014,-1.4044412525774064,0.27824334274271806,1.6318189996887948,-0.302029231733066,-2.187968040309005,0.5386644509300699,-5.421162296930773,1.5772306847296222,2
97,2024-09-20 21:34:34.028082944,0,014,-1.3880719119318292,0.2783731398841564,1.6547019365275972,-0.32051162739957906,-2.2242111475665176,0.5295219349913532,-5.5164178442642715,1.6279437701184314,2
98,2024-09-20 21:34:34.098077184,0,014,-1.358450923049307,0.275912184023166,1.6645299757257799,-0.3313689041018842,-2.2607327250892073,0.519924136733723,-5.60147491103747,1.6845716490840306,2
99,2024-09-20 21:34:35.041498112,0,014,-1.3166381225742325,0.2708975174324834,1.6672324271770462,-0.3356467663670079,-2.2961996962746234,0.5103781806388891,-5.675615760630408,1.7465037939417856,2
100,2024-09-20 21:34:35.103502848,0,014,-1.2643348398494834,0.263470683897135,1.6687118748155758,-0.3349926678723874,-2.3293839339637556,0.5013564930473345,-5.738803122985632,1.8125523915485224,2
101,2024-09-20 21:34:35.177736192,0,014,-1.2036519868803919,0.25386066990982814,1.6741206858733073,-0.331459947675888,-2.3592092574783337,0.49327599105708997,-5.791098013634527,1.8809592931910177,2
102,2024-09-20 21:34:35.245455104,0,014,-1.1368772963619742,0.2423659347788034,1.68718121241842,-0.32724551405677443,-2.3847931452213063,0.4864760753440509,-5.832216103941013,1.949486450193289,2
103,2024-09-20 21:34:35.305798144,0,014,-1.0663133542674157,0.22934175241451046,1.70986628484403,-0.3244343389320642,-2.4055131626735653,0.48120421671746416,-5.8613782604446305,2.0155610909697494,2
104,2024-09-20 21:34:35.368282880,0,014,-0.9942108762860904,0.21519691660791945,1.742569487010674,-0.3248245959674494,-2.42106570032218,0.4776076951117588,-5.87745374709753,2.07646401039784,2
105,2024-09-20 21:34:35.446388992,0,014,-0.9227492061905956,0.2003929805003189,1.784503287182978,-0.329852006767426,-2.431465319590225,0.4757199259654291,-5.879279451540728,2.1295572041472015,2
106,2024-09-20 21:34:36.366269952,0,014,-0.854002854154748,0.18543546441117353,1.8340338931365665,-0.3405832812422714,-2.4369847998826577,0.4754403450113782,-5.866032568753565,2.1725113558215137,2
107,2024-09-20 21:34:36.427885056,0,014,-0.7898824691297373,0.17085396956798624,1.888952176390707,-0.35774713520289786,-2.4381050298901275,0.4765282123118869,-5.83758043115348,2.203471235036136,2
108,2024-09-20 21:34:36.489893120,0,014,-0.7320750392106767,0.15717617418351335,1.9468057531248033,-0.3817810790467823,-2.4355342397060173,0.47863076137269744,-5.794681189114558,2.221120644455391,2
109,2024-09-20 21:34:36.567072000,0,014,-0.6819961026437806,0.14490146176851962,2.0052775166807852,-0.4128655922600299,-2.4302550433857224,0.481340786158258,-5.73884311255493,2.2246589470316223,2
110,2024-09-20 21:34:36.624866048,0,014,-0.6407454773782443,0.13447585046291424,2.0624947846070856,-0.45092364821007724,-2.4235026595373794,0.484261178390246,-5.671820414573819,2.2137462820573397,2
111,2024-09-20 21:34:36.707331840,0,014,-0.6090663899136501,0.12626785317436526,2.117280214482328,-0.4956001042418296,-2.416656337514021,0.4870610740135971,-5.594994849701625,2.1884717201706185,2
112,2024-09-20 21:34:36.769515264,0,014,-0.5873277846193952,0.12054681977112576,2.169498063409311,-0.5462638511407494,-2.411116888590873,0.4895195934661895,-5.508888623140279,2.149351594788501,2
113,2024-09-20 21:34:37.702833920,0,014,-0.5755397323607083,0.11746647073466847,2.2204800936243747,-0.6020497476689548,-2.4082208771343407,0.49155184218658393,-5.4128725087211125,2.097334369574274,2
114,2024-09-20 21:34:37.785794048,0,014,-0.5733854186781,0.1170560059581338,2.2732110907268033,-0.661907710325215,-2.409164289629473,0.4932065878596593,-5.305102795204339,2.0337904553042767,2
115,2024-09-20 21:34:37.853513984,0,014,-0.5802529249733845,0.11922160681951931,2.3320373830522114,-0.7246355973495442,-2.414884879462322,0.49462940129062577,-5.182773430187111,1.9604689295671267,2
116,2024-09-20 21:34:37.921022976,0,014,-0.5952709560248038,0.12375926393842561,2.402092473185233,-0.7889309835682409,-2.4258983260639346,0.49599976933229833,-5.042701456125149,1.8794061063513396,2
117,2024-09-20 21:34:37.983947008,0,014,-0.6173658672171295,0.13037577425297778,2.4887700817689944,-0.8534947269048754,-2.4421430895912586,0.4974636935530813,-4.882110879939639,1.7927942091131335,2
118,2024-09-20 21:34:38.045979904,0,014,-0.6453486102347681,0.13871368242700066,2.5972262308348406,-0.9171389616985588,-2.46291236059445,0.4990847015975268,-4.699352519578934,1.7028495116212907,2
119,2024-09-20 21:34:38.123243264,0,014,-0.6780103065057239,0.14837766619266737,2.731664765841386,-0.9788196488127229,-2.4869240106057044,0.5008279639265868,-4.494313794202147,1.611722568671984,2
120,2024-09-20 21:34:39.068140800,0,014,-0.7141812683766746,0.1589600443436279,2.8944086672204294,-1.0375771635007198,-2.512505989561909,0.5025768974444591,-4.268528705430224,1.5214807053197748,2
121,2024-09-20 21:34:39.135889920,0,014,-0.7527238168795729,0.17006084859830925,3.085027570691431,-1.0924188912811754,-2.537801043088498,0.5041629301791637,-4.025268061719064,1.4341814619904576,2
122,2024-09-20 21:34:39.202231808,0,014,-0.7924815894171328,0.1812989226003329,3.2997585791648727,-1.1421724802004698,-2.56090615098279,0.5053848618375638,-3.7698097826625605,1.3519977768875941,2
123,2024-09-20 21:34:39.263871744,0,014,-0.8322501044583247,0.19231804575798547,3.5313773618875857,-1.1853611546774347,-2.5799622572249223,0.5060158232730182,-3.509731766094524,1.2772821539750407,2
124,2024-09-20 21:34:39.339118848,0,014,-0.8708154847626549,0.20279701223087962,3.769658717278001,-1.2202015882809467,-2.5932701297618905,0.5058188413299233,-3.2548436828601397,1.2124837910030146,2
125,2024-09-20 21:34:39.406794240,0,014,-0.9070420495486672,0.21246724391798913,4.002420362246733,-1.2447839606804532,-2.599453779399396,0.5045861477802568,-3.016529239393312,1.1599317937239202,2
126,2024-09-20 21:34:39.464636928,0,014,-0.9399427749364047,0.22113144039004254,4.216865554301982,-1.2573629705252303,-2.5976204515165597,0.5021923693240189,-2.8066418074978174,1.1215492769940034,2
127,2024-09-20 21:34:40.413950976,0,014,-0.9686860572725525,0.22867208291083047,4.400799813041548,-1.2566203591045566,-2.587469518615419,0.49863760261523854,-2.6362311097925373,1.0985564794955858,2
128,2024-09-20 21:34:40.476076032,0,014,-0.9925531819297483,0.23504551143792987,4.543493937506998,-1.2418146695528716,-2.5693385588554514,0.49406110896740546,-2.5142794296659963,1.0912261798795955,2
129,2024-09-20 21:34:40.554403072,0,014,-1.0109006777380214,0.24026908409693398,4.6363140202283,-1.2128223195714873,-2.5441803025461924,0.48872104246441156,-2.4467257481502,1.0987804723274943,2
130,2024-09-20 21:34:40.622155008,0,014,-1.0231729739626014,0.2444105720884747,4.673344215651349,-1.1701215427602452,-2.513463215053254,0.4829517810337081,-2.4361017502945383,1.1194774990914462,2
131,2024-09-20 21:34:40.687194112,0,014,-1.028970293094529,0.24757994079359602,4.6519897874606935,-1.1147648394884326,-2.4790140467593873,0.4771177496252722,-2.4816704041793685,1.1508331768557012,2
132,2024-09-20 21:34:40.747703040,0,014,-1.028129415082837,0.24991735174771665,4.573310081149009,-1.0483539246990565,-2.442839939397528,0.4715769901076327,-2.5796390672514184,1.189892120481073,2
133,2024-09-20 21:34:40.810190848,0,014,-1.0207603031647656,0.25157449306478014,4.441903669849057,-0.9730190969527618,-2.406953418186756,0.4666568577760704,-2.7233255699645635,1.233516016492244,2
134,2024-09-20 21:34:41.743897088,0,014,-1.0072217131351788,0.2526937383989888,4.265404503664696,-0.8913996288744618,-2.3732047724325946,0.46263630157671104,-2.903543787004058,1.2786810701809304,2
135,2024-09-20 21:34:41.808191232,0,014,-0.9880622799155203,0.2533905437983862,4.053728626791294,-0.8065891699460709,-2.3431287155021225,0.45973045044262056,-3.1094300040782166,1.322747604339625,2
136,2024-09-20 21:34:41.870254080,0,014,-0.9639551721592133,0.25373879047717096,3.8181103881385883,-0.7219847211609027,-2.3178202617030825,0.4580811425219375,-3.3295937933129043,1.3636411694821706,2
137,2024-09-20 21:34:41.933061888,0,014,-0.9356467109742492,0.2537599180436098,3.569956245682698,-0.6410168438770801,-2.297856765318235,0.45775788815729723,-3.5531972511426058,1.3998990010393952,2
138,2024-09-20 21:34:42.014345984,0,014,-0.9039462558256923,0.25342647573299926,3.319752311466056,-0.5668319508899157,-2.2832929595526577,0.45876710418734257,-3.770632101505557,1.4305928741082072,2
139,2024-09-20 21:34:42.082636288,0,014,-0.8697804623875166,0.2526919847259962,3.0763591443705893,-0.5020452884189102,-2.2737657985885495,0.46106685380614815,-3.9738373546974266,1.4552000965619523,2
140,2024-09-20 21:34:42.150390016,0,014,-0.8343004307493895,0.2515446337955962,2.8467625497742564,-0.44861680310703017,-2.268719387945718,0.46458808306331134,-4.15657745583072,1.4735156347584282,2
141,2024-09-20 21:34:43.089963008,0,014,-0.7989834198994318,0.2500658960473859,2.6361178205276747,-0.4078119090979493,-2.267691688607883,0.46925883898641774,-4.314918104902571,1.4856731208009897,2
142,2024-09-20 21:34:43.161717760,0,014,-0.7656555309783892,0.24846908027746342,2.4480539539295774,-0.3802040574670156,-2.2705482477394603,0.4750195042183792,-4.447799287832568,1.4922589789411358,2
143,2024-09-20 21:34:43.229072128,0,014,-0.7363921028028619,0.2470974096415456,2.2852718715895204,-0.3657110268114392,-2.2775661137627816,0.4818198412076744,-4.557311025799267,1.4944123716622795,2
144,2024-09-20 21:34:43.290600192,0,014,-0.7132991533808077,0.2463752102605777,2.150171123592533,-0.3636589072876585,-2.289353884627416,0.48960315002035903,-4.648325131893541,1.4938143064454315,2
145,2024-09-20 21:34:43.353097984,0,014,-0.6982230918233135,0.24672712365084534,2.0450573676627206,-0.37285801838084953,-2.3066650975563334,0.4982942923525481,-4.7274872149006155,1.4925487700949505,2
146,2024-09-20 21:34:43.431687936,0,014,-0.6924676790563382,0.24849556030087647,1.9718109360374607,-0.39168387951375044,-2.330171845869956,0.5078035969949316,-4.801846567155207,1.4928552867799958,2
147,2024-09-20 21:34:43.493546752,0,014,-0.6965965487143856,0.25188286422390466,1.9313699067472017,-0.4181745850446659,-2.360234071175066,0.5180396070713031,-4.877437388555996,1.4968182559750145,2
148,2024-09-20 21:34:44.444070144,0,014,-0.7103650302879431,0.25692863201805805,1.9234434944097465,-0.45015928999038074,-2.3966753426286096,0.528908412873655,-4.9580597458950235,1.5060822062114598,2
149,2024-09-20 21:34:44.509872128,0,014,-0.7327846687694446,0.2635197251918525,1.9464847308727133,-0.4854026965176948,-2.4385902591346222,0.5402847017264053,-5.044433565736313,1.5216589296272425,2
150,2024-09-20 21:34:44.571885056,0,014,-0.7622973088912943,0.27142366030381554,1.9976508892256737,-0.521722088736408,-2.48425096251627,0.5519664503462259,-5.13390600936587,1.5438289493319766,2
151,2024-09-20 21:34:44.647205120,0,014,-0.7970108798166212,0.2803307811759143,2.072668768481865,-0.5570618833807185,-2.531191216126734,0.563643213783828,-5.220905755624778,1.5721331722644087,2
152,2024-09-20 21:34:44.711539968,0,014,-0.8349262606115949,0.2898902595858468,2.1658584412653563,-0.5895671442929906,-2.576483071900956,0.5748969565944511,-5.298078315088825,1.6054601679204246,2
153,2024-09-20 21:34:44.782660864,0,014,-0.874098910629622,0.29973437532136055,2.2705220729622395,-0.6177021363364366,-2.6171188807625936,0.5852310000502412,-5.3576770081171885,1.6422112985388762,2
154,2024-09-20 21:34:44.835139840,0,014,-0.9127300244417234,0.30949646564450023,2.379589147919654,-0.6404076101322832,-2.650353595268294,0.5941132944338843,-5.39275799204781,1.680502154803165,2
155,2024-09-20 21:34:45.792195072,0,014,-0.9492156304225825,0.3188284863915715,2.4863028993486465,-0.6572426250072391,-2.673906288177301,0.6010247270128236,-5.397976164600776,1.7183483302214013,2
156,2024-09-20 21:34:45.854314240,0,014,-0.9821804467513997,0.3274182681168548,2.5848488872105153,-0.6684489365698922,-2.686035270730074,0.6055091904226346,-5.370042743013515,1.7538067667184654,2
157,2024-09-20 21:34:45.916798976,0,014,-1.0105159920205302,0.33500521753772294,2.6708317677599123,-0.6749075962554971,-2.685579532459151,0.6072232477847666,-5.308071909060539,1.7851057444951752,2
158,2024-09-20 21:34:45.997337088,0,014,-1.033430927714936,0.3413937592549408,2.7414472785592348,-0.6780055756425758,-2.6720296062315887,0.6059775347915192,-5.213929029289189,1.8108199048159879,2
159,2024-09-20 21:34:46.056434944,0,014,-1.0504966711409351,0.34646116178655945,2.7953424431842318,-0.679456300707052,-2.645603310620564,0.6017569243530778,-5.0923278578646896,1.8300815630883773,2
160,2024-09-20 21:34:46.119388160,0,014,-1.0616583173464562,0.3501566244467582,2.832384121348973,-0.6811119546564628,-2.607259496729824,0.5947108221389691,-4.950328169813876,1.8427334034558351,2
161,2024-09-20 21:34:46.200463104,0,014,-1.0671975137074383,0.35249316152088095,2.853549491606775,-0.6847816034731184,-2.5586175060648957,0.5851161378043688,-4.796308212924411,1.849323600690474,2
162,2024-09-20 21:34:47.114691840,0,014,-1.0676574148545372,0.3535354250204771,2.86090953112064,-0.6920396183887993,-2.5017991631277448,0.5733257194079816,-4.638873858695365,1.8509316559385014,2
163,2024-09-20 21:34:47.177177088,0,014,-1.0637448501122815,0.3533842624650326,2.857471026440183,-0.7040127555735666,-2.4392247273098926,0.5597183892926101,-4.486015395867437,1.848895338309954,2
164,2024-09-20 21:34:47.254720000,0,014,-1.056220777335931,0.35215843716484707,2.84669915116835,-0.721192561276232,-2.373393104005849,0.5446619580627251,-4.344469346741307,1.8445225558413285,2
165,2024-09-20 21:34:47.317305088,0,014,-1.045795669274404,0.3499769064333701,2.83183421781898,-0.7433638141386217,-2.306673610820174,0.5284917563442483,-4.219253308361985,1.8388624647218446,2
166,2024-09-20 21:34:47.379312128,0,014,-1.0330521955403302,0.3469465155996247,2.8153658134103794,-0.7697050219915228,-2.241123092763773,0.5114995119997527,-4.113605889266861,1.8326098459743814,2
167,2024-09-20 21:34:47.458490880,0,014,-1.0184088558079047,0.34315658128977766,2.7989445331711114,-0.7990300581480348,-2.1783396424416197,0.49392709942818774,-4.029513513700604,1.8261658678786616,2
168,2024-09-20 21:34:47.519043840,0,014,-1.0021240480001723,0.33867744706758157,2.7836333846254315,-0.8300575664912667,-2.1193876881175404,0.4759676077776231,-3.9685712092339043,1.819777920341291,2
169,2024-09-20 21:34:48.468206848,0,014,-0.9843350654792783,0.33356047722111537,2.770136303913574,-0.8615757303472215,-2.0648289730838987,0.4577799143700474,-3.9326432026049667,1.813637031214495,2
170,2024-09-20 21:34:48.536431872,0,014,-0.9651234148789378,0.3278399045535601,2.7588113355216084,-0.892453440259967,-2.0148369473974164,0.4395128164031775,-3.923914926445525,1.8078487804909342,2
171,2024-09-20 21:34:48.604173824,0,014,-0.9445833769431838,0.32153608926331356,2.749630104921726,-0.9215608058339114,-1.9693307521653778,0.42132226985529414,-3.944222707405928,1.8022580902319687,2
172,2024-09-20 21:34:48.671931904,0,014,-0.9228669688345799,0.3146574043925473,2.742280536640145,-0.947688693694847,-1.928094648064091,0.40336794611364973,-3.9938765203428295,1.7961875872701238,2
173,2024-09-20 21:34:48.739652096,0,014,-0.9002053625059888,0.3072009428321764,2.736361787688633,-0.9695194394222385,-1.8908820885585977,0.3857908076590196,-4.070498482537417,1.7882247966250104,2
174,2024-09-20 21:34:48.807396864,0,014,-0.8769270001276355,0.29915769382693347,2.7315086469763568,-0.9856781306371941,-1.8574915312336477,0.3686859016645241,-4.168464956231787,1.7762043686532223,2
175,2024-09-20 21:34:48.874397952,0,014,-0.8534736712686003,0.29052688656687436,2.727373189720747,-0.99487055863781,-1.8277914243044737,0.3520858574304685,-4.279251420216676,1.7574497703236014,2
176,2024-09-20 21:34:49.806120192,0,014,-0.8303890971985863,0.2813365010903696,2.7234656850238212,-0.9960516096078471,-1.8016997313343743,0.3359633600202773,-4.392515458759231,1.7292162890231981,2
177,2024-09-20 21:34:49.885504768,0,014,-0.8082578806161992,0.2716612799342018,2.718881549163948,-0.9885211454001706,-1.7791614522479962,0.3202516869282325,-4.497465333152885,1.6892073164913983,2
178,2024-09-20 21:34:49.945754880,0,014,-0.787599498431078,0.2616306680763099,2.7120543749627255,-0.9718989339493146,-1.7601628977710535,0.30487500774896914,-4.584133894183835,1.6360484677980711,2
179,2024-09-20 21:34:50.008240896,0,014,-0.7687496857831247,0.25142351724201806,2.7008119044096497,-0.9460489744602185,-1.7447639659559935,0.28977641932880516,-4.644382807295091,1.5696313109014306,2
180,2024-09-20 21:34:50.085872896,0,014,-0.7517754349650584,0.24125121235423796,2.6828807471506275,-0.9110635470329322,-1.73308672155526,0.2749343482344376,-4.672555817937425,1.4912447447790214,2
181,2024-09-20 21:34:50.148839168,0,014,-0.7364576044524958,0.23133531323933942,2.6565989383265918,-0.8673293113746052,-1.725216609862049,0.2603640316862115,-4.665768859518565,1.4034617552997282,2
182,2024-09-20 21:34:50.224124928,0,014,-0.7223370486180631,0.22188598501368542,2.6213945088703525,-0.8156003703784495,-1.7210265640393954,0.24610418181581234,-4.623925311294699,1.3098497611032283,2
183,2024-09-20 21:34:51.156963072,0,014,-0.7087871022215667,0.21308233869739646,2.5778341813377716,-0.7570190682428983,-1.7200006638472443,0.2321926722565462,-4.549575484404317,1.2146183650844633,2
184,2024-09-20 21:34:51.234832896,0,014,-0.6950808353287209,0.2050530311974594,2.5274553469873595,-0.6931157169387676,-1.7211750660694924,0.21864330539314847,-4.447724704546694,1.1222719003442998,2
185,2024-09-20 21:34:51.303841024,0,014,-0.680449470935971,0.19786031433723683,2.4727202689528496,-0.6258505577251661,-1.72326522371572,0.20543962111023875,-4.325603152099071,1.0372677534771553,2
186,2024-09-20 21:34:51.371510016,0,014,-0.6641389189839396,0.19149583742421342,2.417213822264126,-0.557700334509805,-1.7249372616652978,0.19255266561461423,-4.192190298997273,0.9636545428065365,2
187,2024-09-20 21:34:51.436196096,0,014,-0.6454615723836872,0.18589066702877835,2.365926976322517,-0.49171769217429956,-1.7251091281080533,0.1799734099642868,-4.057254304359631,0.9046954464788586,2
188,2024-09-20 21:34:51.498875904,0,014,-0.6238293759623795,0.18092824013039469,2.3253263073184547,-0.4314719203669586,-1.7231683092257355,0.16773961987467859,-3.929996679924841,0.8625437203872981,2
189,2024-09-20 21:34:51.561499136,0,014,-0.5987600436322753,0.17644741279548837,2.3029565598159585,-0.38082276372565527,-1.7190519743322148,0.15594303789395222,-3.8176692863446795,0.8380557444582578,2
190,2024-09-20 21:34:52.510502144,0,014,-0.5698794345021096,0.1722406756279813,2.3065632971302037,-0.3435539178893705,-1.7132168576144953,0.14472193960500246,-3.7245518279713092,0.8307838131048234,2
191,2024-09-20 21:34:52.572060160,0,014,-0.5369638144486109,0.16806573042265274,2.3430030455305704,-0.3229516622800072,-1.7065506330739701,0.1342528763186516,-3.651693965429819,0.8391565701815669,2
192,2024-09-20 21:34:52.642846208,0,014,-0.5000353842477329,0.16367770322617467,2.417280529006743,-0.3214218449889098,-1.7002311631710916,0.12474502259689306,-3.5976982983788215,0.8608395742116645,2
193,2024-09-20 21:34:52.720545792,0,014,-0.45947308364708483,0.15886954889219077,2.531888764185545,-0.34020013815085387,-1.6955204148183776,0.11642837416417293,-3.5602636562610965,0.8931964097606513,2
194,2024-09-20 21:34:52.789737984,0,014,-0.41608167455063405,0.1535018459528376,2.6864777196762932,-0.3791797151892163,-1.6935286318618008,0.10952624474926051,-3.5376198637189784,0.9336718309859496,2
195,2024-09-20 21:34:52.845060096,0,014,-0.37107666910436515,0.14751227577542966,2.877884205496247,-0.43688704319923705,-1.6950242735207912,0.10421320184427711,-3.5289798132417527,0.9799319915351173,2
196,2024-09-20 21:34:52.924873984,0,014,-0.3259729410100239,0.140908370213757,3.100516003170454,-0.5106274210169051,-1.700336339046555,0.10057583320019248,-3.5338206731430617,1.0297508311494288,2
197,2024-09-20 21:34:53.843529984,0,014,-0.2824069669550483,0.13375423899114458,3.3468856318175773,-0.5967645372296276,-1.709342576294154,0.09860042751617087,-3.550736923553405,1.0807989723116924,2
198,2024-09-20 21:34:53.911326976,0,014,-0.24195075868730737,0.1261594996316467,3.608041638422878,-0.6910505286060411,-1.721514954710766,0.0981957894400244,-3.5769496176001625,1.1305436017413608,2
199,2024-09-20 21:34:53.978059008,0,014,-0.205961704072647,0.11827020650484271,3.873881023081509,-0.7889295500284903,-1.7359995179123702,0.09923501850973776,-3.608876396237219,1.1763767702166152,2
200,2024-09-20 21:34:54.040545792,0,014,-0.17548281958347245,0.1102576997260916,4.13348379211304,-0.8857750842967679,-1.7517212122266628,0.10159414282949968,-3.643253248126659,1.2159376047708965,2
201,2024-09-20 21:34:54.102562048,0,014,-0.15119366376279583,0.10230663512580607,4.375538656105648,-0.9770661660023888,-1.7675068089241392,0.10517655437781688,-3.6781475324280604,1.2474975075143082,2
202,2024-09-20 21:34:54.182147840,0,014,-0.13340698540733453,0.0946071703308197,4.588899123188584,-1.0585510158882236,-1.7822055221977495,0.10992046795342911,-3.713523326206572,1.2702633466667044,2
203,2024-09-20 21:34:54.241390848,0,014,-0.1221014946493088,0.08735142684258007,4.763344845121266,-1.1264463062216061,-1.7947837634414399,0.11578971329598267,-3.7511294018029844,1.2844796359559845,2
204,2024-09-20 21:34:55.193583872,0,014,-0.1169737427155218,0.0807297178814252,4.890475070191708,-1.1776585405305133,-1.8043892131850539,0.12275191947354058,-3.7936397871047056,1.291283783111909,2
205,2024-09-20 21:34:55.261363968,0,014,-0.11749264930874154,0.07492518460798907,4.964446771984869,-1.2099625014826174,-1.8103919501617174,0.13075042717459712,-3.8434567927245045,1.2923924941188554,2
206,2024-09-20 21:34:55.329120000,0,014,-0.12295933520174085,0.07011076257495755,4.982333640601633,-1.2220874254269687,-1.812406053542114,0.13967620975172235,-3.9018180618197733,1.2897663821492678,2
207,2024-09-20 21:34:55.396873984,0,014,-0.132588476223005,0.06645195979510643,4.94411658791169,-1.2137080313376047,-1.8102929923264532,0.14934605039587803,-3.968515882998388,1.285340844815263,2
208,2024-09-20 21:34:55.460262912,0,014,-0.1456224457491429,0.0641159111447192,4.852382770471385,-1.1853706250832297,-1.8041515287204157,0.15949292195743184,-4.042135003157544,1.2808321097861428,2
209,2024-09-20 21:34:55.522748160,0,014,-0.1614724285337819,0.06328465859543127,4.711755867322509,-1.1383906836041646,-1.7943081366776046,0.1697741015173881,-4.120587339486114,1.277626939600104,2
210,2024-09-20 21:34:55.600119040,0,014,-0.17984831574293894,0.06416465956904642,4.528109051872772,-1.0747310853212586,-1.781329674270419,0.17980047589625525,-4.201735151989932,1.276781674183997,2
211,2024-09-20 21:34:56.543254016,0,014,-0.20082021227148714,0.06698119942997192,4.307720015929022,-0.996849029010228,-1.7660542383724176,0.18918271522887123,-4.28397176133211,1.2791240786341136,2
212,2024-09-20 21:34:56.611834880,0,014,-0.2247768251347928,0.07195393077559514,4.0566524409516145,-0.9075332688936218,-1.7496042024217098,0.19758257693098544,-4.366686988816826,1.285390935450407,2
213,2024-09-20 21:34:56.679582976,0,014,-0.2522856976829196,0.07925877299837808,3.7806639271217377,-0.8097881112820358,-1.7333584415346488,0.20475859631338533,-4.450501579105357,1.2963104944777022,2
214,2024-09-20 21:34:56.747337216,0,014,-0.28390015382720307,0.08898403308924499,3.4856565265121744,-0.7067766269638689,-1.7188786684364985,0.210599383790097,-4.537184074120639,1.3125920329378848,2
215,2024-09-20 21:34:56.815113984,0,014,-0.3199824906479003,0.10109022427928248,3.178270624162471,-0.6017623618714754,-1.707781689689839,0.2151402689101857,-4.629286819936321,1.334849048093055,2
216,2024-09-20 21:34:56.882800128,0,014,-0.3605872016634363,0.11538312928602613,2.8661472146824587,-0.4979859329975608,-1.7015614394347283,0.2185596044407909,-4.729603306804165,1.3634846395130533,2
217,2024-09-20 21:34:56.946204928,0,014,-0.4054076509439485,0.13150706357435063,2.5577304151497606,-0.39847723955554487,-1.7013848039815433,0.22114945832400287,-4.840651788443077,1.3985606425508725,2
218,2024-09-20 21:34:57.868798976,0,014,-0.4537949671197763,0.14896564595002393,2.261848344636275,-0.3058700112953663,-1.7079092521126737,0.22326475954437985,-4.9644610768964474,1.4397031419598747,2
219,2024-09-20 21:34:57.936399872,0,014,-0.5048581648762653,0.16717294452368056,1.9873356416960868,-0.22229437518806439,-1.7212012147835056,0.22527364518993354,-5.102656452786379,1.4860948811567374,2
220,2024-09-20 21:34:58.004357120,0,014,-0.557596579770609,0.18552001960889,1.742709499065399,-0.1493565775997891,-1.7408066406790812,0.22752813032051014,-5.25648341958567,1.5365415868190593,2
221,2024-09-20 21:34:58.072125952,0,014,-0.61097672039631,0.2034297264739372,1.5357896529905417,-0.08815600948673856,-1.7659324340519984,0.23034790791407264,-5.426511834539063,1.5895593918888553,2
222,2024-09-20 21:34:58.139864064,0,014,-0.6639267829211577,0.22038652798703373,1.3732535146548202,-0.03930822578450292,-1.7956429344874731,0.2340000625616948,-5.612084384914344,1.6434385755769325,2
223,2024-09-20 21:34:58.204997120,0,014,-0.7153226940710714,0.23595282698380232,1.2601565866621565,-0.0029711897138557093,-1.8290067422072809,0.2386733965508287,-5.8106135795026,1.6962506325107214,2
224,2024-09-20 21:34:58.267482880,0,014,-0.7640437239873459,0.24978817613722132,1.1994698268545259,0.021131075917312638,-1.8651924306345002,0.2444616697151652,-6.016832872392593,1.745804888002022,2
225,2024-09-20 21:34:59.217217024,0,014,-0.8090750199096627,0.2616705473788175,1.191780968672442,0.033685641459316115,-1.9035352580071394,0.2513676825085904,-6.222334695769814,1.7896332308815808,2
226,2024-09-20 21:34:59.276610048,0,014,-0.8495822048192809,0.2715073845337733,1.2352452131490113,0.035756959001748925,-1.9435694298834298,0.2593260353606788,-6.415756623980322,1.825095460509971,2
227,2024-09-20 21:34:59.338689280,0,014,-0.8849458327159234,0.27933210094826827,1.3257156514435513,0.028735456265796516,-1.9850088820080471,0.2682352363382923,-6.583558735860962,1.8496090738048037,2
228,2024-09-20 21:34:59.421549056,0,014,-0.9148003660933813,0.2852923593427033,1.4569769998809234,0.01426244303088444,-2.0276957824624344,0.2779946012629476,-6.711002727172409,1.8609084052301401,2
229,2024-09-20 21:34:59.489267200,0,014,-0.939096754565677,0.289636699307833,1.6210670137126633,-0.005872403612027265,-2.0715607648101284,0.2885434504949395,-6.783175869993006,1.85724919273613,2
230,2024-09-20 21:34:59.557051136,0,014,-0.9581603397196073,0.2927009295143283,1.8087125598723997,-0.029857996585980914,-2.1166150568017685,0.2998941821158653,-6.786273341690503,1.8375649977799045,2
231,2024-09-20 21:34:59.624801024,0,014,-0.9726981259423093,0.2948911724351713,2.0099326797635446,-0.05600990060392354,-2.1629508355896054,0.312146007011623,-6.7092149044690546,1.8016046601611475,2
232,2024-09-20 21:35:00.556183040,0,014,-0.983726782255029,0.29665955182384884,2.214770826661204,-0.08292722556431312,-2.2107009673578126,0.32546779661572933,-6.545333634554936,1.7500298638415945,2
233,2024-09-20 21:35:00.635905024,0,014,-0.9924377571867106,0.29847186875993054,2.4139678708800556,-0.10961934103584339,-2.259935550873835,0.34004926168539246,-6.293838193040831,1.6844399555936518,2
234,2024-09-20 21:35:00.698958080,0,014,-1.00004470728062,0.3007691193061236,2.5993965872461535,-0.13554549096638596,-2.310536510113278,0.35603632671047236,-5.960733500013785,1.607311370696862,2
235,2024-09-20 21:35:00.771704064,0,014,-1.0076385786964646,0.3039250587569781,2.7642355743764284,-0.1605294570145823,-2.3621155217218854,0.3734736519109395,-5.558824167948596,1.5218408754622843,2
236,2024-09-20 21:35:00.839482880,0,014,-1.0160502630590391,0.30820518228585253,2.90295621299638,-0.1845717706184238,-2.414000338223074,0.392267848036221,-5.106716457564616,1.4317011112161897,2
237,2024-09-20 21:35:00.906708992,0,014,-1.0257394506915005,0.31373704199604263,3.011198485967983,-0.20764578178691548,-2.4652748418001664,0.41217270412775964,-4.627173276698854,1.3407701629213187,2
238,2024-09-20 21:35:00.975048960,0,014,-1.0367539848088845,0.32050074267989426,3.085647016415817,-0.22956133227148906,-2.514849872575577,0.43279334695143373,-4.145294817376828,1.2529222531877011,2
239,2024-09-20 21:35:01.918458880,0,014,-1.0487755041919917,0.3283414486143975,3.124051413525105,-0.2499121024546444,-2.561544325229237,0.4536068056444192,-3.6868290768389245,1.1719231747737726,2
240,2024-09-20 21:35:01.986208000,0,014,-1.061217006975385,0.3369983343626286,3.125426711075914,-0.26807976265413436,-2.6041639305906785,0.4739985532621323,-3.276689077165286,1.101407078591547,2
241,2024-09-20 21:35:02.053916928,0,014,-1.0733316860260669,0.34614038570914507,3.0903197427386595,-0.2832830258921199,-2.6415671241985224,0.4933121703363672,-2.937603818431707,1.044870230138122,2
242,2024-09-20 21:35:02.121635072,0,014,-1.0843163221286216,0.3554007502908922,3.0210081899376138,-0.29467640622186647,-2.6727010193979024,0.5108994984519442,-2.6888233826082564,1.0055898757699617,2
243,2024-09-20 21:35:02.189362176,0,014,-1.0934063274692707,0.36440712091373567,2.921523404817626,-0.30148347860892694,-2.6966083794127655,0.5261555173499096,-2.5448919427645684,0.9863917737201654,2
244,2024-09-20 21:35:02.257106944,0,014,-1.0999585715175697,0.3728098314870943,2.7973819788678065,-0.30311478323627794,-2.7124333273074077,0.5385337643218628,-2.5146329762001955,0.9892967467750636,2
245,2024-09-20 21:35:02.310798080,0,014,-1.1035084120478362,0.38030751684892655,2.6550191055901906,-0.2992282601127207,-2.7194409411800575,0.5475512121641835,-2.600540778349821,1.015177314198996,2
246,2024-09-20 21:35:03.254073088,0,014,-1.1037811078483564,0.38666483714976907,2.5011288985803577,-0.289750778996472,-2.7170427254855656,0.5527963191383595,-2.798645522579346,1.0635412422184112,2
247,2024-09-20 21:35:03.331291136,0,014,-1.1006511567175092,0.39171403688750156,2.3421861229293843,-0.2749149312438033,-2.7048339602068188,0.5539510696655009,-3.098795454127061,1.1324840951697,2
248,2024-09-20 21:35:03.395246080,0,014,-1.0940749026025607,0.3953385888406088,2.184273327802674,-0.2553298743277701,-2.682661938406245,0.5508256260844017,-3.485279016449555,1.2187874973605852,2
249,2024-09-20 21:35:03.471291136,0,014,-1.0840479904991058,0.39745052780013035,2.033127600793556,-0.23205001082215782,-2.650712780307993,0.5433900942171281,-3.937688217561661,1.3181076426461618,2
250,2024-09-20 21:35:03.533289728,0,014,-1.0706236600933923,0.39797808115321504,1.8941910895926797,-0.20658774673113586,-2.6095729573525257,0.5317909924822326,-4.432029665260035,1.4252387952572647,2
251,2024-09-20 21:35:03.607760896,0,014,-1.0539715406221093,0.39686948400117433,1.772464976322809,-0.1808455125918394,-2.5602355523110525,0.5163573328958332,-4.942245520518505,1.53448164851446,2
252,2024-09-20 21:35:03.664045056,0,014,-1.0344226531440863,0.3941054750810354,1.6721323501216023,-0.1569841941101192,-2.504047864427964,0.4976021881513352,-5.442094265200146,1.6400742202427019,2
253,2024-09-20 21:35:04.592111104,0,014,-1.0124751886921461,0.38971055605873395,1.5961009172614156,-0.13725462868385724,-2.4426122434400224,0.47620663908946553,-5.906979434112038,1.73656088800533,2
254,2024-09-20 21:35:04.648924928,0,014,-0.9887812841643894,0.3837594427248826,1.5456640651112057,-0.12379743462723077,-2.3776852315367214,0.4529725570595392,-6.315398212853219,1.8190610300877716,2
255,2024-09-20 21:35:04.726129920,0,014,-0.9641413729355159,0.37638102375232435,1.5203893282908374,-0.1184145470028883,-2.311140037937642,0.4287573405068984,-6.650050360993178,1.8835248804353675,2
256,2024-09-20 21:35:04.796044288,0,014,-0.9395037647739005,0.3677624515226223,1.518236096991198,-0.1223542187152786,-2.2449961509893264,0.4044158460131008,-6.8987464497810365,1.9270219903632857,2
257,2024-09-20 21:35:04.850132992,0,014,-0.9159358962771611,0.35815174504802316,1.5358549862785886,-0.13617754321584222,-2.1814340516104394,0.3807578244342047,-7.055035827649584,1.9479836354988296,2
258,2024-09-20 21:35:04.931493888,0,014,-0.8945371648257687,0.34785516177804565,1.568980434131189,-0.1597380997456257,-2.122707291680961,0.3585131634083918,-7.118294067834358,1.9463011886683947,2
259,2024-09-20 21:35:04.999288064,0,014,-0.8763128857857997,0.33722940448915456,1.6127851087592433,-0.19224304196610828,-2.0709348851660683,0.33829811169283497,-7.09313550423426,1.923260789445342,2
260,2024-09-20 21:35:05.941092096,0,014,-0.8620657557361687,0.32667246178573117,1.662146279773068,-0.23234448342280592,-2.027843747664252,0.3205860903383326,-6.9883762037748065,1.881356383977649,2
261,2024-09-20 21:35:06.001135872,0,014,-0.8523347871668884,0.3166149340863948,1.7119289522760694,-0.27823731005053304,-1.994573394214606,0.3056972721825331,-6.815972165430724,1.824027777286245,2
262,2024-09-20 21:35:06.079512064,0,014,-0.8473743059776744,0.30750974112281115,1.757387037276552,-0.3277671228258844,-1.9716097797168077,0.293818135466198,-6.590166828000703,1.7553569669951326,2
263,2024-09-20 21:35:06.141568000,0,014,-0.847167610060579,0.2998166702221156,1.7946252636577533,-0.378557038102632,-1.958820658469714,0.28504038962773864,-6.326773751119979,1.679746336701221,2
264,2024-09-20 21:35:06.215042048,0,014,-0.8514684340193033,0.2939781311211,1.8209579572539238,-0.4281531358306266,-1.9555127465029603,0.2793898524643648,-6.0423611349646835,1.6015813335992934,2
265,2024-09-20 21:35:06.281286912,0,014,-0.8598440187113564,0.2903848814687922,1.8350898016994681,-0.4741901241253233,-1.960459166933772,0.27682433639722,-5.753113369221476,1.524872381221825,2
266,2024-09-20 21:35:06.342925056,0,014,-0.871706113446536,0.2893381013738401,1.837248960642035,-0.5145897806172058,-1.9719056806727926,0.27720769246378846,-5.473438413498819,1.4529194055127976,2
267,2024-09-20 21:35:07.292133120,0,014,-0.8863486380451875,0.29102043357210544,1.8293999066725215,-0.5477771914061464,-1.9875923038202008,0.2802858255358726,-5.214782148459892,1.3880883600805198,2
268,2024-09-20 21:35:07.353408256,0,014,-0.903013331549951,0.29548660741647065,1.8153686226027252,-0.5728419345524159,-2.0048248510026148,0.28568454727344506,-4.985073736156964,1.3317412870198462,2
269,2024-09-20 21:35:07.427603968,0,014,-0.9209837273090068,0.30267641206447315,1.8005793765617426,-0.5895705609820395,-2.0206293618678224,0.29293052940569975,-4.7888684293356185,1.284290955156215,2
270,2024-09-20 21:35:07.495181056,0,014,-0.93968721615537,0.3124419785745553,1.7913967214651894,-0.598347275981674,-2.0320088198301187,0.30148502628384083,-4.628001335944232,1.245358918383614,2
271,2024-09-20 21:35:07.555443968,0,014,-0.9587729560489079,0.32457362938856715,1.7943602870217505,-0.5999794232836646,-2.0362820149765715,0.31077918301320945,-4.502372964217521,1.2140305978902828,2
272,2024-09-20 21:35:07.630428928,0,014,-0.9781352303630121,0.3388128047831831,1.815497582400166,-0.5955151571995877,-2.0314465456247173,0.32024413581057676,-4.410461550723168,1.1891673535344398,2
273,2024-09-20 21:35:07.697818112,0,014,-0.9978639921117897,0.3548519911061916,1.8596699486702006,-0.5861072870424048,-2.016485564366914,0.32933676926983196,-4.349552827640055,1.1697168917314587,2
274,2024-09-20 21:35:08.619038976,0,014,-1.0181289927076775,0.372328872698126,1.9299469667232543,-0.5729536634056571,-1.9915231358134753,0.33756452933531084,-4.316056759871522,1.1549656784751943,2
275,2024-09-20 21:35:08.676163840,0,014,-1.0390405753137426,0.3908233877685018,2.027206539253901,-0.5573112765025942,-1.9577600331955625,0.34450442600883435,-4.30609362600093,1.1446721816764034,2
276,2024-09-20 21:35:08.754442752,0,014,-1.0605463517143239,0.4098640791899565,2.1501526797179706,-0.5405435254050309,-1.917215859827276,0.34980833235469766,-4.316076995038837,1.139043370094625,2
277,2024-09-20 21:35:08.822173952,0,014,-1.082397123373121,0.4289458697067596,2.295676775251326,-0.5241343231179558,-1.8723853993754953,0.3531981337295578,-4.342947600127662,1.1385891223932232,2
278,2024-09-20 21:35:08.877630976,0,014,-1.1041725427970834,0.44755764509924084,2.459306310105355,-0.5096135690559734,-1.8259037444257955,0.3544627331120396,-4.384054998827791,1.1439481001599012,2
279,2024-09-20 21:35:08.957606912,0,014,-1.1253303895868076,0.4652149517787614,2.6356241557075273,-0.4983911046730745,-1.7802559712591965,0.35346428462289997,-4.436897224273835,1.1557421747968726,2
280,2024-09-20 21:35:09.025325056,0,014,-1.1452454640438927,0.48149142250205246,2.8187224291633792,-0.49155833727333376,-1.7375486118807248,0.35015319405176615,-4.498820302104673,1.1744322385715806,2
281,2024-09-20 21:35:09.968503808,0,014,-1.1632327267274536,0.4960449903648056,3.0026485613153,-0.4897311893441086,-1.699377832460323,0.34458753701390693,-4.566726108996107,1.2001467725449004,2
282,2024-09-20 21:35:10.027610112,0,014,-1.1785823366620773,0.5086383358725528,3.181644587125235,-0.49296133291682886,-1.6668295393384172,0.3369508908303199,-4.636936923735616,1.2325178959260463,2
283,2024-09-20 21:35:10.089591040,0,014,-1.1906342831850127,0.5191515558824049,3.3501335067345788,-0.500705431600916,-1.6405961855218039,0.3275600646865344,-4.705375810059911,1.2705927460917945,2
284,2024-09-20 21:35:10.171116288,0,014,-1.198887143354932,0.5275837547940269,3.5026794000154053,-0.5118639743140142,-1.6211174191194848,0.3168515239690113,-4.768116842859263,1.3128869083025916,2
285,2024-09-20 21:35:10.239592960,0,014,-1.2031067880464015,0.5340433801204612,3.6341694917370346,-0.5249258294091015,-1.6086218688170708,0.30533688161013195,-4.822184604618493,1.3576029155933012,2
286,2024-09-20 21:35:10.305756160,0,014,-1.2033926672937179,0.53872703689075,3.740266990474053,-0.5382148387879011,-1.603022229348785,0.2935287993408213,-4.86626259360726,1.4029404638571512,2
287,2024-09-20 21:35:10.375100160,0,014,-1.2001732914519005,0.5418849755028671,3.8180043786936935,-0.5501657410218908,-1.6037409051808382,0.28185701519608997,-4.900942813542605,1.4473603405940063,2
288,2024-09-20 21:35:11.306056960,0,014,-1.194136110838965,0.5437780816446598,3.8663261047747883,-0.5595413625551183,-1.6095796127167963,0.2706038221519408,-4.928452822343247,1.4897011560423932,2
289,2024-09-20 21:35:11.384777216,0,014,-1.1861160870140701,0.5446375440710328,3.8863906781008817,-0.5655443265819511,-1.6186801133598976,0.25987898452142955,-4.952094674864615,1.5291478157735705,2
290,2024-09-20 21:35:11.454094848,0,014,-1.1769545342675698,0.5446328516201191,3.881452332898451,-0.5678237344287982,-1.628580364509169,0.24963609458943017,-4.9756039434918655,1.5651286827436444,2
291,2024-09-20 21:35:11.508244992,0,014,-1.1673370300439865,0.5438469207993938,3.8562578451673817,-0.5664180907575567,-1.6363724128996264,0.23971538619115834,-5.002462054299667,1.597215248231056,2
292,2024-09-20 21:35:11.588242944,0,014,-1.1576471634638565,0.5422608167877807,3.816152551662151,-0.5616953260037965,-1.6389501763109022,0.22988861892389365,-5.035147140068185,1.625041454809262,2
293,2024-09-20 21:35:11.642966016,0,014,-1.1478906433035805,0.5397561455912245,3.76626223150133,-0.5543261962922401,-1.633308956124047,0.21989032114959928,-5.074406289249954,1.6482377593821285,2
294,2024-09-20 21:35:11.720969984,0,014,-1.1377216955961835,0.5361396458290892,3.7110344969574354,-0.5452870428631362,-1.6168510492492636,0.2094387793295452,-5.118737492266483,1.666390975049128,2
295,2024-09-20 21:35:12.669159936,0,014,-1.126548645412218,0.5311824068797673,3.6542121584969096,-0.5358671298377639,-1.5876433544009052,0.198255165760786,-5.164272549752751,1.6790394637466548,2
296,2024-09-20 21:35:12.736929024,0,014,-1.113646368726833,0.5246544213891048,3.599131504408763,-0.5276548805717445,-1.5445715739656094,0.18607717938697255,-5.205166437227276,1.685708140702798,2
297,2024-09-20 21:35:12.796839168,0,014,-1.0982195099830288,0.5163388733605484,3.5491141770793346,-0.5224777468526304,-1.4873821354102612,0.17266029331985208,-5.234426902270328,1.6859817869288682,2
298,2024-09-20 21:35:12.858905088,0,014,-1.0794353058346087,0.5060313659784157,3.5076863882260687,-0.522266546273827,-1.416670601529571,0.1577744533958004,-5.244935678284545,1.6795865546219382,2
299,2024-09-20 21:35:12.937014272,0,014,-1.0564877084848254,0.4935430949412324,3.478461059850128,-0.5288361930238101,-1.333876965299733,0.1412116026840299,-5.230488042969225,1.6664656704484833,2
300,2024-09-20 21:35:12.999497728,0,014,-1.0287214997911716,0.47871865321505463,3.4647117205593183,-0.5436280527385957,-1.241280343540381,0.12280868974204089,-5.186889069071583,1.6468948899837574,2
301,2024-09-20 21:35:13.061064960,0,014,-0.9957824012053165,0.4614643320134288,3.468853985272435,-0.5674970545473026,-1.1419404211093358,0.10248062375949539,-5.113005527501909,1.6216442719205018,2
302,2024-09-20 21:35:14.019495936,0,014,-0.9577237771777868,0.44177650156911386,3.4921016103877376,-0.6006099289585033,-1.0395502327438368,0.08025406066124623,-5.011349737451262,1.5920854983648183,2
303,2024-09-20 21:35:14.087862016,0,014,-0.915026397444446,0.41976059353396616,3.5344179232105177,-0.6424644588850278,-0.9382054749953445,0.05629221850557968,-4.887839526020021,1.5601529625404735,2
304,2024-09-20 21:35:14.141436160,0,014,-0.8685553796457671,0.39563713566348474,3.5946925791972495,-0.6919973547290318,-0.8421283340891494,0.030908614575985063,-4.750769746084021,1.5281706707274116,2
305,2024-09-20 21:35:14.223628032,0,014,-0.8195045710209867,0.36973743140368165,3.671015807762877,-0.7477512918675235,-0.755383958615123,0.004571983226502451,-4.609316633045098,1.4986020265312892,2
306,2024-09-20 21:35:14.291136000,0,014,-0.7693325419683199,0.342489751886907,3.7609715489702564,-0.8080796436415759,-0.68159020851438,-0.02210777833863055,-4.471973847131465,1.4737582695930442,2
307,2024-09-20 21:35:14.359090944,0,014,-0.7196552024199198,0.31439266543770594,3.8619145278783664,-0.8713395616011694,-0.6236149211389288,-0.04842602960799828,-4.345304058159768,1.4554934944455344,2
308,2024-09-20 21:35:14.426779904,0,014,-0.6720882920509473,0.28597714618069014,3.9712018034168755,-0.9360066377583953,-0.5833136261226288,-0.07365243800935924,-4.233283097206353,1.444932075517882,2
309,2024-09-20 21:35:15.363835136,0,014,-0.6280806011645198,0.25776813653210295,4.086353202624843,-1.0006944704914837,-0.5613910391683731,-0.09709782012203516,-4.1372759486496085,1.442288284562914,2
310,2024-09-20 21:35:15.436044032,0,014,-0.5887808172417501,0.230256876114879,4.205131999906365,-1.064133032976085,-0.5574154923444261,-0.11816608627742312,-4.056486958500006,1.4468400617893322,2
311,2024-09-20 21:35:15.503420160,0,014,-0.5549514985681732,0.20388846955979523,4.325553469746402,-1.1251654575084205,-0.5699565361181033,-0.13638976641361275,-3.988686912165737,1.4570886642515037,2
312,2024-09-20 21:35:15.565906944,0,014,-0.5269194638578848,0.1790590780709865,4.445869527212861,-1.1827704107204948,-0.5968076208879901,-0.15144628651647424,-3.930978491281292,1.471056612310957,2
313,2024-09-20 21:35:15.638844928,0,014,-0.5045411582870186,0.15610797647328323,4.564612604182807,-1.2360781725644727,-0.635265270038455,-0.16315449662893933,-3.880360552371939,1.4866145331512794,2
314,2024-09-20 21:35:15.707596032,0,014,-0.4871811412817337,0.1352949363718924,4.680719570595193,-1.2843575525131932,-0.6824358261460258,-0.17145638416775405,-3.8340775501492166,1.501748898721618,2
315,2024-09-20 21:35:15.775309056,0,014,-0.47374147589800053,0.11677332815217917,4.793653707197308,-1.326985277333612,-0.7355285563614181,-0.1763888483088835,-3.789916859010691,1.5147393588341278,2
316,2024-09-20 21:35:16.685393920,0,014,-0.4627815036891094,0.10058021590619876,4.903428294251384,-1.363426815277603,-0.7920909490363972,-0.1780482989778777,-3.746475357761801,1.5242446001146888,2
317,2024-09-20 21:35:16.747878912,0,014,-0.45272007074241943,0.08665290490704748,5.010500220005068,-1.393249244369583,-0.8501704908817996,-0.17655162752880635,-3.7032677752581598,1.5293123228018268,2
318,2024-09-20 21:35:16.829536768,0,014,-0.4420662192347787,0.07486123110805454,5.1155316632108905,-1.4161694659914863,-0.9084158198768861,-0.1720007763414089,-3.6606022210258313,1.5293320848834495,2
319,2024-09-20 21:35:16.897250048,0,014,-0.42962211504995285,0.0650389600242093,5.218976451074912,-1.4321075476874616,-0.9661199923140221,-0.16446135909062004,-3.6192600682315734,1.5239331146012625,2
320,2024-09-20 21:35:16.963128064,0,014,-0.414640184395172,0.05701030108212654,5.320473910777999,-1.4411799112445145,-1.0231801625727681,-0.1539649850381646,-3.580136302597394,1.5128415446708439,2
321,2024-09-20 21:35:17.032745984,0,014,-0.396941819578498,0.05061929144268353,5.418175181842286,-1.4435865850013678,-1.0799460996671546,-0.14053855059959422,-3.5440169455664976,1.4957520214707196,2
322,2024-09-20 21:35:17.100465152,0,014,-0.3769881840508215,0.04576539194797778,5.508233402077806,-1.4394276734830915,-1.136965628747427,-0.12425400286572068,-3.511482989582743,1.4722749030162257,2
323,2024-09-20 21:35:18.044770048,0,014,-0.3558751453901909,0.04243570786059597,5.584677125870201,-1.4285488370035708,-1.1946923431066956,-0.10528370742052959,-3.482747973824052,1.4419735987321873,2
324,2024-09-20 21:35:18.113306112,0,014,-0.335235708069675,0.04071748191328996,5.639772904200373,-1.4104973143844601,-1.2532676134311298,-0.08394109240815792,-3.457297358230219,1.4044362688954906,2
325,2024-09-20 21:35:18.181086208,0,014,-0.31706086709992903,0.04078047117490609,5.664826311711816,-1.3846050003588437,-1.3124619680065133,-0.06068836498193225,-3.4334375362450156,1.3593019916202327,2
326,2024-09-20 21:35:18.248856832,0,014,-0.30347660922560044,0.04283377337106035,5.6512384288086634,-1.3501598056055584,-1.3717479014716418,-0.03610923292126035,-3.408029840839328,1.3062216186829554,2
327,2024-09-20 21:35:18.315907840,0,014,-0.29652789944888536,0.04707428209228,5.5915452731572595,-1.3065814819551875,-1.4303878264723555,-0.010864977819497999,-3.3766418354234733,1.2448088796247196,2
328,2024-09-20 21:35:18.378393856,0,014,-0.29800197283610186,0.053644569345541446,5.480211809360425,-1.2535170914723315,-1.487452672416511,0.014342249249855683,-3.3341677027983363,1.174662037230255,2
329,2024-09-20 21:35:18.452153088,0,014,-0.30927651428474945,0.06260649809132623,5.314173729613752,-1.1908515253086611,-1.541787181760294,0.03878938758061285,-3.2757512553354045,1.0955006688621076,2
330,2024-09-20 21:35:19.395404032,0,014,-0.33115745853655987,0.07392427028310146,5.093279884319677,-1.1187118633385038,-1.5919981519293998,0.061744959343748615,-3.19768293228421,1.0073792366032417,2
331,2024-09-20 21:35:19.463344896,0,014,-0.3637149771201552,0.08744999800583872,4.82067982492736,-1.0375405350639924,-1.6365203016982088,0.08248726695575705,-3.0979573114948735,0.9108924588259728,2
332,2024-09-20 21:35:19.530522880,0,014,-0.4061733684579215,0.10291345891004602,4.5029987255473545,-0.9482470355794863,-1.6737489479648704,0.1003306398869191,-2.9763815107837406,0.8073323092584145,2
333,2024-09-20 21:35:19.599150848,0,014,-0.45689687609905083,0.11992116350265412,4.15012487582248,-0.8523889012043474,-1.7021868187061646,0.11465385811982497,-2.8343504730668894,0.6987915169253675,2
334,2024-09-20 21:35:19.651314944,0,014,-0.5134794712969287,0.137966756207179,3.774596239386229,-0.752303364900076,-1.7205685856872184,0.12492793640416774,-2.674456018352429,0.5881671141546089,2
335,2024-09-20 21:35:19.734562048,0,014,-0.5729335720225504,0.1564539959614857,3.3907177584773676,-0.6511100888290599,-1.7279707024333455,0.1307469951264783,-2.499990835499236,0.47900252587875475,2
336,2024-09-20 21:35:19.790601984,0,014,-0.6319545652339368,0.17473376440173014,3.0135593218038657,-0.5525345866933457,-1.7239358660644137,0.13186871983525397,-2.314368791022913,0.37518331959344375,2
337,2024-09-20 21:35:20.719161088,0,014,-0.687213141653278,0.192151556954129,2.6578937460784235,-0.46056219615362176,-1.7086199282260177,0.12826646050474383,-2.1206488995777177,0.2805934112442538,2
338,2024-09-20 21:35:20.774955008,0,014,-0.7356262044429099,0.20809598672052398,2.337100936610603,-0.37900672354526677,-1.6829140984961004,0.1201787744214453,-1.9215021618898256,0.1988484280343559,2
339,2024-09-20 21:35:20.853061120,0,014,-0.7745713370416623,0.2220384188829679,2.0622239756790557,-0.31112213066073896,-1.648461883826394,0.10812695004898218,-1.719746548913858,0.13314148862792732,2
340,2024-09-20 21:35:20.922480128,0,014,-0.8020240424996928,0.23355830366637018,1.8414470979433188,-0.25935644953189574,-1.607536494638445,0.09288116272334719,-1.5191549047308852,0.08615846575075771,2
341,2024-09-20 21:35:20.976185088,0,014,-0.8166258799458258,0.24235671043370854,1.6800063001688492,-0.22526298004887788,-1.562829720017083,0.07538488384369582,-1.325084319968602,0.060010329720001074,2
342,2024-09-20 21:35:21.058022912,0,014,-0.8177245995906133,0.24826719773878733,1.5802954011789974,-0.20952036434948978,-1.5172289407436164,0.056662413625617504,-1.1446491490606094,0.05615390945713078,2
343,2024-09-20 21:35:21.115086080,0,014,-0.8054219622211111,0.251268517244349,1.5420226144566198,-0.21200744286628687,-1.4736096125977216,0.03772666015166737,-0.9864028424330137,0.07530103106333365,2
344,2024-09-20 21:35:22.070801152,0,014,-0.7806170154552463,0.25149073617953116,1.5624194892138303,-0.23190411227130628,-1.4346293660073326,0.019494785928452527,-0.8596362842375891,0.11733533525049221,2
345,2024-09-20 21:35:22.135374080,0,014,-0.7449911220713585,0.2492024078875345,1.6365341475162003,-0.2678176204507064,-1.4025292003965066,0.0027209035273316616,-0.7734628480284041,0.18124599160805566,2
346,2024-09-20 21:35:22.206308096,0,014,-0.7008934551707231,0.2447767655317537,1.7577062105809844,-0.3179403601109287,-1.3789719855462113,-0.01204426310626014,-0.7359109977320557,0.2650854714217125,2
347,2024-09-20 21:35:22.274021120,0,014,-0.6511428563218676,0.23864708670310786,1.9183070666894646,-0.3802178686240667,-1.364930555500899,-0.024466675482844754,-0.753291392906089,0.3659987111140906,2
348,2024-09-20 21:35:22.336034304,0,014,-0.5987997397435274,0.23126475945980737,2.110634001962072,-0.4524883432478528,-1.3606219787844431,-0.034424661590171525,-0.8300275044410081,0.480386021198824,2
349,2024-09-20 21:35:22.398085120,0,014,-0.5469403789993406,0.22306746305141,2.327702760752386,-0.5325767634273268,-1.3655012143559773,-0.04199238546348625,-0.9687667278793245,0.6041847683273237,2
350,2024-09-20 21:35:22.477379072,0,014,-0.49843371515665275,0.21445632117411623,2.563685023596223,-0.6183403359204888,-1.3783387121519464,-0.04740732343639513,-1.1702536669919092,0.7331704377547723,2
351,2024-09-20 21:35:23.405848832,0,014,-0.4557325586074465,0.20577909932691557,2.8138428935742734,-0.7076581415348381,-1.3973909920848742,-0.05102116869833976,-1.4327296082768521,0.8631977183757792,2
352,2024-09-20 21:35:23.483025920,0,014,-0.42070905914106776,0.19731918083136857,3.0740612528128506,-0.7983911316622846,-1.420649597365454,-0.05324254959105072,-1.7512074628541032,0.9903699946658178,2
353,2024-09-20 21:35:23.545510912,0,014,-0.39454933339000264,0.1892900561662256,3.3402869177486876,-0.8883774836824345,-1.4461352084370784,-0.05447795553272553,-2.117073849928707,1.1111493325787993,2
354,2024-09-20 21:35:23.622200832,0,014,-0.37771372523001356,0.18183649770906893,3.6081201661822453,-0.9754896420439048,-1.472181320563164,-0.05507358492881304,-2.5181599970799105,1.2224264071570639,2
355,2024-09-20 21:35:23.677819136,0,014,-0.3699825849913587,0.17504732933139447,3.8726285715520663,-1.057706392180087,-1.4976298871085254,-0.055268279278040455,-2.939284944458805,1.3215937094896943,2
356,2024-09-20 21:35:23.756334848,0,014,-0.37059772567263954,0.16898105858449436,4.12837823330601,-1.1331515252058484,-1.5218814325049774,-0.05517230049375906,-3.3633349355996383,1.4066615092605166,2
357,2024-09-20 21:35:23.819032832,0,014,-0.3784692752494876,0.16369645526358487,4.3696549338262365,-1.2001111389701031,-1.5448151772710297,-0.054774157681703586,-3.7728006048590688,1.476395087828429,2
358,2024-09-20 21:35:24.768914176,0,014,-0.39239278513387327,0.15927788038700028,4.590842397905282,-1.25708372053327,-1.5666458122536682,-0.05396219390807966,-4.1513384290882,1.5303924462835894,2
359,2024-09-20 21:35:24.836736768,0,014,-0.41123260308182585,0.15585016744097543,4.786951305894157,-1.3029053765107377,-1.5877573196596018,-0.05254998658235694,-4.484833124552098,1.5690350024228008,2
360,2024-09-20 21:35:24.903552000,0,014,-0.43404721131105767,0.15358199686050333,4.954230563060889,-1.3369318461167974,-1.6085142747022856,-0.05030787906517096,-4.761823646310445,1.5933150949257406,2
361,2024-09-20 21:35:24.972197120,0,014,-0.4601465988811187,0.15267853066351367,5.090625118650627,-1.3591874292666843,-1.6290763730373576,-0.047004314299092256,-4.973567058460204,1.6046087019895392,2
362,2024-09-20 21:35:25.037826048,0,014,-0.48908466529855604,0.15336496441865954,5.195839297886267,-1.370389057157487,-1.6492905908245505,-0.04244701356798123,-5.11401652765418,1.6044683458803348,2
363,2024-09-20 21:35:25.107753984,0,014,-0.5205909047280397,0.15586306986181309,5.271082334019136,-1.371852016692243,-1.6687142235255974,-0.03650610523623741,-5.1797736331045945,1.594457713815755,2
364,2024-09-20 21:35:25.175301120,0,014,-0.5544520043063728,0.16036498545089256,5.318869422585264,-1.365372415872648,-1.6867402870842205,-0.029115322783397984,-5.169980008833211,1.5760048375388953,2
365,2024-09-20 21:35:26.111637248,0,014,-0.5903843817573665,0.1670103528963891,5.343062300881158,-1.3531368128133197,-1.7027483739912563,-0.02026701709500934,-5.086110626974008,1.5502668478163004,2
366,2024-09-20 21:35:26.187724032,0,014,-0.6279506688997585,0.1758698929780613,5.348869136112958,-1.3375992899343718,-1.7162312881389867,-0.010011166204250807,-4.931638652232254,1.5180356703286872,2
367,2024-09-20 21:35:26.250956032,0,014,-0.6665454550721279,0.18693467643572773,5.342445529677865,-1.3212514934946797,-1.7268965183484575,0.0015529170543248005,-4.711657792034603,1.4797284777850646,2
368,2024-09-20 21:35:26.313224192,0,014,-0.7054480471063019,0.20011096137726653,5.330127273412423,-1.3062996465838446,-1.7347407413879072,0.014303058928735934,-4.432763095012333,1.435513254500911,2
369,2024-09-20 21:35:26.375886848,0,014,-0.7439215597909492,0.21522203682659286,5.317626526687014,-1.2943475930400958,-1.7400597221615857,0.028127216207000216,-4.1035092370247055,1.3855948459923575,2
370,2024-09-20 21:35:26.453015040,0,014,-0.7813140112867102,0.23201698685371194,5.3094429323587145,-1.2861967841166002,-1.7433682172554603,0.042939804785317164,-3.7353079516616083,1.3305849307938484,2
371,2024-09-20 21:35:26.526384896,0,014,-0.817113718323165,0.2501836779584728,5.308496604710695,-1.2817961093827697,-1.7452723474996994,0.05867242912178888,-3.3429892682781994,1.2717750577607996,2
372,2024-09-20 21:35:27.436077824,0,014,-0.8509461011731092,0.2693622591810028,5.315847201919926,-1.2802796445358773,-1.7463665721947612,0.07525395647039947,-2.944241710369214,1.2111623109067347,2
373,2024-09-20 21:35:27.510601984,0,014,-0.8825344447556606,0.2891554706017864,5.330428919179961,-1.2800363937690313,-1.7471754738780103,0.0926014298609917,-2.5579455995050933,1.151229770186707,2
374,2024-09-20 21:35:27.575330048,0,014,-0.9116473401160434,0.3091326420131201,5.34890094205457,-1.2788346735504785,-1.7480993248553105,0.11062593671369073,-2.2020703487635838,1.0945968617638306,2
375,2024-09-20 21:35:27.646073856,0,014,-0.9380388432704106,0.3288271642489447,5.365761943072033,-1.2740462869682474,-1.749325221003012,0.12923744036154863,-1.8916661695726213,1.0436444766376398,2
376,2024-09-20 21:35:27.713739008,0,014,-0.9613884231453762,0.34773218189784066,5.373765251684342,-1.262959062150979,-1.7507168173155832,0.1483298938484117,-1.637112133350764,1.000169079838613,2
377,2024-09-20 21:35:27.780897024,0,014,-0.9812692101719722,0.3653040445642704,5.36457087585922,-1.2431078204427384,-1.7517386440367642,0.16774448519829002,-1.4428027031992128,0.9651138906637439,2
378,2024-09-20 21:35:27.849170944,0,014,-0.997182307951852,0.3809847436712973,5.32960824531383,-1.2125525039503497,-1.7514720170115077,0.18723001597441183,-1.306661229809375,0.9384434431458678,2
379,2024-09-20 21:35:28.785250048,0,014,-1.008658698243879,0.3942477487367179,5.261146700407635,-1.170071722882854,-1.7487384799987034,0.2064257135514789,-1.2208075655646662,0.9192116766870327,2
380,2024-09-20 21:35:28.848412160,0,014,-1.0153788855432708,0.4046578320837914,5.153429294029226,-1.115275267504493,-1.7422962034150975,0.2248785997265779,-1.1732718757159801,0.9057997273341046,2
381,2024-09-20 21:35:28.927769088,0,014,-1.0172633715394286,0.41192776653785257,5.003638762461877,-1.0486596000492556,-1.7310549697866042,0.2420873377034156,-1.150195765749958,0.8962224156058555,2
382,2024-09-20 21:35:28.996231936,0,014,-1.0145302287547087,0.4159589728998552,4.812551754906715,-0.9716240695064796,-1.7142741690028296,0.2575542822875797,-1.1379380654980555,0.8884116198109481,2
383,2024-09-20 21:35:29.064012032,0,014,-1.007722479558101,0.41686039222629434,4.584809756319061,-0.8864311898082076,-1.6917368063169602,0.2708342989274858,-1.1248127040090627,0.8804581826599482,2
384,2024-09-20 21:35:29.131672064,0,014,-0.9976859459312638,0.4149439204526306,4.328755506663674,-0.7960791270926776,-1.663890812855581,0.28157771096601353,-1.1023541224565063,0.8708223017573715,2
385,2024-09-20 21:35:29.199393024,0,014,-0.9854898834278824,0.4106972041104313,4.055816286997097,-0.7040839685611311,-1.6319111986971924,0.28955822352797544,-1.0659562137806602,0.8584916504055021,2
386,2024-09-20 21:35:30.143657984,0,014,-0.9723164375652584,0.4047377871953739,3.7794673390909903,-0.6142162805021502,-1.597620595336134,0.29466970981111623,-1.0148157108751918,0.8430506739709853,2
387,2024-09-20 21:35:30.211440896,0,014,-0.9593564910918428,0.39775725364713865,3.513899442723635,-0.5302507184843166,-1.5632640898506835,0.2968932387398374,-0.9513939521095862,0.8246549724747545,2
388,2024-09-20 21:35:30.278284288,0,014,-0.9477343472123928,0.3904652082515063,3.2725872395290576,-0.45574055590292006,-1.5312100272626628,0.2962599106211745,-0.8807642034761366,0.8039494786067667,2
389,2024-09-20 21:35:30.341025792,0,014,-0.93846045998448,0.38353708950639925,3.066976329641674,-0.39378428851451364,-1.5036487920532724,0.292831122113294,-0.8100701124627009,0.7819788154206881,2
390,2024-09-20 21:35:30.414572032,0,014,-0.9324010997004287,0.37756450897186145,2.905553801239555,-0.3467847056916096,-1.4823171803387594,0.28669645260969495,-0.7480412796717,0.7601033031090909,2
391,2024-09-20 21:35:30.482300160,0,014,-0.9302584183678999,0.3730089896500323,2.7935577793827853,-0.3162571738438213,-1.4682718635552967,0.2779791537913586,-0.7043356248187084,0.7398982618157359,2
392,2024-09-20 21:35:30.542830080,0,014,-0.9325544740275109,0.3701649062291208,2.7332851260542257,-0.3027299945451467,-1.4617619799755504,0.26683999959549787,-0.6885529032698549,0.7230099172042871,2
393,2024-09-20 21:35:31.454635008,0,014,-0.9396056215826534,0.3691383555458677,2.724534669465323,-0.30572875163179075,-1.4622460109468693,0.25347503190158405,-0.7090123407837734,0.7109594901590507,2
394,2024-09-20 21:35:31.532280064,0,014,-0.9514857497463511,0.36984666690427503,2.7647525872815724,-0.3238294347605256,-1.4685383813723114,0.23810948305311747,-0.7715887896039477,0.7049144416736691,2
395,2024-09-20 21:35:31.604209920,0,014,-0.9680037557955344,0.37204025280310393,2.8489535207055012,-0.3547819259707702,-1.479006124463635,0.22099247195522873,-0.8789334733230567,0.7054808632195271,2
396,2024-09-20 21:35:31.656540160,0,014,-0.9887126045482939,0.37534269962382066,2.9697767690459367,-0.39569422139007826,-1.4917485216298947,0.20239621527494397,-1.030253792677538,0.7125919508974817,2
397,2024-09-20 21:35:31.739714048,0,014,-1.0129315141761395,0.37929951116142624,3.1178267374362663,-0.44325142458841044,-1.5047592742911529,0.18262118810121378,-1.221565219803535,0.7255372164704457,2
398,2024-09-20 21:35:31.798240000,0,014,-1.0397565245877762,0.3834257538304104,3.2822106106949227,-0.4939576677268223,-1.5160873360722338,0.16200161319261502,-1.4462241353955148,0.7431214325445086,2
399,2024-09-20 21:35:31.874139904,0,014,-1.0680593522247335,0.38724727271760784,3.451213251213963,-0.5444069462361222,-1.5239877254597591,0.14090345368791712,-1.6957107336784674,0.7639201012576132,2
400,2024-09-20 21:35:32.818813952,0,014,-1.0964968498851444,0.3903360573044475,3.6131045267800364,-0.5915704828306734,-1.5270483743822016,0.11971403985698914,-1.9606889936026526,0.7865892288853492,2
401,2024-09-20 21:35:32.874644992,0,014,-1.1235526470421957,0.3923426899450994,3.7570047867905902,-0.6330594790914826,-1.5242723833087535,0.09882420285853076,-2.2321683922709483,0.810154294407051,2
402,2024-09-20 21:35:32.951800064,0,014,-1.1476092846930566,0.39302458652233224,3.873684248520599,-0.6673218689137698,-1.5150947826164876,0.07860099516438035,-2.502459593441726,0.8341825590697666,2
403,2024-09-20 21:35:33.022067200,0,014,-1.1670407075451013,0.3922645745950314,3.956144850524216,-0.6937282876688076,-1.4993572123734416,0.059355507958724865,-2.7656611119179955,0.8587734236009201,2
404,2024-09-20 21:35:33.089779968,0,014,-1.1803342537030208,0.3900779373167149,3.9998024568426223,-0.7124951292735845,-1.4772943144830504,0.04131982899494103,-3.0175116060490192,0.8843675932905705,2
405,2024-09-20 21:35:33.152439296,0,014,-1.1862455671627752,0.38661043927504257,4.0022928168056096,-0.7244558120086709,-1.4495465450464369,0.024644920131139385,-3.254650650180611,0.9114445007360017,2
406,2024-09-20 21:35:33.214503936,0,014,-1.1839418660814403,0.38212409211717363,3.9632667458862825,-0.730793783273673,-1.4171613966923748,0.009417868752457632,-3.4736504791612117,0.9402230891123614,2
407,2024-09-20 21:35:34.168798208,0,014,-1.173072702226309,0.3769629965826511,3.884497998047558,-0.7328592341099457,-1.3815455948266162,-0.004314064917790128,-3.6703312928348657,0.9704673403709707,2
408,2024-09-20 21:35:34.236614912,0,014,-1.153760104415817,0.37150452323940897,3.7702229427447667,-0.7320973512262201,-1.3443716859204502,-0.0165234307398581,-3.839675155467034,1.001427935925441,2
409,2024-09-20 21:35:34.304318208,0,014,-1.1265487922783968,0.36611602081501937,3.627373260682993,-0.7300302522108946,-1.3074599564107467,-0.02718984851391276,-3.976331156596145,1.0319013266437675,2
410,2024-09-20 21:35:34.370168064,0,014,-1.0923507140069504,0.36113285482864144,3.4653921413527056,-0.7282149843559036,-1.2726345633051566,-0.036297253296338074,-4.0754701993163325,1.0603812716309626,2
411,2024-09-20 21:35:34.439757056,0,014,-1.0523925609428635,0.356856807207461,3.2954704366450827,-0.7281331251050788,-1.2415522140456885,-0.043844588511921946,-4.13360754075106,1.0852615000393449,2
412,2024-09-20 21:35:34.507472896,0,014,-1.0081644339441984,0.35356188554818885,3.1292552314526016,-0.73102510292201,-1.2155405988032437,-0.0498656747258773,-4.149063764958074,1.1050321480136207,2
413,2024-09-20 21:35:34.569092096,0,014,-0.9613778528270897,0.35149733868398453,2.977383998026447,-0.737733868860093,-1.19549637480471,-0.05444628360049285,-4.12201341845367,1.1184416848295624,2
414,2024-09-20 21:35:35.519543040,0,014,-0.913944893667054,0.3508902401379148,2.848413871747079,-0.7486422433577665,-1.1818562680351241,-0.057729703776162725,-4.054338264527966,1.1246289860688303,2
415,2024-09-20 21:35:35.582063104,0,014,-0.8679505750362857,0.3519516809471417,2.7485588488898274,-0.7637472378260229,-1.1746227207239939,-0.05991059325485319,-3.949524031490673,1.1232205119194485,2
416,2024-09-20 21:35:35.652919808,0,014,-0.8255575472026035,0.35487800757912885,2.682136989724384,-0.7828205147821674,-1.173427865934846,-0.06121947782897037,-3.8126436801145354,1.1143777520436484,2
417,2024-09-20 21:35:35.715405056,0,014,-0.7888199457602704,0.35983329663605174,2.6522176416551404,-0.8055442502714876,-1.1776328082366943,-0.06190022511294908,-3.650325399364701,1.0988038307729147,2
418,2024-09-20 21:35:35.777003008,0,014,-0.7594455869740071,0.3669112538215025,2.661009771471832,-0.8315551118985993,-1.1864582068226563,-0.0621874463836846,-3.470638798546103,1.077726279897316,2
419,2024-09-20 21:35:35.858464000,0,014,-0.7385712916272698,0.3760914023784967,2.709851491118598,-0.8604150933209146,-1.1991252164756585,-0.062292220827640514,-3.2828582057130715,1.0528368574220133,2
420,2024-09-20 21:35:35.926196992,0,014,-0.7266135975135504,0.3872109405326049,2.7988323461877367,-0.8915489022260806,-1.214967718901584,-0.062396705901088464,-3.0970007297112856,1.0261406230173162,2
421,2024-09-20 21:35:36.855750912,0,014,-0.7232405627389566,0.39996660668827533,2.926150234872719,-0.9241589877545481,-1.233481122375775,-0.06265093018108732,-2.92309621784097,0.9997033142175951,2
422,2024-09-20 21:35:36.936002048,0,014,-0.7274679819452373,0.41394534325234195,3.0875144087872135,-0.9571455123318282,-1.254294912633189,-0.0631671403706621,-2.7703783103120445,0.9753720745373821,2
423,2024-09-20 21:35:36.995298048,0,014,-0.7378339846017292,0.42866804331785213,3.276019304009273,-0.9890947651770062,-1.2770768965115078,-0.06401322547866811,-2.6466832201477417,0.9545720296875669,2
424,2024-09-20 21:35:37.057469952,0,014,-0.7526006343345857,0.44363036705856596,3.482632311438026,-1.01835729492974,-1.3014110572512712,-0.06520691284973172,-2.5581029248197087,0.9382007830547747,2
425,2024-09-20 21:35:37.135476992,0,014,-0.7699612737117609,0.458338790757703,3.6970232559718497,-1.0431534513697402,-1.326714911893626,-0.06670930275967171,-2.5086702882087923,0.9265751356553804,2
426,2024-09-20 21:35:37.197558016,0,014,-0.7882445463447684,0.4723491645115354,3.908359079819899,-1.0616437484639711,-1.3522169303806901,-0.06842000036405202,-2.4999367950771423,0.9194112191139268,2
427,2024-09-20 21:35:37.260043008,0,014,-0.8060954696513334,0.48530692860840835,4.105937963030624,-1.0719848046064948,-1.3769489734602973,-0.07018229088816184,-2.530595622878206,0.9158559977070477,2
428,2024-09-20 21:35:38.188497152,0,014,-0.8225999286029578,0.4969753820528223,4.27977491038811,-1.0724299170144782,-1.3997289023103867,-0.071802976956978,-2.5964142353528605,0.9145801688674808,2
429,2024-09-20 21:35:38.251507200,0,014,-0.8373156206623548,0.5072385746167862,4.421171119624365,-1.06147928708932,-1.41918682974975,-0.07307911782416653,-2.690580802192668,0.9139328581201875,2
430,2024-09-20 21:35:38.318016000,0,014,-0.8502039076453594,0.5160784603553935,4.523130568113021,-1.038049386041932,-1.4338975535846101,-0.07381643298975779,-2.8043243271485845,0.9121472128178789,2
431,2024-09-20 21:35:38.392340736,0,014,-0.861504802108842,0.523537801543786,4.580607436422133,-1.001664234100764,-1.4425940654297036,-0.07382983362377521,-2.9275765203701085,0.90754435848867,2
432,2024-09-20 21:35:38.454829824,0,014,-0.8716100313115747,0.5296822282896125,4.590772597352136,-0.95266613882456,-1.4443607583939124,-0.07293186718327152,-3.049570512999481,0.8986598421859453,2
433,2024-09-20 21:35:38.517335040,0,014,-0.8809720216206074,0.5345720127986514,4.5533722729142365,-0.8923732000323732,-1.4387224173315196,-0.07092836719398128,-3.1594308460100184,0.8842847915676852,2
434,2024-09-20 21:35:38.599000064,0,014,-0.8900750341599709,0.5382527704581068,4.470998185634813,-0.8230943435259749,-1.425631817561686,-0.06763775522579249,-3.2468620425240045,0.8635260882902935,2
435,2024-09-20 21:35:39.540376064,0,014,-0.8994812906284907,0.5407706490752966,4.349102115374617,-0.7479856185717971,-1.405436393284165,-0.06293020045572599,-3.3030108180156392,0.8359782747688287,2
436,2024-09-20 21:35:39.611620096,0,014,-0.909927465861518,0.5422059789770186,4.195776688549819,-0.6708015945069586,-1.378891579552806,-0.05676793397985026,-3.3214525526520506,0.8019346633714249,2
437,2024-09-20 21:35:39.679356160,0,014,-0.9224041051092113,0.5427068281281179,4.0213420044870425,-0.5955994492697856,-1.3471960854156428,-0.049232987596050694,-3.2990716873896373,0.7624687132758219,2
438,2024-09-20 21:35:39.746784000,0,014,-0.9381517714659489,0.542506187459471,3.837646419774351,-0.5264212373255144,-1.3119765029697241,-0.04053878072049448,-3.236533879184066,0.7193115121381329,2
439,2024-09-20 21:35:39.806174976,0,014,-0.9585649942568627,0.5419221750342286,3.656994550187198,-0.46696742940199426,-1.275193820815385,-0.031023429807451628,-3.1381897506808114,0.6745742091298168,2
440,2024-09-20 21:35:39.868127232,0,014,-0.9850524535121541,0.5413488364035863,3.4908002430609795,-0.42028561648566787,-1.2389945427452975,-0.021121822113033158,-3.011506737722289,0.6304019797029397,2
441,2024-09-20 21:35:39.945400832,0,014,-1.0188964445615396,0.5412387135328978,3.3482131711426173,-0.38850009608239044,-1.2055345988745492,-0.011319200644262789,-2.866292071811992,0.5886628626856476,2
442,2024-09-20 21:35:40.893490944,0,014,-1.0611015772600902,0.5420716424352278,3.2349664654557624,-0.37259718007460996,-1.1767999567311622,-0.0020980280527683765,-2.713951552710967,0.5507773573475846,2
443,2024-09-20 21:35:40.962061824,0,014,-1.1122092474715533,0.5443084901494286,3.152642592341749,-0.3722924814972028,-1.1544452468473103,0.006104841207988519,-2.566873357351939,0.5177285166443647,2
444,2024-09-20 21:35:41.029773824,0,014,-1.1721136047433405,0.5483400673266637,3.098559356893765,-0.3860466942613622,-1.139663776385126,0.012918333571538362,-2.437774856687115,0.4901849668290531,2
445,2024-09-20 21:35:41.097467904,0,014,-1.2399668855372459,0.5544488548332018,3.0664337487974973,-0.4112931417753056,-1.133112235631211,0.018040217413052565,-2.3387042707098886,0.46860690179221737,2
446,2024-09-20 21:35:41.164516096,0,014,-1.3142349646864122,0.5627965385554639,3.0477427568414264,-0.4448421102398957,-1.1349227208821286,0.021243118352326163,-2.2796936379144115,0.45325309942491554,2
447,2024-09-20 21:35:41.232986880,0,014,-1.3928866445036883,0.5734353237268957,3.0333981433305954,-0.4833268195845089,-1.1447865241729545,0.02239438620911742,-2.2675829924949884,0.4441206470314786,2
448,2024-09-20 21:35:41.290275840,0,014,-1.4736443637618513,0.5863280190222901,3.015290417614881,-0.5235703491742142,-1.1620303504510743,0.02148144370073956,-2.305573785176984,0.44089964202074994,2
449,2024-09-20 21:35:42.218328832,0,014,-1.5542170338515031,0.6013628964806141,2.9874328077305674,-0.5628305267184635,-1.1856276373219792,0.018628819197951306,-2.3935720588093954,0.4429850666818072,2
450,2024-09-20 21:35:42.286152192,0,014,-1.6324614214485973,0.6183600719796384,2.9465695429243115,-0.5989197968192947,-1.2141783119811915,0.01409814499459336,-2.5289577529960128,0.4495410942335593,2
451,2024-09-20 21:35:42.353341184,0,014,-1.7064621428575726,0.6370744646080192,2.892218228675067,-0.6302247603476072,-1.2459333638897394,0.00826765317155076,-2.707398883550824,0.4596018392985979,2
452,2024-09-20 21:35:42.421628928,0,014,-1.7745657189783373,0.6572023377205112,2.826334897114891,-0.6556860631846327,-1.2788999014572844,0.0015960324062510645,-2.923545437549951,0.47219698862117865,2
453,2024-09-20 21:35:42.487874048,0,014,-1.8354195943260678,0.6783963480055141,2.7528589645911437,-0.6747751543971507,-1.3110108483473883,-0.005415345466193685,-3.1715468225730343,0.4864794146643053,2
454,2024-09-20 21:35:42.550362112,0,014,-1.888035621060247,0.7002902555830497,2.6771647731198343,-0.687437401361646,-1.3403256081884998,-0.012250230370234446,-3.445249981563721,0.5018017599303765,2
455,2024-09-20 21:35:42.624833024,0,014,-1.931847571005897,0.7225285664132214,2.605330343167698,-0.6939754711880293,-1.3652274531076845,-0.018395406947063934,-3.737969186082192,0.5177027555711354,2
456,2024-09-20 21:35:43.568486912,0,014,-1.96671676146336,0.7447900521606222,2.5433211792816683,-0.6949206737639182,-1.3845872628609994,-0.023354538056390248,-4.042045379940699,0.5338459595815712,2
457,2024-09-20 21:35:43.631762944,0,014,-1.9928773299103466,0.7667968170585501,2.496268169840566,-0.6909571701954785,-1.3978641824527889,-0.02666223911957906,-4.3486861591731225,0.5499986617960344,2
458,2024-09-20 21:35:43.693797120,0,014,-2.0108577672509327,0.7883125965578887,2.46785142740193,-0.6828973120005575,-1.4051220296568263,-0.027899378756684856,-4.648416699102345,0.5660773331724894,2
459,2024-09-20 21:35:43.770992896,0,014,-2.0214132837892125,0.8091376070679234,2.4598192755333046,-0.6716724484742609,-1.406973920149357,-0.02670679110209896,-4.931970394676107,0.5822012934349636,2
460,2024-09-20 21:35:43.833017088,0,014,-2.0254627615204073,0.829098830970352,2.4719031078478233,-0.658339951097439,-1.404489077060757,-0.022797061040165507,-5.191107938737945,0.5986883789588942,2
461,2024-09-20 21:35:43.907217920,0,014,-2.0240019214711378,0.8480325383866053,2.502271523448438,-0.6441091486735052,-1.39907411291953,-0.01597032401207684,-5.419024335368876,0.6159924018921609,2
462,2024-09-20 21:35:43.971280128,0,014,-2.0179941451069254,0.8657645861483836,2.548256747469466,-0.6303404401943514,-1.392324122692862,-0.0061369567256361985,-5.610394920863982,0.6346426742118487,2
463,2024-09-20 21:35:44.917543936,0,014,-2.008287842306437,0.8820996005334313,2.6070112973749233,-0.618471362018881,-1.3858571399976654,0.006657227637240357,-5.761234396171929,0.6552293435213424,2
464,2024-09-20 21:35:44.983763968,0,014,-1.9956072317382012,0.8968253109575212,2.6759590401660187,-0.6098700990461776,-1.3811651788160122,0.022208909434610277,-5.868671725977884,0.6784106921635885,2
465,2024-09-20 21:35:45.046248960,0,014,-1.9806036414051604,0.9097277466473228,2.752971156476414,-0.605651849383627,-1.3795077463938183,0.0401439835157426,-5.930788071856574,0.7048990781068473,2
466,2024-09-20 21:35:45.121701888,0,014,-1.9639067174959286,0.9206069747190376,2.8362487165322037,-0.6065189113025121,-1.3818391250608413,0.059917549746769584,-5.946670726201233,0.73542165548967,2
467,2024-09-20 21:35:45.189457920,0,014,-1.946130009617768,0.9292868382385291,2.924088714482012,-0.6126793699091365,-1.3887362022357652,0.080826779178092,-5.916644618167019,0.7706699593602621,2
468,2024-09-20 21:35:45.256909056,0,014,-1.927834044945588,0.9356191647361459,3.0147527341498193,-0.6238388678017658,-1.4003169129182182,0.10203527416200019,-5.842526298594685,0.8112341187648962,2
469,2024-09-20 21:35:45.324339968,0,014,-1.9094736378719364,0.9394852389324344,3.106432944224021,-0.6392190405043637,-1.4161708406716802,0.12260964040773299,-5.727798620972128,0.8575058149322551,2
470,2024-09-20 21:35:46.263990016,0,014,-1.8913454357677002,0.9407951622877501,3.197185882805133,-0.6575866274363289,-1.4353294072574392,0.14156726213352241,-5.577654026061723,0.9095520344743461,2
471,2024-09-20 21:35:46.325608960,0,014,-1.8735494907877062,0.9394858919567135,3.2848396060980583,-0.6773180114803763,-1.456312064363354,0.15793179567655863,-5.398921205819417,0.9670060418348793,2
472,2024-09-20 21:35:46.403717120,0,014,-1.8559918535761675,0.9355240502787631,3.366982551524891,-0.6965201718148726,-1.4772748033970178,0.1707933618137674,-5.200006098918243,1.0290458006592413,2
473,2024-09-20 21:35:46.466202880,0,014,-1.838438663401353,0.9289198361635107,3.441050799015719,-0.7132015563943348,-1.4962404525873165,0.17937512262037478,-4.990924582797481,1.0944782278031167,2
474,2024-09-20 21:35:46.539500032,0,014,-1.8205928115072119,0.9197469222361742,3.504404468584614,-0.7254554523510137,-1.5113708466327502,0.18311158845420933,-4.783152085553936,1.1618491167475216,2
475,2024-09-20 21:35:46.607235840,0,014,-1.8021539662522128,0.9081529968581691,3.5542959134663095,-0.7315934306758622,-1.5212427150973933,0.1817299942454214,-4.5887922235735,1.2294719714944755,2
476,2024-09-20 21:35:46.660334848,0,014,-1.7828391521040021,0.8943504734102153,3.5877694863093734,-0.730192041555753,-1.5250598686103638,0.17530314039562192,-4.419011998042325,1.2953733418479543,2
477,2024-09-20 21:35:47.616498944,0,014,-1.762359940765818,0.878590502720124,3.601632652223961,-0.7200870886863511,-1.5227304226605063,0.16424717614099643,-4.282432085832178,1.357272453102757,2
478,2024-09-20 21:35:47.678914048,0,014,-1.7403774305918869,0.8611318936134529,3.5926756680453353,-0.7003939358566144,-1.5148018686955234,0.14926950269719505,-4.184261213207532,1.4127046697593773,2
479,2024-09-20 21:35:47.737285888,0,014,-1.716475362408312,0.8422183822351101,3.5583434792184314,-0.6706212872416348,-1.5023046817490238,0.131290163210723,-4.1263084580357745,1.4592715512543746,2
480,2024-09-20 21:35:47.814919936,0,014,-1.6901826873195027,0.8220751048881804,3.4978247979313744,-0.6308703542233892,-1.4865583060900878,0.11135494555907205,-4.107398896356696,1.4948956363835586,2
481,2024-09-20 21:35:47.887557120,0,014,-1.6610458883326022,0.8009251052950374,3.4130254275574834,-0.5820006239674559,-1.4689856590207788,0.09055263147864419,-4.123730509813687,1.517988179239869,2
482,2024-09-20 21:35:47.955343104,0,014,-1.628725486392773,0.7790145686074671,3.308824617507993,-0.5256341217234253,-1.4509935844303725,0.06994967557163281,-4.16910607960381,1.5275457042811909,2
483,2024-09-20 21:35:48.015194880,0,014,-1.5930882085432712,0.7566323083269999,3.1925758545110754,-0.46400535138069166,-1.433954099897576,0.050548946934988556,-4.235218070540176,1.5232332394533,2
484,2024-09-20 21:35:48.942478080,0,014,-1.5542662093830573,0.7341127377307157,3.0732678877026336,-0.3997790311593985,-1.4192328093736573,0.03326138642876699,-4.312136087529203,1.5054704112446968,2
485,2024-09-20 21:35:49.010233856,0,014,-1.5126481211081306,0.7118166854166598,2.9606942191217085,-0.33592324533062806,-1.4081520136081527,0.01886967301111263,-4.389076975226729,1.475497810381414,2
486,2024-09-20 21:35:49.077986048,0,014,-1.4687942473092013,0.6900958840021492,2.8647201614181856,-0.2756148525386612,-1.4018377306098424,0.007974679637437667,-4.455455134243771,1.4353920008799301,2
487,2024-09-20 21:35:49.145687040,0,014,-1.4233230187770212,0.6692588161461617,2.7945455596321764,-0.22210007580656238,-1.4010105516634725,0.0009362231342685057,-4.50200106496601,1.3879844262935537,2
488,2024-09-20 21:35:49.212564992,0,014,-1.3768258362750456,0.6495515753099592,2.757805256887448,-0.17846915134255392,-1.4058135124824416,-0.002169406800825608,-4.521575466756882,1.336636857488232,2
489,2024-09-20 21:35:49.281171200,0,014,-1.3298304932632985,0.6311545222799012,2.759568790453816,-0.14738107065969042,-1.4157207825922382,-0.001556197449204994,-4.509467324315478,1.284895453487757,2
490,2024-09-20 21:35:49.348483840,0,014,-1.2828079070972582,0.6141908645010293,2.801608683965966,-0.13082275696138546,-1.4295276512029798,0.0023060614794115507,-4.463335610991112,1.2361458345617622,2
491,2024-09-20 21:35:50.277743872,0,014,-1.2362066275970016,0.5987425142460188,2.8822346594017985,-0.12996243466045013,-1.4454209773480708,0.008755642826221339,-4.383089829734545,1.1933737599404202,2
492,2024-09-20 21:35:50.355398912,0,014,-1.190493538402601,0.5848656434170135,2.9966082253240414,-0.14509386240596167,-1.461132078133737,0.01701021968179928,-4.270746056030455,1.1590060025027051,2
493,2024-09-20 21:35:50.424830720,0,014,-1.1461955102350434,0.5726015446581296,3.1373029041605274,-0.17563813571640882,-1.4741693709162098,0.026232234632999177,-4.130055425978795,1.1347502895530441,2
494,2024-09-20 21:35:50.496587776,0,014,-1.103949386418603,0.5619860590767497,3.295061463809256,-0.22019198845910268,-1.4821242259616372,0.035592884058079415,-3.9658179078089084,1.1214208260614802,2
495,2024-09-20 21:35:50.556983808,0,014,-1.0645361138451601,0.5530585977184471,3.4597906425164235,-0.27663786442016114,-1.4830119150417418,0.04434288684245121,-3.7830488018579387,1.118797514901243,2
496,2024-09-20 21:35:50.632110080,0,014,-1.0288418562895094,0.5458629337325546,3.621670528138503,-0.34231846517982145,-1.4755658348983294,0.051883370599237796,-3.586286226422199,1.1255689154488906,2
497,2024-09-20 21:35:50.686799104,0,014,-0.9977192636629613,0.540433368851404,3.7721319777801328,-0.4142451143210673,-1.4594146114659825,0.05781769886384217,-3.3793138291399236,1.1394010639911698,2
498,2024-09-20 21:35:51.640682752,0,014,-0.9717914792340497,0.5367701009412703,3.9044903478658948,-0.4892907490924511,-1.4351266040514254,0.06197046387669828,-3.165394263158603,1.1571571213816008,2
499,2024-09-20 21:35:51.711327232,0,014,-0.951279729395569,0.5348143510057105,4.01414687822552,-0.5643327495495972,-1.4041406832067438,0.06437753226881779,-2.9478149757984515,1.1752424891781996,2
500,2024-09-20 21:35:51.779389952,0,014,-0.935922765938143,0.5344347978024199,4.098465140532798,-0.6363530202618141,-1.3686061464832755,0.06526227919294693,-2.730412306973135,1.1900082445240237,2
501,2024-09-20 21:35:51.847326976,0,014,-0.9250115943291887,0.5354319538951544,4.15651238710434,-0.7025307189030817,-1.331155432242604,0.06500698642441345,-2.5177974466467496,1.198135733743554,2
502,2024-09-20 21:35:51.906387200,0,014,-0.9175139593584213,0.5375586471472692,4.188726216975461,-0.760355929286293,-1.29463922904764,0.06411390708220148,-2.3150761647504927,1.1969108862543232,2
503,2024-09-20 21:35:51.982266880,0,014,-0.9122455197764399,0.5405514420018179,4.1964719812205695,-0.8077691649352177,-1.2618472984650124,0.06314616057762554,-2.1270334863789095,1.184311647907641,2
504,2024-09-20 21:35:52.048495104,0,014,-0.9080533562613565,0.5441684346060451,4.18149468365209,-0.8432973211136636,-1.235231302763698,0.06265265095761005,-1.957146390474315,1.1589400162987546,2
505,2024-09-20 21:35:52.982668032,0,014,-0.9039831782495036,0.5482261616269686,4.145337031829986,-0.8661335350993522,-1.2166717015646122,0.06309937424995697,-1.8070240514437945,1.1199411691105066,2
506,2024-09-20 21:35:53.061865984,0,014,-0.8994071418091099,0.5526267590708721,4.088870498450062,-0.8761319491668939,-1.2073498626749095,0.06482826768032725,-1.6765832085655759,1.067011340782397,2
507,2024-09-20 21:35:53.129563904,0,014,-0.8940977014266203,0.557371020598218,4.012114400547153,-0.8737330641849427,-1.2077426679302357,0.06804401597970511,-1.5647048720252634,1.000447481352238,2
508,2024-09-20 21:35:53.192467968,0,014,-0.8882349839314039,0.5625574369753299,3.9144335805973975,-0.8598516823152806,-1.2176994335612181,0.0728152701757844,-1.4699053567353346,0.921148596476977,2
509,2024-09-20 21:35:53.265040896,0,014,-0.882335610367596,0.5683668695745903,3.795065184014421,-0.8357469491458217,-1.2365591482486027,0.07908472239578285,-1.3908473133706842,0.8305890720160097,2
510,2024-09-20 21:35:53.323831040,0,014,-0.8771074429757847,0.5750328602565739,3.653802297985631,-0.802880370061374,-1.263293330037855,0.0866949169607001,-1.3267902568804983,0.730840849695487,2
511,2024-09-20 21:35:53.386316800,0,014,-0.8732720431609301,0.5828032407326484,3.491622815882869,-0.7627800113508586,-1.2966622267134287,0.09543269180883432,-1.277898670486262,0.6246200952850613,2
512,2024-09-20 21:35:54.319074048,0,014,-0.871419368644882,0.5919033580098322,3.3111477600908246,-0.7169615270396187,-1.3353566663410628,0.10508069230552612,-1.2450482650092956,0.5152425210206556,2
513,2024-09-20 21:35:54.378746112,0,014,-0.8719369087463212,0.60250830104327,3.1169091478231405,-0.6669465280352723,-1.378100326959623,0.11545744961002867,-1.2290548089534807,0.40643474693174025,2
514,2024-09-20 21:35:54.441201920,0,014,-0.8750141753448807,0.6147235901002679,2.915385665259715,-0.6143502445072422,-1.4237116464311799,0.12643440761513486,-1.2298993546188697,0.3020798947271171,2
515,2024-09-20 21:35:54.518819072,0,014,-0.880699807556285,0.6285687919996911,2.7147743898859593,-0.5609610631494929,-1.471144158771673,0.13793228008915004,-1.2465734880639467,0.20600071910130918,2
516,2024-09-20 21:35:54.590194176,0,014,-0.8889777082346335,0.6439621108406184,2.5245380471407954,-0.5087449781813264,-1.5195166446835378,0.1499080664045475,-1.2774650837949875,0.12179188884127926,2
517,2024-09-20 21:35:54.657978880,0,014,-0.8998161330319047,0.6607092601905692,2.3547103067729873,-0.4597411472238657,-1.56811358536469,0.1623401748258747,-1.3207634237428765,0.05265554584214095,2
518,2024-09-20 21:35:54.714970880,0,014,-0.9131456486588144,0.6784960974466218,2.214826326962554,-0.4158382929506217,-1.6163167754156245,0.17520787116441813,-1.3746459055208557,0.0012279064922629812,2
519,2024-09-20 21:35:55.668862976,0,014,-0.9287598161325734,0.6968804531916464,2.112478142755808,-0.3784566762828205,-1.6634652253117144,0.18845867689396117,-1.4373445726225915,-0.030582226684590173,2
520,2024-09-20 21:35:55.732310016,0,014,-0.9461944506329936,0.7152887660184263,2.051891057595577,-0.34823685585186925,-1.708711420147534,0.2019695354055563,-1.5071434410563587,-0.04173128511153114,2
521,2024-09-20 21:35:55.793843968,0,014,-0.9646708534625157,0.7330350160641625,2.033148889056532,-0.32488497444902636,-1.750958384219332,0.2155182012294259,-1.58222025428321,-0.03215708835276171,2
522,2024-09-20 21:35:55.872412160,0,014,-0.9831429788704399,0.7493721685905685,2.052421715187594,-0.30725643306751066,-1.7889035187856699,0.22877667892305506,-1.6602809836351855,-0.0028687361558930972,2
523,2024-09-20 21:35:55.933125888,0,014,-1.0004257454389465,0.7635677766943578,2.103022216205323,-0.2936472838061016,-1.8211577436917914,0.24132806427821935,-1.7380867055736764,0.04401727422427491,2
524,2024-09-20 21:35:56.007976960,0,014,-1.0153664344346995,0.7749841568382146,2.176798216509191,-0.2822051468136733,-1.8463881839205551,0.25270131746787367,-1.8110916686083605,0.10532829240808123,2
525,2024-09-20 21:35:56.075672064,0,014,-1.027012251913095,0.7831415276601748,2.26538085251623,-0.27134607844796577,-1.8634348368534346,0.26241359225265987,-1.873421647361078,0.17698368596559066,2
526,2024-09-20 21:35:57.006985728,0,014,-1.0347067924580693,0.787748829596689,2.361038976925825,-0.2600657075920447,-1.871386336044203,0.27001030595975734,-1.9183221255542007,0.25423401082195923,2
527,2024-09-20 21:35:57.086967040,0,014,-1.0380796027831773,0.7887016095308738,2.4571532908849836,-0.24809415785563602,-1.869647317375026,0.275101850266301,-1.9389747787623586,0.3319913671082864,2
528,2024-09-20 21:35:57.146596864,0,014,-1.0369673418132594,0.7860589940193186,2.548448223722267,-0.23590987184006537,-1.8580236381762385,0.2774004760202097,-1.9293791396037832,0.4052473191414051,2
529,2024-09-20 21:35:57.221625856,0,014,-1.0313395109274834,0.7800141597873713,2.63110500780429,-0.22463369317008233,-1.836801387236535,0.2767526434331132,-1.8851467891827223,0.46955316229181043,2
530,2024-09-20 21:35:57.286220032,0,014,-1.0212745082050778,0.7708666847383921,2.7027489388292993,-0.2158050993388535,-1.8067822280979386,0.2731556661654147,-1.8043448802152038,0.5215029276823637,2
531,2024-09-20 21:35:57.348284928,0,014,-1.0069788773277362,0.7589960340483625,2.762154665589079,-0.21105964418555026,-1.7692624799295757,0.2667543850464175,-1.6884154565200225,0.559118129420492,2
532,2024-09-20 21:35:57.410321152,0,014,-0.9888018721837502,0.7448317527513885,2.8086243946962126,-0.2117829068867423,-1.725953983708492,0.25782062626149993,-1.5428226582784763,0.5820259056530648,2
533,2024-09-20 21:35:58.363718144,0,014,-0.9672023068852553,0.7288207456379756,2.8413165642070095,-0.21885249578109667,-1.6788544115525124,0.2467200080993525,-1.3769432272724553,0.5913617436771108,2
534,2024-09-20 21:35:58.437086208,0,014,-0.9426726329845772,0.711396740218758,2.8589085400987226,-0.23254494898570216,-1.6300880001252542,0.2338750775520944,-1.202945662147038,0.5893892403919206,2
535,2024-09-20 21:35:58.504705792,0,014,-0.9156667101964514,0.6929571699556148,2.859770593588443,-0.25260419439516785,-1.5817222232267374,0.21973276313011594,-1.0338619881413722,0.578919030271893,2
536,2024-09-20 21:35:58.571544832,0,014,-0.8865699074792899,0.6738501228987125,2.842540372868987,-0.2784021307595475,-1.5355580156879636,0.20473451270065737,-0.8814298181661024,0.5626969053136427,2
537,2024-09-20 21:35:58.634910208,0,014,-0.8557015905424065,0.6543678307122021,2.8067433344637633,-0.3090912747038261,-1.4929266173826776,0.18928505971928913,-0.7543249102692497,0.5429466737860755,2
538,2024-09-20 21:35:58.708033280,0,014,-0.8233128763779829,0.6347400734771081,2.7530564888842397,-0.34366354248221015,-1.4545551440407098,0.17372323880325202,-0.6572365450646541,0.5211869808922318,2
539,2024-09-20 21:35:58.775718912,0,014,-0.7895747194787482,0.6151278794319539,2.6830918873207814,-0.38090311602860033,-1.4205447557751332,0.15830217341766628,-0.5909500331682854,0.498315814588122,2
540,2024-09-20 21:35:59.692355072,0,014,-0.7545863094456648,0.5956230120053683,2.5989562268727995,-0.41931640548133003,-1.390453505593148,0.14318127529462668,-0.55319319800196,0.4748305792147599,2
541,2024-09-20 21:35:59.760588800,0,014,-0.7184191806232254,0.576253390757224,2.5029441079084696,-0.4571488401162409,-1.363436864473798,0.12842811127284837,-0.5397579067249068,0.45103175556038166,2
542,2024-09-20 21:35:59.828301056,0,014,-0.6811867312623722,0.5569921230544416,2.3974820229173743,-0.49252718157142644,-1.3384138115291206,0.11403119982114936,-0.5454883715352776,0.42714158966451937,2
543,2024-09-20 21:35:59.896035840,0,014,-0.6431273264078159,0.537774212141947,2.285158342044876,-0.5236759837403978,-1.3142554301693585,0.09992552225090685,-0.5649107698276996,0.40334481917722853,2
544,2024-09-20 21:35:59.963354880,0,014,-0.6046890232297705,0.5185253658672359,2.168658809857862,-0.5491296903385524,-1.289975125362117,0.08602483383691195,-0.5924482963158947,0.3797909395324088,2
545,2024-09-20 21:36:00.031446016,0,014,-0.5665954424103324,0.4991967635238593,2.05062201002468,-0.5678898354437665,-1.2648726295388542,0.07225032493135869,-0.6223803039018163,0.3566043388651195,2
546,2024-09-20 21:36:00.099243776,0,014,-0.5298774747524256,0.4797955351904834,1.9334957302143512,-0.5795055938315031,-1.2386071380154426,0.058550904256161045,-0.6488931193215517,0.33392655713098246,2
547,2024-09-20 21:36:01.027745792,0,014,-0.4958672041369664,0.46040893616295725,1.8193530100480493,-0.5840688753613729,-1.211212813425101,0.044917239292469324,-0.6665848930300561,0.3119943673919399,2
548,2024-09-20 21:36:01.110585856,0,014,-0.46614395081057525,0.441223218623313,1.7096636920600732,-0.5821411664307873,-1.1830640318070236,0.03139077176280868,-0.671532385047741,0.29125167378132955,2
549,2024-09-20 21:36:01.178247936,0,014,-0.44242514474372224,0.4225322051324762,1.6052479434044407,-0.5746622843266569,-1.1547751162462325,0.0180652579324586,-0.6625995440241359,0.2724661393797342,2
550,2024-09-20 21:36:01.246097152,0,014,-0.42643247052002986,0.4047316169105608,1.5066103932980184,-0.5628727530636923,-1.1270413256738643,0.005079961178000795,-0.6424092580140397,0.25679212402571827,2
551,2024-09-20 21:36:01.309892864,0,014,-0.41978047354055364,0.38830296940286774,1.4145112269957179,-0.5482275757764465,-1.1004857942863615,-0.007390568348530239,-0.6175583029940275,0.24574106216309702,2
552,2024-09-20 21:36:01.372379904,0,014,-0.4238975336574649,0.37379172743872147,1.3304358537175016,-0.5322758633615116,-1.0756004069058578,-0.01914028224575772,-0.5980451069598958,0.24107288844014843,2
553,2024-09-20 21:36:01.434864896,0,014,-0.4399564516188863,0.3617800419670416,1.2567339539942353,-0.5165199071665768,-1.0528062777497305,-0.02992366006331734,-0.5961318257523195,0.24465037619370866,2
554,2024-09-20 21:36:02.392855040,0,014,-0.46879133625990566,0.35285203526791303,1.1964070842887098,-0.502280138547627,-1.0325539703378328,-0.039446557471954864,-0.6248440047996663,0.2582637150585319,2
555,2024-09-20 21:36:02.460435968,0,014,-0.5107820913677894,0.34754872536409953,1.152680838284632,-0.4905780129650973,-1.0153594488624365,-0.04737454106595788,-0.6961990158435437,0.2833831000429705,2
556,2024-09-20 21:36:02.522903808,0,014,-0.5657098332109389,0.34631381381225457,1.128532201433983,-0.4820381568316928,-1.0017666090637263,-0.05336341412396357,-0.8193381728320186,0.32084703557645783,2
557,2024-09-20 21:36:02.589146112,0,014,-0.6326353777427532,0.3494424512815576,1.1263023145658202,-0.476822560878498,-0.9923004736877741,-0.05709811065622271,-0.9989543773897159,0.37060282808568573,2
558,2024-09-20 21:36:02.663650816,0,014,-0.7098714966217256,0.3570496104685641,1.1474957250040994,-0.4746320922170469,-0.9874395487528017,-0.05832135747080564,-1.2343731827665456,0.431610836264838,2
559,2024-09-20 21:36:02.730760960,0,014,-0.7950757728863359,0.36906564728103936,1.1928122765744031,-0.474796652569298,-0.9876008000470111,-0.05683765816902892,-1.519386710066096,0.5019210039381641,2
560,2024-09-20 21:36:02.799185152,0,014,-0.8854391925164351,0.38525536101344565,1.2623448027981747,-0.4764276611034893,-0.9931528659970016,-0.05248901462836457,-1.8428035791615356,0.5788739307893189,2
561,2024-09-20 21:36:03.743633152,0,014,-0.9779270505744075,0.4052516580945303,1.3557429527136973,-0.4785765531184793,-1.0044634918325577,-0.045117724241273555,-2.1896293873004695,0.6593698519646679,2
562,2024-09-20 21:36:03.811463168,0,014,-1.069523284582853,0.4285938986209008,1.4721506551790657,-0.4803505615180748,-1.0219476325056893,-0.03453978000014527,-2.542592491093571,0.7401225117918498,2
563,2024-09-20 21:36:03.879259136,0,014,-1.1574347603179902,0.45476311416319265,1.6100113643033744,-0.48098386544852456,-1.0460977894404877,-0.020538420637337736,-2.8835305595825984,0.8178166067528815,2
564,2024-09-20 21:36:03.946871040,0,014,-1.2392374338222134,0.48320977115599706,1.7670501573556974,-0.4799037926478453,-1.0775062637066903,-0.002875777183653816,-3.1943533784145317,0.8891820094498666,2
565,2024-09-20 21:36:04.014582016,0,014,-1.3129660234993878,0.5133712865422811,1.9405168776803918,-0.47680332871466347,-1.116855110932025,0.018672913927098033,-3.4577914831141716,0.9510921053923663,2
566,2024-09-20 21:36:04.082552064,0,014,-1.3771543701865678,0.5446792146809828,2.127455301728917,-0.47168021005157945,-1.1648270854128857,0.04425898807047183,-3.6583416634738843,1.000756100161351,2
567,2024-09-20 21:36:04.140857856,0,014,-1.4308409104593949,0.57656206123811,2.324743853279899,-0.4648074606938843,-1.2219560562353426,0.07389332087186783,-3.7835961835606158,1.0359805225010985,2
568,2024-09-20 21:36:05.053231872,0,014,-1.473557589549637,0.6084516345224228,2.5288597198100073,-0.4566379504346191,-1.2885006751295667,0.10740568707328738,-3.825842010111378,1.0554579240449384,2
569,2024-09-20 21:36:05.136492800,0,014,-1.5053129407455612,0.6397962305624478,2.73555889182385,-0.4476723644544635,-1.3643915019248156,0.1444434336900855,-3.7836014936893245,1.0590547661950365,2
570,2024-09-20 21:36:05.203375104,0,014,-1.5265628576778472,0.6700784233196047,2.93970734094139,-0.4383293938321159,-1.4492163695094689,0.184491578779611,-3.662670186565453,1.0480271372899643,2
571,2024-09-20 21:36:05.271147008,0,014,-1.5381471262579798,0.6988306859178377,3.1353210362900263,-0.4288590820013332,-1.5421766039772604,0.22688992010617479,-3.476234079069941,1.0250441267378971,2
572,2024-09-20 21:36:05.339556864,0,014,-1.5411760707798432,0.7256405762134988,3.3157890733372817,-0.41933425204817215,-1.6419988700864632,0.2708413919329035,-3.2438343557010123,0.9939416767013389,2
573,2024-09-20 21:36:05.407459072,0,014,-1.5368757484422648,0.7501427884872265,3.474298594885174,-0.4097117429493211,-1.7468574751435308,0.3154227393420741,-2.9892596975994206,0.9592419182091659,2
574,2024-09-20 21:36:05.475161088,0,014,-1.5264220833784514,0.7720043485208606,3.604393281195795,-0.3998935105203826,-1.8543690061696685,0.3596082044285716,-2.737758259234696,0.9255557760377514,2
575,2024-09-20 21:36:06.418394112,0,014,-1.510806258385224,0.7909127748160759,3.700470157003944,-0.3897255998773445,-1.9616711894932886,0.40230939906587787,-2.5131084423380563,0.897010670899668,2
576,2024-09-20 21:36:06.486526976,0,014,-1.4907643170000557,0.8065729526042783,3.758134043993452,-0.378964893121285,-2.0655583759668246,0.44242880418764174,-2.335019049584411,0.8768190339736459,2
577,2024-09-20 21:36:06.553246976,0,014,-1.466776038954389,0.8187130837573983,3.7745453118663854,-0.3673068368016949,-2.1626537434693374,0.47892082362920824,-2.2172184833630073,0.8670350373866463,2
578,2024-09-20 21:36:06.621963008,0,014,-1.4391266242812109,0.8270998720724797,3.7488554576259774,-0.35451543095815685,-2.249631211134746,0.510857863887418,-2.16653699538032,0.8684948013762517,2
579,2024-09-20 21:36:06.674996992,0,014,-1.4080304295157193,0.8315662951140247,3.6825872227593526,-0.3405918132070798,-2.323496057731506,0.5375029667040478,-2.183088699509974,0.8809278115823744,2
580,2024-09-20 21:36:06.753127168,0,014,-1.3737951842181813,0.8320527953708939,3.579717648685993,-0.32587778236158255,-2.38186707963935,0.5583787647068299,-2.261335836756548,0.9032129989760563,2
581,2024-09-20 21:36:06.825159168,0,014,-1.3369681154867998,0.8286529761788702,3.4463114157392076,-0.3110355393302445,-2.4231599295473125,0.5733070471880061,-2.3916729262389773,0.9337109252903388,2
582,2024-09-20 21:36:07.768193792,0,014,-1.2984115638951108,0.821648942905514,3.289733493112791,-0.29691646299430713,-2.446638111072429,0.5824020908750909,-2.5622130325486467,0.9705793206449331,2
583,2024-09-20 21:36:07.834316800,0,014,-1.2593025528097173,0.8115251752203794,3.117733413400952,-0.2843851449658373,-2.4524053918324844,0.5860282049693342,-2.7604437927432106,1.0120003109946292,2
584,2024-09-20 21:36:07.904293888,0,014,-1.2210841083809556,0.7989575633886581,2.937782925436673,-0.27417352525707284,-2.4414257806184896,0.5847480015995542,-2.974384256114833,1.0562866420877874,2
585,2024-09-20 21:36:07.972020992,0,014,-1.1854002125796552,0.7847813050515868,2.756754925503679,-0.26679908450889156,-2.4155716774926566,0.5792817571887197,-3.1930832356054437,1.1018725235838103,2
586,2024-09-20 21:36:08.039720960,0,014,-1.1540348708556372,0.7699461758081663,2.5807195784508288,-0.26252438780433207,-2.3776272219365198,0.5704796599083222,-3.406645267794231,1.147239681555113,2
587,2024-09-20 21:36:08.107436032,0,014,-1.1288472452985376,0.7554662103092812,2.414636948960594,-0.26130804296303495,-2.331180244208141,0.5592932058801997,-3.6060803836992394,1.1908571072963303,2
588,2024-09-20 21:36:08.175143936,0,014,-1.111665657113227,0.7423630654374281,2.261917376773495,-0.262731536570942,-2.2803935024331814,0.5467324809741138,-3.783162735901014,1.2311888231840835,2
589,2024-09-20 21:36:09.111166976,0,014,-1.1041230620159093,0.7315987482923847,2.124050717474756,-0.2659549839130668,-2.2296925656954696,0.5338104133074418,-3.9303910846851906,1.2667730170277482,2
590,2024-09-20 21:36:09.186714112,0,014,-1.107480548484887,0.7240013503589624,2.0006492735592647,-0.2697732671518063,-2.183417223734413,0.5214860549690608,-4.0411171224150335,1.2963531496891252,2
591,2024-09-20 21:36:09.253590016,0,014,-1.1225073107654007,0.7201975247469073,1.8901432814400185,-0.27279832906262175,-2.1454695610192824,0.5106157381730838,-4.109817918604698,1.3190252031020515,2
592,2024-09-20 21:36:09.322163968,0,014,-1.1494347413410593,0.7205658826472053,1.7909944323003264,-0.2737355739751624,-2.118988239680663,0.5019122612868973,-4.132284186808589,1.334311396317929,2
593,2024-09-20 21:36:09.389949952,0,014,-1.187957085160431,0.7252181177629349,1.7028449786648943,-0.2716586811174341,-2.106092480777529,0.4959112648181603,-4.105472363845414,1.3420662968941077,2
594,2024-09-20 21:36:09.457065216,0,014,-1.2372604013179946,0.7340059883081691,1.6269532525052917,-0.26615778622346975,-2.107736454081453,0.4929484754283475,-4.027106863102322,1.342244345807075,2
595,2024-09-20 21:36:09.525451008,0,014,-1.2960908443238528,0.7465475076134337,1.5658051040055625,-0.25732313392751405,-2.123687337614513,0.49315191691874954,-3.8953867975433787,1.334672011313575,2
596,2024-09-20 21:36:10.436741120,0,014,-1.3628766534777654,0.7622674839615079,1.52234653669775,-0.2456528018474715,-2.1526159635026723,0.4964498295837186,-3.7090778450567634,1.3189419867799115,2
597,2024-09-20 21:36:10.498387968,0,014,-1.4358820536885852,0.7804490124583343,1.499294504379054,-0.23198656059711953,-2.192276155484376,0.5025919929620607,-3.4681339202941865,1.2944663711871325,2
598,2024-09-20 21:36:10.577452800,0,014,-1.5133410652655748,0.8002906502522458,1.4987399310899179,-0.21749582618261332,-2.2397482247881055,0.5111793786889969,-3.174844077166771,1.2606756742328749,2
599,2024-09-20 21:36:10.646018048,0,014,-1.5935427778665803,0.8209658699725315,1.522089814661171,-0.2036994747833251,-2.291727952092213,0.5216967933994228,-2.8351866850913185,1.2173016971929322,2
600,2024-09-20 21:36:10.713736192,0,014,-1.6748766373233654,0.8416829508582231,1.5701823351587412,-0.192428968683523,-2.3448301585782048,0.5335475776113171,-2.4598435920161483,1.1646443369225765,2
601,2024-09-20 21:36:10.780976128,0,014,-1.7558462087059927,0.8617373859380804,1.6432340063974942,-0.18565133331941805,-2.395852311312169,0.546092405756884,-2.0644795316633195,1.1037418757002166,2
602,2024-09-20 21:36:10.849235200,0,014,-1.835047479701673,0.8805449183717065,1.7404120360314743,-0.18512633288377062,-2.4419485546430586,0.5586891961432834,-1.6692152571422063,1.0364184380284167,2
603,2024-09-20 21:36:11.792457984,0,014,-1.9111166770540124,0.897650282181328,1.8591590729081215,-0.19198222770763101,-2.480714729000012,0.5707264986935121,-1.2973433575609914,0.9652070673478808,2
604,2024-09-20 21:36:11.859955968,0,014,-1.9826748792913595,0.912716544264579,1.994622474773505,-0.20635252324485145,-2.510240973576673,0.5816499090844525,-0.9733022221482656,0.8931442596193332,2
605,2024-09-20 21:36:11.927642112,0,014,-2.04830650515884,0.9255038677977735,2.139529027947319,-0.22720138953527788,-2.529181478813878,0.5909899023515817,-0.7199773530371233,0.8234520337634553,2
606,2024-09-20 21:36:11.995062016,0,014,-2.106590330064664,0.9358460223160905,2.284666147694918,-0.25240358959623355,-2.5368302773365548,0.5983950783024666,-0.5556481315048936,0.7591651691117297,2
