,time,MARKER,pid,L_O_DSI,L_D_DSI,L_O_DSphi,L_D_DSphi,R_O_DSI,R_D_DSI,R_O_DSphi,R_D_DSphi,trial_id
0,2024-09-23 20:56:41.335550976,0,015,-0.37012016004493636,0.11692827239129948,-4.208252668439326,1.7907138690540243,0.47842618071441595,-0.2528519139235294,1.323478644555518,-0.21448847766992243,3
1,2024-09-23 20:56:42.274302976,0,015,-0.5390406087879195,0.10533503283961677,-3.627017806277964,1.7104530822077315,0.41652369899613384,-0.314079021645879,1.3792160838802299,-0.5170646488236726,3
2,2024-09-23 20:56:42.337169920,0,015,-0.7059341830964672,0.0944608882241936,-3.066846599567659,1.6323398678503238,0.3571925737477755,-0.3735189760006766,1.4237786911944599,-0.8094766070047593,3
3,2024-09-23 20:56:42.415278080,0,015,-0.8679696742664194,0.08489502029143355,-2.545232894413473,1.558299463938596,0.30225883910740753,-0.42946079599571696,1.4397143412630382,-1.0808418649528482,3
4,2024-09-23 20:56:42.486886912,0,015,-1.022713330689107,0.07711577116773163,-2.0759636750279546,1.4897205416730048,0.2534176107833139,-0.4805283839659701,1.4133240744945292,-1.3222441841081167,3
5,2024-09-23 20:56:42.554658048,0,015,-1.1683091388624147,0.07147553391981429,-1.6685870578322675,1.4274712301322763,0.21192248002910524,-0.5257188496423146,1.3356085516970153,-1.5271972485438705,3
6,2024-09-23 20:56:42.616455936,0,015,-1.3035423947770333,0.06820836437348406,-1.3286502310891906,1.3721025758736618,0.17822440069774456,-0.5643793528136662,1.2024199219210405,-1.6917675850023917,3
7,2024-09-23 20:56:42.690268160,0,015,-1.4277686283478908,0.06743740619182391,-1.0583662436159538,1.3241058601680662,0.15175441768416328,-0.5961726227683923,1.014045879261928,-1.8145005417164577,3
8,2024-09-23 20:56:43.596735744,0,015,-1.5407676151940135,0.06916435270652546,-0.8574541506467024,1.2840956116903646,0.13095909355367602,-0.6210603429652171,0.7746418330659836,-1.8962663150808745,3
9,2024-09-23 20:56:43.674901248,0,015,-1.6426157298103785,0.07324770603811864,-0.7240131704907374,1.252865678581001,0.11357347071866715,-0.6393032727210158,0.49167964452183704,-1.9400226055260095,3
10,2024-09-23 20:56:43.736493056,0,015,-1.7336288079581912,0.07939419572691152,-0.6552042270588598,1.231298934395179,0.09703883087535113,-0.6514567641309401,0.1752757406133985,-1.9504292817596003,3
11,2024-09-23 20:56:43.799635968,0,015,-1.8143541505503817,0.0871814098864306,-0.647474953830091,1.2201495952498294,0.07894137196555918,-0.6583377457182704,-0.1625288667361923,-1.9333555321831013,3
12,2024-09-23 20:56:43.877248000,0,015,-1.8855400206879886,0.09610794893711504,-0.6963699469548222,1.2198114300761427,0.05737795250355044,-0.6609549253567052,-0.5082975112346286,-1.8953876595241992,3
13,2024-09-23 20:56:43.939321088,0,015,-1.9480223164440786,0.10564893807596054,-0.7963105255660461,1.2302308150768126,0.031204889910173055,-0.6604154011970534,-0.8476670984309419,-1.8433500475586972,3
14,2024-09-23 20:56:44.000862976,0,015,-2.0025464850967243,0.11529383626289627,-0.9406567691275644,1.2510194106752357,0.00012130232796636869,-0.6578252069418324,-1.1661761665361985,-1.7837864037813296,3
15,2024-09-23 20:56:44.931606016,0,015,-2.0496162351117193,0.12455909756427609,-1.1220431578982526,1.2816572597430709,-0.035452184143777245,-0.6541914321552765,-1.4505575549677852,-1.7224609403679527,3
16,2024-09-23 20:56:44.997972992,0,015,-2.089449027056912,0.1329869317327374,-1.3328355558460132,1.3216335188161303,-0.0746452396062773,-0.6503350547839868,-1.6901526928732198,-1.6640587295115001,3
17,2024-09-23 20:56:45.060295168,0,015,-2.1220428641366635,0.1401514370289465,-1.5655903981777153,1.3704741789110602,-0.1164368301894925,-0.6468319055808518,-1.8780161429011561,-1.6121820337787203,3
18,2024-09-23 20:56:45.121888000,0,015,-2.147298395716279,0.14568723268758108,-1.8133984415712094,1.4277083817869973,-0.15989854900319042,-0.6439927608992726,-2.0114269372800697,-1.5695430039933334,3
19,2024-09-23 20:56:45.202742272,0,015,-2.165139909983139,0.14933491145925173,-2.069991514458708,1.4928186406532902,-0.20436709001365105,-0.6418786509803728,-2.091696466555,-1.5381720202249118,3
20,2024-09-23 20:56:45.260297216,0,015,-2.1756220144888907,0.1509808665515696,-2.3296189291594316,1.5651673348714055,-0.24953991395467276,-0.640339681799786,-2.123313100857287,-1.5195462163986906,3
21,2024-09-23 20:56:45.338340096,0,015,-2.1790348672613553,0.1506740034536802,-2.586878517284181,1.6438977951676927,-0.2954707919422528,-0.6390654532529491,-2.1125391198360184,-1.514667240311726,3
22,2024-09-23 20:56:46.275512064,0,015,-2.17599436202801,0.1486202352110435,-2.8366513558694924,1.7278347735241815,-0.3424604296189916,-0.6376374559254744,-2.065615330225769,-1.5241616013483512,3
23,2024-09-23 20:56:46.337037056,0,015,-2.1674677788420977,0.1451648917980161,-3.074053897846852,1.8153844795657108,-0.39088024789889936,-0.635578606782752,-1.986861223908047,-1.5484254719120927,3
24,2024-09-23 20:56:46.417323008,0,015,-2.1547049762264336,0.14076781882769976,-3.2942215207331116,1.9044200972224232,-0.44098147339179694,-0.632403231335112,-1.8771430824284294,-1.5877586812187434,3
25,2024-09-23 20:56:46.485068032,0,015,-2.139108000677244,0.13596989756581088,-3.4919237595331274,1.9922006612119814,-0.4927168449793092,-0.6276762371832956,-1.7332058925381693,-1.6424046106111727,3
26,2024-09-23 20:56:46.552855040,0,015,-2.1221002258784036,0.13135096292593892,-3.6612829982853192,2.0754396989799457,-0.5455811393513934,-0.6210833398201632,-1.5481272224899771,-1.7124563007120872,3
27,2024-09-23 20:56:46.612509952,0,015,-2.1050213930935304,0.12748224012206577,-3.795912986949356,2.15059575839627,-0.5984985602008372,-0.6124954766680111,-1.3128184538300378,-1.7976588279079906,3
28,2024-09-23 20:56:46.674992896,0,015,-2.089031168064741,0.12487676824408274,-3.889521547174302,2.2143025375102297,-0.6498111412209322,-0.602002604951627,-1.018281605536616,-1.8971542311297276,3
29,2024-09-23 20:56:47.631575296,0,015,-2.07500143234104,0.1239389354870943,-3.936727859052426,2.2637557066980536,-0.6973791723811026,-0.5899128000353282,-0.6582049196296835,-2.0092028610755537,3
30,2024-09-23 20:56:47.691449088,0,015,-2.063416407761897,0.12491451476446795,-3.933824789808525,2.2969357768466687,-0.7387411456608094,-0.5767336396176515,-0.23135087742198515,-2.130963936795085,3
31,2024-09-23 20:56:47.755764992,0,015,-2.054340805062771,0.12785226872343528,-3.879362486682594,2.3126639763347066,-0.7712989413098514,-0.5631429227708712,0.25684114335764696,-2.2584611742667273,3
32,2024-09-23 20:56:47.831822080,0,015,-2.047499518183045,0.13259698484775523,-3.7744899701453534,2.310537639716614,-0.7925431801710977,-0.5499372675469745,0.7937626171214723,-2.3867928545438013,3
33,2024-09-23 20:56:47.892876032,0,015,-2.042432061708414,0.13882352080220792,-3.6230008301146635,2.290814917094993,-0.8003178497719272,-0.537950826955034,1.3602040901032257,-2.5105546688647484,3
34,2024-09-23 20:56:47.970103040,0,015,-2.038632902230355,0.14609946135365703,-3.431148677483538,2.254356546728315,-0.7930860915658172,-0.5279535656589069,1.93183017608228,-2.6244090592246105,3
35,2024-09-23 20:56:48.038321152,0,015,-2.03563299800239,0.15395389947706986,-3.2073976557689834,2.2026904855679272,-0.7701644600031731,-0.5205479317296723,2.4813807072355387,-2.7236785593549153,3
36,2024-09-23 20:56:48.976666112,0,015,-2.0330563856508936,0.16193754011390618,-2.962126489852396,2.1381180260846127,-0.7319008837903452,-0.5160821581759981,2.981135019232704,-2.8047702526704477,3
37,2024-09-23 20:56:49.038660864,0,015,-2.0307040948747175,0.16967304659461035,-2.70710670007958,2.063709311798487,-0.6797584187969574,-0.5145947854313532,3.4051511851647143,-2.865322252022722,3
38,2024-09-23 20:56:49.117415936,0,015,-2.0286643807803713,0.17690030127074952,-2.454664135150571,1.9831345366308026,-0.6162814000628662,-0.5157983434520118,3.731276662581656,-2.904177066977388,3
39,2024-09-23 20:56:49.176913152,0,015,-2.0273782854208813,0.18351027500443454,-2.216676090021267,1.9003796926216416,-0.5449469199674204,-0.519105968735219,3.9431102086320236,-2.9213361151110075,3
40,2024-09-23 20:56:49.239397888,0,015,-2.027577874495552,0.1895445055228115,-2.0036167999288472,1.8193941946452352,-0.4699037825272887,-0.5237039717407028,4.031668109922667,-2.9178730596841738,3
41,2024-09-23 20:56:49.320698880,0,015,-2.0300948050308816,0.19514305880292074,-1.823742358538399,1.7436909515462968,-0.3956366993872072,-0.5286559484788808,3.996286355423587,-2.8957124069843254,3
42,2024-09-23 20:56:49.388482304,0,015,-2.0356342500222606,0.2004579802312979,-1.6824342564311692,1.675937266072591,-0.32665988092951287,-0.5329985828879091,3.8446365957081694,-2.857344243482768,3
43,2024-09-23 20:56:50.318006016,0,015,-2.0446148596210887,0.2055763398032236,-1.5817914685621965,1.6176325655571806,-0.2673028817071015,-0.5358007328226899,3.5920219480526883,-2.805649742172911,3
44,2024-09-23 20:56:50.399718144,0,015,-2.05709942916398,0.21048668630835488,-1.5206323147219822,1.5690028431664782,-0.22151918672224724,-0.5362004434010027,3.2600611788966765,-2.743885910714062,3
45,2024-09-23 20:56:50.467480832,0,015,-2.0727847202890275,0.21509171478908296,-1.4949973334480584,1.5291770933534303,-0.19262392238874207,-0.5334528076751077,2.8748615053595423,-2.6757180481495504,3
46,2024-09-23 20:56:50.535214848,0,015,-2.091027570940562,0.21925200224051977,-1.4991052434420336,1.4965864930621606,-0.18299293672065842,-0.5270018180716236,2.464935746332678,-2.605170301386517,3
47,2024-09-23 20:56:50.593528064,0,015,-2.110918434267586,0.2228452337261339,-1.5266100283724113,1.469457823772279,-0.19384212688506858,-0.5165658150891578,2.0591821494998923,-2.5364398104407115,3
48,2024-09-23 20:56:50.655585024,0,015,-2.1314123532637317,0.2258250135746386,-1.5719022589980163,1.4462798489750976,-0.22514485864023537,-0.5022130763010574,1.6851254734402248,-2.4736013861629664,3
49,2024-09-23 20:56:50.733280000,0,015,-2.1514776282362478,0.2282585407951055,-1.6311183120485861,1.42614298652027,-0.2756525171246583,-0.48439468052764945,1.367451801076207,-2.4203094956692053,3
50,2024-09-23 20:56:51.681998080,0,015,-2.1701911393067115,0.23032761429195883,-1.7025665747969911,1.4088798333366517,-0.34297518395694004,-0.46390702395592825,1.126861127586878,-2.3796381091899845,3
51,2024-09-23 20:56:51.737869056,0,015,-2.1867564421566223,0.23229790514061902,-1.7864553187832213,1.3950009418397753,-0.42371867779995415,-0.4417875293032589,0.9793370064266704,-2.354092403028202,3
52,2024-09-23 20:56:51.815508992,0,015,-2.2004968043726363,0.2344784107078998,-1.8841013106241515,1.3854960208848333,-0.5136938222396066,-0.4191805166381584,0.9357538846831689,-2.3456498408145228,3
53,2024-09-23 20:56:51.876694784,0,015,-2.2108875624450417,0.23719050645235057,-1.9970716491608522,1.381581797497778,-0.608200627870572,-0.3972166123483579,1.0014759174628898,-2.3556579374894366,3
54,2024-09-23 20:56:51.938236160,0,015,-2.217632004569402,0.24075275427232704,-2.1266420308248066,1.3844407149605538,-0.7023462655605494,-0.3769329945775104,1.1757759253209972,-2.384570549053275,3
55,2024-09-23 20:56:52.021019136,0,015,-2.220720685929935,0.24547678255301247,-2.2735533967313497,1.3949852758488406,-0.7913274979651005,-0.3592407927840622,1.4513317285522382,-2.431665249306851,3
56,2024-09-23 20:56:52.077886976,0,015,-2.220407681011573,0.2516619215350409,-2.4377966421169694,1.4136850701022876,-0.8706486712176756,-0.3449264116175242,1.8141215999429574,-2.4949060347552976,3
57,2024-09-23 20:56:53.032028928,0,015,-2.217101496060517,0.25957528765183774,-2.6182942525106556,1.4404557187811495,-0.9363038520853142,-0.33466325529636165,2.243853009279763,-2.5710080091264462,3
58,2024-09-23 20:56:53.099860224,0,015,-2.2112405092082876,0.2694141500506272,-2.812555075520232,1.4745663121764172,-0.9849481165635839,-0.3290163368239715,2.715060030024106,-2.65565629519711,3
59,2024-09-23 20:56:53.163655936,0,015,-2.2032154335460783,0.2812588665806949,-3.0163916993070794,1.5145432417558058,-1.0140457729813541,-0.3284326931436909,3.198922035892241,-2.743812831073186,3
60,2024-09-23 20:56:53.225662720,0,015,-2.193327132083784,0.2950281694442767,-3.223767007070012,1.558129392210233,-1.0219802916940555,-0.33321272824840703,3.6654182950962175,-2.8300521003855383,3
61,2024-09-23 20:56:53.287714816,0,015,-2.1817285093313883,0.31044775179683004,-3.4268978343718235,1.602399969498291,-1.0081367992887083,-0.34346029649723303,4.085266681467023,-2.9088800601432165,3
62,2024-09-23 20:56:53.370934016,0,015,-2.168340005362782,0.3270414910242434,-3.6167348873695433,1.644070976323469,-0.9729712606136465,-0.3590238555873152,4.431576971371404,-2.975055143882767,3
63,2024-09-23 20:56:53.438662144,0,015,-2.152789124598596,0.3441513911908263,-3.7837666902795744,1.6799255761741756,-0.9180495047272724,-0.37945758437875193,4.6815545273928665,-3.0239772546938286,3
64,2024-09-23 20:56:54.349013248,0,015,-2.13443515419974,0.3609881281533796,-3.9189354694784053,1.7072206043721572,-0.8460150953628582,-0.40402686482354466,4.818293126458094,-3.052122984967533,3
65,2024-09-23 20:56:54.424006144,0,015,-2.112495509379568,0.3767085774471515,-4.01448471467713,1.7239560685678312,-0.7604525864218391,-0.43175657737779116,4.832188379808318,-3.0573754712854466,3
66,2024-09-23 20:56:54.491785216,0,015,-2.0862217384881987,0.39050606684504663,-4.064680771668688,1.728978339911732,-0.6656340363005272,-0.4615024107192515,4.721628344722571,-3.0391591188240152,3
67,2024-09-23 20:56:54.558985728,0,015,-2.0550357106530255,0.4016877390412984,-4.0663615006512455,1.7219575236552382,-0.5661697808668704,-0.49202698582872734,4.493169709978696,-2.9984650014976015,3
68,2024-09-23 20:56:54.622284800,0,015,-2.0185805088860143,0.40971693065666565,-4.0192093669340565,1.703276726583255,-0.46662119070170316,-0.5220713507940798,4.161456131118091,-2.937835487007189,3
69,2024-09-23 20:56:54.683185152,0,015,-1.9767214556041799,0.41421838095758146,-3.9256992184500246,1.67387523092271,-0.371123404535286,-0.5504237542630492,3.7486921324287197,-2.8612392183956046,3
70,2024-09-23 20:56:54.760818176,0,015,-1.9295561383657396,0.4149629400198075,-3.790779589613665,1.6351314263813357,-0.2830415588598738,-0.5759952596105415,3.2833606414970737,-2.773778834670686,3
71,2024-09-23 20:56:55.669408256,0,015,-1.877453242569211,0.4118567779559735,-3.621366564114859,1.5888489714147007,-0.2047280915186357,-0.5979005827637666,2.7981590968228085,-2.6812481779048127,3
72,2024-09-23 20:56:55.747031040,0,015,-1.8210937569605352,0.40495529493140847,-3.425709859292042,1.5373015529188578,-0.13748355203041776,-0.61552166967865,2.3273153812270624,-2.5895372337602276,3
73,2024-09-23 20:56:55.809066240,0,015,-1.7614691022972828,0.394498232047278,-3.2127149707286704,1.4832131606346657,-0.08172892066444193,-0.6285326023340049,1.9035569813059956,-2.50390782654022,3
74,2024-09-23 20:56:55.870624000,0,015,-1.6998160162439049,0.3809345422087902,-2.9913352378841265,1.4295730099491475,-0.0372675518714815,-0.6368908928681176,1.555287158876242,-2.428321839320681,3
75,2024-09-23 20:56:55.952466944,0,015,-1.6375132614240397,0.36490685896247044,-2.7700914772534024,1.3792907943951762,-0.003507610954603821,-0.6408171730858164,1.304535585847618,-2.365079427517431,3
76,2024-09-23 20:56:56.009907968,0,015,-1.5759708591342028,0.3471950399296569,-2.556639297279264,1.3348115442535857,0.02039644353004491,-0.640772876650724,1.1657548953080137,-2.3148560458602585,3
77,2024-09-23 20:56:56.087988992,0,015,-1.5165056228728482,0.3286347552543532,-2.357289668488919,1.297819322829391,0.035468838803732326,-0.6374265570537404,1.1451827355640987,-2.2770085604136234,3
78,2024-09-23 20:56:57.031301888,0,015,-1.460184658851385,0.31001944138255266,-2.1765815650819706,1.2690767703019095,0.04289117676586902,-0.6316008949513565,1.240635627897046,-2.2499888829597405,3
79,2024-09-23 20:56:57.095032832,0,015,-1.4076708154680382,0.29199783674059815,-2.017136542996677,1.2484034743744186,0.044007820387490584,-0.6242054244984903,1.4418257774291083,-2.2318003330874276,3
80,2024-09-23 20:56:57.163599104,0,015,-1.3591608216589366,0.2750014597547041,-1.8798795954550802,1.2347886324273571,0.04029203597934141,-0.6161622192657271,1.7313077035326276,-2.2204666473819183,3
81,2024-09-23 20:56:57.225167104,0,015,-1.314471947892337,0.2592357232851579,-1.764466577265426,1.2265887886599882,0.033234404369892306,-0.6083286125239498,2.086075599115089,-2.2144217645686752,3
82,2024-09-23 20:56:57.302395136,0,015,-1.2732212781054073,0.24473144411203904,-1.6697056394231198,1.221745838503638,0.024213391766315314,-0.6014275107255919,2.4797090654346974,-2.2126998222744887,3
83,2024-09-23 20:56:57.370226944,0,015,-1.2349823098539485,0.23142129674202705,-1.5938855409910329,1.2180132544546183,0.014447337258251109,-0.5960031014452618,2.8847768062051076,-2.2148892863917156,3
84,2024-09-23 20:56:57.426178048,0,015,-1.1993628163462857,0.2192097727979344,-1.5350219107414305,1.2132095465329535,0.005045522759601538,-0.5924104695637809,3.2750778756585985,-2.2209196743624475,3
85,2024-09-23 20:56:58.381403904,0,015,-1.1660418924007612,0.2080281711114224,-1.4910540550096532,1.2054893210848063,-0.0029221288978558647,-0.5908273416943801,3.6273701336485313,-2.2307676167225834,3
86,2024-09-23 20:56:58.440706048,0,015,-1.134821513166389,0.1978760053869768,-1.4600201725790436,1.1935917764997352,-0.008414857373200718,-0.5912685477677572,3.9224821482525734,-2.24415206247576,3
87,2024-09-23 20:56:58.502286848,0,015,-1.105687879778777,0.1888432853184281,-1.4402097119120454,1.1770378222283895,-0.01047271392582834,-0.5935956307940017,4.145973905766336,-2.2603170129107824,3
88,2024-09-23 20:56:58.570653184,0,015,-1.0788290508394718,0.18110513150910226,-1.4302532466051465,1.1562487228211986,-0.008280957118727474,-0.5975298310610709,4.288552370579858,-2.278013660836574,3
89,2024-09-23 20:56:58.647844864,0,015,-1.054572834366686,0.17488675356855396,-1.4291064781910838,1.1325126582641982,-0.00120338172483047,-0.6026817616277056,4.346257574108892,-2.2957068469150657,3
90,2024-09-23 20:56:58.709903104,0,015,-1.0332671038628916,0.17040155195568588,-1.4359077304725725,1.107729299935156,0.011220272865233688,-0.6086008911269384,4.320308455580834,-2.3118895890066917,3
91,2024-09-23 20:56:58.772516864,0,015,-1.0151763138407452,0.16777213103113897,-1.4496964608635923,1.0839652180574437,0.02927821511831705,-0.6148328294787115,4.21649677192988,-2.3253141787457268,3
92,2024-09-23 20:56:59.729914880,0,015,-1.0004699122724163,0.16695883406398973,-1.4690329225571828,1.0629658500139703,0.05304689597087242,-0.6209689466107772,4.044106272510265,-2.335026957963409,3
93,2024-09-23 20:56:59.792399872,0,015,-0.9893062681517897,0.16772415704381052,-1.49169030048025,1.0458194008421475,0.0822904944616879,-0.6266796230942762,3.8145743704547397,-2.3402652577153025,3
94,2024-09-23 20:56:59.854885888,0,015,-0.9819294149118022,0.1696422050483727,-1.5146014833667585,1.032889768514691,0.11632596237400472,-0.631724443908564,3.540296929109056,-2.340350942267515,3
95,2024-09-23 20:56:59.932688896,0,015,-0.9786965061371936,0.17214299645858036,-1.5340375961667336,1.0239486789320786,0.1539051623829343,-0.6359335150626804,3.2338734484402516,-2.3346613355387276,3
96,2024-09-23 20:56:59.994742016,0,015,-0.980036495734673,0.1745809444300603,-1.5458768739345923,1.0183496563753462,0.19316716204793066,-0.6391707667736747,2.9077942023915146,-2.3226961608644094,3
97,2024-09-23 20:57:00.060997120,0,015,-0.9863977083249935,0.17631848324664412,-1.5459927233871935,1.0151920765181703,0.23170141755664708,-0.6413063049988235,2.5742918732809845,-2.30420078639186,3
98,2024-09-23 20:57:00.135590144,0,015,-0.9982218774310708,0.17680904881558662,-1.530923838582717,1.0135238204886672,0.26672592846595555,-0.6422080628617903,2.245014566402017,-2.279234363733322,3
99,2024-09-23 20:57:01.075686144,0,015,-1.0159338594581997,0.17566427506758006,-1.4987630649633052,1.0125763153648883,0.29533197422128243,-0.6417337344355367,1.9303919415854542,-2.248075534034295,3
100,2024-09-23 20:57:01.137720832,0,015,-1.0399083768509712,0.17269628025568032,-1.4499179130796944,1.0119429111084406,0.31472539815025613,-0.6397105810028569,1.6389079348892195,-2.2109773098249415,3
101,2024-09-23 20:57:01.218084864,0,015,-1.070384413133714,0.16792522989903438,-1.3874747870493893,1.011646205063452,0.3224252380340863,-0.6359211371430867,1.3767092674946049,-2.1679298482146083,3
102,2024-09-23 20:57:01.285832704,0,015,-1.107345177010026,0.16154624510512428,-1.3171215942320935,1.0121081772176963,0.31643113496733843,-0.6301170972991138,1.1478237006712864,-2.1186298334524833,3
103,2024-09-23 20:57:01.353629952,0,015,-1.1504212520085975,0.15386517243757697,-1.2466121120852738,1.0140274549260746,0.2953911338008653,-0.62206171433185,0.9547663286641521,-2.0627174923256337,3
104,2024-09-23 20:57:01.416770048,0,015,-1.1988587220040565,0.14522645041172297,-1.1847807309452818,1.0181555328775158,0.2587682594372973,-0.6115839357207354,0.7990329745753616,-2.0001636585204268,3
105,2024-09-23 20:57:01.479258112,0,015,-1.2515476640212224,0.13595746445668389,-1.1402930922108532,1.0250231820025455,0.20696168251293853,-0.5986219231291755,0.6813049195436618,-1.9316429491812712,3
106,2024-09-23 20:57:02.432587776,0,015,-1.3070822407931513,0.12634246378908817,-1.1204264350567508,1.0347314964433327,0.1413509696179435,-0.5832417662950741,0.6015909342194455,-1.8587695463625116,3
107,2024-09-23 20:57:02.500462848,0,015,-1.3638367726419067,0.11662207895094412,-1.1301448236481424,1.0469149451282904,0.06427122238588992,-0.5656397598629221,0.5594825613704586,-1.784132561989798,3
108,2024-09-23 20:57:02.567720960,0,015,-1.4200713103210056,0.10700347183413361,-1.1716717079596384,1.060907445403526,-0.021086035940084263,-0.5461475323945739,0.5544674816537648,-1.711149634480173,3
109,2024-09-23 20:57:02.631230976,0,015,-1.4740890867989573,0.09767056573016884,-1.2445913477947899,1.0760398343681907,-0.11089476158873111,-0.5252390580084864,0.5861319521203617,-1.643774924412851,3
110,2024-09-23 20:57:02.693236992,0,015,-1.524437825169044,0.08879619799280371,-1.3462607999245289,1.0919348264622746,-0.2010611972431849,-0.5035145192805992,0.6540702511658849,-1.5860557852436097,3
111,2024-09-23 20:57:02.771631872,0,015,-1.5700996330204924,0.080560823648019,-1.4722817833365034,1.1086805955385355,-0.28764704430503824,-0.48164823233807125,0.7574030134156335,-1.54156619589887,3
112,2024-09-23 20:57:02.839458048,0,015,-1.6105974494609978,0.0731735185207966,-1.6169875630789037,1.1268220788684815,-0.3671912102832129,-0.46032277834274227,0.8939663608796556,-1.5128356125770028,3
113,2024-09-23 20:57:03.777932800,0,015,-1.6459859695805523,0.06688377697401256,-1.7739968056204998,1.1471762287640892,-0.4368466191820015,-0.4401801470977916,1.0594202146772544,-1.500912359197998,3
114,2024-09-23 20:57:03.840430848,0,015,-1.676757550003386,0.0619759463433724,-1.9367914738385545,1.1705509153174047,-0.4943791062375828,-0.42180170375250925,1.2466489318267575,-1.50514324524967,3
115,2024-09-23 20:57:03.918080000,0,015,-1.7037144449226167,0.05874912346431686,-2.0992093904719336,1.1974792973241126,-0.5381208993912264,-0.40571338037434473,1.4458111070934745,-1.5232021242142821,3
116,2024-09-23 20:57:03.980623104,0,015,-1.7278240398343239,0.057490945200292486,-2.255768169094404,1.2280352198054731,-0.5669294904908107,-0.39240155253056636,1.645272966543641,-1.551399249632065,3
117,2024-09-23 20:57:04.042640896,0,015,-1.7500400269037986,0.0584463935147359,-2.40181283046895,1.2617387630263621,-0.5801445715614035,-0.3823180606792737,1.8333567182424775,-1.5852784714621306,3
118,2024-09-23 20:57:04.119889920,0,015,-1.7710975239000855,0.061777150230498186,-2.5335790418772444,1.2975475525428704,-0.5775249076093381,-0.3758621484222551,2.000338788973511,-1.6203942119658792,3
119,2024-09-23 20:57:04.181394944,0,015,-1.7913513498674207,0.06751761554380764,-2.648275039254293,1.333921697613306,-0.5592004997220958,-0.37334174345477156,2.1399145228882523,-1.6530595972881315,3
120,2024-09-23 20:57:05.107768064,0,015,-1.8107383073641636,0.07554625379984437,-2.744159491302856,1.3689328789843969,-0.5257057371292083,-0.37492128225719956,2.24973075479488,-1.680900122343305,3
121,2024-09-23 20:57:05.168214016,0,015,-1.8288736499370641,0.08558519992382543,-2.820497950679025,1.4003929876060484,-0.4781035828083291,-0.38056402530676714,2.3311504838085684,-1.7031599455954778,3
122,2024-09-23 20:57:05.242201088,0,015,-1.845209194543407,0.0972220713167365,-2.8773648899115596,1.426014445239248,-0.41813542767561546,-0.38998353584314444,2.38867887854139,-1.7207716335968193,3
123,2024-09-23 20:57:05.304197888,0,015,-1.8591736218253854,0.10993742306210755,-2.9154041247540543,1.4436362227778445,-0.34830627203495396,-0.4026263512897873,2.4294388598446,-1.7362358176642099,3
124,2024-09-23 20:57:05.366201856,0,015,-1.870276466253316,0.12312944449820304,-2.9356611695900345,1.4515007391245933,-0.27183471604827186,-0.4177008641514505,2.462835233400551,-1.7533735458203197,3
125,2024-09-23 20:57:05.446615040,0,015,-1.8781977712760185,0.13613926327890627,-2.9394836166060467,1.4484923052306846,-0.19244280730975238,-0.4342491992098702,2.500127910666244,-1.776936805202075,3
126,2024-09-23 20:57:05.505308160,0,015,-1.8828726408361929,0.14828148202085764,-2.928433799235976,1.4342522427108515,-0.11403849748115626,-0.45124235484899816,2.5533594367700707,-1.811962911074845,3
127,2024-09-23 20:57:06.420300032,0,015,-1.8845560463767708,0.1588848585206705,-2.9042124279031007,1.4091814163985412,-0.04041289383445967,-0.4676674922439395,2.633490998268813,-1.8628683172607865,3
128,2024-09-23 20:57:06.498017024,0,015,-1.883836577152187,0.1673472063229642,-2.8686330897118784,1.374422013719823,0.024962558925259618,-0.4825833871233684,2.7484249288677254,-1.9325467942886956,3
129,2024-09-23 20:57:06.565103104,0,015,-1.8815655664932678,0.173191994848052,-2.823622204994571,1.331861696931773,0.0790767320285861,-0.49515150283803877,2.901754698185807,-2.0217924157192613,3
130,2024-09-23 20:57:06.636766208,0,015,-1.8787082804667912,0.1761013216226401,-2.7711255495160474,1.284078857309753,0.11953907276059315,-0.5046716733722147,3.0925112754762583,-2.1291510755857708,3
131,2024-09-23 20:57:06.704266240,0,015,-1.8761813581644715,0.17591734604882664,-2.712870562160057,1.2341338950277492,0.14475274155318318,-0.5106343120063435,3.315734724620595,-2.251120596404517,3
132,2024-09-23 20:57:06.772303104,0,015,-1.874745920252175,0.1726276018815931,-2.650128115964761,1.1852317133290298,0.15401616968930448,-0.5127686326449845,3.5635747824105946,-2.3825827195588865,3
133,2024-09-23 20:57:06.828969984,0,015,-1.8749709231295082,0.16634910037702108,-2.583639574053301,1.140370788978422,0.14750367583535404,-0.5110583922395517,3.8266047449711356,-2.5173742839424493,3
134,2024-09-23 20:57:07.783027712,0,015,-1.8772233787654984,0.15731349304269213,-2.5136792013436273,1.1020582547182256,0.12614893242814884,-0.5057178030838974,4.0950901498688355,-2.6489176437482658,3
135,2024-09-23 20:57:07.850392064,0,015,-1.8816374676843672,0.14584859715211318,-2.4401360394831495,1.0720884641532848,0.09147980090628083,-0.4971434774511994,4.359917455024141,-2.7707819496372488,3
136,2024-09-23 20:57:07.912920832,0,015,-1.8880747735608312,0.13235270943123403,-2.362627603596765,1.0513797172451724,0.04544867988478135,-0.48586413493477953,4.612860936781771,-2.877020678423812,3
137,2024-09-23 20:57:07.974976000,0,015,-1.8961406408122032,0.11726450418528815,-2.2807189389095623,1.0399123945194,-0.009702360635108934,-0.4725024124308307,4.8461923561257425,-2.962259907703887,3
138,2024-09-23 20:57:08.054152192,0,015,-1.9052835317507317,0.10103532035513169,-2.194203724029751,1.0367982669674816,-0.0715260896404365,-0.45775073941894334,5.052077681395477,-3.021695961107529,3
139,2024-09-23 20:57:08.121947904,0,015,-1.914918587329198,0.0841085199705836,-2.1033050594156486,1.040459677282569,-0.13742376371906742,-0.4423508019334276,5.222311674995621,-3.0511988866322977,3
140,2024-09-23 20:57:08.174927104,0,015,-1.9244931012305047,0.06690634714157603,-2.0086900159152563,1.0488845787460594,-0.20469411264776285,-0.4270639959334476,5.348729975646796,-3.0476064696929313,3
141,2024-09-23 20:57:09.128381184,0,015,-1.9334708639187004,0.0498214090354627,-1.9113306816903508,1.059923462317399,-0.2705921083013892,-0.41263130503873435,5.424203220335859,-3.009149194667979,3
142,2024-09-23 20:57:09.191838976,0,015,-1.941290211223933,0.033211586365698154,-1.8123822786453818,1.0715800856242677,-0.33240578325803194,-0.3997327304176658,5.443640790442316,-2.9358524107274606,3
143,2024-09-23 20:57:09.267008000,0,015,-1.947370974157164,0.017401819957016205,-1.7132065499148184,1.082246700085184,-0.38754189831341934,-0.3889585226092193,5.404483398815027,-2.8297724301372265,3
144,2024-09-23 20:57:09.329494784,0,015,-1.9511789833296171,0.0026915503513893807,-1.6154512832250174,1.090860699413575,-0.4336048817733745,-0.38079574069276306,5.306799066085318,-2.695027927623821,3
145,2024-09-23 20:57:09.391537920,0,015,-1.9522741179445395,-0.010644427417093844,-1.5210311273480812,1.0969913946022325,-0.4684860286484733,-0.3756224305143748,5.153410771979051,-2.537677350918936,3
146,2024-09-23 20:57:09.471980032,0,015,-1.950276493699355,-0.02237149641378011,-1.4320620191904343,1.1008605198738566,-0.4905001888339736,-0.3736997966162602,4.950065199415015,-2.365476362042597,3
147,2024-09-23 20:57:09.539726080,0,015,-1.9447813967590977,-0.03231985797654852,-1.350899861663404,1.1032583587735396,-0.49858007867683257,-0.3751580291761116,4.705269931348158,-2.187485317718097,3
148,2024-09-23 20:57:10.473143040,0,015,-1.9353192480270338,-0.040398910780116655,-1.2802380635356465,1.1053145185358253,-0.49247820531886133,-0.3799774092794245,4.429609076655056,-2.0134966076799734,3
149,2024-09-23 20:57:10.550908160,0,015,-1.921422738278487,-0.04658510671564553,-1.2230877483774119,1.1081680480229459,-0.47287068935396354,-0.38797260798058986,4.134649707509886,-1.853299347356856,3
150,2024-09-23 20:57:10.607696896,0,015,-1.9027768647055243,-0.05088120905474895,-1.182567554978954,1.1126794242893414,-0.44128205761477374,-0.3987898140890414,3.831597613345775,-1.715832664300626,3
151,2024-09-23 20:57:10.684879872,0,015,-1.8793628601913281,-0.05326309278153579,-1.1615466555291492,1.1193124103057965,-0.39984611948627474,-0.4119235749828757,3.5299074422999537,-1.6083319275002947,3
152,2024-09-23 20:57:10.754223104,0,015,-1.8515085487641842,-0.05364161521366732,-1.1622575594746352,1.1281921371177768,-0.3509732675937849,-0.4267609762729855,3.2362570663081622,-1.5356437646130245,3
153,2024-09-23 20:57:10.808811008,0,015,-1.8198326950779569,-0.051860126079235236,-1.1860475301400408,1.139247287681655,-0.2969903015021078,-0.44265794132816616,2.9543451774136074,-1.4998667303260544,3
154,2024-09-23 20:57:10.885560064,0,015,-1.785152212132832,-0.04772745486146942,-1.233344917158645,1.1523423149044973,-0.23982662285614337,-0.4590347275156531,2.6857132670789285,-1.5003694030400714,3
155,2024-09-23 20:57:11.816850176,0,015,-1.7484219252826654,-0.041070935009475666,-1.303744798612931,1.1673610098813734,-0.1808471319690342,-0.47545669947467045,2.4314125707133765,-1.5341659714274807,3
156,2024-09-23 20:57:11.900047104,0,015,-1.7107097194356997,-0.03179174249335062,-1.3960708251522687,1.184237633882776,-0.12090690676498841,-0.4916624961854004,2.1939060457057074,-1.596568921979903,3
157,2024-09-23 20:57:11.956919040,0,015,-1.6731553301669986,-0.019910590766490394,-1.508324686439395,1.2029161413384672,-0.06058157471197247,-0.5075237860554779,1.9783060001486807,-1.6819346863567286,3
158,2024-09-23 20:57:12.035495168,0,015,-1.6368677800490536,-0.005602103068317614,-1.6375251048727817,1.2232159791053205,-0.0004025662911212144,-0.5229614663449614,1.7923132380119597,-1.7842789648988961,3
159,2024-09-23 20:57:12.096830976,0,015,-1.60278316558712,0.01077932768673062,-1.7795587971913764,1.2446448237481509,0.05905311394721801,-0.5378709621075813,1.6449486177567891,-1.8976416941731797,3
160,2024-09-23 20:57:12.157905920,0,015,-1.57156363078991,0.028687597963162857,-1.9292244835767327,1.2662716463787733,0.1172155300096294,-0.5520926169767353,1.54468736570159,-2.0162335877699094,3
161,2024-09-23 20:57:12.238977024,0,015,-1.5435877670361984,0.04740018192457601,-2.0805966887856204,1.286781436595241,0.17358773705828281,-0.5654173459723185,1.497514334700956,-2.1344486861704985,3
162,2024-09-23 20:57:13.172848896,0,015,-1.518993902848086,0.06606746450568299,-2.2276824746321258,1.3047506335528147,0.22771947907102555,-0.5775960458505577,1.505062288657158,-2.2467663342223476,3
163,2024-09-23 20:57:13.235375872,0,015,-1.4977042530969873,0.08378382610038754,-2.3651486586147374,1.3190457968951879,0.2791119882798569,-0.5883418679251746,1.5630251905398083,-2.3475764299135493,3
164,2024-09-23 20:57:13.317904128,0,015,-1.4794137237623877,0.09965407055502404,-2.488831219331392,1.3291483891906826,0.3271395482473889,-0.5973374428172771,1.6603697216508615,-2.4310960488924818,3
165,2024-09-23 20:57:13.385637888,0,015,-1.4635975754043744,0.11284087705772418,-2.5958742113387285,1.3352436340654732,0.37102504324466334,-0.6042580829567992,1.7797776575744435,-2.4915494211604745,3
166,2024-09-23 20:57:13.452284160,0,015,-1.4496022641645097,0.12260980921727285,-2.6845415692425014,1.3380674619608395,0.40986678282922745,-0.6088103754245769,1.8992133748784668,-2.5235883792277427,3
167,2024-09-23 20:57:13.517487104,0,015,-1.4368241766195602,0.12839701477472987,-2.753891157921349,1.3386376524095525,0.44270975106423266,-0.6107733317990597,1.9942461525793678,-2.522819254438032,3
168,2024-09-23 20:57:13.573725184,0,015,-1.424897037150527,0.12989122169135914,-2.803554031662232,1.3380078961717048,0.46863638477385483,-0.6100249010287565,2.0409329356344816,-2.4863669512287916,3
169,2024-09-23 20:57:14.532540160,0,015,-1.4137821030072946,0.1270874883037934,-2.833751843077352,1.3371180215037084,0.48684042606389616,-0.6065510406136345,2.0190795478932646,-2.413439016864005,3
170,2024-09-23 20:57:14.589691904,0,015,-1.4037310192650199,0.12028448433530968,-2.8454817754286017,1.336746120234019,0.4966670921905722,-0.6004500975748653,1.9153227594141287,-2.305781901551654,3
171,2024-09-23 20:57:14.668187136,0,015,-1.3951893960612636,0.11003974045422486,-2.840677054598835,1.337530745317528,0.4976353681553945,-0.5919376472887391,1.7252985577823041,-2.1678796896176316,3
172,2024-09-23 20:57:14.729537024,0,015,-1.3887106150971693,0.09711138250856266,-2.8221454804960957,1.340008001900152,0.48947612365998866,-0.581337978601208,1.4545091781480337,-2.006802767114079,3
173,2024-09-23 20:57:14.791565056,0,015,-1.3848717643308577,0.0823954341156067,-2.7931920702357718,1.3445993524888822,0.47220861262936586,-0.5690493126071731,1.1179202680611473,-1.8317240218796822,3
174,2024-09-23 20:57:14.868722944,0,015,-1.38415434354533,0.06685525517934833,-2.757032963891502,1.3515305745578698,0.44626075796604253,-0.5554959539190981,0.7384409476427608,-1.6531835877030197,3
175,2024-09-23 20:57:14.938753024,0,015,-1.3868124572704,0.05144824704561612,-2.7162328305970154,1.3607289172914532,0.4126244530323453,-0.5410995877617086,0.344445346795975,-1.4821656058028245,3
176,2024-09-23 20:57:15.846221824,0,015,-1.3928020410596758,0.03706233968441729,-2.6723116629327626,1.3717403744415877,0.37299365749563745,-0.5262855717043589,-0.033357515053409094,-1.3290727882634004,3
177,2024-09-23 20:57:15.922784256,0,015,-1.4018085913065041,0.02446881988678154,-2.6255311547728652,1.3836575259279915,0.32979464904112166,-0.5115073378194774,-0.36517931578174817,-1.2027878854675504,3
178,2024-09-23 20:57:15.985278976,0,015,-1.4133352970375976,0.014291907263622743,-2.5748881780971744,1.3950713766053215,0.286054823344003,-0.49726056758979836,-0.624946779608769,-1.1100173637361257,3
179,2024-09-23 20:57:16.059537920,0,015,-1.4267763331122667,0.00699365006180706,-2.5183944256855395,1.4041356839335226,0.24512330147836897,-0.48407173018326144,-0.7922372566430582,-1.0549501390670317,3
180,2024-09-23 20:57:16.124353024,0,015,-1.441421702583567,0.002865381444014132,-2.453659870153023,1.4088127968819437,0.21028567002829668,-0.47246217615778346,-0.8533144987521285,-1.0391246129276328,3
181,2024-09-23 20:57:16.187270144,0,015,-1.4564076125272902,0.002013586056120499,-2.3787090399403237,1.4072482673262703,0.18433891076300116,-0.46289859193166255,-0.8015535108023916,-1.0614258651887958,3
182,2024-09-23 20:57:16.248856832,0,015,-1.4706904101830123,0.004341827214143925,-2.292841948817323,1.3981306978205612,0.1692174636175068,-0.45574381697728616,-0.6376222196453758,-1.11824355695537,3
183,2024-09-23 20:57:17.191165952,0,015,-1.4831099764207931,0.00954513437977224,-2.1972292048076096,1.3809149251193849,0.16574363530621558,-0.4512196133209557,-0.36950226760408805,-1.2038562298257045,3
184,2024-09-23 20:57:17.268371200,0,015,-1.4925290974748582,0.017131509734684303,-2.0950224414078513,1.3558903699307747,0.173546461154606,-0.44938556268932556,-0.012030373931249509,-1.3110391815168205,3
185,2024-09-23 20:57:17.330777856,0,015,-1.4979773779827115,0.02647266698330523,-1.9909980273767647,1.3241425411186991,0.1911932865611153,-0.4501352052386074,0.4143761597457335,-1.4318023150036865,3
186,2024-09-23 20:57:17.408713216,0,015,-1.4987416316699496,0.03687298042018964,-1.8908661936845266,1.2874243229826887,0.21654137792952313,-0.45321529319130693,0.8856942267857569,-1.5581093599632674,3
187,2024-09-23 20:57:17.470781952,0,015,-1.494406162878211,0.04763991783225717,-1.8004313775779808,1.2479392724083376,0.24719648495111052,-0.4582691372907444,1.3764494727541285,-1.6824457302352909,3
188,2024-09-23 20:57:17.545217024,0,015,-1.484893092950563,0.05814601631360834,-1.724876511594809,1.2080959964801594,0.28088671063782006,-0.4648884780765597,1.8616071465988224,-1.798204584212348,3
189,2024-09-23 20:57:17.607286016,0,015,-1.470531676483973,0.06788271001065323,-1.6683950140540253,1.1703047355795082,0.3156492851695871,-0.47265461052259944,2.3180710897221557,-1.899930298796672,3
190,2024-09-23 20:57:18.532633088,0,015,-1.452119225826817,0.07650543226919407,-1.6341949547602603,1.1368388914487375,0.34988184929158334,-0.4811624606660628,2.7257765986376663,-1.983413127359353,3
191,2024-09-23 20:57:18.585210112,0,015,-1.4309038844113684,0.08385811471233537,-1.6247480549038946,1.1097668199760105,0.38235453366907196,-0.49003223686068986,3.068351522172963,-2.045603405877971,3
192,2024-09-23 20:57:18.667962112,0,015,-1.4084577108535297,0.08996059436440863,-1.6420777458451719,1.0909445972998013,0.4122274605438606,-0.49891606516265286,3.3334141490346365,-2.084403141836184,3
193,2024-09-23 20:57:18.724992000,0,015,-1.3864799264844865,0.09495821207063257,-1.6878409714250842,1.0820074110138396,0.4390716418098335,-0.5075019465158817,3.5127014748232637,-2.098484559437782,3
194,2024-09-23 20:57:18.801905152,0,015,-1.3666078475354873,0.09905799626439989,-1.7630720204602617,1.0842929255599654,0.46286310807757636,-0.5155065432383634,3.6021964624496157,-2.0872519874134143,3
195,2024-09-23 20:57:18.864392960,0,015,-1.3502788538692228,0.10248160253079665,-1.8677108711126367,1.098710563888646,0.48390827468161934,-0.5226485937516603,3.6021985205494063,-2.050953581590488,3
196,2024-09-23 20:57:18.926437120,0,015,-1.338623913076504,0.10544384256805867,-2.0001804690424403,1.1256286993943891,0.5026886969915837,-0.5286104963325857,3.517101565362021,-1.9908909204785226,3
197,2024-09-23 20:57:19.871903744,0,015,-1.3323665268784495,0.1081439065722306,-2.1571684033613088,1.164821677154113,0.5196590314263504,-0.5330074605101086,3.3548125861322546,-1.9096426183756654,3
198,2024-09-23 20:57:19.949587968,0,015,-1.3317545922743186,0.11075934495190512,-2.333592596722871,1.2154709115951305,0.5350510144820206,-0.535384425438859,3.1260815815425884,-1.8111549089200185,3
199,2024-09-23 20:57:20.017750016,0,015,-1.3365827975036428,0.11344921824715276,-2.5227085594670844,1.2762123692582985,0.5487388853996926,-0.5352550750458148,2.844057593267364,-1.7005721091573693,3
200,2024-09-23 20:57:20.086035968,0,015,-1.3463146982422418,0.11637086893965931,-2.7164063142924944,1.3452370762621457,0.5602196154973218,-0.5321822121061468,2.5240624786548866,-1.5838268160188427,3
201,2024-09-23 20:57:20.153804032,0,015,-1.360224318538857,0.11969334755423217,-2.9057837099581403,1.4204483226978186,0.5687224626099953,-0.5258765465204838,2.183254264273987,-1.4671101882715425,3
202,2024-09-23 20:57:20.212876032,0,015,-1.3774474263987033,0.12358296670852903,-3.0819759354459313,1.499652807881041,0.5733894256853594,-0.5162770866213126,1.8398652858416016,-1.356316833017962,3
203,2024-09-23 20:57:20.289434880,0,015,-1.3969173399397778,0.12815660349447822,-3.2370207160659703,1.5807241779101033,0.5734363857680966,-0.503586119435638,1.5119940544057817,-1.2565316981792938,3
204,2024-09-23 20:57:21.232683776,0,015,-1.4172749607056336,0.1334233475027218,-3.3644611521692984,1.6616692504366692,0.5682407067627917,-0.4882555503948219,1.2161862308559421,-1.1716444969427313,3
205,2024-09-23 20:57:21.300501248,0,015,-1.4368649096793966,0.1392434242117842,-3.459517237887747,1.740562142862907,0.5573552611476552,-0.4709354748247095,0.9660990461624881,-1.1041510346255803,3
206,2024-09-23 20:57:21.354416128,0,015,-1.453856831719847,0.14532606024962347,-3.5188445129903974,1.8153761585717858,0.5404868645505446,-0.45239953961857376,0.7715630334977744,-1.055146824379379,3
207,2024-09-23 20:57:21.431364864,0,015,-1.4664416339832222,0.1512705097287389,-3.5400743884088124,1.8838273277896138,0.5174846949309257,-0.43346493494054283,0.6383788138526058,-1.0245202240269426,3
208,2024-09-23 20:57:21.493373952,0,015,-1.4730152231400493,0.15663181917463165,-3.5214590196835807,1.9433656978037195,0.48836542205860983,-0.4149258224100298,0.5689604113664706,-1.0113426676000803,3
209,2024-09-23 20:57:21.567100160,0,015,-1.4723099211212023,0.16098476771053374,-3.46190217196672,1.9913607417668409,0.453379950677366,-0.3975144368166382,0.5634912766977834,-1.0143575456851721,3
210,2024-09-23 20:57:21.629585920,0,015,-1.4635048038790497,0.16397468257511727,-3.361430458721712,2.025424702251963,0.4130998323057963,-0.38189097552824797,0.6209457377783147,-1.0323905903786388,3
211,2024-09-23 20:57:22.567670272,0,015,-1.446345345346788,0.16535868258777764,-3.2218755407995627,2.0437737866786057,0.3684650494331378,-0.36864333439742114,0.7393310556628939,-1.0645408970684964,3
212,2024-09-23 20:57:22.650649856,0,015,-1.421248089048073,0.16504031280686668,-3.0473786524423954,2.045511638099288,0.320728716856413,-0.3582681574482657,0.9149441123400374,-1.1101317487190514,3
213,2024-09-23 20:57:22.707372032,0,015,-1.3893320571343744,0.163093915259751,-2.8444077133871053,2.0307292712919924,0.27129444035879186,-0.3511218796455733,1.141173777709904,-1.1685272397667943,3
214,2024-09-23 20:57:22.784032256,0,015,-1.3523311466112182,0.15976833060807583,-2.6212420104085927,2.000382861331903,0.2215225816319024,-0.3473631378205028,1.4077387123093337,-1.2389532121115934,3
215,2024-09-23 20:57:22.846052864,0,015,-1.3124021727499555,0.1554594849912473,-2.3871562595122295,1.9560314872647997,0.17259520480230262,-0.34692239032544314,1.7008509954356263,-1.320368236532742,3
216,2024-09-23 20:57:22.908430080,0,015,-1.2719100785527555,0.1506559723698887,-2.151601956687009,1.899595410645697,0.12547413490964382,-0.3495161392316245,2.0041346718429027,-1.4113331815812782,3
217,2024-09-23 20:57:22.989572096,0,015,-1.2332665521716972,0.14587806958935368,-1.9235127950111703,1.8332302909077594,0.08093505050618603,-0.3546941803134984,2.29986023432266,-1.5098398750127657,3
218,2024-09-23 20:57:23.927525888,0,015,-1.1988204257759199,0.14162778566593787,-1.7107326941742362,1.7592827123126176,0.03964382261438632,-0.3618971873729575,2.5702660688479324,-1.6131548560571465,3
219,2024-09-23 20:57:23.989126912,0,015,-1.1707440056640468,0.13834814644659077,-1.519620504016503,1.680251141896674,0.0022349222001320445,-0.37051267455868103,2.7989933796296764,-1.7178016530046238,3
220,2024-09-23 20:57:24.068430848,0,015,-1.1508928169531287,0.13638130106490642,-1.3549269750051278,1.5987264906871528,-0.030656492755724112,-0.37992844200812154,2.9725497980820994,-1.819753593483344,3
221,2024-09-23 20:57:24.133476096,0,015,-1.1406757896172983,0.13593006732389107,-1.219913307799428,1.517330157617483,-0.058442101590346726,-0.3895802742381368,3.0814236871676424,-1.914775652690397,3
222,2024-09-23 20:57:24.203869184,0,015,-1.1409653508565745,0.13704160338633106,-1.1165033952888102,1.4386477286977821,-0.08068942131397103,-0.3989885992383362,3.1205501775483024,-1.9987862184377339,3
223,2024-09-23 20:57:24.271591680,0,015,-1.152027444004271,0.13962119290328373,-1.0452746706215374,1.3651229608207096,-0.09722892907311803,-0.40778019407039157,3.0892475629437213,-2.0681699821098296,3
224,2024-09-23 20:57:24.329232896,0,015,-1.1734494810307994,0.14346114351385175,-1.005318479353611,1.2989149577935926,-0.10820229055291579,-0.4156864133642974,2.9908782411171315,-2.120050048855167,3
225,2024-09-23 20:57:25.274501888,0,015,-1.204096952426275,0.14826327811061393,-0.994167937786164,1.2417779879294248,-0.11403367677372273,-0.4225159289879369,2.832256420603612,-2.1525176643084114,3
226,2024-09-23 20:57:25.336894976,0,015,-1.2421647381608352,0.1536488172837547,-1.007925809299216,1.1949910696680053,-0.11533573883222337,-0.42812294299662274,2.6227422284031054,-2.1647727295740533,3
227,2024-09-23 20:57:25.414048000,0,015,-1.2853543268260958,0.15916665434890712,-1.041552285656543,1.1592952852475822,-0.11277601788694978,-0.43239614308909025,2.3730950651216873,-2.1571397948204067,3
228,2024-09-23 20:57:25.486237184,0,015,-1.331132423835738,0.1643157034456348,-1.0892225585937036,1.1348063609468286,-0.10694256818785618,-0.43526977742608697,2.094222156166856,-2.130956448923033,3
229,2024-09-23 20:57:25.554153728,0,015,-1.3769786413136198,0.1685868842018072,-1.1447830929349485,1.1209490379604043,-0.09825921131422002,-0.43673783019479645,1.7959885168478391,-2.0883130999850184,3
230,2024-09-23 20:57:25.621936128,0,015,-1.4205426880101613,0.17151198945997387,-1.2024036549780097,1.116499873485436,-0.08698229782620422,-0.43685375901025864,1.4862868691059505,-2.031640512156067,3
231,2024-09-23 20:57:25.689743872,0,015,-1.4596996283395007,0.17269951928060484,-1.2574023828140148,1.1197730093393894,-0.07325400861657258,-0.4357155872429968,1.170510295147315,-1.96326172871779,3
232,2024-09-23 20:57:26.633740032,0,015,-1.4925667980308701,0.17184934631929627,-1.3070559996941862,1.1289022974888794,-0.05715328830836645,-0.43345246347120514,0.8515149092524451,-1.88509742958394,3
233,2024-09-23 20:57:26.701432832,0,015,-1.5175542942891505,0.16875427826601877,-1.3511486470336005,1.1421361467863338,-0.03872525842261316,-0.4302228340734726,0.53014046750112,-1.7986315423730566,3
234,2024-09-23 20:57:26.769367808,0,015,-1.533464990775305,0.16330474562136324,-1.3920616920325914,1.1580732228113302,-0.018037395736236743,-0.4262085617196199,0.2062539734192727,-1.7051111631415716,3
235,2024-09-23 20:57:26.825743872,0,015,-1.5396007721051337,0.15550608825354093,-1.4343246746289204,1.175799751413635,0.004692835622769428,-0.42158312973789097,-0.11995023497021759,-1.6058485899811528,3
236,2024-09-23 20:57:26.904002048,0,015,-1.5358020876705794,0.1454986177768266,-1.483721107153938,1.1949168355445905,0.02894718201243506,-0.4164649764384136,-0.44684637098888913,-1.5024325521313278,3
237,2024-09-23 20:57:26.966489088,0,015,-1.5223770019362457,0.13356167535882538,-1.5461973500995767,1.2154566475294282,0.053838329920512955,-0.4108930134514043,-0.7708111693703736,-1.3967235863275624,3
238,2024-09-23 20:57:27.027612928,0,015,-1.499963807356596,0.12009583886012458,-1.6268456836654923,1.2376936285828701,0.07816180820679731,-0.4048408280593139,-1.086251058902436,-1.2906724051343075,3
239,2024-09-23 20:57:27.946105856,0,015,-1.469433726260991,0.10559303495159603,-1.7291521758166866,1.2618871541983419,0.10051113965240747,-0.39825143312717787,-1.386049046963922,-1.186110647030258,3
240,2024-09-23 20:57:28.025732864,0,015,-1.431900845991651,0.09060726252526871,-1.8546243802228555,1.2880345181786932,0.11939251482639296,-0.3910664561672093,-1.6620390921766761,-1.0846844115091478,3
241,2024-09-23 20:57:28.084134912,0,015,-1.3887993858270797,0.07573259594709492,-2.0028303952895117,1.3157180609480001,0.13333717320889468,-0.38323934726131714,-1.905124571014348,-0.9880090907235161,3
242,2024-09-23 20:57:28.161364992,0,015,-1.3419241248682487,0.061585781000157006,-2.1717395641618853,1.3440848328544315,0.1410563213679173,-0.37474066497377295,-2.105142039366612,-0.8979083790464873,3
243,2024-09-23 20:57:28.222519040,0,015,-1.2933712248217966,0.048783626430471315,-2.3581317961906363,1.3719456327513602,0.14164101805362653,-0.365563401577003,-2.251018879495248,-0.8164663971644455,3
244,2024-09-23 20:57:28.285123072,0,015,-1.2454031505839585,0.03790764482708451,-2.557846398595041,1.3979530338817419,0.13472367512240888,-0.35572113412706297,-2.3316582356246847,-0.7457621986710062,3
245,2024-09-23 20:57:28.364794880,0,015,-1.2002928232266312,0.02945814993282266,-2.7657766167762023,1.4208070220562605,0.12052615532509094,-0.34523203786721696,-2.337497741666743,-0.6874430739505527,3
246,2024-09-23 20:57:29.282173952,0,015,-1.1601695480869556,0.02380934436823161,-2.9757012684111217,1.4394370028775685,0.09980871773296802,-0.3340986424857126,-2.2622173464505613,-0.642431976209838,3
247,2024-09-23 20:57:29.345946112,0,015,-1.1268626182866948,0.021181409509126132,-3.1801828212699697,1.4531249896932144,0.07376799226708923,-0.3222994126836273,-2.1039337882899094,-0.6109222902944387,3
248,2024-09-23 20:57:29.407987968,0,015,-1.1017565690653213,0.02163986448675795,-3.370757242772836,1.4615540425406781,0.04389986305901733,-0.3098004991864981,-1.8655535246370045,-0.5925626972683399,3
249,2024-09-23 20:57:29.485174784,0,015,-1.085703260837525,0.025118450928551337,-3.538459908761983,1.4647672843877662,0.01183392935134285,-0.2965885998066614,-1.554392398992584,-0.5866520812639894,3
250,2024-09-23 20:57:29.553199872,0,015,-1.0790297367468997,0.03145373710623312,-3.674531969338435,1.4630391520725974,-0.020818017792218292,-0.28271967746434584,-1.181302380107057,-0.592280579081738,3
251,2024-09-23 20:57:29.607544832,0,015,-1.0816260576212764,0.0404211385588765,-3.7711358302797446,1.4567300414201458,-0.052537080969626754,-0.2683675014134851,-0.7594576592115533,-0.6084740752780035,3
252,2024-09-23 20:57:29.688736768,0,015,-1.0930422695279247,0.051764619167014914,-3.822012565315269,1.4462265326808181,-0.08187703786553784,-0.25384977709995993,-0.30290980801732276,-0.6343977115852187,3
253,2024-09-23 20:57:30.623362048,0,015,-1.1125291112705158,0.06521286076116789,-3.8230485796904055,1.4319738455734272,-0.1073942155862736,-0.23962189672542614,0.1747855472243112,-0.669559139725979,3
254,2024-09-23 20:57:30.684904960,0,015,-1.1390207796025493,0.08047566044741379,-3.7726705029993957,1.4145086011801966,-0.12759478570959676,-0.2262444365265891,0.6613257426079431,-0.7138411563345571,3
255,2024-09-23 20:57:30.767802112,0,015,-1.17111365707073,0.09722136512449382,-3.671980086204651,1.3944405687862822,-0.14095441411215331,-0.21433094739954264,1.1454984517880102,-0.7672531561964563,3
256,2024-09-23 20:57:30.835523072,0,015,-1.2070959557693288,0.1150504556148874,-3.524639152982926,1.3724232209222018,-0.14603542775868603,-0.20448358371148254,1.6164303605206065,-0.8294983932893208,3
257,2024-09-23 20:57:30.901961216,0,015,-1.245046891455726,0.1334877613596586,-3.3366083249712006,1.3491548440753023,-0.14167930357452413,-0.19723353421120216,2.0628977334584446,-0.8995872643688211,3
258,2024-09-23 20:57:30.964946944,0,015,-1.2829813047413392,0.15200340490653413,-3.115804528467962,1.3254040711307589,-0.12721505857690235,-0.19299661128637732,2.4731491721672163,-0.9756983892603897,3
259,2024-09-23 20:57:31.027002112,0,015,-1.3189883034819798,0.1700524242458564,-2.87166437997003,1.3020474410266727,-0.10262090827505777,-0.19203528632063757,2.8353277693999317,-1.055377499555685,3
260,2024-09-23 20:57:31.967183104,0,015,-1.3513257655112798,0.18711597030696275,-2.6146330328007097,1.2801191680801227,-0.06860963077955716,-0.194416969859506,3.1383115875379044,-1.135985130333206,3
261,2024-09-23 20:57:32.044360192,0,015,-1.3784747084173286,0.20273268963919303,-2.355664162576396,1.2608509882985002,-0.026657697682055913,-0.1999717415437476,3.3726549535470802,-1.2151303952943795,3
262,2024-09-23 20:57:32.105995776,0,015,-1.3991783363231396,0.21651520600751595,-2.1057815482806594,1.2456630627820335,0.02099190144730404,-0.20826177742363108,3.531290322139866,-1.290866266159059,3
263,2024-09-23 20:57:32.183195136,0,015,-1.412475553702025,0.22815202260205128,-1.8756838855211673,1.2361155191789894,0.07136970905364326,-0.21857942128092603,3.609746358197531,-1.3616343982504353,3
264,2024-09-23 20:57:32.244769024,0,015,-1.4177169661145856,0.2373998692222848,-1.675367684373719,1.2338749463905987,0.12091698427008095,-0.2299906838745682,3.605881794257072,-1.4260718845044915,3
265,2024-09-23 20:57:32.311934208,0,015,-1.414547296638192,0.2440714909504285,-1.5137417065046237,1.240694120177366,0.1657473654656759,-0.24142806234371084,3.5194365238331087,-1.4828085124696093,3
266,2024-09-23 20:57:32.388969984,0,015,-1.4028595513433335,0.24802226495962756,-1.3981862536744327,1.258322011033654,0.20199205930237937,-0.2518159480731768,3.3518108967486375,-1.5303881848391878,3
267,2024-09-23 20:57:33.328537856,0,015,-1.3827583993489105,0.2491407328668925,-1.334039499790388,1.2882745049130737,0.22614909773928168,-0.26020039475370405,3.1062647940158534,-1.5673608029911394,3
268,2024-09-23 20:57:33.390139136,0,015,-1.3545759134212185,0.247350007121316,-1.3240854709388028,1.331480476717342,0.23537919885682906,-0.26585965271302797,2.7884010623357716,-1.5924500395483303,3
269,2024-09-23 20:57:33.467976960,0,015,-1.3189394104866206,0.24262224145741346,-1.3682034755309591,1.387893522583232,0.22774269232141098,-0.26838142885218613,2.4067171058596477,-1.6047252747915586,3
270,2024-09-23 20:57:33.536358144,0,015,-1.276833683259452,0.23499867058384893,-1.4632860124002347,1.456182258924847,0.20240172301229234,-0.2676982703610995,1.9731380669680783,-1.6038333089414403,3
271,2024-09-23 20:57:33.604005120,0,015,-1.2296018608834816,0.22460656759734698,-1.6033666089417817,1.5335979088378648,0.1597714258288534,-0.2640762061500321,1.5034435020194745,-1.5903172082097556,3
272,2024-09-23 20:57:33.671849984,0,015,-1.1788959982507166,0.21167369709143058,-1.7798964966719137,1.6161084464371014,0.10153185802840341,-0.25805679438960927,1.0173113295300662,-1.5658919551975303,3
273,2024-09-23 20:57:33.727616000,0,015,-1.1266301982505056,0.19654476315054278,-1.9822817927837806,1.6988315743414872,0.030418562429831316,-0.2503607516171468,0.5376405819330472,-1.5334904777464906,3
274,2024-09-23 20:57:34.668665088,0,015,-1.0749523705326804,0.17969877536529885,-2.1987602855007853,1.7766681809525768,-0.050185887222361204,-0.24177287281082951,0.08912392468872618,-1.4970047004329172,3
275,2024-09-23 20:57:34.750356992,0,015,-1.0261888381914226,0.16175869325547307,-2.417434033489034,1.8449623980724421,-0.13671690554688717,-0.23303762713481957,-0.3035474145797289,-1.460801708798257,3
276,2024-09-23 20:57:34.808252928,0,015,-0.9827109876239476,0.14347913473242518,-2.627215339965255,1.900058808970203,-0.22577553637463818,-0.2247887968563045,-0.6174883419258872,-1.4291529540024877,3
277,2024-09-23 20:57:34.884988928,0,015,-0.946741537078338,0.12570273381374852,-2.818617564484341,1.9396822164379783,-0.3142793843403252,-0.21751336282845096,-0.8334356942502354,-1.4056595043088378,3
278,2024-09-23 20:57:34.946521088,0,015,-0.9201799355349554,0.10929384095770324,-2.9843050928776957,1.9630526112246536,-0.39946107100943984,-0.2115370088614505,-0.9376034430336069,-1.3927045088057315,3
279,2024-09-23 20:57:35.009006080,0,015,-0.9045050970501609,0.09507281804677468,-3.1191702642720283,1.970663418357403,-0.4788129940398165,-0.20702646297649605,-0.9232272688172032,-1.3909967617278827,3
280,2024-09-23 20:57:35.088219904,0,015,-0.9007433391525794,0.0837685514830446,-3.2199096307145387,1.9638017931543774,-0.550068350692844,-0.20400718404650633,-0.7913116044019958,-1.3993342924685288,3
281,2024-09-23 20:57:36.032536832,0,015,-0.9094464273843623,0.07598517852982015,-3.284479211547903,1.9440542205167657,-0.6112593019719242,-0.20238849495994685,-0.5503907971539854,-1.4147201614074538,3
282,2024-09-23 20:57:36.100355072,0,015,-0.9306419830955875,0.07216659797804978,-3.3118085670106576,1.9130146467935598,-0.6608329315853168,-0.20198871839522461,-0.21541319709235376,-1.432873985450714,3
283,2024-09-23 20:57:36.168128000,0,015,-0.9637796581925105,0.07255762405704336,-3.301802570853648,1.8722389038773706,-0.6977749217993058,-0.20255856890232576,0.1939540340881579,-1.449012075629319,3
284,2024-09-23 20:57:36.227485952,0,015,-1.0077272267355206,0.0771804376675054,-3.2554977397405755,1.8233616202201834,-0.7216847448478034,-0.20380649814099447,0.6551367329143114,-1.4586139865253305,3
285,2024-09-23 20:57:36.303694080,0,015,-1.060828052743125,0.08583862846293695,-3.175299705691459,1.7682616230412214,-0.7327519957280156,-0.20543652511008118,1.144216780891436,-1.4579316499918162,3
286,2024-09-23 20:57:36.365730048,0,015,-1.120980790042078,0.09814159859328198,-3.0652189191069206,1.7091877441476209,-0.7316279395397627,-0.20720300142000753,1.6372026907405828,-1.4441949829315703,3
287,2024-09-23 20:57:36.427780096,0,015,-1.1857077833232774,0.11353393625153232,-2.9309605533214325,1.6488057951986628,-0.7192629857465712,-0.20896148428852365,2.111117725486563,-1.4156188797268707,3
288,2024-09-23 20:57:37.369003264,0,015,-1.2522223316241152,0.13131931622019136,-2.7797448084075236,1.590137612300248,-0.6967984073697663,-0.21068625234318378,2.5449643394369663,-1.3713666234156554,3
289,2024-09-23 20:57:37.450445824,0,015,-1.3175370439825886,0.15068080689979743,-2.619843514581017,1.5363592530018189,-0.6655250425130173,-0.21245124442145502,2.920610147188423,-1.3115794722256973,3
290,2024-09-23 20:57:37.513184000,0,015,-1.378648321151648,0.17071285617175375,-2.459962841582631,1.4904885545735933,-0.6268666288070571,-0.2143927507320935,3.223683565586746,-1.2374515258642518,3
291,2024-09-23 20:57:37.585356032,0,015,-1.4327891754808904,0.19048392073833054,-2.308634867708631,1.4550552313924616,-0.582366094367026,-0.21666733702845692,3.444469421309409,-1.1512466705590214,3
292,2024-09-23 20:57:37.653018112,0,015,-1.4776860546204926,0.20912997995833343,-2.173671335537811,1.4318374037393835,-0.533670186000815,-0.21941085938608557,3.578564922396266,-1.0561983498079088,3
293,2024-09-23 20:57:37.710386944,0,015,-1.511737390502985,0.22594698561316992,-2.0616674624456754,1.4217106603099814,-0.4825007231887485,-0.22270405004790939,3.626993852904845,-0.9563104093443614,3
294,2024-09-23 20:57:37.788035840,0,015,-1.534087930507908,0.2404426006216111,-1.977577932744004,1.4245950398153742,-0.430605349668792,-0.22654860257203266,3.5956752822811153,-0.8560870821008397,3
295,2024-09-23 20:57:38.700945920,0,015,-1.5446356926347102,0.2523367741112307,-1.9244005752767306,1.4394283033107649,-0.3796843367448729,-0.23085433943202155,3.494386530125011,-0.7601983285548424,3
296,2024-09-23 20:57:38.775351040,0,015,-1.5439975502391905,0.2615314638018137,-1.9029613047171012,1.4641331755724114,-0.3312921390485574,-0.2354334486336963,3.3354945419000126,-0.673116749349768,3
297,2024-09-23 20:57:38.836942848,0,015,-1.5334116663713468,0.2680722412764426,-1.911779839793969,1.4956397977995113,-0.28673849233616167,-0.2399948944070588,3.1327572592715685,-0.5987895449818957,3
298,2024-09-23 20:57:38.911184128,0,015,-1.5145531046876097,0.2721077899595012,-1.9470954765057307,1.530041758992243,-0.24703936684131308,-0.24414114100973408,2.9004434804234234,-0.5403796123707572,3
299,2024-09-23 20:57:38.976342016,0,015,-1.4892936198988638,0.2738451213979293,-2.0032315023058405,1.5628991331104272,-0.21294609165718967,-0.24738379389077558,2.652832216418594,-0.5001007289240139,3
300,2024-09-23 20:57:39.038351104,0,015,-1.4594809730147595,0.27350736487563926,-2.0733306054883207,1.5896353571258388,-0.18503376285946063,-0.24919044715050306,2.40385414351666,-0.479181452894872,3
301,2024-09-23 20:57:39.100408832,0,015,-1.4267894562397996,0.2713095270600615,-2.15022477791362,1.6059540606860947,-0.16380641043164623,-0.24905315454700866,2.166493241091074,-0.47792946224206606,3
302,2024-09-23 20:57:40.023212800,0,015,-1.3926273555175666,0.26745875159973437,-2.2271876914917876,1.6082309448030745,-0.1497598050415804,-0.24655745080284913,1.9518125003379463,-0.4957974569331516,3
303,2024-09-23 20:57:40.085212928,0,015,-1.3580587001422968,0.26216607298939115,-2.29849605520749,1.5938695218017942,-0.14333610640343142,-0.24143848328318473,1.7679285529918842,-0.531427405558409,3
304,2024-09-23 20:57:40.161972992,0,015,-1.323741259546844,0.25565275460380976,-2.3597854236435825,1.5615922341393502,-0.14477058571365362,-0.23362206204193553,1.6193838489878876,-0.5827713061329373,3
305,2024-09-23 20:57:40.224009984,0,015,-1.2899314615814752,0.248153508002158,-2.4081868475235373,1.5116095437348995,-0.15392780063236733,-0.22325101156327615,1.507008697199205,-0.6473348033377978,3
306,2024-09-23 20:57:40.301186048,0,015,-1.256584739626125,0.23993365797517327,-2.442341077085948,1.4456429597732345,-0.17022597875869813,-0.21069203571178047,1.42814671163452,-0.7224733767401519,3
307,2024-09-23 20:57:40.362733824,0,015,-1.2235199300958595,0.2313270920373099,-2.4624334971435515,1.3668279963097965,-0.19266486938946759,-0.19651567862098654,1.3772595719164415,-0.8056688618859235,3
308,2024-09-23 20:57:40.439439872,0,015,-1.1905790649430161,0.22277566139540267,-2.4702412881686877,1.2795166925763308,-0.2199234442693345,-0.18144743819438294,1.3469215933678902,-0.8947154892887399,3
309,2024-09-23 20:57:41.382842112,0,015,-1.157714863605664,0.21483336793277796,-2.4690515687784704,1.1889690221103002,-0.25050781601865507,-0.16629522633714136,1.329052523381224,-0.9877177191001241,3
310,2024-09-23 20:57:41.449148928,0,015,-1.1249853833119132,0.2081129033847459,-2.4633475436120866,1.1009223454807542,-0.28294426885100293,-0.15186335372773208,1.3162574440723116,-1.082894501737915,3
311,2024-09-23 20:57:41.518474240,0,015,-1.0925004313352868,0.2031870166444845,-2.4582424457796326,1.0210609691506995,-0.3159865041695868,-0.13886968861956708,1.3031161365731516,-1.1783251175265284,3
312,2024-09-23 20:57:41.581537792,0,015,-1.0603801749694686,0.2004781158929905,-2.4587122285743948,0.9544586294296783,-0.34876042778890454,-0.12788775390737217,1.2870896269539618,-1.2717856523640498,3
313,2024-09-23 20:57:41.644023040,0,015,-1.0287406367827012,0.20017052739670274,-2.468810382453767,0.9051113120641456,-0.3807727085484737,-0.11932606707974719,1.268766632212846,-1.3607530224819668,3
314,2024-09-23 20:57:41.721652224,0,015,-0.9976772439869582,0.20217280921330716,-2.491121240167038,0.875661707038239,-0.411796367410996,-0.11343177387541564,1.2514388976941955,-1.4425807750955293,3
315,2024-09-23 20:57:41.789535232,0,015,-0.9672332698742927,0.20613918229222253,-2.5265494816603113,0.8673212315284174,-0.44173440376815365,-0.11029292861326076,1.240126210371541,-1.5147539657379512,3
316,2024-09-23 20:57:42.724733952,0,015,-0.9373930205815805,0.21153579339169898,-2.5743251963085076,0.8799199633388836,-0.47054013983075,-0.10983312927256801,1.2401724701630776,-1.5750660590609629,3
317,2024-09-23 20:57:42.800775168,0,015,-0.9081492893549712,0.2177287535775398,-2.632093243040412,0.9120362847905376,-0.4981767708891142,-0.11181289144641335,1.2556859801644984,-1.6216569992031111,3
318,2024-09-23 20:57:42.868128256,0,015,-0.8796280069542213,0.22407515256321847,-2.6960845933588824,0.9611938211763944,-0.5245650980073454,-0.11584289456741592,1.2883916562655802,-1.6530197905269233,3
319,2024-09-23 20:57:42.936233984,0,015,-0.8521817281188107,0.23000015836230828,-2.7613974441872804,1.02409320034915,-0.5495174130444034,-0.121402189594866,1.3373600030431327,-1.668084224866102,3
320,2024-09-23 20:57:43.002780928,0,015,-0.8263783046458342,0.23504513494358992,-2.8223332647311894,1.096846867771685,-0.57268385468577,-0.12786767554141307,1.399401614677342,-1.6663293806275914,3
321,2024-09-23 20:57:43.065327872,0,015,-0.802902323883304,0.2388848650911639,-2.8727479980874793,1.175249769861395,-0.5935244910852607,-0.13456682737035974,1.4694838350286155,-1.6478054602667942,3
322,2024-09-23 20:57:43.127383040,0,015,-0.7824503156366994,0.24132851542972097,-2.906517219399352,1.2551497509930236,-0.6113282465263785,-0.14083869619641168,1.5408730832047985,-1.6130359253567874,3
323,2024-09-23 20:57:44.083596032,0,015,-0.7656709735505095,0.24232102824269097,-2.9182144031245953,1.3329120218023607,-0.6253093232394518,-0.14607133593317506,1.6052586125474322,-1.5628720227796065,3
324,2024-09-23 20:57:44.147840000,0,015,-0.7531295871626784,0.24194850827373546,-2.903888864754831,1.4058672858534218,-0.634771917905419,-0.1497112792172808,1.6532506061205452,-1.4983870663979202,3
325,2024-09-23 20:57:44.209891072,0,015,-0.7452530455019166,0.24043701090849817,-2.8616729742692044,1.4725884831757856,-0.639284653641672,-0.15127173289541537,1.6753135025467214,-1.4208349665006093,3
326,2024-09-23 20:57:44.271967744,0,015,-0.7422585979482246,0.23813055198490715,-2.7920339636821114,1.5328949342215623,-0.638807081451524,-0.15035733299504164,1.6627473806698363,-1.331614280876008,3
327,2024-09-23 20:57:44.354756096,0,015,-0.7441128442551951,0.23544259954078228,-2.697720572521211,1.5876104255976844,-0.6337448523625497,-0.14669962595864616,1.6083551357293027,-1.2321911605527018,3
328,2024-09-23 20:57:44.410245888,0,015,-0.7505480889491247,0.23279109486761732,-2.583588128802649,1.6382201547421895,-0.6249352693507481,-0.14019136327731144,1.5068937320078233,-1.1240342105880663,3
329,2024-09-23 20:57:44.487404032,0,015,-0.7611191123348366,0.23054086404638482,-2.45633319823337,1.6865721022050255,-0.6135787323388942,-0.13090944625530468,1.3555967497184012,-1.008661572414826,3
330,2024-09-23 20:57:45.434342912,0,015,-0.7752653572723806,0.22897359439261725,-2.323954439832259,1.7346475368429677,-0.6011306283308814,-0.11912306526797414,1.1548683674566698,-0.8878576581375293,3
331,2024-09-23 20:57:45.499567104,0,015,-0.7923530301336796,0.2282836845020456,-2.1948464637998613,1.7843215542134578,-0.5891540431272541,-0.10529793805109819,0.9090782920456403,-0.7640042099303529,3
332,2024-09-23 20:57:45.569680896,0,015,-0.8116991413474256,0.22858370740784995,-2.0766966918465943,1.8370467356651836,-0.579142356864537,-0.09010382559257425,0.627296043254262,-0.6403692199876793,3
333,2024-09-23 20:57:45.637659136,0,015,-0.8326002766647431,0.22991065961752977,-1.9754663822775416,1.8934999061580506,-0.5723372516161838,-0.07440841976707604,0.32376941280698124,-0.5212480572071252,3
334,2024-09-23 20:57:45.705468928,0,015,-0.8543742178537379,0.23223532891994556,-1.894697737116162,1.9533407136283427,-0.569555592764452,-0.05923446242629311,0.01785699766292075,-0.4119249039755039,3
335,2024-09-23 20:57:45.763895040,0,015,-0.8763919873507537,0.23547395299688179,-1.8352871043686123,2.015215311898902,-0.5710326056547436,-0.04567927548920684,-0.2671123595619425,-0.3183564632601274,3
336,2024-09-23 20:57:45.841025024,0,015,-0.898076572234462,0.23949393675090688,-1.7957413004885294,2.077007313174331,-0.5763104729343698,-0.034818308541692905,-0.5063866063163328,-0.24650573987397495,3
337,2024-09-23 20:57:46.781441792,0,015,-0.9188842417752898,0.24411256656065464,-1.7728612437818643,2.1362441244000823,-0.584224367458439,-0.027613506954986593,-0.6772072821451413,-0.2014856854785859,3
338,2024-09-23 20:57:46.839340800,0,015,-0.9383189734558627,0.24910254227943246,-1.7627256922959138,2.1905422343207985,-0.5930318167390853,-0.024829918399315577,-0.7619489466058739,-0.18681063444269475,3
339,2024-09-23 20:57:46.916524800,0,015,-0.9559990984459216,0.25421533895023485,-1.7617076159247225,2.2379487342702524,-0.6006724187582911,-0.02695805573916103,-0.7501148882444582,-0.20395850120304176,3
340,2024-09-23 20:57:46.979013888,0,015,-0.9717199803672414,0.259211861537879,-1.7671887857897928,2.2770559930688172,-0.6050771740521339,-0.03415364924178968,-0.638988053963369,-0.2522845261968178,3
341,2024-09-23 20:57:47.040108800,0,015,-0.9854368638889496,0.26387767973024207,-1.7778021155727188,2.3068951656325734,-0.6044500990003513,-0.04621508476474281,-0.4332196577646342,-0.32921530018238493,3
342,2024-09-23 20:57:47.117342976,0,015,-0.9971686493251223,0.268013401128305,-1.7933021884089402,2.326741906149256,-0.5974974348067595,-0.06260469803046714,-0.14380750147149884,-0.43060766370085174,3
343,2024-09-23 20:57:47.188685056,0,015,-1.0069061006598206,0.27141338357299216,-1.814304413669832,2.3359721315342012,-0.583598965987712,-0.08250113745120935,0.21321475144144217,-0.5511637453750184,3
344,2024-09-23 20:57:48.133745920,0,015,-1.0145909605259438,0.27385547703798324,-1.8420865077642548,2.334049247775967,-0.5629033887878089,-0.10486729321885656,0.6182859920450031,-0.6848166500551437,3
345,2024-09-23 20:57:48.201530112,0,015,-1.0201484086698014,0.27511666832666576,-1.8784472667243979,2.3206740623257116,-0.5363337780100713,-0.12852502308323277,1.0499463288729929,-0.8250592207385206,3
346,2024-09-23 20:57:48.260870912,0,015,-1.0235169631494114,0.27500974586011095,-1.9254074994457482,2.296026834809435,-0.5055010350847535,-0.15223313801860136,1.4863406340266914,-0.965258491980432,3
347,2024-09-23 20:57:48.337116928,0,015,-1.0246606288162265,0.27341938960452206,-1.9846213454370256,2.260930526779226,-0.4725212262356946,-0.17477165737077394,1.9063842513661364,-1.0989706418819294,3
348,2024-09-23 20:57:48.399714048,0,015,-1.0236024635037282,0.2703237023966056,-2.056673459328931,2.216812109962401,-0.4397364613197105,-0.19503882975738154,2.29062422567392,-1.2201787413098724,3
349,2024-09-23 20:57:48.461743104,0,015,-1.0205057776501107,0.26580743552164515,-2.1405293197268778,2.165485822004839,-0.4093692147189139,-0.21215522896593217,2.6219247674972426,-1.3233992912226595,3
350,2024-09-23 20:57:48.539748096,0,015,-1.0157616107487772,0.2600750150431589,-2.2332932600403717,2.108888189903781,-0.38318269307401276,-0.2255471699665325,2.8861170654977606,-1.4037550516885398,3
351,2024-09-23 20:57:49.456089088,0,015,-1.0100130210668303,0.25345657334636784,-2.330406376907449,2.048924619419282,-0.36222607131055057,-0.23497937335044974,3.072873538577808,-1.4571925123519194,3
352,2024-09-23 20:57:49.517975040,0,015,-1.0040857366608482,0.24639042413225593,-2.4263497197527353,1.987509544442979,-0.3466987796277689,-0.24053473114131857,3.1769308845453326,-1.4809089482468172,3
353,2024-09-23 20:57:49.591507712,0,015,-0.9988554592344941,0.23937467955656871,-2.515619616764726,1.9267077932810868,-0.33593407268544606,-0.2425624924523416,3.199278464161806,-1.473849544646283,3
354,2024-09-23 20:57:49.654372096,0,015,-0.9951268062706173,0.2329042396689388,-2.5935415866856366,1.8687936170531516,-0.3285044999397353,-0.24161224359027053,3.147674130355124,-1.4370507275756426,3
355,2024-09-23 20:57:49.715897088,0,015,-0.9935898885360267,0.22742089242159727,-2.6567057428280023,1.8161475820674775,-0.3224371201964749,-0.23836217725736356,3.0361450993592443,-1.3737221313661905,3
356,2024-09-23 20:57:49.794833920,0,015,-0.9948511013112095,0.22329019832791056,-2.7031186763504484,1.771045216193576,-0.31547736822219147,-0.23355145323099558,2.8835840659682535,-1.2891194015403438,3
357,2024-09-23 20:57:49.854371072,0,015,-0.9994703021229789,0.22079654040484692,-2.732162072795567,1.7353916540357024,-0.3053186414404977,-0.22792472180535675,2.711809882747021,-1.190282276571045,3
358,2024-09-23 20:57:50.792592128,0,015,-1.0079423468699924,0.2201357207483844,-2.7443235024177794,1.7104276185352882,-0.28976092143667004,-0.2221904574557949,2.5433974388196874,-1.0856214643529511,3
359,2024-09-23 20:57:50.874016000,0,015,-1.0206231695897283,0.22138824172541646,-2.7407459496498756,1.6964822192780915,-0.26682486121246773,-0.21699614716873433,2.399319921766743,-0.9842782844520221,3
360,2024-09-23 20:57:50.932261888,0,015,-1.0376529835236437,0.22447594851596891,-2.7227803631361365,1.6928606224127307,-0.23487685026070504,-0.21292263193537958,2.296469261299605,-0.8952458984360357,3
361,2024-09-23 20:57:51.009530112,0,015,-1.0589278926488328,0.22912886103244007,-2.691683389298739,1.6978745014986043,-0.19281766960070404,-0.21048512634351932,2.245518572828839,-0.8263888158322845,3
362,2024-09-23 20:57:51.071874048,0,015,-1.0841239951954567,0.2348920691998915,-2.648466183315262,1.7089743691283363,-0.14033030622663392,-0.21012300190550098,2.2497507195175026,-0.7835871398379396,3
363,2024-09-23 20:57:51.145019136,0,015,-1.112733994392439,0.24117670835532193,-2.5938389073547987,1.7229497447301598,-0.07809529994671617,-0.2121776486666405,2.305182883231557,-0.7702118368603587,3
364,2024-09-23 20:57:51.211187968,0,015,-1.1440857140201675,0.2473364151437619,-2.5282217263549116,1.7361637921138984,-0.007874211509037615,-0.21687174887139335,2.401957651472502,-0.7870466219723435,3
365,2024-09-23 20:57:52.131490048,0,015,-1.1773518057902914,0.25275270864847194,-2.4518234898566553,1.74481131654337,0.0675523464463115,-0.2242961838149261,2.5266159083617565,-0.8326021338372779,3
366,2024-09-23 20:57:52.189918976,0,015,-1.2115615421071317,0.256917768032307,-2.364795466225524,1.7452305673251463,0.14453984358000752,-0.23439511361755513,2.6645371358326386,-0.9035946507976389,3
367,2024-09-23 20:57:52.268109056,0,015,-1.2456010682747347,0.2594985687127739,-2.26746998090767,1.7342759656250026,0.21880009037346493,-0.24694003673847653,2.8018238427439477,-0.9953720662221397,3
368,2024-09-23 20:57:52.328956928,0,015,-1.2782038122072819,0.26036826768451043,-2.1606803715055625,1.7096940700438128,0.28571044368157084,-0.2615063059541455,2.92625968116182,-1.1022632695006125,3
369,2024-09-23 20:57:52.390477056,0,015,-1.3079753805130778,0.25960359360191465,-2.0461486961017195,1.6704459221480366,0.34072445555746544,-0.2774814780171148,3.027517483015659,-1.2179599809643433,3
370,2024-09-23 20:57:52.471333120,0,015,-1.3334963927585162,0.25745732879407063,-1.9269031187151995,1.6169534567335333,0.3798452514015868,-0.29411793357115,3.0971544230061565,-1.3359694829208597,3
371,2024-09-23 20:57:52.539054080,0,015,-1.3534831519673405,0.2543131358971616,-1.807566405653762,1.5512177304172268,0.40009802336243494,-0.3106117140864196,3.1287259686519744,-1.4500555009611507,3
372,2024-09-23 20:57:53.482513920,0,015,-1.3669255404421556,0.2506232177261292,-1.6942678458977993,1.476712823242979,0.39992669003756953,-0.3261804371011183,3.117947993349793,-1.5545899835629693,3
373,2024-09-23 20:57:53.550113024,0,015,-1.3731442605028066,0.24683416558640076,-1.594070753789939,1.3980080222125544,0.37943137950321376,-0.3401269382534296,3.0627613248658223,-1.6448143841323228,3
374,2024-09-23 20:57:53.602746112,0,015,-1.3717967001032976,0.24332030303598756,-1.5140459667561954,1.320188223672628,0.3403963497239055,-0.3518886031493017,2.963251150741407,-1.7170332546735163,3
375,2024-09-23 20:57:53.680397824,0,015,-1.3629014665613388,0.24034514053329525,-1.4602114389201153,1.248213189046926,0.28611484391443615,-0.36107225313314545,2.8214255622891513,-1.768741441407255,3
376,2024-09-23 20:57:53.742447872,0,015,-1.3468977781592768,0.2380550792425652,-1.436538947806194,1.1863351494021142,0.22104900471318645,-0.36746885594219275,2.6409414240082336,-1.7986637979976081,3
377,2024-09-23 20:57:53.821470976,0,015,-1.3246898038689945,0.23649360365873967,-1.4442664879929832,1.1376564172748163,0.15037698658596904,-0.3710458186358888,2.426922404238054,-1.8066743254120157,3
378,2024-09-23 20:57:53.880665088,0,015,-1.2976334928269142,0.2356236877525753,-1.481743213941815,1.103894286342193,0.07948594167945827,-0.3719241614336451,2.1859264974762764,-1.7936143770036976,3
379,2024-09-23 20:57:54.825701888,0,015,-1.2674768405931292,0.2353574367084446,-1.54479285851077,1.0853584461988677,0.01347162228800983,-0.37034921289853073,1.926052257849997,-1.7611573916416234,3
380,2024-09-23 20:57:54.887330048,0,015,-1.236280200307544,0.2355980284656699,-1.6273456100505317,1.081053804988733,-0.043291841157837456,-0.36665765350127133,1.657163727833289,-1.7118714185458106,3
381,2024-09-23 20:57:54.968233216,0,015,-1.2063061364415832,0.2362896188902719,-1.7221676406090072,1.0888379644144044,-0.08747626285215633,-0.36124098498078905,1.3910181654752114,-1.649388990226113,3
382,2024-09-23 20:57:55.035956992,0,015,-1.1798484882753353,0.23745870545427428,-1.8216986302778,1.1056784571691118,-0.11701074371565648,-0.3545108312804315,1.140868051888074,-1.5783916624814007,3
383,2024-09-23 20:57:55.102361088,0,015,-1.1590107995034056,0.23923116478489592,-1.9189377791866409,1.1280818547756593,-0.13114504958547493,-0.34687838962899076,0.920300597276526,-1.5042224035747471,3
384,2024-09-23 20:57:55.164393728,0,015,-1.1454878117798906,0.24181955285382914,-2.008147807258591,1.1526408136642323,-0.13032801460861757,-0.33875305782715487,0.7415735252619474,-1.432200976564321,3
385,2024-09-23 20:57:55.226390016,0,015,-1.1403897906154747,0.2454844357107583,-2.0852360421577725,1.1765407715249618,-0.1159505591759995,-0.33054632090449537,0.614077214072165,-1.3668923510990043,3
386,2024-09-23 20:57:56.182774784,0,015,-1.1441200419985489,0.2504774507974062,-2.147879494697001,1.1978930250003907,-0.09007500718310729,-0.3226589791699501,0.5434619758397092,-1.311582254540596,3
387,2024-09-23 20:57:56.250606080,0,015,-1.1563284299325332,0.2569760243120673,-2.19540124564891,1.2158072929901553,-0.05524148308287651,-0.3154423485382546,0.5314661986629672,-1.2680733936430364,3
388,2024-09-23 20:57:56.302780928,0,015,-1.1759802878076724,0.2650273851565484,-2.2283089835621817,1.2301746258286603,-0.014340340819833552,-0.30914533711401454,0.5761412170676203,-1.2367648381025322,3
389,2024-09-23 20:57:56.381295872,0,015,-1.2015415315859657,0.27452688916105566,-2.2476604557187603,1.241290059585338,0.0295367129509965,-0.30386994270850093,0.6723064823898194,-1.2169191814384908,3
390,2024-09-23 20:57:56.443781120,0,015,-1.2312081838057716,0.28524101136242197,-2.254649503014283,1.2495540885702257,0.07333488641842795,-0.2995525726733675,0.8122605045199769,-1.2070175618166734,3
391,2024-09-23 20:57:56.521419008,0,015,-1.2630842183884896,0.2968540939758602,-2.250576636974463,1.255368602202929,0.11434174588296318,-0.2959807493870706,0.9866544168398703,-1.2050840140524406,3
392,2024-09-23 20:57:56.587376128,0,015,-1.2952771945115467,0.309007622300077,-2.236991130402498,1.2591380733078084,0.15045535882600072,-0.2928464745627243,1.185234903335636,-1.2088579830426969,3
393,2024-09-23 20:57:57.524645120,0,015,-1.325960737843247,0.3213189679586203,-2.2157306700410384,1.2612551849978768,0.18030914951172453,-0.28982376854845604,1.3972056778525936,-1.215794192137662,3
394,2024-09-23 20:57:57.600649984,0,015,-1.3534538191930514,0.3333872996797966,-2.1888507104050676,1.262081954078333,0.20322911840258537,-0.2866481556045391,1.6112384596701859,-1.2230323580788183,3
395,2024-09-23 20:57:57.663134976,0,015,-1.3763147681689514,0.34480317171105,-2.158644607326742,1.262024058180661,0.21908123459665005,-0.283174427020903,1.8154742930362386,-1.2275258072268638,3
396,2024-09-23 20:57:57.730421248,0,015,-1.3934151395261656,0.3551711505274134,-2.1277840086546886,1.2617144238546951,0.2280992074455498,-0.27939544850490394,1.9979325577862415,-1.2263726085725797,3
397,2024-09-23 20:57:57.803960320,0,015,-1.4039688030295996,0.364139876035289,-2.0993054251894727,1.26217026679755,0.23077288958037517,-0.2754263787898539,2.147442220300732,-1.217204934739872,3
398,2024-09-23 20:57:57.864548096,0,015,-1.4075346347473234,0.3714319783551217,-2.0762208738885515,1.264756653601217,0.2278225574236883,-0.27148009627887193,2.254747194611984,-1.1984569191958103,3
399,2024-09-23 20:57:57.926570752,0,015,-1.4040366321940483,0.3768722709357217,-2.0609085801602225,1.2709233103264186,0.22021686031994867,-0.2678548937794077,2.3133270616243125,-1.1694597707703949,3
400,2024-09-23 20:57:58.871774976,0,015,-1.3938108193549792,0.38040777823195937,-2.0546889732250846,1.281840508439159,0.20918434027750007,-0.2649348216818636,2.31983381036346,-1.1304386557423725,3
401,2024-09-23 20:57:58.950711040,0,015,-1.3776363618999277,0.38210777278203284,-2.0578389157164527,1.29810238226888,0.19620744484778443,-0.26318887947350406,2.27434937842505,-1.0824810047717508,3
402,2024-09-23 20:57:59.007751936,0,015,-1.3567016228653443,0.38213797263603,-2.069912894560998,1.319576065258992,0.1829886615121355,-0.263149966323327,2.18061386587376,-1.027482028241592,3
403,2024-09-23 20:57:59.084955904,0,015,-1.332500085098918,0.3807119235675241,-2.090036225387645,1.3453694217999015,0.17135228540573735,-0.26536060844229836,2.046157409129343,-0.9680659936567076,3
404,2024-09-23 20:57:59.147111936,0,015,-1.306702707329158,0.37803341075616137,-2.116970075727173,1.3738824285732185,0.16307758542217687,-0.27029262422335837,1.8820754290544341,-0.9074819721963484,3
405,2024-09-23 20:57:59.221790976,0,015,-1.281049234157591,0.3742548742998876,-2.148973227519499,1.402951480015995,0.15971862080196944,-0.2782644533876422,1.7022067941919017,-0.8494311135816842,3
406,2024-09-23 20:57:59.289573888,0,015,-1.2572355189518232,0.3694692538252326,-2.183610663221935,1.430100660836597,0.16245923097422663,-0.2893775321686712,1.5217535014515393,-0.7977874632315738,3
407,2024-09-23 20:58:00.202449920,0,015,-1.2367387341100664,0.36372554641880217,-2.217702213274598,1.4528858140293086,0.17200438931259704,-0.3034841538271412,1.3555872761980792,-0.7562469254639825,3
408,2024-09-23 20:58:00.264486144,0,015,-1.220584937291831,0.3570428929913436,-2.2475499570500417,1.4692774857862894,0.18849376354777253,-0.3201937740334149,1.2165056760697042,-0.7279762254218355,3
409,2024-09-23 20:58:00.341383168,0,015,-1.209150043089798,0.34940964452108275,-2.2694469985622465,1.477990386641613,0.21144045338630127,-0.33891471925086714,1.1138009493200143,-0.7153126468615361,3
410,2024-09-23 20:58:00.403439872,0,015,-1.2020795597997334,0.34077239963982375,-2.2803410208542116,1.478667866430198,0.23972293453914645,-0.35891616079072397,1.0525974567149254,-0.7195606944070497,3
411,2024-09-23 20:58:00.465938944,0,015,-1.1983264608614492,0.33102722407302204,-2.278459139563686,1.4718778364473195,0.27166382065071304,-0.379390449322069,1.0341236705532968,-0.7409334981669607,3
412,2024-09-23 20:58:00.546874112,0,015,-1.1962565513698356,0.3200229953656787,-2.263736432845757,1.4589539356602106,0.3051960516979428,-0.3995009504222185,1.0565778881208348,-0.7786282890305536,3
413,2024-09-23 20:58:00.614616064,0,015,-1.1938068696613546,0.3075811625634994,-2.237981429820245,1.441783940600587,0.33808352691700366,-0.41841704020721027,1.1159951525760297,-0.8309553469133127,3
414,2024-09-23 20:58:01.558132736,0,015,-1.1887253161487594,0.29353057774823377,-2.204744259346632,1.4226190459929184,0.3681636907355438,-0.43535263097044496,1.2067015838255504,-0.8954519594942466,3
415,2024-09-23 20:58:01.625945088,0,015,-1.1788883468782716,0.277753769368606,-2.1688553406518984,1.4038546337852305,0.39358905815386885,-0.4496180569987292,1.3214124722749774,-0.9689867551256636,3
416,2024-09-23 20:58:01.690944768,0,015,-1.1626263719681298,0.2602404966095568,-2.135675384475811,1.3876898277835705,0.4130442637594749,-0.4606776387333266,1.4513680180379083,-1.0479060549836574,3
417,2024-09-23 20:58:01.752944896,0,015,-1.1389640622673298,0.2411381503551673,-2.1102110749293863,1.3757025812029702,0.4259079844640393,-0.46819916692414226,1.5867807835515597,-1.1282507303138074,3
418,2024-09-23 20:58:01.815429888,0,015,-1.1077178278732833,0.2207791223663008,-2.0963093804632664,1.3685090437356318,0.43231349535077035,-0.4720880414495359,1.7175108938119168,-1.206015134820229,3
419,2024-09-23 20:58:01.893537024,0,015,-1.06945317228376,0.1996687665404189,-2.096117316456615,1.3656405884042035,0.4330661601121332,-0.47250563261120876,1.8337244744646781,-1.277396348960813,3
420,2024-09-23 20:58:01.956410880,0,015,-1.0253478848413955,0.17843570336301537,-2.109899111224443,1.365654808712049,0.42942863507609963,-0.46986815387091985,1.926454978167327,-1.3390079611451298,3
421,2024-09-23 20:58:02.883127040,0,015,-0.9770037515414633,0.15776049194118205,-2.1361622284315644,1.366439661558676,0.4228441395459986,-0.46481530204800514,1.9882007129758825,-1.3880691279411612,3
422,2024-09-23 20:58:02.940519168,0,015,-0.9262342829348431,0.1383016845495165,-2.171961132204808,1.3656567547437914,0.4146814395804546,-0.45814499149744914,2.013640910304668,-1.4225906797315455,3
423,2024-09-23 20:58:03.018685952,0,015,-0.8748713027027932,0.12063638379331557,-2.213313398322549,1.3612463861955881,0.40605081882156047,-0.4507232199331271,2.000312994405845,-1.4415480928073185,3
424,2024-09-23 20:58:03.080542976,0,015,-0.8246493382159337,0.10522765204770695,-2.2557097844043317,1.3518798869677544,0.3976906923062868,-0.4433792313609777,1.9490328796720697,-1.4449982673777753,3
425,2024-09-23 20:58:03.142074112,0,015,-0.7771957826953849,0.09242287059284841,-2.2946299705339728,1.337239594496504,0.38990070031924356,-0.4367998286088786,1.8640168099868013,-1.4341019335958123,3
426,2024-09-23 20:58:03.221910016,0,015,-0.7340817088412829,0.0824730424788946,-2.326021087791819,1.3180983501933137,0.3825108461174308,-0.43144833903309343,1.752681441031505,-1.4109928289177784,3
427,2024-09-23 20:58:03.282184960,0,015,-0.6968428334330719,0.07554737331444596,-2.3468240165873957,1.2962749464039034,0.37490044308401294,-0.42753185089547374,1.624964871672794,-1.3784247755221493,3
428,2024-09-23 20:58:04.245445120,0,015,-0.6669242853764524,0.0717209454851117,-2.3555298384968064,1.2745093855848995,0.366089881518542,-0.42502124177636214,1.4922587196771335,-1.3392795693735555,3
429,2024-09-23 20:58:04.322616320,0,015,-0.6455821799442751,0.07094139432854503,-2.352537332469844,1.2562173834463215,0.35490992588880915,-0.42370547677140824,1.3664359549822205,-1.296204114967404,3
430,2024-09-23 20:58:04.384646912,0,015,-0.6337926102732735,0.07300329581883604,-2.3401218573587395,1.2451154046406931,0.34021165476179877,-0.4232473114705221,1.259252254216791,-1.2515768531674736,3
431,2024-09-23 20:58:04.447438080,0,015,-0.6321807307619655,0.07755120919781927,-2.3220651416213665,1.244792957987031,0.32105501416404864,-0.4232163191375847,1.1819416163265857,-1.2077415428358687,3
432,2024-09-23 20:58:04.528377856,0,015,-0.64096200685804,0.08410839826172042,-2.3031264177438517,1.2583209691435198,0.2968405353968401,-0.42310294439240975,1.1447829043392657,-1.1672637809572795,3
433,2024-09-23 20:58:04.591887872,0,015,-0.6599098746603049,0.09211854625615098,-2.288491900374381,1.287947713213601,0.26738845875473755,-0.42233705070972494,1.156413227696615,-1.1329580920930302,3
434,2024-09-23 20:58:04.663945728,0,015,-0.6883834718054996,0.10099579145771798,-2.283269886547378,1.3349034249494183,0.2329633426947919,-0.42032983775825894,1.2225631889902508,-1.1075800571711159,3
435,2024-09-23 20:58:05.577573120,0,015,-0.7254224146180642,0.11018404461284488,-2.2920485583704706,1.3993173084813513,0.1942208236592059,-0.41653822079302544,1.344296606854231,-1.0933184019238322,3
436,2024-09-23 20:58:05.650205952,0,015,-0.7698607730029855,0.11921717629385198,-2.3184742307604886,1.4802252751383278,0.15208089517458886,-0.41053410665077517,1.51656176963754,-1.0913737910364252,3
437,2024-09-23 20:58:05.716844032,0,015,-0.8203884126425548,0.12775679940104806,-2.364800166176297,1.575594850616262,0.10758472808715933,-0.4020573838733969,1.7279970814518886,-1.1018180930881198,3
438,2024-09-23 20:58:05.778848768,0,015,-0.8755395151278355,0.13558968053962933,-2.431437628852403,1.6822837178096262,0.06179552790063635,-0.39103946177269755,1.9622996727073463,-1.1236786395781497,3
439,2024-09-23 20:58:05.841335040,0,015,-0.9336706996547478,0.14259595709626974,-2.5166392152863093,1.7959526336191183,0.015756767957605933,-0.37759696582473673,2.2006079314630793,-1.1550297245605636,3
440,2024-09-23 20:58:05.919440896,0,015,-0.9930008190749655,0.14871885948157354,-2.616496999340785,1.9110839368780999,-0.029515299084056496,-0.3620045232830364,2.4238791761793292,-1.1929400655825895,3
441,2024-09-23 20:58:05.981938944,0,015,-1.0517160242671346,0.1539570458715915,-2.725399719114454,2.0212761176217535,-0.07303722950779791,-0.34465748026132137,2.614548703152122,-1.2333474728386853,3
442,2024-09-23 20:58:06.917968128,0,015,-1.1080907383738183,0.1583781271889022,-2.83692631908569,2.119870486184275,-0.11389028083510941,-0.32603428844667204,2.757554526120498,-1.271091339276976,3
443,2024-09-23 20:58:06.995209984,0,015,-1.160579988671063,0.16213433024985105,-2.9449583201828933,2.200798292969861,-0.15127533237279217,-0.30666741294219485,2.8412865269637457,-1.3002703770774549,3
444,2024-09-23 20:58:07.057314048,0,015,-1.2078728086286197,0.1654574294592043,-3.0447052995964503,2.2594263461780644,-0.18455396661300136,-0.2871259825155017,2.85879825004898,-1.314900233339286,3
445,2024-09-23 20:58:07.135665152,0,015,-1.2489268810387129,0.168624517635351,-3.1333322187415042,2.2931724099578985,-0.21325906830662897,-0.2680048341929116,2.809036028316693,-1.3097301374314636,3
446,2024-09-23 20:58:07.196544000,0,015,-1.2830023616399393,0.17190663187028257,-3.2099735746972007,2.30173416974615,-0.23710160449202247,-0.24991228576489247,2.697481361386403,-1.281073711871753,3
447,2024-09-23 20:58:07.258558976,0,015,-1.30967800481595,0.1755189375863038,-3.2752009609628754,2.286898690525107,-0.2559909058876393,-0.23345255949245466,2.535849518452525,-1.2275149527542442,3
448,2024-09-23 20:58:07.335746048,0,015,-1.328820909390438,0.1795846863213753,-3.330277194669358,2.252028351977373,-0.27004325697861076,-0.2192030050353898,2.3409552213691818,-1.1503376177046842,3
449,2024-09-23 20:58:08.282476800,0,015,-1.3405248503512956,0.18411879636492856,-3.3765096534641135,2.201395225325685,-0.2795675477865396,-0.20768291927802293,2.1329528162281757,-1.0535642236503224,3
450,2024-09-23 20:58:08.342217984,0,015,-1.345071454975932,0.18903346143002742,-3.4148060222368803,2.139525107734073,-0.2850714290797439,-0.1993005239853486,1.9331607111170426,-0.9436178934470335,3
451,2024-09-23 20:58:08.417996800,0,015,-1.3429416386190418,0.1941659171715913,-3.4454007966200724,2.070648329518461,-0.2873056667034187,-0.19427584886991237,1.7619213314966333,-0.8287422544510454,3
452,2024-09-23 20:58:08.481406976,0,015,-1.334841239044445,0.19932463737868195,-3.467727378063155,1.9983216589834392,-0.28727560021154724,-0.19257197034030457,1.6369365940000509,-0.7183022485247875,3
453,2024-09-23 20:58:08.553467136,0,015,-1.321676627183728,0.20433882531424605,-3.4804372021073897,1.9252688251847982,-0.28614447732624754,-0.19387602606734058,1.5720873333372722,-0.6219887764853514,3
454,2024-09-23 20:58:08.606123008,0,015,-1.3044557810365254,0.20908730020340285,-3.4815670066934112,1.853414217981275,-0.28504009656672674,-0.19764056745439876,1.5764714139668463,-0.5489243043527202,3
455,2024-09-23 20:58:08.683769088,0,015,-1.28415489520018,0.21349408364477163,-3.4688911599197336,1.7840365029301721,-0.2848440100568417,-0.20316463587313718,1.653502683326314,-0.5067280769171357,3
456,2024-09-23 20:58:09.632818944,0,015,-1.2616102612989428,0.21750079598661864,-3.440472356087296,1.7180129288239137,-0.2860450189785193,-0.20968532075935603,1.8001512963979245,-0.5006477422376204,3
457,2024-09-23 20:58:09.697766144,0,015,-1.2374665773805855,0.22103944835420294,-3.3952651339968147,1.6561343832520377,-0.28868213606156795,-0.21646210179093855,2.0065842463242465,-0.5328963937611508,3
458,2024-09-23 20:58:09.760252928,0,015,-1.2121751886622971,0.22402363060025962,-3.3335274834594726,1.5993943923207432,-0.29233913115397536,-0.22285405308833434,2.256513595479422,-0.6023737311832404,3
459,2024-09-23 20:58:09.822284032,0,015,-1.18601079379289,0.22635490049790763,-3.2568968526925683,1.549129901358981,-0.29616128500888816,-0.22839033945714,2.5284773366971853,-0.7049038809398063,3
460,2024-09-23 20:58:09.903937024,0,015,-1.1590857940033032,0.22792717768012563,-3.1682129655357683,1.5069835825380906,-0.29892574325053745,-0.23282063246776002,2.7980141374280807,-0.8339293836562466,3
461,2024-09-23 20:58:09.960929024,0,015,-1.1313815196587471,0.22862530196275532,-3.071311591557623,1.4747504057891596,-0.29921237120910543,-0.23613004536402507,3.0402988163935496,-0.9813975186122309,3
462,2024-09-23 20:58:10.038089216,0,015,-1.1028253611776515,0.22833523992837348,-2.9708781238043884,1.4541727216055216,-0.29566370910532525,-0.2385140405527186,3.2326323800725967,-1.1385557112278937,3
463,2024-09-23 20:58:10.950942976,0,015,-1.0734007915200656,0.226978465145778,-2.8722191600314777,1.4467210592441653,-0.28725414755908785,-0.24032256104215005,3.3564089979172906,-1.2965332069232327,3
464,2024-09-23 20:58:11.013449984,0,015,-1.043240595349178,0.2245558407774098,-2.7808037375019614,1.45339282250343,-0.27347712416146347,-0.24199648968297005,3.3984972484122693,-1.4467346561230958,3
465,2024-09-23 20:58:11.091087104,0,015,-1.0126749775199517,0.2211744054357512,-2.701579773484424,1.4745460564654056,-0.2544180735144542,-0.24401567224984116,3.352064236421142,-1.5811226857206888,3
466,2024-09-23 20:58:11.160866048,0,015,-0.9822599616169575,0.2170494784472705,-2.638201442380267,1.5097708235489335,-0.23075565852554145,-0.24685255818567747,3.2168325095664603,-1.692500017927976,3
467,2024-09-23 20:58:11.214519040,0,015,-0.952822743388394,0.21249538120373043,-2.5923903200724614,1.5578055899038148,-0.20374271965099452,-0.250915539394249,2.9987860085480538,-1.7748892910636327,3
468,2024-09-23 20:58:11.292218880,0,015,-0.9255075144784569,0.2079141251494099,-2.5636648090906795,1.616514040810151,-0.1751610303741767,-0.25648514555334373,2.709377988741871,-1.8239576031559297,3
469,2024-09-23 20:58:11.357842944,0,015,-0.9017515351544486,0.20377511793538083,-2.5495840601377404,1.682959689603394,-0.14721169023529906,-0.2636619562669958,2.3643133799463327,-1.8372896305259039,3
470,2024-09-23 20:58:12.302899968,0,015,-0.8831368127352394,0.2005731975192023,-2.5464820953893503,1.7536254002147524,-0.1223358382385105,-0.27234344584000886,1.9821259862321543,-1.81439734469763,3
471,2024-09-23 20:58:12.364913152,0,015,-0.8711445908241175,0.19876286326146014,-2.5504199445088407,1.8247505903778776,-0.10299877370298828,-0.28224175870833856,1.582886472422368,-1.7565435307070463,3
472,2024-09-23 20:58:12.441656064,0,015,-0.866909094021879,0.19868423663443005,-2.557916540248456,1.8926553278611584,-0.09147084385622818,-0.2929431950795369,1.1871973771007636,-1.6664908126665199,3
473,2024-09-23 20:58:12.503686912,0,015,-0.8710535436662423,0.20050548981278649,-2.566151106659561,1.9539377319484899,-0.08963020031709541,-0.30398694867913434,0.8153883822005084,-1.5482261313835515,3
474,2024-09-23 20:58:12.571941888,0,015,-0.883618580583333,0.20420151984598353,-2.5726797824531746,2.0055668802310516,-0.09881107068244258,-0.31492516334045234,0.48678647520948576,-1.4067134137840396,3
475,2024-09-23 20:58:12.646434048,0,015,-0.904042094469916,0.2095731588750915,-2.5749790590578736,2.0449780173660583,-0.11969379032841844,-0.32534259760682,0.21897292031753715,-1.2477216411096288,3
476,2024-09-23 20:58:12.711638016,0,015,-0.9311635722348359,0.21629094984582678,-2.5701466024838395,2.0702221088964063,-0.15219893196384449,-0.33485220743618116,0.026921917711339255,-1.0776946430709444,3
477,2024-09-23 20:58:13.650305792,0,015,-0.9632747489635483,0.2239388421971848,-2.554908144889525,2.0801183455351633,-0.195373064494556,-0.343101545924566,-0.0780938512994038,-0.9035730178342252,3
478,2024-09-23 20:58:13.722712832,0,015,-0.9982561220706644,0.23204654683939624,-2.5258756745583373,2.0743137173853476,-0.2473232211875804,-0.3498020314722675,-0.08979700350792069,-0.7325102634162782,3
479,2024-09-23 20:58:13.790252032,0,015,-1.0337954503424145,0.2401172960750608,-2.479920151989609,2.0531936442221883,-0.3052861428191671,-0.3547569315611652,-0.008024729676060544,-0.571496577518379,3
480,2024-09-23 20:58:13.861082880,0,015,-1.067617930725349,0.2476573753159508,-2.4145564232689307,2.017679365707884,-0.36587139608552405,-0.3578552510523136,0.16088528825290438,-0.42695080165231164,3
481,2024-09-23 20:58:13.913844992,0,015,-1.0976459812898094,0.25420047446651406,-2.3282915609019064,1.969011760649761,-0.42543113349340644,-0.3590283549874331,0.40475185132951486,-0.3043539190650705,3
482,2024-09-23 20:58:13.991085824,0,015,-1.1220774499858737,0.2593186453887641,-2.220919100456605,1.908612033627428,-0.48044114626739776,-0.3582075532039138,0.7071738552609186,-0.2080110066207462,3
483,2024-09-23 20:58:14.053122048,0,015,-1.1394428467888504,0.2626251712063017,-2.0937816295699703,1.8380627205932274,-0.5277900687441531,-0.35532541728033534,1.0498247380196741,-0.1410281535040235,3
484,2024-09-23 20:58:15.006757120,0,015,-1.1486879489636939,0.26378258308011476,-1.9500084550040941,1.7591746601919587,-0.5649594219550335,-0.35036011232155395,1.4149698977168883,-0.10550210616394767,3
485,2024-09-23 20:58:15.075581952,0,015,-1.1492594188550767,0.26252451953950035,-1.7946021857249386,1.67402191961461,-0.5901268642514172,-0.34338439211698807,1.7876386163045654,-0.10275444368105066,3
486,2024-09-23 20:58:15.143304192,0,015,-1.1411341115270521,0.25868976501445456,-1.6341934334416557,1.584858462768901,-0.6022055556365076,-0.33458791462188825,2.1569347495771005,-0.13337863383284992,3
487,2024-09-23 20:58:15.211049984,0,015,-1.1247575543934345,0.25225517369686007,-1.4764427934422613,1.4939641193374515,-0.6008292862593958,-0.32427077709008595,2.5162115204564985,-0.19702899670506718,3
488,2024-09-23 20:58:15.268304128,0,015,-1.1009158969744013,0.24335088535082572,-1.3292487043324082,1.4035249451000607,-0.5863133964572558,-0.31282612063826426,2.8621519554131662,-0.2920829707553581,3
489,2024-09-23 20:58:15.346590208,0,015,-1.0706114683369146,0.2322557284985957,-1.1999712601819952,1.3156027717517549,-0.559604786789354,-0.3007311742769139,3.1931149352950112,-0.4153351945071352,3
490,2024-09-23 20:58:15.414366976,0,015,-1.0350042517655509,0.21938946465168596,-1.0948516944198559,1.2321938112668402,-0.5221985932011936,-0.2885512766857666,3.5073771318563596,-0.5618170852794457,3
491,2024-09-23 20:58:16.332950272,0,015,-0.9954192367634889,0.20531478979487258,-1.0187157111620284,1.1553315051484097,-0.4759988923732543,-0.276942281048408,3.8019533492927495,-0.7248132004897141,3
492,2024-09-23 20:58:16.385678080,0,015,-0.9533567746424905,0.190737564878618,-0.9749185353653128,1.0871447397152536,-0.42312963170420753,-0.2666345425201426,4.0723209199124835,-0.8961107976854346,3
493,2024-09-23 20:58:16.464052992,0,015,-0.9104413802788124,0.1764800223789468,-0.9654090740532676,1.0298018602654961,-0.36572182620810967,-0.25839859309979446,4.312811810758085,-1.066452360528756,3
494,2024-09-23 20:58:16.536361728,0,015,-0.8683028611234429,0.1634135118400294,-0.990811080241167,0.9853622355491423,-0.3057104430154573,-0.25300089050679236,4.5172438917815825,-1.2261596713188443,3
495,2024-09-23 20:58:16.598824960,0,015,-0.8284395651588181,0.15236025830798938,-1.0504824349199153,0.9556165949170718,-0.24467871673100466,-0.25114743446107374,4.6796650896075365,-1.3659422539416772,3
496,2024-09-23 20:58:16.671859200,0,015,-0.792115847913863,0.1439907616152032,-1.1425194647155887,0.9419547659464841,-0.1837718301797405,-0.253409687956358,4.795282589489758,-1.4778568687993399,3
497,2024-09-23 20:58:16.738017024,0,015,-0.7602996943494446,0.13874487988025963,-1.2636560956042762,0.9452286184693911,-0.12367184143977253,-0.2601407362816243,4.861398042004205,-1.5562545013013545,3
498,2024-09-23 20:58:17.678726144,0,015,-0.733604085274603,0.1367893231520446,-1.4091036886345512,0.965591940189388,-0.06462381869449466,-0.27139900654986804,4.877930464863788,-1.5984931953362898,3
499,2024-09-23 20:58:17.740773888,0,015,-0.7122160756210495,0.1380090271528806,-1.5725262947972825,1.002370828209063,-0.006530399551866896,-0.2868959046620139,4.847321992810913,-1.6052602013601243,3
500,2024-09-23 20:58:17.818822912,0,015,-0.6958673564965401,0.14202891260294442,-1.7463413660478768,1.0540387470902333,0.05086163945172038,-0.3059825653154968,4.773968140051133,-1.5804326098338402,3
501,2024-09-23 20:58:17.886769920,0,015,-0.6839232931281164,0.14826499140774158,-1.9223734598727398,1.1183303573526144,0.10770491042031138,-0.32768663840118245,4.663358049921471,-1.5304613474285425,3
502,2024-09-23 20:58:17.943332096,0,015,-0.675595792035546,0.15599801398981777,-2.0927016084749077,1.1924761173063096,0.16381206915064758,-0.350797325791081,4.521114263594533,-1.463359374137495,3
503,2024-09-23 20:58:18.022300160,0,015,-0.670194100469846,0.1644559553049363,-2.250425750263797,1.2734876168380727,0.21853343186607452,-0.37398472135249333,4.352337153332863,-1.387532249482854,3
504,2024-09-23 20:58:18.082142208,0,015,-0.6673114534085542,0.17289060664484282,-2.390142612291927,1.3584008832043974,0.27078664362206367,-0.39593494836960447,4.161635542842537,-1.3107701202592565,3
505,2024-09-23 20:58:19.033019136,0,015,-0.6669063584083849,0.18063697716866023,-2.508106657720588,1.4444185971069,0.31918908901899684,-0.4154775916168986,3.9537265541429347,-1.2396012859780288,3
506,2024-09-23 20:58:19.090121984,0,015,-0.6693021042761722,0.18715071721600726,-2.6021484798345504,1.5289479579347178,0.3622086663013607,-0.43167376358807474,3.7340360486647977,-1.1789970662861897,3
507,2024-09-23 20:58:19.166922240,0,015,-0.6751417127903634,0.19202719826886644,-2.671465524717535,1.6095788929325299,0.3982743460271488,-0.44384043943131396,3.5088015395623957,-1.1323081349701885,3
508,2024-09-23 20:58:19.228922112,0,015,-0.6853094064031547,0.19500996033875814,-2.7164633568855154,1.684082868549048,0.42584518924194464,-0.45151872335497717,3.2845971918683934,-1.101316213745222,3
509,2024-09-23 20:58:19.304102144,0,015,-0.7008102667476697,0.19599051720510768,-2.7387447972945798,1.7505084303156073,0.44347974548839175,-0.45442570850357045,3.0675121169812405,-1.0863379755407425,3
510,2024-09-23 20:58:19.371856896,0,015,-0.722618775044349,0.1949962008797983,-2.741145502124545,1.8073893559227778,0.4499397459154465,-0.4524309906306948,2.8623302022974437,-1.0863989853074236,3
511,2024-09-23 20:58:19.429918976,0,015,-0.7515368445702026,0.19216864006320306,-2.7276693555546023,1.8539971675279148,0.4443160007274017,-0.4455667028557106,2.6720277285728464,-1.0995179443496654,3
512,2024-09-23 20:58:20.379013888,0,015,-0.788083458312584,0.18774082527974528,-2.7032742166035826,1.8905144727110872,0.4261296475820846,-0.4340461051907606,2.49761292299109,-1.1230621498242166,3
513,2024-09-23 20:58:20.440138240,0,015,-0.8323921019241285,0.18201556449356235,-2.6735250189132724,1.9180326499709077,0.39538143020228034,-0.4182671702939298,2.3380845027265087,-1.1540714705106194,3
514,2024-09-23 20:58:20.518147072,0,015,-0.8841057163104181,0.17534550855172806,-2.644207346188175,1.938391000435222,0.3525795987552791,-0.3988019349822738,2.1904285471687044,-1.1894668782503002,3
515,2024-09-23 20:58:20.581037056,0,015,-0.9423217255381693,0.16812038712250432,-2.621040563264106,1.9539567260418438,0.2987795921400154,-0.37637942818927606,2.0497355113162508,-1.2261188496465836,3
516,2024-09-23 20:58:20.654297088,0,015,-1.0056440516854173,0.16076561337673537,-2.609475621061928,1.9673906620819845,0.235594885593037,-0.35186169246253907,1.9095192619296506,-1.2608380701755904,3
517,2024-09-23 20:58:20.720295936,0,015,-1.0723260007149247,0.15374624081391816,-2.614367864367654,1.9813599981157815,0.16510240319172337,-0.3262086140392246,1.7623939605112051,-1.2904144359442375,3
518,2024-09-23 20:58:20.782296832,0,015,-1.1404324256558878,0.1475667352686034,-2.6393810637504815,1.9981938917522128,0.08963103803242124,-0.30042447280927714,1.6011398301058792,-1.3117658013739755,3
519,2024-09-23 20:58:21.690493952,0,015,-1.2079607446404066,0.14276003802597914,-2.6862539123454847,2.019560458135665,0.01152479998666939,-0.2754845916926699,1.419792348447413,-1.3221212705856047,3
520,2024-09-23 20:58:21.770906880,0,015,-1.2729025676441936,0.13985839063892377,-2.7542447417566107,2.046243624163911,-0.06699135823087513,-0.2522615675453142,1.2144157697282945,-1.3191410497091614,3
521,2024-09-23 20:58:21.841562880,0,015,-1.3332703683811122,0.13934075187122907,-2.8399813077909046,2.0780398801385376,-0.14380027656537334,-0.23147838665684453,0.9836764471272132,-1.3009719752513622,3
522,2024-09-23 20:58:21.907508992,0,015,-1.3871448704775458,0.1415690115306214,-2.937694661410238,2.1137515356460628,-0.21682218131072387,-0.21369472220028524,0.7293347035054079,-1.2662935139896978,3
523,2024-09-23 20:58:21.969993984,0,015,-1.4327868860180368,0.14674217042288762,-3.0396559115544544,2.1512393898448368,-0.28400038838315095,-0.1993126120169422,0.456330988066395,-1.2143845816118681,3
524,2024-09-23 20:58:22.044940800,0,015,-1.4687921720131163,0.15488893602316361,-3.1366658243984635,2.1875212326887796,-0.34336503193906287,-0.1885899397177071,0.17217674667736377,-1.1452198337372348,3
525,2024-09-23 20:58:22.109193984,0,015,-1.4942071032198825,0.16588917286916946,-3.2186126389737395,2.2189524251025077,-0.3931031569951437,-0.18166027853062633,-0.11402929945914048,-1.059609824404182,3
526,2024-09-23 20:58:23.056045056,0,015,-1.5085329436309614,0.1794935719496788,-3.2752207963098363,2.2415223080533817,-0.4315719409070924,-0.178557046614036,-0.3922967081637668,-0.9593953211087782,3
527,2024-09-23 20:58:23.109525760,0,015,-1.5116239482431488,0.19532000025067028,-3.2970170548977538,2.2512221190708535,-0.4572778408444304,-0.1792308962993952,-0.6518271847306408,-0.8476614730217243,3
528,2024-09-23 20:58:23.187191040,0,015,-1.5035595396654973,0.21283416323486815,-3.2763600228894556,2.2443970238859676,-0.46890613720395086,-0.1835482019912525,-0.8808003814562857,-0.7288616936372248,3
529,2024-09-23 20:58:23.248292864,0,015,-1.484578515687074,0.23134182458886557,-3.208275372640715,2.218033514278587,-0.4654502441210355,-0.19127314593729053,-1.0664941979867704,-0.6087082261553044,3
530,2024-09-23 20:58:23.327190016,0,015,-1.4551070307859655,0.2500171102562002,-3.0908976736103915,2.169977372369396,-0.4463955977041409,-0.20205264184024252,-1.1960642672232809,-0.4937683843563402,3
531,2024-09-23 20:58:23.387564032,0,015,-1.4158444484850208,0.26797570958203876,-2.925552563913709,2.099099676681313,-0.4118683266506068,-0.2154221233925375,-1.2577556788252287,-0.39084566257882514,3
532,2024-09-23 20:58:23.449628160,0,015,-1.3678408314632093,0.2843799060000017,-2.7166711212065233,2.0054368581260964,-0.3627002582477183,-0.23083346061323526,-1.242162924381938,-0.3062931201172888,3
533,2024-09-23 20:58:24.394231808,0,015,-1.312527098315002,0.29854520163946197,-2.471624091502015,1.8903089339068222,-0.30041424947015316,-0.2476936629804747,-1.1433783841225769,-0.24538871989995314,3
534,2024-09-23 20:58:24.472337920,0,015,-1.251703802205373,0.31002029852256824,-2.2004318943567456,1.7563954214763438,-0.2271469400994265,-0.2653986325527312,-0.9600081758260007,-0.21188051732490557,3
535,2024-09-23 20:58:24.541701888,0,015,-1.1874922230893927,0.31862462403383623,-1.915339512868146,1.6077507754980405,-0.1455334666493464,-0.28334457818819986,-0.69595583876301,-0.20777803620661808,3
536,2024-09-23 20:58:24.608369152,0,015,-1.1222247317438023,0.32443702675819197,-1.6302577158733391,1.4497318155050944,-0.05858875633555651,-0.30090920991540104,-0.3607737007762477,-0.23335515697832884,3
537,2024-09-23 20:58:24.677291008,0,015,-1.058269347948219,0.3277394527756357,-1.3599575133448536,1.2887738008131722,0.030403095316038218,-0.31742001472739473,0.030577781692358953,-0.28721355018684397,3
538,2024-09-23 20:58:24.732059136,0,015,-0.997826868012372,0.32893039476136515,-1.118931149027199,1.1319709987623334,0.1180113780966304,-0.33214655335003984,0.4585783741521454,-0.36631536452733643,3
539,2024-09-23 20:58:24.809290752,0,015,-0.9427469136216007,0.3284300595430184,-0.9201566292264354,0.9865326397406028,0.2008018797440439,-0.3443407132534957,0.9005280627806473,-0.46607042765168044,3
540,2024-09-23 20:58:25.751378176,0,015,-0.8943851684987357,0.32660217966845817,-0.7742378494372877,0.8592648450063824,0.27547825694907907,-0.3533093998242469,1.3323320939117733,-0.5805774951064231,3
541,2024-09-23 20:58:25.812915968,0,015,-0.8535042030220554,0.3237100655525532,-0.689135311249255,0.7561545693482759,0.33900533946717665,-0.35848225241443593,1.730477292405356,-0.702969813497573,3
542,2024-09-23 20:58:25.890885888,0,015,-0.8202184628766892,0.3199064042151314,-0.6702410598488138,0.6820115864371481,0.38873922479587514,-0.3594592064797324,2.073928583032739,-0.8257760531356633,3
543,2024-09-23 20:58:25.952893184,0,015,-0.7939969695520681,0.3152455591662985,-0.7204355590482269,0.6401209396353749,0.42259967687292854,-0.35605505774627605,2.345721423038828,-0.9413220125826985,3
544,2024-09-23 20:58:26.027381760,0,015,-0.7737488936693799,0.30971166481314766,-0.8399629038709,0.6319464590197621,0.439267178560041,-0.34835251720060106,2.5341143485779805,-1.0422445897991324,3
545,2024-09-23 20:58:26.095185920,0,015,-0.7580063100265447,0.30326005585403465,-1.026114090538036,0.6569726011814064,0.438330924387944,-0.3367380412020689,2.633181265656094,-1.1220828627553447,3
546,2024-09-23 20:58:26.162969856,0,015,-0.7451797352002675,0.29586554942435284,-1.272810251509566,0.7127301107209406,0.42032002530784046,-0.32187857700295086,2.6427259803268073,-1.1758120034929371,3
547,2024-09-23 20:58:27.093757952,0,015,-0.7338107196719863,0.28756602789546565,-1.5703532848571802,0.7949953722733838,0.3866173344471931,-0.30463192125861976,2.5675425484230203,-1.2002011237410068,3
548,2024-09-23 20:58:27.174444800,0,015,-0.7227317175651908,0.2784881562666664,-1.9056687973748863,0.8981391581413458,0.3393207187102848,-0.28593167325147345,2.4163192226201122,-1.1939481173276631,3
549,2024-09-23 20:58:27.231998976,0,015,-0.7111125777410481,0.26884743414156353,-2.2631446576194367,1.0155900579145205,0.2810931661729795,-0.2666940047535688,2.200665440631174,-1.157613973097676,3
550,2024-09-23 20:58:27.309701888,0,015,-0.6984638494143672,0.2589279330547443,-2.6258731153108563,1.1403485828679096,0.21496769247058506,-0.2477617491409624,1.9345424457592637,-1.0934222089662005,3
551,2024-09-23 20:58:27.377672960,0,015,-0.6846667302710195,0.24905747068000264,-2.9769980131246494,1.2654850523892014,0.14407962049421366,-0.22987530830658248,1.6339367629335542,-1.0050056693501854,3
552,2024-09-23 20:58:27.434155008,0,015,-0.670018122764892,0.23959272354437522,-3.3009735080547946,1.384596684074552,0.07137216512309545,-0.21365153573563161,1.316410580007052,-0.8971712607195312,3
553,2024-09-23 20:58:27.512662784,0,015,-0.6552238935641436,0.23091717066226766,-3.5846697813772597,1.4922355815689767,-0.0006486834190925651,-0.19955284473501628,1.0003488714369464,-0.7756896941195666,3
554,2024-09-23 20:58:28.432606976,0,015,-0.6412955187746621,0.22343877688942515,-3.818248491923682,1.5842984282453008,-0.07005358987758813,-0.187844023532579,0.7040301901996951,-0.6470501287445082,3
555,2024-09-23 20:58:28.497030144,0,015,-0.6293749383783356,0.21757020792401158,-3.9956518476155556,1.6583075125703128,-0.13550971555759833,-0.17855617895727868,0.4447079593949317,-0.5181209424958928,3
556,2024-09-23 20:58:28.558388992,0,015,-0.6205623084283427,0.2136938030010735,-4.114602947596322,1.7134986372562302,-0.1962192820384845,-0.1714812635978276,0.23771260336984693,-0.395715386427903,3
557,2024-09-23 20:58:28.621346816,0,015,-0.6157966366813856,0.2121327246840184,-4.176189098024862,1.7507052125145843,-0.25182989919460647,-0.16620209191276375,0.09557042491414351,-0.28613671513562067,3
558,2024-09-23 20:58:28.698080000,0,015,-0.6157679527181052,0.21314000730759122,-4.18418200068679,1.7720909477212758,-0.3023385618101947,-0.16214648601877182,0.027267348573472305,-0.19481626836443208,3
559,2024-09-23 20:58:28.760566784,0,015,-0.6208182985881359,0.21689558932173286,-4.144223211613332,1.7807615239256442,-0.34798514818902665,-0.15865804397928449,0.037704393451522954,-0.12609185362902056,3
560,2024-09-23 20:58:28.838285824,0,015,-0.6308517782355461,0.22349955512225758,-4.063006067966026,1.7802582588389728,-0.38913549985714524,-0.15508169627291746,0.12722504176366986,-0.08306642255042805,3
561,2024-09-23 20:58:29.779141888,0,015,-0.6453239975083441,0.23296104383651012,-3.947566962245299,1.7739873803748352,-0.4261698187600199,-0.1508508053759754,0.2911731626672285,-0.06749649681194284,3
562,2024-09-23 20:58:29.849929984,0,015,-0.6633354308217071,0.24518482671793265,-3.8047318523256775,1.7647128607587454,-0.4593941195018377,-0.14555176410872697,0.5196736866328375,-0.07976205239643173,3
563,2024-09-23 20:58:29.917650944,0,015,-0.6837788428436825,0.2599560366042955,-3.640734428137704,1.7542296493696468,-0.48897936071412856,-0.1389506650544845,0.7979871907242563,-0.11898649677207553,3
564,2024-09-23 20:58:29.979531008,0,015,-0.7054721325545056,0.27692563782417384,-3.461000620657377,1.7432537840674562,-0.51492785692613,-0.1309851322065067,1.107812384321623,-0.1833166247265703,3
565,2024-09-23 20:58:30.053156096,0,015,-0.7272291832129247,0.2955965066911217,-3.2700894149857946,1.7315250698507998,-0.5370792650740926,-0.1217384413205947,1.4296829996206724,-0.2703525643501616,3
566,2024-09-23 20:58:30.118968064,0,015,-0.747860770199385,0.31530869382593313,-3.0718385023322305,1.7181162092786364,-0.5551724384816504,-0.1114157051601318,1.7460442876845137,-0.3776555051933861,3
567,2024-09-23 20:58:30.180028928,0,015,-0.7661491055794042,0.3352347521280647,-2.8697488950419583,1.7018962711460415,-0.5689567214180469,-0.10032978724053618,2.04404200612716,-0.5031229546689698,3
568,2024-09-23 20:58:31.132180992,0,015,-0.7808606582140637,0.35440600464990774,-2.667479824079849,1.6820087507010695,-0.5783185709491184,-0.08888746854755919,2.3169835670165186,-0.6450091861301005,3
569,2024-09-23 20:58:31.199976192,0,015,-0.7908243883638235,0.37177945983338617,-2.469209511231236,1.6581951062512152,-0.5833736303684662,-0.07756305237286594,2.563933438368972,-0.8015578476864434,3
570,2024-09-23 20:58:31.267782912,0,015,-0.7950398107569798,0.3863308764524487,-2.2797399337593047,1.6308932730839456,-0.5844658843003303,-0.0668606770474301,2.787776211255518,-0.9704337698843691,3
571,2024-09-23 20:58:31.335603968,0,015,-0.7927564067378825,0.39714412449556064,-2.104450311589405,1.6011766397753004,-0.5820377330763936,-0.05728005155929074,2.992805164899227,-1.1482332675055398,3
572,2024-09-23 20:58:31.399652096,0,015,-0.7835105774095777,0.40347565055509443,-1.9492246953870975,1.5706197031106306,-0.5764176448554165,-0.049294045141153375,3.182843629510184,-1.3302829193467414,3
573,2024-09-23 20:58:31.461282048,0,015,-0.7671623115170251,0.40479717308593993,-1.8202854130020436,1.541104292047478,-0.5676511727167514,-0.043329219127578755,3.3602369774132286,-1.510799392368794,3
574,2024-09-23 20:58:31.538483968,0,015,-0.7439687566529727,0.40083314746105553,-1.7237490035247454,1.5145467115427627,-0.5554739396302912,-0.03973691554483456,3.5256052540582927,-1.6833798215350968,3
575,2024-09-23 20:58:32.454840832,0,015,-0.7146763465091264,0.39159948854742777,-1.6648448378890048,1.4925645170386743,-0.5394304866448615,-0.03875038071216768,3.678193150355493,-1.8416868075119992,3
576,2024-09-23 20:58:32.525620224,0,015,-0.6805726142828954,0.3774291130570671,-1.6469811010992055,1.4761691058677178,-0.5190812708945093,-0.04043211930413442,3.816550140786059,-1.980104099810757,3
577,2024-09-23 20:58:32.586646016,0,015,-0.6434493440426049,0.358959943277406,-1.6709794519385912,1.4656060290824762,-0.49420123985506925,-0.04463460504837585,3.939143384495668,-2.0941911436218215,3
578,2024-09-23 20:58:32.648192768,0,015,-0.6054789883413271,0.3370754999822395,-1.7347260698600462,1.4604175051729276,-0.46486594092807404,-0.05100757336554083,4.044604871276687,-2.1808872560609287,3
579,2024-09-23 20:58:32.726301952,0,015,-0.5690508116990215,0.3128157234552993,-1.8332914963274163,1.4597032192593022,-0.43140897576230847,-0.059054379592863776,4.131605775586827,-2.238502641402018,3
580,2024-09-23 20:58:32.788340992,0,015,-0.5366044391456042,0.28728840672631684,-1.959394943266149,1.4624757424941022,-0.3943364887746892,-0.06820196755240539,4.19862867602094,-2.2666123263483304,3
581,2024-09-23 20:58:32.864582912,0,015,-0.5104551509685592,0.2615995177552293,-2.104040874447898,1.467968770159228,-0.35426972728555595,-0.07785533863462764,4.243910757488922,-2.265969110775368,3
582,2024-09-23 20:58:33.795916032,0,015,-0.4926011046535483,0.23680032732471734,-2.257249817279118,1.475779403471744,-0.31190625877806805,-0.08744061334186394,4.265599854582523,-2.2384467688217047,3
583,2024-09-23 20:58:33.874036992,0,015,-0.48455150882513287,0.21384058184041657,-2.4089042216911762,1.485838929137914,-0.2679828872521901,-0.09645285212578117,4.262002324358492,-2.1869635480184257,3
584,2024-09-23 20:58:33.939662848,0,015,-0.4872434090847013,0.1935245049479586,-2.5496610171595346,1.4983230185295415,-0.22328733954000582,-0.10450766181985191,4.231782860092154,-2.115350936955182,3
585,2024-09-23 20:58:33.998034944,0,015,-0.5010760536513336,0.17647766520088784,-2.671699302729133,1.5135798457655247,-0.17876224193263218,-0.11138083526410261,4.174107240002278,-2.0281609943108423,3
586,2024-09-23 20:58:34.079686144,0,015,-0.5260203334868997,0.16313143117970083,-2.769091972271329,1.5320334116640528,-0.13564032067710782,-0.11702712180258752,4.088907338135422,-1.9304325439836119,3
587,2024-09-23 20:58:34.147463168,0,015,-0.5617158334273581,0.15371878189312077,-2.8378692680640896,1.5540020047670189,-0.09548688883699173,-0.12157780412336067,3.9774077649947164,-1.8274426983321075,3
588,2024-09-23 20:58:34.215279104,0,015,-0.6074937707830783,0.14827110034707622,-2.8759924512954322,1.579461673384427,-0.06009221076895268,-0.12531457463276616,3.8428144955623105,-1.7244523446562947,3
589,2024-09-23 20:58:35.158008064,0,015,-0.6623485406934436,0.14661822823614773,-2.883340214210017,1.6078565139491727,-0.03128348941247325,-0.12861950109631193,3.6908037181865714,-1.62643159099677,3
590,2024-09-23 20:58:35.225843968,0,015,-0.7249319078443649,0.1484029648473454,-2.861671587500599,1.6380389269591331,-0.010791041328876915,-0.13190852697012506,3.5292769770264245,-1.53774536596768,3
591,2024-09-23 20:58:35.292336896,0,015,-0.7936067811821803,0.15311433241174144,-2.8144453795796442,1.6683234995495746,-0.00022749102251195863,-0.13556137314007588,3.3671491336626342,-1.4618026130291302,3
592,2024-09-23 20:58:35.353960960,0,015,-0.8665348509921873,0.16013452296458808,-2.7463815979444406,1.6965774549190582,-0.001095828574121676,-0.13986741497276026,3.2126949525689192,-1.400711467139182,3
593,2024-09-23 20:58:35.416018176,0,015,-0.941756965034135,0.1687900473697601,-2.662840256943886,1.7203291531900828,-0.014703688488141547,-0.1450060078519807,3.0723405811762436,-1.3550447792742657,3
594,2024-09-23 20:58:35.493704192,0,015,-1.0172589714830818,0.1783965267704817,-2.5692684094083167,1.7369411453323802,-0.04196182521504034,-0.15106128356715567,2.950300929681875,-1.3238651717083647,3
595,2024-09-23 20:58:35.552043008,0,015,-1.091057735593345,0.18829206273282295,-2.4709071514817675,1.7438698062252838,-0.08316133219375924,-0.15805113619559244,2.8487787737907273,-1.3050671099279947,3
596,2024-09-23 20:58:36.494157056,0,015,-1.161339936467362,0.19786373319243608,-2.3727661346159987,1.738977948368895,-0.13785372876358193,-0.1659452296999871,2.7682182669613664,-1.2958857797718537,3
597,2024-09-23 20:58:36.566337792,0,015,-1.2266327629187472,0.2065768851499098,-2.279702259514742,1.7208273818237365,-0.20488616284004546,-0.17465950816670253,2.707332446559246,-1.29332545607964,3
598,2024-09-23 20:58:36.628824832,0,015,-1.2859352849164043,0.21401127477084717,-2.196377083372588,1.6888715082362473,-0.2825397963724504,-0.18403723788307003,2.6630428356372065,-1.2944261581192187,3
599,2024-09-23 20:58:36.706024960,0,015,-1.3387436162933888,0.21989159787455773,-2.127005822388038,1.643515823752481,-0.36868361737834277,-0.19383985066364406,2.630731654328492,-1.2965077070877944,3
600,2024-09-23 20:58:36.779145984,0,015,-1.3849673574328125,0.224092085489287,-2.0749823932744036,1.586065217173513,-0.4608987341589519,-0.20376148204178482,2.6049587249713375,-1.2974639816972116,3
601,2024-09-23 20:58:36.846908928,0,015,-1.424802632831734,0.22661233935411212,-2.0424722537769098,1.5185931877719614,-0.5565733836198438,-0.21346101749316318,2.5802514106923757,-1.2959478384795429,3
