,time,MARKER,pid,L_O_DSI,L_D_DSI,L_O_DSphi,L_D_DSphi,R_O_DSI,R_D_DSI,R_O_DSphi,R_D_DSphi,trial_id
0,2024-09-23 20:56:40.925549056,TASK_BEGIN,015,0.6346828091598771,0.0013636014850963826,-2.0148000157450245,0.2748120500281123,0.5062401694610255,-0.049390871067762965,-0.4434888241319477,0.8399009069564229,3
1,2024-09-23 20:56:40.995780096,TASK_BEGIN,015,0.627777162721574,-0.0315610149505522,-1.7915736747192954,0.38727228980012063,0.3493171964483653,-0.040418024519390895,0.45729639942553,0.8422838256868237,3
2,2024-09-23 20:56:41.066080000,TASK_BEGIN,015,0.6206443466622186,-0.06422334602964312,-1.5773335969576103,0.4956246256195764,0.19522252542023724,-0.031929670411999705,1.314253124297707,0.8471453137817319,3
3,2024-09-23 20:56:41.132582912,TASK_BEGIN,015,0.6124973972955363,-0.09598621748819873,-1.3785246294108835,0.5957549819104042,0.047200271159719503,-0.024628577932858452,2.097824531478196,0.8546198089672831,3
4,2024-09-23 20:56:41.196561152,TASK_BEGIN,015,0.6025107381114438,-0.12621284978750688,-1.2007747207972022,0.6843014839820445,-0.09192180669452024,-0.019043039437978342,2.7838826899047437,0.8646467994909136,3
5,2024-09-23 20:56:41.266073088,TASK_BEGIN,015,0.5898209497633884,-0.15429063405940044,-1.0487364911263108,0.7589475707268416,-0.2198794213525134,-0.015462043633294278,3.3538820446172353,0.8772608801493649,3
6,2024-09-23 20:56:41.335550976,TASK_BEGIN,015,0.5735430796825143,-0.17965114307874702,-0.9259928138842891,0.8185192890903794,-0.3350254968672395,-0.01391410205174653,3.794377079530197,0.8929090240406066,3
7,2024-09-23 20:56:42.274302976,TASK_BEGIN,015,0.552847099843557,-0.20179113118372502,-0.8349348782103797,0.8628765241216749,-0.4362691313004851,-0.014202905792498735,4.096885936828719,0.912535851549763,3
8,2024-09-23 20:56:42.337169920,TASK_BEGIN,015,0.5270822743953962,-0.22030431683558332,-0.77653400605661,0.8926668985870534,-0.5229267899582499,-0.015993148574771195,4.258279842304981,0.937351980151762,3
9,2024-09-23 20:56:42.415278080,TASK_BEGIN,015,0.49586401743252073,-0.2349175616402477,-0.7500837989249791,0.9090287383156427,-0.5945915875333082,-0.018908832751953746,4.2811495969274915,0.9684675185283503,3
10,2024-09-23 20:56:42.486886912,TASK_BEGIN,015,0.4590645173833919,-0.24551146646103375,-0.753154649475677,0.913346092401397,-0.6511544162665032,-0.022595190204382627,4.173680639551567,1.0066177748325031,3
11,2024-09-23 20:56:42.554658048,TASK_BEGIN,015,0.41674560685943246,-0.25211301083857285,-0.7819511358538431,0.9071608920419812,-0.6930144517562075,-0.026726323389799526,3.9489924634578064,1.0520495777033512,3
12,2024-09-23 20:56:42.616455936,TASK_BEGIN,015,0.36911923386226275,-0.2548680765791015,-0.8320017126925986,0.8922463866361521,-0.7213542660621369,-0.030985119788874756,3.624030472972431,1.1045174456566704,3
13,2024-09-23 20:56:42.690268160,TASK_BEGIN,015,0.3165765721215032,-0.2540174710523538,-0.8989306271915246,0.8707233362539966,-0.7382874292137342,-0.035056259972058454,3.2182244959660067,1.1633006699874862,3
14,2024-09-23 20:56:43.596735744,TASK_BEGIN,015,0.2597464762850454,-0.24989456347924183,-0.9791415494508839,0.8451026374819023,-0.7467704913223655,-0.0386533234206167,2.752303610026009,1.227174057191954,3
15,2024-09-23 20:56:43.674901248,TASK_BEGIN,015,0.19950756869553016,-0.2429378115342228,-1.070350403520624,0.8182105682732849,-0.7502940868657288,-0.04157191744796648,2.247399827574363,1.2943794247308795,3
16,2024-09-23 20:56:43.736493056,TASK_BEGIN,015,0.13691633859532842,-0.23369362474163063,-1.1718080056580757,0.7929833159030419,-0.7524446056496322,-0.043741801533921196,1.7242616449306736,1.3626995557701655,3
17,2024-09-23 20:56:43.799635968,TASK_BEGIN,015,0.07308421663515913,-0.222791156191257,-1.2840053966796596,0.7721534667960592,-0.7564584170962882,-0.04524962185368474,1.2026055656640446,1.4296244559267217,3
18,2024-09-23 20:56:43.877248000,TASK_BEGIN,015,0.009084064006409147,-0.21089225117092378,-1.407949806970622,0.7579434306907226,-0.7648602473616842,-0.04632070531608493,0.7008004652906233,1.4925254534831378,3
19,2024-09-23 20:56:43.939321088,TASK_BEGIN,015,-0.054047383492697595,-0.19863819962475016,-1.5444312590094849,0.7519248175010583,-0.7792273197169164,-0.04727084268393406,0.23571149416023732,1.548842080093615,3
20,2024-09-23 20:56:44.000862976,TASK_BEGIN,015,-0.1152252293599477,-0.18661582376644306,-1.693618576929137,0.7550973678636564,-0.8001253803318557,-0.04844423958215313,-0.17775304124660246,1.5963464476613365,3
21,2024-09-23 20:56:44.931606016,TASK_BEGIN,015,-0.1732398260912807,-0.1753498330190995,-1.8549933382525121,0.7680761687413581,-0.8272535421362984,-0.05014469474838123,-0.5275305931406336,1.6334323488920346,3
22,2024-09-23 20:56:44.997972992,TASK_BEGIN,015,-0.22676742596789579,-0.16530973070322347,-2.0274790825448927,0.7912317270899538,-0.859741813300861,-0.052569178141835905,-0.8054134730480838,1.6592525966076175,3
23,2024-09-23 20:56:45.060295168,TASK_BEGIN,015,-0.2744733913562973,-0.15690959062694043,-2.20964984712951,0.824729323903616,-0.89647627855055,-0.05576173491104275,-1.0077683327235964,1.6736072285482313,3
24,2024-09-23 20:56:45.121888000,TASK_BEGIN,015,-0.3151536783964363,-0.1504852368369259,-2.399898524049475,0.8685162531725927,-0.9363676772092044,-0.0595995524640209,-1.1356984443703981,1.6766790851929183,3
25,2024-09-23 20:56:45.202742272,TASK_BEGIN,015,-0.34786047224801553,-0.14625424001691256,-2.59643779836932,0.9222993669394778,-0.9785471290277827,-0.06380833051274931,-1.1945491444144993,1.6687926022974715,3
26,2024-09-23 20:56:45.260297216,TASK_BEGIN,015,-0.37200141249708474,-0.14428098236484624,-2.797132008700905,0.9855026556661951,-1.0224823141790547,-0.06799641117021628,-1.1928025297650446,1.6502852803833938,3
27,2024-09-23 20:56:45.338340096,TASK_BEGIN,015,-0.38742802759313616,-0.14446415416198982,-2.999334970268871,1.0572008784963276,-1.0679903413744438,-0.0716969297421052,-1.1404788959309262,1.621456243494529,3
28,2024-09-23 20:56:46.275512064,TASK_BEGIN,015,-0.3945024767081132,-0.1465457173986752,-3.19987220004192,1.1360521267599897,-1.1151423095045612,-0.07440949639404167,-1.047198968292885,1.5825119355740838,3
29,2024-09-23 20:56:46.337037056,TASK_BEGIN,015,-0.3940956092650187,-0.15013119100576947,-3.3950706542922755,1.2202280030196666,-1.1640976533419325,-0.07563759625120657,-0.9201909713122929,1.533480798359261,3
30,2024-09-23 20:56:46.417323008,TASK_BEGIN,015,-0.387488627165412,-0.1547165091211081,-3.580639982092383,1.3073262349820245,-1.2149206081324448,-0.0749259078354857,-0.7627093792758775,1.4741464851697532,3
31,2024-09-23 20:56:46.485068032,TASK_BEGIN,015,-0.3762130866006274,-0.1597227786437156,-3.7513965549015706,1.3943128878896391,-1.2674064045702795,-0.07190702277662056,-0.5733545583494991,1.4040779601878093,3
32,2024-09-23 20:56:46.552855040,TASK_BEGIN,015,-0.3618918384454463,-0.16453903967133496,-3.901094313658817,1.4776102025983673,-1.3209237840519905,-0.06636000443640987,-0.34654427974191204,1.3227920994024553,3
33,2024-09-23 20:56:46.612509952,TASK_BEGIN,015,-0.34610839024032714,-0.1685700018081609,-4.022672482257738,1.553402088498159,-1.3743023112073145,-0.0582643400852066,-0.0740552947141761,1.2300155636421106,3
34,2024-09-23 20:56:46.674992896,TASK_BEGIN,015,-0.33028806099664637,-0.17128538757870718,-4.108959644819434,1.6180751289763462,-1.425819079880322,-0.04782475369490221,0.2526636492826612,1.1259973706160382,3
35,2024-09-23 20:56:47.631575296,TASK_BEGIN,015,-0.3155715812629866,-0.1722698572794426,-4.153581116206135,1.6686125082479604,-1.4732962561819194,-0.03546293663824133,0.6398304116032455,1.0118368181634658,3
36,2024-09-23 20:56:47.691449088,TASK_BEGIN,015,-0.3027003943031536,-0.1712722202155332,-4.151797895419519,1.7028206557138412,-1.5142573574166474,-0.021793211376885627,1.0888714231409435,0.8897432214697403,3
37,2024-09-23 20:56:47.755764992,TASK_BEGIN,015,-0.2919737784209716,-0.168242947959543,-4.10115238788186,1.7193860887431305,-1.5461083451414654,-0.007589117323368862,1.5947492897796796,0.7631014591575566,3
38,2024-09-23 20:56:47.831822080,TASK_BEGIN,015,-0.28332106394488743,-0.16334020216803627,-4.001857548709894,1.7178095083359153,-1.566358760986372,0.006270665043873094,2.1454046073063453,0.6362843120569652,3
39,2024-09-23 20:56:47.892876032,TASK_BEGIN,015,-0.2764517665919501,-0.15689485726411054,-3.8568762237868017,1.6982875065095606,-1.57288225787003,0.018884986844729324,2.7222646393446905,0.5142439800213596,3
40,2024-09-23 20:56:47.970103040,TASK_BEGIN,015,-0.2709943304026297,-0.14934696396419456,-3.6717575804997615,1.661650148445972,-1.5641786005170393,0.029432261151755044,3.30166687438453,0.40195003795455114,3
41,2024-09-23 20:56:48.038321152,TASK_BEGIN,015,-0.266578295591514,-0.1411761755672789,-3.4543975562949814,1.6094206948411147,-1.5396045768866489,0.03727323206810185,3.8570177737141087,0.30379745886787163,3
42,2024-09-23 20:56:48.976666112,TASK_BEGIN,015,-0.2628932237128977,-0.1328409612203847,-3.2147436457526037,1.5439165002695514,-1.4995491312728644,0.0420364617567111,4.3612239599844465,0.22317878332227611,3
43,2024-09-23 20:56:49.038660864,TASK_BEGIN,015,-0.25977617475178383,-0.1247276983336938,-2.964266578061926,1.4682393366720319,-1.4455148449942083,0.0436721461551636,4.788907395401622,0.16233071511769748,3
44,2024-09-23 20:56:49.117415936,TASK_BEGIN,015,-0.25732628009953495,-0.11710497589112571,-2.715109926669866,1.3861016907516093,-1.3800823720894755,0.042466502821442036,5.1184003389799715,0.1223513928136539,3
45,2024-09-23 20:56:49.176913152,TASK_BEGIN,015,-0.2559750321286435,-0.11008941012586433,-2.4790716812304323,1.3015380924119861,-1.3067607283019946,0.039013112758030266,5.333698974988671,0.10323508407494839,3
46,2024-09-23 20:56:49.239397888,TASK_BEGIN,015,-0.25642930871012176,-0.10364596322001904,-2.266632148393492,1.2185489295641965,-1.2297255333785146,0.03413833017353854,5.426127618798026,0.10394748440187232,3
47,2024-09-23 20:56:49.320698880,TASK_BEGIN,015,-0.25948452751816903,-0.09763987771887796,-2.086120575478706,1.1406973869908736,-1.1534829082138687,0.028795267378278398,5.395243906752531,0.12263589653461,3
48,2024-09-23 20:56:49.388482304,TASK_BEGIN,015,-0.26580276103221606,-0.09192320444758416,-1.9430407894093187,1.0706979103676726,-1.082563108436087,0.0239662815225341,5.24886159049138,0.1569039619022338,3
49,2024-09-23 20:56:50.318006016,TASK_BEGIN,015,-0.2757563587016768,-0.08641180316590195,-1.8396466224255903,1.01009217612923,-1.02130667936996,0.020602418146874545,5.002355834435359,0.203976713358177,3
50,2024-09-23 20:56:50.399718144,TASK_BEGIN,015,-0.28936166910316063,-0.08111898455443282,-1.7749289485841702,0.9591423953238337,-0.9736735465509675,0.019585193012591675,4.677358495872628,0.2607077342005309,3
51,2024-09-23 20:56:50.467480832,TASK_BEGIN,015,-0.3062712786977815,-0.07614297366755712,-1.7451059491714407,0.9170071621365745,-0.9429813585231351,0.02167779837083384,4.299942717206068,0.32354008998525796,3
52,2024-09-23 20:56:50.535214848,TASK_BEGIN,015,-0.32580191255788393,-0.07162332580538358,-1.7445688641685937,0.8821405126621612,-0.9316052669609888,0.02745258100266267,3.8985518060776947,0.3885506703859695,3
53,2024-09-23 20:56:50.593528064,TASK_BEGIN,015,-0.3470091770277019,-0.06768186046111076,-1.7671312859660548,0.8527855972415086,-0.9407579718138296,0.03720516469686694,3.5019901378561533,0.4516323964730675,3
54,2024-09-23 20:56:50.655585024,TASK_BEGIN,015,-0.3688192130063613,-0.06436400864220132,-1.8073250002832364,0.8274415893419976,-0.9704078353043663,0.05087864519600777,3.1376742267373494,0.5087872307048537,3
55,2024-09-23 20:56:50.733280000,TASK_BEGIN,015,-0.39017759282912556,-0.06160128659267622,-1.8614058284911552,0.8052040836662833,-1.0193000733445834,0.0680306889517923,2.8301761564554018,0.5564230516271225,3
56,2024-09-23 20:56:51.681998080,TASK_BEGIN,015,-0.41014450598886465,-0.05921042463844121,-1.9277782897688158,0.7859064625494953,-1.0850379977376703,0.08787112302262563,2.6000832595579686,0.5915136506770793,3
57,2024-09-23 20:56:51.737869056,TASK_BEGIN,015,-0.4279124362974084,-0.056924210179241874,-2.006723458577345,0.7700565621141094,-1.1642205331843274,0.10936643932994876,2.4632732860272544,0.6115876566911207,3
58,2024-09-23 20:56:51.815508992,TASK_BEGIN,015,-0.44279857893204916,-0.054432128081140126,-2.0996087637727414,0.7586387550579182,-1.2526518671538995,0.13137421097569185,2.4305257395815,0.6146886679942675,3
59,2024-09-23 20:56:51.876694784,TASK_BEGIN,015,-0.45427645172601117,-0.051411382156367105,-2.2080319028482536,0.7528626425641405,-1.3456259198135978,0.15276401376347654,2.5071232869446587,0.5994791013300593,3
60,2024-09-23 20:56:51.938236160,TASK_BEGIN,015,-0.4620509709727633,-0.04754213957975308,-2.3332817783386437,0.7539024990741621,-1.4382445160756028,0.17249752841795585,2.692272067741562,0.5655057470548556,3
61,2024-09-23 20:56:52.021019136,TASK_BEGIN,015,-0.46611695293976063,-0.04251168471283776,-2.4760981467484022,0.7626622577177327,-1.525699935435173,0.18966148431378788,2.9785983319173854,0.5134843252894463,3
62,2024-09-23 20:56:52.077886976,TASK_BEGIN,015,-0.466734588982253,-0.03601980096563879,-2.6364594360478253,0.7796030654491171,-1.6034929524520805,0.20346665776098924,3.352043352618693,0.44543868369466344,3
63,2024-09-23 20:56:53.032028928,TASK_BEGIN,015,-0.46431964967437617,-0.02779868968252527,-2.813267413553961,0.8046326357862905,-1.6676149653650305,0.21323643653558527,3.7922909939817098,0.36463789379495476,3
64,2024-09-23 20:56:53.099860224,TASK_BEGIN,015,-0.45931830739365925,-0.017650595635466646,-3.004004773037793,0.8370129817305895,-1.714719231385625,0.2184024584694787,4.273863499610597,0.27537893218156273,3
65,2024-09-23 20:56:53.163655936,TASK_BEGIN,015,-0.45212908525428214,-0.005494854624921715,-3.2044550128519282,0.8752644373153468,-1.7422690039622426,0.21851439892656,4.76793830628904,0.1826812471021176,3
66,2024-09-23 20:56:53.225662720,TASK_BEGIN,015,-0.4430602659383664,0.008587414377944306,-3.408551112380268,0.9171249465389181,-1.7486473554039859,0.2132687842662081,5.244500643728085,0.09195213944213336,3
67,2024-09-23 20:56:53.287714816,TASK_BEGIN,015,-0.43227148323658293,0.024321921462949342,-3.6084809042019415,0.9596659102058654,-1.733239552800352,0.20255902071845489,5.6742802659973455,0.008668690347566819,3
68,2024-09-23 20:56:53.370934016,TASK_BEGIN,015,-0.41968901517289653,0.04123245606780721,-3.795168297795805,0.999600617667389,-1.6965021190215774,0.1865343128317359,6.030402882469722,-0.061942632135236896,3
69,2024-09-23 20:56:53.438662144,TASK_BEGIN,015,-0.4049452003357084,0.0586608561297965,-3.959078142450117,1.0337105200790084,-1.640001741714877,0.16563858124186567,6.290092161380871,-0.11529458142498467,3
70,2024-09-23 20:56:54.349013248,TASK_BEGIN,015,-0.3874031193781943,0.07581757828534955,-4.091132672121867,1.0592516182569331,-1.5663830360610695,0.14060498625773007,6.436461110975888,-0.147874164812117,3
71,2024-09-23 20:56:54.424006144,TASK_BEGIN,015,-0.3662829649081491,0.09185924827229466,-4.1835593188303015,1.0742238207812964,-1.4792317054015542,0.11240761396538461,6.459924310911145,-0.1575724762279948,3
72,2024-09-23 20:56:54.491785216,TASK_BEGIN,015,-0.3408381183456103,0.10597893281874418,-4.23061230136923,1.0774739849798156,-1.3828209757148424,0.08219013005966495,6.3588876004201635,-0.14381952992996205,3
73,2024-09-23 20:56:54.558985728,TASK_BEGIN,015,-0.31049144284483965,0.11748351814738203,-4.229121077773114,1.0686731389382236,-1.2817623046993383,0.05118960702610658,6.139923596773261,-0.10760986788677199,3
74,2024-09-23 20:56:54.622284800,TASK_BEGIN,015,-0.2748863026726637,0.1258361012188989,-4.178763081661417,1.048205609263447,-1.180618090995348,0.020664973426816138,5.8176896002043605,-0.05148745861824263,3
75,2024-09-23 20:56:54.683185152,TASK_BEGIN,015,-0.23388772503779243,0.13066120723389868,-4.082011046577499,1.017012069557281,-1.0835243745944416,-0.008171818235353314,5.414401274335152,0.02057900910717484,3
76,2024-09-23 20:56:54.760818176,TASK_BEGIN,015,-0.18759256302167773,0.13172950340203388,-3.9438138021326568,0.9764723647107051,-0.9938470469480449,-0.03423146352762721,4.958550135199386,0.10348807936361673,3
77,2024-09-23 20:56:55.669408256,TASK_BEGIN,015,-0.13636845909702539,0.1289470109809039,-3.771089612262009,0.9283915839292897,-0.913939146720278,-0.05662819811176197,4.48283975446663,0.19144800135457682,3
78,2024-09-23 20:56:55.747031040,TASK_BEGIN,015,-0.08089516968292573,0.12236901575527148,-3.5720917488394277,0.8750447521105602,-0.8451016718801915,-0.07474342375210956,4.021501894808554,0.27857148927602066,3
79,2024-09-23 20:56:55.809066240,TASK_BEGIN,015,-0.022162797438157526,0.11223517750842511,-3.3557301627134373,0.8191570551659535,-0.7877559080247756,-0.08825065587066054,3.6072659447486064,0.3595997596596836,3
80,2024-09-23 20:56:55.870624000,TASK_BEGIN,015,0.03859323771421361,0.09899439807290937,-3.130963129520876,0.7637187314344361,-0.7417053864799669,-0.0971068516056989,3.268535409207808,0.43057408266769964,3
81,2024-09-23 20:56:55.952466944,TASK_BEGIN,015,0.09999542264328244,0.08328928638723901,-2.9063165270469304,0.7116403083639629,-0.7063583391595809,-0.10153212546927742,3.027338881485532,0.48919738251007705,3
82,2024-09-23 20:56:56.009907968,TASK_BEGIN,015,0.1606348672853263,0.06589969758437693,-2.6894508631553378,0.6653674583866687,-0.6808692009907208,-0.10198745021413574,2.8981269282717075,0.5347970676006921,3
83,2024-09-23 20:56:56.087988992,TASK_BEGIN,015,0.21919573777921775,0.047661316873510134,-2.486681627997426,0.626584702930628,-0.6642136513235619,-0.09914098661984226,2.8871344578921825,0.5680188170499596,3
84,2024-09-23 20:56:57.031301888,TASK_BEGIN,015,0.2746117374864867,0.029367608814385927,-2.3025517833532434,0.5960549718558875,-0.655209944744912,-0.09381509663310987,2.9921748605209015,0.5904128826558097,3
85,2024-09-23 20:56:57.095032832,TASK_BEGIN,015,0.3262206517222755,0.01166734877108443,-2.1396862480858116,0.5735979950762123,-0.6525135428103296,-0.0869190704604686,3.2029570619099834,0.6039776963202904,3
86,2024-09-23 20:56:57.163599104,TASK_BEGIN,015,0.37382621390046267,-0.005007902854186922,-1.9990127128677126,0.5582029888499722,-0.6546509877146546,-0.07937480923066499,3.502032352925254,0.6106908580597475,3
87,2024-09-23 20:56:57.225167104,TASK_BEGIN,015,0.4176114569181374,-0.020452689431446593,-1.880189066605836,0.5482264183110881,-0.6601315045066377,-0.07203953902686654,3.866391903208261,0.6121193700411357,3
88,2024-09-23 20:56:57.302395136,TASK_BEGIN,015,0.45795945917433556,-0.034636151267829415,-1.782024866911982,0.541610026949542,-0.6675764409228583,-0.06563611607435843,4.269612607127851,0.6092296753425179,3
89,2024-09-23 20:56:57.370226944,TASK_BEGIN,015,0.4952967658472629,-0.047625573846453786,-1.702809712611744,0.5361070859654443,-0.6757672879004873,-0.06070872520582135,4.684260849198533,0.602433575163686,3
90,2024-09-23 20:56:57.426178048,TASK_BEGIN,015,0.5300155499198166,-0.059516429900153184,-1.6405595824106873,0.5295358758173373,-0.6835946151270278,-0.05761248612670563,5.084133788383244,0.5918015584307879,3
91,2024-09-23 20:56:58.381403904,TASK_BEGIN,015,0.5624365893798958,-0.07037739024739337,-1.5932137287287211,0.5200507631098537,-0.6899883761643227,-0.05652518808454582,5.445987819913249,0.5773567953927904,3
92,2024-09-23 20:56:58.440706048,TASK_BEGIN,015,0.592757730541323,-0.08020891658753211,-1.5588099811950078,0.5063907110951398,-0.693907713116193,-0.057461742327666834,5.750650460985956,0.559379986320913,3
93,2024-09-23 20:56:58.502286848,TASK_BEGIN,015,0.6209925624131508,-0.08892098044976685,-1.5356371899941608,0.4880764101098673,-0.6943926053875644,-0.06028378370837059,5.98368102609936,0.5386266781356183,3
94,2024-09-23 20:56:58.570653184,TASK_BEGIN,015,0.6469528026234512,-0.09633844802461485,-1.5223251810298806,0.46552892979157523,-0.6906282637866875,-0.06471264790617207,6.135786140058203,0.516345170154397,3
95,2024-09-23 20:56:58.647844864,TASK_BEGIN,015,0.6703104199071951,-0.10223610158417266,-1.5178288292756805,0.44003628461470645,-0.681978456926841,-0.07035904123817674,6.203005772823432,0.4940700961164661,3
96,2024-09-23 20:56:58.709903104,TASK_BEGIN,015,0.6907173293955814,-0.10640053699589093,-1.5212856127979923,0.41349801243132833,-0.6679829165461335,-0.07677251909221575,6.186559023318422,0.4733079259939288,3
97,2024-09-23 20:56:58.772516864,TASK_BEGIN,015,0.7079088854318346,-0.1087091499340036,-1.5317341721479443,0.3879805823140986,-0.6483534416436618,-0.08349876852895512,6.0922379729970375,0.45530589328940185,3
98,2024-09-23 20:56:59.729914880,TASK_BEGIN,015,0.7217154746562633,-0.10920160010121756,-1.54773400892598,0.36522936150821156,-0.6230136004163245,-0.09012922504597198,5.929326807648102,0.4410172355123995,3
99,2024-09-23 20:56:59.792399872,TASK_BEGIN,015,0.7319785914797129,-0.10811539665688108,-1.5670576470689237,0.3463325132539662,-0.5921992413037309,-0.09633432226699931,5.709263441267822,0.43120426568211156,3
100,2024-09-23 20:56:59.854885888,TASK_BEGIN,015,0.7384540955752937,-0.10587644113801456,-1.5866374202257443,0.33165391849975134,-0.556593445296483,-0.1018736856059135,5.4444442617317055,0.42654483330659276,3
101,2024-09-23 20:56:59.932688896,TASK_BEGIN,015,0.740784755351131,-0.10305472260802034,-1.6027440107724278,0.32096530680463126,-0.5174443851114225,-0.10657744945919008,5.147469283842752,0.4276613982627024,3
102,2024-09-23 20:56:59.994742016,TASK_BEGIN,015,0.7385415656487602,-0.10029583564060444,-1.6112553231087958,0.3136202225004988,-0.4766130289533535,-0.11030956145547424,4.830829260882427,0.4350540876761741,3
103,2024-09-23 20:57:00.060997120,TASK_BEGIN,015,0.7312761742911629,-0.0982373535223089,-1.608044538980809,0.3087180734764134,-0.4365099549813952,-0.11294013539824316,4.506757300493452,0.4489774444442183,3
104,2024-09-23 20:57:00.135590144,TASK_BEGIN,015,0.7185468402604716,-0.09742584741543625,-1.589650222795016,0.3053067812801972,-0.3999171952299812,-0.11433710429713785,4.186901867464671,0.46937228066381564,3
105,2024-09-23 20:57:01.075686144,TASK_BEGIN,015,0.6999287158181378,-0.09824968971432449,-1.5541651725758476,0.30261781806882265,-0.3697434981767411,-0.11435815582682883,3.8816929093700856,0.4959599626052607,3
106,2024-09-23 20:57:01.137720832,TASK_BEGIN,015,0.67504709944015,-0.10089676759265613,-1.5019969191341878,0.3002445805069604,-0.34878304421837436,-0.11283054023291343,3.5996145772861876,0.5284875195447971,3
107,2024-09-23 20:57:01.218084864,TASK_BEGIN,015,0.6436630370636804,-0.1053469199848102,-1.4362319395603107,0.29820971178947625,-0.3395168148975638,-0.10953677795504407,3.346813737669679,0.5669648614522824,3
108,2024-09-23 20:57:01.285832704,TASK_BEGIN,015,0.6057933546197602,-0.11140502925472505,-1.3625582523829536,0.29693523499417984,-0.34394518411111036,-0.10422854756525822,3.1273182332674754,0.6116953879389868,3
109,2024-09-23 20:57:01.353629952,TASK_BEGIN,015,0.5618075054653889,-0.1187652513717116,-1.2887297710107806,0.2971198164432205,-0.36342011794398704,-0.09666908549290312,2.9436431839786534,0.6630389652995373,3
110,2024-09-23 20:57:01.416770048,TASK_BEGIN,015,0.5124594424426903,-0.12708314949767566,-1.2235810346600076,0.2995149848088384,-0.39847859880139885,-0.08668732317688134,2.7972843919011336,0.7210248557146687,3
111,2024-09-23 20:57:01.479258112,TASK_BEGIN,015,0.45885912317526784,-0.13603133913441726,-1.1757778365259208,0.3046515395991358,-0.44872146025110743,-0.07422140736132309,2.688923080141016,0.7849785354747966,3
112,2024-09-23 20:57:02.432587776,TASK_BEGIN,015,0.40241241611915624,-0.14532557137464067,-1.1525975624526044,0.31263059807447285,-0.5127691373766706,-0.0593374145040652,2.61856793378815,0.853285909539855,3
113,2024-09-23 20:57:02.500462848,TASK_BEGIN,015,0.3447450277635875,-0.15472521549447107,-1.1590044120697909,0.32308664706144874,-0.5882865282705116,-0.04223162793260559,2.5858103914304778,0.9233579437645889,3
114,2024-09-23 20:57:02.567720960,TASK_BEGIN,015,0.28759692929000424,-0.1640231090570931,-1.1972219553980663,0.3353536170424301,-0.6720821080276607,-0.023235667009029487,2.590138018908718,0.9917770665365315,3
115,2024-09-23 20:57:02.631230976,TASK_BEGIN,015,0.2326649046467632,-0.17303532798274185,-1.266834554341186,0.34876235409779255,-0.7603298303402732,-0.002823498781641619,2.63113695466215,1.054589172297826,3
116,2024-09-23 20:57:02.693236992,TASK_BEGIN,015,0.18140124278621184,-0.18158903399305545,-1.365199348757444,0.3629355781866555,-0.8489359349298335,0.018404699214168152,2.708401360267748,1.1077469508018858,3
117,2024-09-23 20:57:02.771631872,TASK_BEGIN,015,0.13482384366035202,-0.18950377109245997,-1.4879181218481587,0.3779614659438727,-0.9339621201878048,0.03977461404567356,2.8210517596378417,1.1476764551056227,3
118,2024-09-23 20:57:02.839458048,TASK_BEGIN,015,0.09340977171968634,-0.1965704625157595,-1.629324185084512,0.39438495539902263,-1.0119472908639977,0.06060366613918826,2.966924173259616,1.1718482508093138,3
119,2024-09-23 20:57:03.777932800,TASK_BEGIN,015,0.05710433206572154,-0.2025396130463668,-1.7830362353389493,0.4130229982648743,-1.0800443686779,0.08024986594531214,3.141678431876643,1.1792140269530709,3
120,2024-09-23 20:57:03.840430848,TASK_BEGIN,015,0.02541516555846223,-0.20712687462195326,-1.9425362520958633,0.43468346327288776,-1.136019187206881,0.09813184751733088,3.3381988142459074,1.1704269796878242,3
121,2024-09-23 20:57:03.918080000,TASK_BEGIN,015,-0.002459986558817697,-0.21003314983299617,-2.1016620633687926,0.4598995076061032,-1.1782039734468162,0.11372367721662298,3.546643849122776,1.1478132554225362,3
122,2024-09-23 20:57:03.980623104,TASK_BEGIN,015,-0.02748851576823985,-0.21097080140671873,-2.25493127920104,0.4887449748358826,-1.2054562190458458,0.12653897738964684,3.7553797082902944,1.1150625962980532,3
123,2024-09-23 20:57:04.042640896,TASK_BEGIN,015,-0.050624121077213445,-0.20969484713624445,-2.3976889104668793,0.5207399442588481,-1.2171156165620265,0.13612590520741016,3.952728556237967,1.076631145255554,3
124,2024-09-23 20:57:04.119889920,TASK_BEGIN,015,-0.07260192746237365,-0.20604360511352451,-2.526170610458363,0.5548420411713261,-1.2129409322195308,0.14208521460900705,4.128966785524346,1.0369644714236546,3
125,2024-09-23 20:57:04.181394944,TASK_BEGIN,015,-0.09377676113543609,-0.19998267520119214,-2.637584599011484,0.5895113754229176,-1.1930621689355678,0.14410897551122773,4.2777897138738705,0.9997494396170472,3
126,2024-09-23 20:57:05.107768064,TASK_BEGIN,015,-0.11408543146448923,-0.19163359323838444,-2.7301895282998547,0.6228196292714762,-1.1580137182923014,0.1420327492389191,4.396844155838137,0.9673605463240472,3
127,2024-09-23 20:57:05.168214016,TASK_BEGIN,015,-0.1331431982163352,-0.18127422458852704,-2.8032509353667887,0.6525786961049076,-1.1088585460458995,0.13589327339948193,4.487493094843912,0.9405536255927542,3
128,2024-09-23 20:57:05.242201088,TASK_BEGIN,015,-0.1504018838262449,-0.16931695222156934,-2.8568432790593548,0.6765010010070859,-1.0473380462185544,0.12597698317086664,4.554241686883105,0.9183961049608946,3
129,2024-09-23 20:57:05.304197888,TASK_BEGIN,015,-0.1652901735905068,-0.15628122148559978,-2.891610364081367,0.6924255190011436,-0.9759572224533638,0.11283733990531263,4.604212841913178,0.898387349067264,3
130,2024-09-23 20:57:05.366201856,TASK_BEGIN,015,-0.17731760578767378,-0.1427688435144957,-2.9085976968156806,0.6985946738222972,-0.8979346783983272,0.09726595023315175,4.646811355300974,0.8767063078417688,3
131,2024-09-23 20:57:05.446615040,TASK_BEGIN,015,-0.18616422685529835,-0.1294386911490607,-2.909152864669359,0.6938927818399812,-0.8169924652050227,0.08022068884963754,4.693297127830187,0.8486009940975825,3
132,2024-09-23 20:57:05.505308160,TASK_BEGIN,015,-0.1917651429684143,-0.11697616227455518,-2.8948381994879284,0.677961170550437,-0.7370385381007837,0.06273055715829498,4.755712692877401,0.8090340944146596,3
133,2024-09-23 20:57:06.420300032,TASK_BEGIN,015,-0.19437532713470615,-0.10605249959102608,-2.867354413109552,0.6512007110116445,-0.6618640078812195,0.045808394041207415,4.8450192236553775,0.7535891585332153,3
134,2024-09-23 20:57:06.498017024,TASK_BEGIN,015,-0.19458336961029335,-0.09726989003572965,-2.8285150967541832,0.6147535971049841,-0.5949403226958386,0.030395424050546287,4.969119038609089,0.6793724209750642,3
135,2024-09-23 20:57:06.565103104,TASK_BEGIN,015,-0.19324060427611842,-0.09110486464868695,-2.7802466771926815,0.5705074976734658,-0.5392786146540787,0.01733018429221847,5.131605590023208,0.5855898144614248,3
136,2024-09-23 20:57:06.636766208,TASK_BEGIN,015,-0.1913122974087751,-0.08787532633777317,-2.7244949385345434,0.521040810623543,-0.49726943969207815,0.007312841367649442,5.3315098277239805,0.473695452206348,3
137,2024-09-23 20:57:06.704266240,TASK_BEGIN,015,-0.18971508807484028,-0.08773911610773213,-2.6629873294874007,0.4694139427359808,-0.4705096404751954,0.0008529826675692156,5.5638717941654905,0.34719151964710654,3
138,2024-09-23 20:57:06.772303104,TASK_BEGIN,015,-0.18921009677533565,-0.09070870058255436,-2.596994733980123,0.41883180378323315,-0.4597007886962187,-0.001778604994654538,5.820841202886292,0.2111962838195202,3
139,2024-09-23 20:57:06.828969984,TASK_BEGIN,015,-0.19036627968768358,-0.09666706885859981,-2.5272585267135432,0.3722928769439487,-0.46466856855123195,-0.0005656778387116282,6.092991325163032,0.07187291450135515,3
140,2024-09-23 20:57:07.783027712,TASK_BEGIN,015,-0.19355064856935655,-0.10538256975662755,-2.4540529845357075,0.3323043012352895,-0.4844793103650899,0.004277552560372563,6.370587672382181,-0.06420093375813124,3
141,2024-09-23 20:57:07.850392064,TASK_BEGIN,015,-0.19889738379676355,-0.1165273863105334,-2.3772671610948803,0.30066043638680084,-0.5176051553751642,0.01235447461496588,6.644516675227131,-0.19059440295285382,3
142,2024-09-23 20:57:07.912920832,TASK_BEGIN,015,-0.20626806899921474,-0.12970322208441148,-2.2965185833621833,0.2782795883337429,-0.5620937075730913,0.02313636936965527,6.906552582018866,-0.30136096141682356,3
143,2024-09-23 20:57:07.974976000,TASK_BEGIN,015,-0.21526804867629887,-0.14447140304943556,-2.2113723080848753,0.26514214343165293,-0.6157028995116047,0.03600060050965556,7.148967125183521,-0.39112667853009114,3
144,2024-09-23 20:57:08.054152192,TASK_BEGIN,015,-0.2253457853636426,-0.16038059053116308,-2.1216220249527282,0.260359878371849,-0.675985502694928,0.050254739076206326,7.363926244194059,-0.4550878700189609,3
145,2024-09-23 20:57:08.121947904,TASK_BEGIN,015,-0.2359164203818914,-0.1769874227595878,-2.027490844996161,0.26235514143461236,-0.7403427762058283,0.0651570994951566,7.543224672472746,-0.4891145763106296,3
146,2024-09-23 20:57:08.174927104,TASK_BEGIN,015,-0.24642724792159476,-0.19386965588100993,-1.929645849098112,0.269115891395678,-0.8060734523063775,0.07994628620988366,7.678698019798708,-0.49004457558224424,3
147,2024-09-23 20:57:09.128381184,TASK_BEGIN,015,-0.25634205908339014,-0.2106346829832992,-1.8290591349243077,0.2784926246367356,-0.8704325053577477,0.09388131595095704,7.76321689437862,-0.4561083452897084,3
148,2024-09-23 20:57:09.191838976,TASK_BEGIN,015,-0.26509919044783403,-0.2269246236093008,-1.7268859333847237,0.2884891041558861,-0.9307079704337106,0.10628218785498908,7.791690649058675,-0.38733122796486674,3
149,2024-09-23 20:57:09.267008000,TASK_BEGIN,015,-0.2721184738724018,-0.24241453719325098,-1.6244879961726266,0.2974975867091375,-0.9843066108412782,0.11655865165048275,7.761559968454936,-0.28576952948098905,3
150,2024-09-23 20:57:09.329494784,TASK_BEGIN,015,-0.2768657408920904,-0.256804983455942,-1.5235131191905507,0.3044554713313046,-1.0288328574173424,0.12422364849612184,7.6728928452921625,-0.1555419183741422,3
151,2024-09-23 20:57:09.391537920,TASK_BEGIN,015,-0.27890087169241395,-0.2698211676305413,-1.4258759590747496,0.3089320743348026,-1.0621780077257006,0.12889913276234105,7.528512231718256,-0.002706836342748364,3
152,2024-09-23 20:57:09.471980032,TASK_BEGIN,015,-0.27784398299381446,-0.2812284730544655,-1.3336924603558362,0.31114913527182214,-1.0826569142378004,0.13032390010923708,7.334164783386509,0.16498006051291214,3
153,2024-09-23 20:57:09.539726080,TASK_BEGIN,015,-0.2732903620090783,-0.29085710134248904,-1.2493185333988663,0.31189694303571636,-1.0892022958993042,0.12836776055372018,7.0983580562689275,0.3384584213162488,3
154,2024-09-23 20:57:10.473143040,TASK_BEGIN,015,-0.2647704307001271,-0.29861645145081545,-1.1754475943196696,0.31230511023434965,-1.081566662471815,0.12305043320272543,6.8316761325024595,0.5079358621422547,3
155,2024-09-23 20:57:10.550908160,TASK_BEGIN,015,-0.2518168809004472,-0.3044829755562663,-1.1150907739853144,0.3135126911322364,-1.0604261371879964,0.11455724719658927,6.545686057720425,0.6636232733650451,3
156,2024-09-23 20:57:10.607696896,TASK_BEGIN,015,-0.23411471085088836,-0.3084594372197523,-1.071366718479742,0.3163801682168799,-1.0273052495356503,0.10324201392630437,6.2515935949674155,0.7965815332531854,3
157,2024-09-23 20:57:10.684879872,TASK_BEGIN,015,-0.21164515446758098,-0.3105217117177087,-1.047144607320099,0.32137130992299323,-0.9843378115685575,0.08961018622228596,5.958853366098894,0.8995752786743948,3
158,2024-09-23 20:57:10.754223104,TASK_BEGIN,015,-0.18473603679172693,-0.3105806566625228,-1.0446569573441502,0.3286112527895468,-0.9339342185916659,0.07427467869170054,5.67414321683308,0.9677578878774808,3
159,2024-09-23 20:57:10.808811008,TASK_BEGIN,015,-0.15400612346786638,-0.30847962207879587,-1.0652510393498802,0.3380286852936918,-0.8784212728575634,0.05787956819401806,5.40116181302201,0.9990308121382764,3
160,2024-09-23 20:57:10.885560064,TASK_BEGIN,015,-0.12027232846410062,-0.30402743774747837,-1.109355210537506,0.3494880658875616,-0.8197283787046464,0.04100459760046549,5.1414506199311925,0.9940254790797044,3
161,2024-09-23 20:57:11.816850176,TASK_BEGIN,015,-0.08448947808027744,-0.2970514374160998,-1.1765645566544747,0.36287319123221606,-0.7592204391431342,0.024084402519944096,4.8960608467405295,0.9557277061132797,3
162,2024-09-23 20:57:11.900047104,TASK_BEGIN,015,-0.04772545815056924,-0.28745279735345197,-1.2657027361119102,0.37811832818156493,-0.697752534796112,0.007380344229140098,4.667455424557094,0.888825012888507,3
163,2024-09-23 20:57:11.956919040,TASK_BEGIN,015,-0.011120005158477787,-0.2752522313115485,-1.3747714464254481,0.39516743676279625,-0.6359002958308152,-0.00897924541514829,4.4607466351253855,0.7989609739391096,3
164,2024-09-23 20:57:12.035495168,TASK_BEGIN,015,0.024217857429559085,-0.26062436282808593,-1.500789417928771,0.41383996944103996,-0.5741951554269968,-0.024915263402303347,4.283635255991355,0.692119895162634,3
165,2024-09-23 20:57:12.096830976,TASK_BEGIN,015,0.057352032225645326,-0.24392358511524417,-1.6396433753674635,0.43364360839737326,-0.5132141208322698,-0.040323134510501776,4.1451421191128945,0.57426184626879,3
166,2024-09-23 20:57:12.157905920,TASK_BEGIN,015,0.08762037434657069,-0.22569600200561096,-1.7861320469891926,0.4536473303654782,-0.45352713073556683,-0.05504320209403948,4.053742424225162,0.4511761199741381,3
167,2024-09-23 20:57:12.238977024,TASK_BEGIN,015,0.11464429154421595,-0.20666413963198693,-1.934329965664157,0.472536130568934,-0.39563113266835165,-0.06886638089139552,4.015420997522397,0.32846868212719016,3
168,2024-09-23 20:57:13.172848896,TASK_BEGIN,015,0.13828545442959114,-0.18767761335535735,-2.0782442013554867,0.4888864537906952,-0.3399763853446061,-0.08154356737615968,4.031810576174548,0.21166019422668822,3
169,2024-09-23 20:57:13.235375872,TASK_BEGIN,015,0.1586216472645164,-0.16964204307685743,-2.2125415797355785,0.5015648653032678,-0.28706165922259724,-0.09278791257912344,4.098605096353621,0.10636076464086863,3
170,2024-09-23 20:57:13.317904128,TASK_BEGIN,015,0.17595796320094684,-0.15345262524460243,-2.3330580875917137,0.5100528333042578,-0.23751267342877497,-0.1022820468389189,4.204771212506226,0.018353324082768775,3
171,2024-09-23 20:57:13.385637888,TASK_BEGIN,015,0.1908191408069502,-0.13994668096441149,-2.436937787677402,0.5145355870492959,-0.1921065463803882,-0.10970128230402713,4.332990673311277,-0.046586351086540925,3
172,2024-09-23 20:57:13.452284160,TASK_BEGIN,015,0.20385872306475672,-0.1298586469210531,-2.5224446227964847,0.5157490626092819,-0.15174497120787792,-0.11475220577525139,4.461227828389296,-0.0831100870169989,3
173,2024-09-23 20:57:13.517487104,TASK_BEGIN,015,0.2156803225163299,-0.12375237566672859,-2.588636466022194,0.5147110451469902,-0.1173829665362495,-0.11721382855267255,4.5650519297743175,-0.08682420869635844,3
174,2024-09-23 20:57:13.573725184,TASK_BEGIN,015,0.22665021389396967,-0.12193913953324535,-2.6351443798293768,0.5124752310532901,-0.08993809823010396,-0.11696409930820521,4.620519895412638,-0.05485361421165942,3
175,2024-09-23 20:57:14.532540160,TASK_BEGIN,015,0.23680713905557693,-0.12442388047694758,-2.662190025009544,0.5099814542166514,-0.07021662687344588,-0.11398897526699298,4.607437522119473,0.013594155517385069,3
176,2024-09-23 20:57:14.589691904,TASK_BEGIN,015,0.2458994520284054,-0.13090792906752569,-2.6707705929946073,0.5080078120994408,-0.058873337901253556,-0.1083868031770634,4.512441552900202,0.11677265662098422,3
177,2024-09-23 20:57:14.668187136,TASK_BEGIN,015,0.25348154177224436,-0.14083375492969233,-2.662819317828377,0.5071928632929044,-0.05638924900489332,-0.10037315814308478,4.331167948271606,0.25019781110589007,3
178,2024-09-23 20:57:14.729537024,TASK_BEGIN,015,0.25900002567867375,-0.15344323250857345,-2.641144007571766,0.5080727185823305,-0.0630334931775346,-0.09027232874070791,4.06911891630243,0.4067992392479549,3
179,2024-09-23 20:57:14.791565056,TASK_BEGIN,015,0.2618778148781732,-0.16784033848019905,-2.6090496874864426,0.5110688461176364,-0.07878681919105066,-0.07848253579562817,3.741260077449424,0.5774040595329508,3
180,2024-09-23 20:57:14.868722944,TASK_BEGIN,015,0.26163340867275287,-0.1830617132340858,-2.5697525057875783,0.5164070290199277,-0.10322130684201296,-0.0654280836519667,3.370500524729719,0.7514721444944622,3
181,2024-09-23 20:57:14.938753024,TASK_BEGIN,015,0.25801270161455414,-0.19814995571812608,-2.525817139747683,0.5240145221249284,-0.13534506546944894,-0.05153065726674299,2.985214360931557,0.9180193592348941,3
182,2024-09-23 20:57:15.846221824,TASK_BEGIN,015,0.2510597572293667,-0.21221713625625474,-2.4787635900852694,0.5334373248407371,-0.17346413810963562,-0.037215613942032176,2.6161105783545215,1.0666429979912886,3
183,2024-09-23 20:57:15.922784256,TASK_BEGIN,015,0.24108907820113534,-0.22449196835160506,-2.4288535588137554,0.5437680227482189,-0.2151522497832808,-0.0229363854832257,2.292977471983816,1.1884603167035344,3
184,2024-09-23 20:57:15.985278976,TASK_BEGIN,015,0.2285974745787201,-0.23435023268764033,-2.375083926055318,0.553597626368355,-0.25738200752331636,-0.009188653106106389,2.041888290447932,1.2767648553758255,3
185,2024-09-23 20:57:16.059537920,TASK_BEGIN,015,0.21419077057697952,-0.24132988131207442,-2.3154663927367354,0.5610798988326974,-0.29680429296595556,0.0035011142883756043,1.8832656564718975,1.3273677043385,3
186,2024-09-23 20:57:16.124353024,TASK_BEGIN,015,0.19857896221587,-0.24513958135699598,-2.2476109396259285,0.5641771947875331,-0.33013352223951037,0.01461156640942522,1.8308457910059008,1.3387304684563133,3
187,2024-09-23 20:57:16.187270144,TASK_BEGIN,015,0.18262584149162878,-0.24567284847146934,-2.1695421033234408,0.5610350717908181,-0.35457271628916237,0.02367601710606219,1.8912536619840354,1.3119680741949031,3
188,2024-09-23 20:57:16.248856832,TASK_BEGIN,015,0.16737506023583668,-0.2430261196345735,-2.0805599057667785,0.5503421380841736,-0.36818743789620884,0.03033162717345105,2.063821315336886,1.2506908667906658,3
189,2024-09-23 20:57:17.191165952,TASK_BEGIN,015,0.153986736648773,-0.23750436567985692,-1.9818349631554757,0.5315532361149508,-0.370155383064416,0.03435663485309162,2.3405670815040978,1.1606203109914477,3
190,2024-09-23 20:57:17.268371200,TASK_BEGIN,015,0.1435980835657469,-0.22959958472100103,-1.8765189171707748,0.5049577922890955,-0.3608475191882486,0.035691458686376194,2.7066542139752277,1.0489811154314526,3
191,2024-09-23 20:57:17.330777856,TASK_BEGIN,015,0.13717949541795968,-0.21994006334905092,-1.7693881447647082,0.47164132117352014,-0.3416965035909263,0.034442558785366166,3.141665383844028,0.9237633834919449,3
192,2024-09-23 20:57:17.408713216,TASK_BEGIN,015,0.13544415754763955,-0.20922142756501955,-1.666152885109467,0.4333567127756262,-0.3148450725919884,0.030863183196025833,3.6215774571688657,0.793003391857102,3
193,2024-09-23 20:57:17.470781952,TASK_BEGIN,015,0.13880776468002431,-0.19813620987764158,-1.5726175836624432,0.39230752969370536,-0.2826874792250957,0.025310021443665776,4.120916052192432,0.6642157330530942,3
194,2024-09-23 20:57:17.545217024,TASK_BEGIN,015,0.1473481945378936,-0.18731187348854889,-1.4939651811801482,0.35090238472970336,-0.24749562320484036,0.018191333257398874,4.614646390517749,0.544007255057787,3
195,2024-09-23 20:57:17.607286016,TASK_BEGIN,015,0.1607361915890117,-0.17725698454713548,-1.434389104208391,0.3115515239870584,-0.21123227707939443,0.009925823932213034,5.079672286179735,0.4378335873437478,3
196,2024-09-23 20:57:18.532633088,TASK_BEGIN,015,0.17817444254853362,-0.16831611000347027,-1.3970974307862165,0.27652835493478956,-0.1754998028332551,0.0009185676997864698,5.4959290083020775,0.3499044829188151,3
197,2024-09-23 20:57:18.585210112,TASK_BEGIN,015,0.19841480304643438,-0.1606453185303841,-1.38456189034569,0.24790123919225013,-0.14152807253238603,-0.008450643524737105,5.847044378300183,0.28326961218825564,3
198,2024-09-23 20:57:18.667962112,TASK_BEGIN,015,0.21988521352770435,-0.15422477339954407,-1.398805922495672,0.22752625863358464,-0.11015696666776721,-0.01783393552867102,6.120636657446274,0.24002697405497944,3
199,2024-09-23 20:57:18.724992000,TASK_BEGIN,015,0.24088645172062972,-0.14890913406179312,-1.4414864793323974,0.21703860659264249,-0.08181547607986955,-0.026919308987138475,6.30844281388462,0.22150435070530972,3
200,2024-09-23 20:57:18.801905152,TASK_BEGIN,015,0.25978120045196057,-0.14449137237986437,-1.5136378579341,0.21777595325581373,-0.05652757289404085,-0.03542342594939328,6.406445783047979,0.22829741980210894,3
201,2024-09-23 20:57:18.864392960,TASK_BEGIN,015,0.27513207891548563,-0.1407498330648633,-1.615200044730455,0.2306477273225373,-0.033986844513275015,-0.043065024568353406,6.414944946072581,0.26015803191476977,3
202,2024-09-23 20:57:18.926437120,TASK_BEGIN,015,0.2858081185753185,-0.13746970471481335,-1.7445959936553976,0.2560223079407134,-0.013711738307078333,-0.04952650285228735,6.338334191677074,0.3157846149337732,3
203,2024-09-23 20:57:19.871903744,TASK_BEGIN,015,0.2910858167636842,-0.13445179742999863,-1.8985133021000948,0.2936740459450791,0.004752399402686715,-0.05442307006172317,6.184520481564458,0.3925985609641122,3
204,2024-09-23 20:57:19.949587968,TASK_BEGIN,015,0.290717275533071,-0.13151856109822685,-2.0718699010034385,0.34278436152520314,0.02163730236975084,-0.0572996650829562,5.964253786854522,0.4866536427739308,3
205,2024-09-23 20:57:20.017750016,TASK_BEGIN,015,0.2849078056940951,-0.1285109354759015,-2.257921308996323,0.4019892269886521,0.03681720709120438,-0.05766997157473413,5.690683121638167,0.5928055497267779,3
206,2024-09-23 20:57:20.086035968,TASK_BEGIN,015,0.27419385061948737,-0.1252715783778868,-2.44855755707388,0.46947967422513714,0.049789082139348066,-0.05509679204409825,5.379130315659619,0.7051216913039579,3
207,2024-09-23 20:57:20.153804032,TASK_BEGIN,015,0.2593013853074675,-0.12163143957600342,-2.6348765022973915,0.5431589991014788,0.059782182601961005,-0.04929083612364375,5.046753367863098,0.8174109151539022,3
208,2024-09-23 20:57:20.212876032,TASK_BEGIN,015,0.2410946407982025,-0.11742420674930122,-2.808013341956702,0.6208339067135821,0.06593850467772454,-0.04019111187791389,4.711784586320468,0.923778620592782,3
209,2024-09-23 20:57:20.289434880,TASK_BEGIN,015,0.22064029801750878,-0.11253300310264029,-2.9600058096755983,0.7003780489444443,0.06747392666069614,-0.027999906066054545,4.392322454414294,1.0191398661212234,3
210,2024-09-23 20:57:21.232683776,TASK_BEGIN,015,0.19929745446408687,-0.10694873934224906,-3.084397014124615,0.7797982492349791,0.063765809703175,-0.013169123851646395,4.104912605348102,1.099604944977035,3
211,2024-09-23 20:57:21.300501248,TASK_BEGIN,015,0.17872148819551312,-0.10081119028655655,-3.176406957760955,0.8571686307811641,0.054367023529426795,0.0036511397071737543,3.863212242386016,1.162678058271128,3
212,2024-09-23 20:57:21.354416128,TASK_BEGIN,015,0.1607427533921675,-0.09441112960464168,-3.232691188685006,0.9304625027643468,0.038984381011707044,0.02168723798477355,3.6770518709737074,1.2072636992834223,3
213,2024-09-23 20:57:21.431364864,TASK_BEGIN,015,0.14717034193543888,-0.08814930348112537,-3.2508811261656128,0.9973959012137883,0.017467057352223474,0.040121981084602014,3.552232084354885,1.2334735166258277,3
214,2024-09-23 20:57:21.493373952,TASK_BEGIN,015,0.13960834619090357,-0.08247066568770949,-3.229228934086661,1.0554188792243462,-0.010168280438125177,0.05816120765476376,3.491166878901512,1.2422360827045458,3
215,2024-09-23 20:57:21.567100160,TASK_BEGIN,015,0.13932444326227722,-0.07780043739844736,-3.1666383859495015,1.1019009157608668,-0.04367073037613273,0.0750726831731169,3.4940396774840212,1.2348080133745047,3
216,2024-09-23 20:57:21.629585920,TASK_BEGIN,015,0.14713955623027636,-0.07449329167203403,-3.0631361035730085,1.1344542592130198,-0.08246874370540608,0.09019621053918837,3.5598247802257177,1.2123635829839037,3
217,2024-09-23 20:57:22.567670272,TASK_BEGIN,015,0.16330821019329067,-0.07279210998652243,-2.920553756169655,1.1512951228215789,-0.12562234070055997,0.1029438941677685,3.6865294203524592,1.1758037025926655,3
218,2024-09-23 20:57:22.650649856,TASK_BEGIN,015,0.18741386065775406,-0.07279334758108993,-2.7430325863491207,1.1515271554648803,-0.1718784093300634,0.11281909030204582,3.87045045200326,1.1258050956877454,3
219,2024-09-23 20:57:22.707372032,TASK_BEGIN,015,0.2183374845007938,-0.07442266272597976,-2.53704052222195,1.1352413777512782,-0.21983334657787507,0.11946536424446805,4.1049767172082205,1.063003674287239,3
220,2024-09-23 20:57:22.784032256,TASK_BEGIN,015,0.25434518374399195,-0.07743121505723656,-2.310856858942792,1.1033939705908795,-0.2681267935211298,0.12272407943105657,4.3798268486135425,0.9881736029491844,3
221,2024-09-23 20:57:22.846052864,TASK_BEGIN,015,0.29328014214161974,-0.08142307873322348,-2.073756320902875,1.0575440188689353,-0.3155766888036649,0.12266477777654128,4.681212897605286,0.902356317355509,3
222,2024-09-23 20:57:22.908430080,TASK_BEGIN,015,0.3327774157156483,-0.0859096600911651,-1.8351904124831533,0.9996117899844719,-0.3612212101578551,0.11957095747674744,4.992758881005722,0.8069909554197033,3
223,2024-09-23 20:57:22.989572096,TASK_BEGIN,015,0.37042531533665735,-0.09037068258363376,-1.6040928351599326,0.9317529492192016,-0.40428468180509414,0.11389282302421423,5.296735263653902,0.7040856958540308,3
224,2024-09-23 20:57:23.927525888,TASK_BEGIN,015,0.40387500785668157,-0.09430413749233675,-1.388307517026906,0.8563140866878378,-0.444101235498205,0.10618970088397366,5.5753804035498105,0.5963740058996687,3
225,2024-09-23 20:57:23.989126912,TASK_BEGIN,015,0.4309541859967867,-0.09726699926840357,-1.19419331633463,0.7757936752843975,-0.4800364030482033,0.09707407717420417,5.8123354769107625,0.48733236374082267,3
226,2024-09-23 20:57:24.068430848,TASK_BEGIN,015,0.4498073236581258,-0.09891711907639411,-1.0265009919666053,0.6927826318982521,-0.5114550292527598,0.08715815202424398,5.9941080871367465,0.3809874482270392,3
227,2024-09-23 20:57:24.133476096,TASK_BEGIN,015,0.45902548988328284,-0.09905167941153045,-0.8884917530045613,0.609902361329507,-0.5377687962291816,0.07700614118395929,6.111186569155428,0.2815742906421984,3
228,2024-09-23 20:57:24.203869184,TASK_BEGIN,015,0.4577362564874666,-0.09762352240932844,-0.7820895007663727,0.5297384554594838,-0.5585452237694628,0.0670976169303984,6.158506025573484,0.19317450965858843,3
229,2024-09-23 20:57:24.271591680,TASK_BEGIN,015,0.4456736791510992,-0.09472736471710641,-0.7078716768348128,0.4547346770565706,-0.5736147918034975,0.05780580246848029,6.135384722034697,0.11940342037923533,3
230,2024-09-23 20:57:24.329232896,TASK_BEGIN,015,0.4232503449160103,-0.09057089899421092,-0.6649296352064219,0.38705013580834585,-0.5831191688013996,0.04939934343473424,6.045185028205904,0.06313792414641327,3
231,2024-09-23 20:57:25.274501888,TASK_BEGIN,015,0.39160076230282576,-0.08545230264658575,-0.6507965006288937,0.3284391059125749,-0.5874825285701257,0.04206956822773302,5.894721124505264,0.026286781819463152,3
232,2024-09-23 20:57:25.336894976,TASK_BEGIN,015,0.3525300503506462,-0.07975035538264211,-0.661575044934822,0.28018061169834546,-0.5873175249945705,0.035962275058552116,5.693353109795293,0.009650098791144942,3
233,2024-09-23 20:57:25.414048000,TASK_BEGIN,015,0.3083367194755841,-0.07391616418541518,-0.6922254683465681,0.24301574129771022,-0.5832917020230864,0.031188776494777287,5.451840356524131,0.012903331393634105,3
234,2024-09-23 20:57:25.486237184,TASK_BEGIN,015,0.26155406327017117,-0.06845081521408145,-0.7369229710642877,0.21706022688766008,-0.5759931166970582,0.027814824641914915,5.181090061920848,0.034708897255090465,3
235,2024-09-23 20:57:25.554153728,TASK_BEGIN,015,0.21470246861524034,-0.06386338913958298,-0.7895140263828397,0.2017388155656864,-0.5658455933888017,0.025846435578966615,4.890967213095769,0.07297639477936906,3
236,2024-09-23 20:57:25.621936128,TASK_BEGIN,015,0.1701322257635362,-0.060622093418252795,-0.8441684090765781,0.19582807043626219,-0.5531054854531245,0.025230151957007677,4.589364503770841,0.12527506632692093,3
237,2024-09-23 20:57:25.689743872,TASK_BEGIN,015,0.1299682693025559,-0.05911842828857378,-0.8962042657192658,0.19764213922871599,-0.5379149765790411,0.025867950671559913,4.28167498791236,0.18928187512949524,3
238,2024-09-23 20:57:26.633740032,TASK_BEGIN,015,0.09609326250317074,-0.05965252139397267,-0.9428983280507773,0.20531487982604002,-0.5203530141874483,0.027630683410403013,3.970754751540563,0.26307614778990446,3
239,2024-09-23 20:57:26.701432832,TASK_BEGIN,015,0.07009710715906974,-0.062431565343571575,-0.984034745980861,0.2170947070015579,-0.5004647225988337,0.030359904060848715,3.6574435224545194,0.3451739632093699,3
240,2024-09-23 20:57:26.769367808,TASK_BEGIN,015,0.05317692860632546,-0.06756512993594187,-1.0219948952105398,0.23158029226026156,-0.47831758139118535,0.03387375021890278,3.341608275879038,0.4343282318544095,3
241,2024-09-23 20:57:26.825743872,TASK_BEGIN,015,0.046030841224640656,-0.0750478756021041,-1.0613083241842758,0.24785786738185092,-0.45412905749516413,0.037998738822072504,3.023443321515483,0.5292266621594867,3
242,2024-09-23 20:57:26.904002048,TASK_BEGIN,015,0.048818394616041864,-0.0847394910270853,-1.1077585537461283,0.2655285412521235,-0.42841740735701034,0.042616431825905896,2.704574417700425,0.628280531414377,3
243,2024-09-23 20:57:26.966489088,TASK_BEGIN,015,0.06123152330836069,-0.09636063534265282,-1.1672919529067391,0.28462449213529095,-0.4020699472948425,0.047687917865786696,2.3886248013379707,0.7296293094160832,3
244,2024-09-23 20:57:27.027612928,TASK_BEGIN,015,0.08263193383803014,-0.10951073098766338,-1.2450008103904646,0.3054201671895808,-0.37629115125633883,0.053239609924788024,2.0811880152577347,0.8313222901357809,3
245,2024-09-23 20:57:27.946105856,TASK_BEGIN,015,0.11214840286504216,-0.12369785159076124,-1.344371202692987,0.3281749478564521,-0.3524874992694527,0.05932849540332172,1.7893810236779002,0.9315278416335578,3
246,2024-09-23 20:57:28.025732864,TASK_BEGIN,015,0.14866684203498204,-0.13836799855950582,-1.466910692020657,0.35288613389131884,-0.3321528035758069,0.06601294705454505,1.5213698395533108,1.0285998709576196,3
247,2024-09-23 20:57:28.084134912,TASK_BEGIN,015,0.19075303105560304,-0.15292709782760605,-1.6121873853216144,0.37913607167535096,-0.3167558275075297,0.07333951506184225,1.2862510579666684,1.1209229925005249,3
248,2024-09-23 20:57:28.161364992,TASK_BEGIN,015,0.23661218981064414,-0.1667584039117137,-1.7781706342896892,0.4060718175183375,-0.3075853673104796,0.08133764112615692,1.0941880945643156,1.2066735184374078,3
249,2024-09-23 20:57:28.222519040,TASK_BEGIN,015,0.2841481555766308,-0.1792451083656191,-1.9616403568301197,0.43250417623979215,-0.3055503670499455,0.09001433324019863,0.956253538600159,1.2837673346333065,3
250,2024-09-23 20:57:28.285123072,TASK_BEGIN,015,0.3310984624389462,-0.18980569890015467,-2.1584358687227523,0.45708572705332695,-0.3110184176865836,0.09935601461296607,0.8835442173451237,1.3501253940491906,3
251,2024-09-23 20:57:28.364794880,TASK_BEGIN,015,0.37519018830576895,-0.19793986207244546,-2.3634504239352663,0.4785164617447915,-0.32376765928819584,0.1093445102661658,0.885622468362409,1.404100412858426,3
252,2024-09-23 20:57:29.282173952,TASK_BEGIN,015,0.41429402681849303,-0.20327339556196813,-2.5704628487172583,0.49572579189650423,-0.3430378356036983,0.11997729077643583,0.9688083142775684,1.4447694444151689,3
253,2024-09-23 20:57:29.345946112,TASK_BEGIN,015,0.44658068383235255,-0.2055861182930008,-2.772035619417523,0.507995736840174,-0.3676323195338349,0.13127589170749832,1.1349849882111966,1.4719391104379087,3
254,2024-09-23 20:57:29.407987968,TASK_BEGIN,015,0.47066562308333865,-0.20481251143445406,-2.959704712040802,0.5150093626019319,-0.39605522977041596,0.14327416259852954,1.3812460041251164,1.4859607364298801,3
255,2024-09-23 20:57:29.485174784,TASK_BEGIN,015,0.4856969831306937,-0.20101883365913398,-3.124505511020039,0.5168097981427209,-0.426676969895803,0.1559854059018199,1.700275489912304,1.487535444829005,3
256,2024-09-23 20:57:29.553199872,TASK_BEGIN,015,0.49134771980322545,-0.1943685169956109,-3.2576791750529552,0.5136714862982807,-0.4578857516728105,0.16935365896168095,2.0812214481957354,1.4775731054084493,3
257,2024-09-23 20:57:29.607544832,TASK_BEGIN,015,0.48772777124397354,-0.18508614620517472,-3.3513881185198113,0.5059548288956871,-0.4881626805275073,0.18320515278863378,2.5109096590973357,1.457047840188459,3
258,2024-09-23 20:57:29.688736768,TASK_BEGIN,015,0.4752870903550084,-0.1734277577077202,-3.3993734237586613,0.49404641219192513,-0.516061536974234,0.1972221822011683,2.9752885222385803,1.42679451401641,3
259,2024-09-23 20:57:30.623362048,TASK_BEGIN,015,0.4547749373004653,-0.15966466997322043,-3.397521504629579,0.47839146191686127,-0.5401386509505751,0.2109493552619161,3.4608023826805407,1.3873054817526593,3
260,2024-09-23 20:57:30.684904960,TASK_BEGIN,015,0.42725711429311625,-0.14408708619615354,-3.344258999347439,0.45952660516824695,-0.5589001968671348,0.22382609599837514,3.955148547809871,1.3386979533490255,3
261,2024-09-23 20:57:30.767802112,TASK_BEGIN,015,0.3941372377509944,-0.12702665977839836,-3.2406876675012346,0.43806161725124104,-0.5708218434349804,0.23523885377857004,4.4471146625527265,1.2809625406092306,3
262,2024-09-23 20:57:30.835523072,TASK_BEGIN,015,0.35712709454302877,-0.10888291019815917,-3.0904693414002438,0.41464997672084253,-0.5744659204548572,0.24458547449933862,4.925827383916565,1.2143959961479869,3
263,2024-09-23 20:57:30.901961216,TASK_BEGIN,015,0.3181474678734988,-0.09013100831511961,-2.899564651319909,0.3899899760933585,-0.5686739076896781,0.251334769675836,5.380062947785105,1.1399879298051052,3
264,2024-09-23 20:57:30.964946944,TASK_BEGIN,015,0.279183516091102,-0.07130083188236512,-2.6758905322031166,0.36485025428740414,-0.5527748249958425,0.25507092718424984,5.798069926934697,1.059559728353758,3
265,2024-09-23 20:57:31.027002112,TASK_BEGIN,015,0.24214613029859494,-0.05293734321043052,-2.428883609197023,0.34010735627900124,-0.5267468907233325,0.25553147590472847,6.167991385308674,0.9755656668040126,3
266,2024-09-23 20:57:31.967183104,TASK_BEGIN,015,0.208777431619364,-0.03555939167092129,-2.168989044281202,0.31679550242763355,-0.4913028858250391,0.25264900555544045,6.478705356458355,0.8906452166822141,3
267,2024-09-23 20:57:32.044360192,TASK_BEGIN,015,0.1805964014207889,-0.019628331015506494,-1.907160521734248,0.2961464347875814,-0.44791928473651893,0.24659343675922588,6.720766138499388,0.8071892708948925,3
268,2024-09-23 20:57:32.105995776,TASK_BEGIN,015,0.15885983453377792,-0.005531537780292633,-1.6544218292078667,0.279580320510446,-0.39883907987338885,0.23780259372933407,6.887106157273594,0.7271448643332604,3
269,2024-09-23 20:57:32.183195136,TASK_BEGIN,015,0.14452882543739115,0.006419490923698258,-1.4214716709837971,0.26865729330034893,-0.34703173163757384,0.22698413294742567,6.973254048771384,0.6520703482882976,3
270,2024-09-23 20:57:32.244769024,TASK_BEGIN,015,0.1382527675218476,0.015981484594743932,-1.2183065658178427,0.2650439481188572,-0.2960559837445677,0.21507204391790735,6.977068516618632,0.5833286364412875,3
271,2024-09-23 20:57:32.311934208,TASK_BEGIN,015,0.1403869366590404,0.022967188013782815,-1.0538352840622498,0.27049306679128815,-0.2497982006754895,0.20313382976488006,6.8982894253985885,0.5222899478642041,3
272,2024-09-23 20:57:32.388969984,TASK_BEGIN,015,0.15103832572618536,0.02723197805262133,-0.9354381361694433,0.28675362588128983,-0.2121271786201272,0.19224509936668646,6.73831709598265,0.47041038648708494,3
273,2024-09-23 20:57:33.328537856,TASK_BEGIN,015,0.17010226455052685,0.028664396026866903,-0.8684533047444734,0.31534151741622946,-0.18654488847268727,0.1833597992956654,6.500411380411205,0.4291400575585264,3
274,2024-09-23 20:57:33.390139136,TASK_BEGIN,015,0.19724667931035386,0.027187554084145773,-0.8556648245774012,0.35718562237605034,-0.17589061500757355,0.17719967948706908,6.190175096393287,0.3997552950852351,3
275,2024-09-23 20:57:33.467976960,TASK_BEGIN,015,0.23184425202232947,0.022773605657444504,-0.8969520127891989,0.412239542980223,-0.18210403141479686,0.17417703330275863,5.816105619068005,0.38318672541904114,3
276,2024-09-23 20:57:33.536358144,TASK_BEGIN,015,0.2729101889135898,0.015463785153836904,-0.989207376928877,0.4791719017300238,-0.20602299567303975,0.1743593138156227,5.390128061783662,0.37978755497500394,3
277,2024-09-23 20:57:33.604005120,TASK_BEGIN,015,0.31910135978028376,0.00538536536839611,-1.126464453113158,0.5552339278127802,-0.24723237574241388,0.17748049237811706,4.928021951846237,0.3890147241800562,3
278,2024-09-23 20:57:33.671849984,TASK_BEGIN,015,0.3687657086687658,-0.007233889407066796,-1.3001744815858556,0.6363936014394315,-0.3040521172266436,0.18299901108224614,4.449465178699386,0.40915325707491457,3
279,2024-09-23 20:57:33.727616000,TASK_BEGIN,015,0.41998913162649315,-0.02204927538988058,-1.4997435882735408,0.7177686313295035,-0.37374668016941254,0.19019415365323344,3.9773567456835908,0.4372702324626164,3
280,2024-09-23 20:57:34.668665088,TASK_BEGIN,015,0.4706237179388833,-0.0385817832912612,-1.713409570138955,0.7942599119896192,-0.45293349369032915,0.19828112537534215,3.536389289146315,0.46947373241466295,3
281,2024-09-23 20:57:34.750356992,TASK_BEGIN,015,0.5183431434454471,-0.056208453893324524,-1.9292744945934515,0.8612115813313893,-0.5380479752737541,0.2065154573467662,3.1512540075777573,0.5013966780404031,3
282,2024-09-23 20:57:34.808252928,TASK_BEGIN,015,0.5607760206811023,-0.07417466958665908,-2.1362506736049087,0.9149682287379409,-0.6256911716177646,0.21426336756258296,2.8448359657712596,0.5287676248336676,3
283,2024-09-23 20:57:34.884988928,TASK_BEGIN,015,0.59569963032834,-0.09163779665567702,-2.324851475485268,0.953254663119864,-0.712780690225795,0.22103787543179906,2.636398297653132,0.5479855111880509,3
284,2024-09-23 20:57:34.946521088,TASK_BEGIN,015,0.6212145223358085,-0.10773348494418017,-2.487741294828879,0.9752908813489748,-0.7965491555335995,0.22651329740630413,2.5397270025492213,0.5566671946749707,3
285,2024-09-23 20:57:35.009006080,TASK_BEGIN,015,0.6358417815745893,-0.12164137287180127,-2.6198124795312894,0.9815703145798358,-0.874488968070813,0.23052290572689413,2.5615863707048865,0.5541038877225755,3
286,2024-09-23 20:57:35.088219904,TASK_BEGIN,015,0.6385550894419249,-0.13263257433863238,-2.7177615904144155,0.9733801242624409,-0.9443333279721615,0.23304124178254632,2.7009719400856036,0.5414975676035148,3
287,2024-09-23 20:57:36.032536832,TASK_BEGIN,015,0.6288026793199519,-0.1401029523835956,-2.779544655601511,0.952306801434271,-1.0041143991159165,0.23415898294659757,2.9493493340717003,0.5218451806069222,3
288,2024-09-23 20:57:36.100355072,TASK_BEGIN,015,0.6065569287812983,-0.14360860851802681,-2.8040912441175476,0.9199442985850578,-1.0522792680867363,0.23405780680234822,3.291770173370201,0.4994271164986981,3
289,2024-09-23 20:57:36.168128000,TASK_BEGIN,015,0.5723681848408297,-0.1429047288149556,-2.7913062385056637,0.8778484537525946,-1.0878136200288309,0.23298699906142292,3.708567266992447,0.4790270709228313,3
290,2024-09-23 20:57:36.227485952,TASK_BEGIN,015,0.5273686723576944,-0.13796913267607233,-2.7422261642277013,0.8276539015384932,-1.110316930055561,0.2312381083255903,4.17716642215116,0.4651654959753019,3
291,2024-09-23 20:57:36.303694080,TASK_BEGIN,015,0.47321502623134204,-0.12899823075032674,-2.659256662107659,0.7712394753160426,-1.1199787960451038,0.2291071158574134,4.673649491017502,0.461590466484126,3
292,2024-09-23 20:57:36.365730048,TASK_BEGIN,015,0.4120085915513988,-0.1163826211902821,-2.546408191355971,0.7108540130508838,-1.1174504859797691,0.22683967030778376,5.174024956958242,0.47107207223063174,3
293,2024-09-23 20:57:36.427780096,TASK_BEGIN,015,0.3462270225417698,-0.10067771610551056,-2.4093859341227457,0.6491633325652361,-1.1036824122070892,0.22458021472016318,5.655316053623795,0.49539542551969623,3
294,2024-09-23 20:57:37.369003264,TASK_BEGIN,015,0.27865701907828866,-0.08257984101612972,-2.255410099301976,0.5891892761323755,-1.0798158506339082,0.22235447072810777,6.096525205927266,0.5353972500035658,3
295,2024-09-23 20:57:37.450445824,TASK_BEGIN,015,0.21228597103461092,-0.06290592782427933,-2.0927525259367745,0.5341079074735586,-1.047141642250928,0.22008849975515893,6.479519999050733,0.5909362941476726,3
296,2024-09-23 20:57:37.513184000,TASK_BEGIN,015,0.1501174765678719,-0.04256152895129131,-1.9301193926009774,0.4869370700352578,-1.0070835275774273,0.21764601185346702,6.789928820405395,0.6608184649409743,3
297,2024-09-23 20:57:37.585356032,TASK_BEGIN,015,0.09491852223699639,-0.022478187997687353,-1.7760427864297976,0.45020648437505745,-0.9611844376186034,0.21487044153047902,7.018036467214071,0.7427798828549759,3
298,2024-09-23 20:57:37.653018112,TASK_BEGIN,015,0.04896265929876759,-0.0035199259075097593,-1.6383344588468207,0.42569427695905027,-0.9110911220739168,0.2116259329713574,7.159440118041923,0.8335871110939684,3
299,2024-09-23 20:57:37.710386944,TASK_BEGIN,015,0.013851454726053392,0.013609208797745286,-1.5235896360781838,0.4142760426724314,-0.8585254033167727,0.2078317541937726,7.215163527451767,0.9292363106296758,3
300,2024-09-23 20:57:37.788035840,TASK_BEGIN,015,-0.009559839956852143,0.02841687873389033,-1.4367630112921483,0.4158718264203342,-0.8052349279797266,0.20348621190011773,7.19112573537487,1.0252232552377782,3
301,2024-09-23 20:57:38.700945920,TASK_BEGIN,015,-0.021169243847127654,0.04062303272548598,-1.3808524221949934,0.4294193954564161,-0.7529199702628055,0.19867948387722087,7.0971040318764995,1.1168779911518822,3
302,2024-09-23 20:57:38.775351040,TASK_BEGIN,015,-0.02159363139987275,0.05012962818924902,-1.3566837923281836,0.4528414807598279,-0.7031349876951858,0.19359938237955193,6.945465332865517,1.1997279244426524,3
303,2024-09-23 20:57:38.836942848,TASK_BEGIN,015,-0.012071166765960812,0.05698223640513799,-1.3627768492946692,0.48306822973709546,-0.6571897189323047,0.1885369434372952,6.749967550432804,1.2698258613308233,3
304,2024-09-23 20:57:38.911184128,TASK_BEGIN,015,0.005723085295725562,0.0613295404943572,-1.395370897972828,0.516193237600161,-0.6161001371084248,0.1838897030529074,6.524879453167589,1.3240089116168214,3
305,2024-09-23 20:57:38.976342016,TASK_BEGIN,015,0.02991736897027218,0.06337855170061173,-1.4487892347019804,0.5477765845250463,-0.5806175742188753,0.18014605603731187,6.284480022518424,1.3600633046158859,3
306,2024-09-23 20:57:39.038351104,TASK_BEGIN,015,0.05866392214242016,0.06335239900452395,-1.5161745566679012,0.5732417137041674,-0.5513171292429977,0.17783840855006114,6.04269990511048,1.376760488800656,3
307,2024-09-23 20:57:39.100408832,TASK_BEGIN,015,0.09028845150047572,0.06146608877017871,-1.5903588646286755,0.5882922610102246,-0.5287028350695082,0.1774747070928312,5.8125230506628585,1.373792792941189,3
308,2024-09-23 20:57:40.023212800,TASK_BEGIN,015,0.123382669992077,0.05792676434271277,-1.664615839397864,0.5893039336846224,-0.5132704652729608,0.17946941720273038,5.605012420697366,1.3517075238016714,3
309,2024-09-23 20:57:40.085212928,TASK_BEGIN,015,0.15688254721261555,0.052945459913402736,-1.7332221988695111,0.5736802502863421,-0.5054621824757698,0.184087391774161,5.428284617254358,1.3118627195265111,3
310,2024-09-23 20:57:40.161972992,TASK_BEGIN,015,0.19013031261727373,0.04674343855351604,-1.7918135065417062,0.5401436595108801,-0.5055132607841609,0.19140282101266282,5.28688206055463,1.2563063888382417,3
311,2024-09-23 20:57:40.224009984,TASK_BEGIN,015,0.22286953724223268,0.03955541151865673,-1.837520822058991,0.48890462952022246,-0.513288260769552,0.20127288069341742,5.181635029737269,1.1875328937963774,3
312,2024-09-23 20:57:40.301186048,TASK_BEGIN,015,0.25514478659241663,0.03164670329594556,-1.8689849045868576,0.42168467574641433,-0.5282054129438912,0.2133308672111028,5.109887109056838,1.1081867615772747,3
313,2024-09-23 20:57:40.362733824,TASK_BEGIN,015,0.28713722313603246,0.023351201096167732,-1.8863911478707607,0.3416193184965671,-0.5492644695183452,0.2270062366913273,5.066099948361888,1.0207861633814683,3
314,2024-09-23 20:57:40.439439872,TASK_BEGIN,015,0.3190048138024335,0.01511075582243715,-1.8915167413215663,0.253060603258509,-0.5751444051534377,0.2415734914896419,5.042847833181354,0.9275368754447283,3
315,2024-09-23 20:57:41.382842112,TASK_BEGIN,015,0.35079483803365913,0.007479369054307796,-1.8876488125007065,0.16126850983019328,-0.6043513353869066,0.25622471995980695,5.032050481093698,0.8303344443678664,3
316,2024-09-23 20:57:41.449148928,TASK_BEGIN,015,0.38244923748012555,0.0010697322232664907,-1.8792705749974659,0.07198040504556709,-0.635411547351221,0.2701556116821763,5.02631294438098,0.7309599264883128,3
317,2024-09-23 20:57:41.518474240,TASK_BEGIN,015,0.41385820374525495,-0.00354540608138201,-1.8714952708778108,-0.009119398363060123,-0.6670787453699978,0.2826482986620541,5.020214974321477,0.631334048239849,3
318,2024-09-23 20:57:41.581537792,TASK_BEGIN,015,0.4449015684107268,-0.005943637982563338,-1.8692988623966595,-0.07695715781243821,-0.6984788381796562,0.293129258263323,5.011217567111768,0.533680730485506,3
319,2024-09-23 20:57:41.644023040,TASK_BEGIN,015,0.4754633077820794,-0.005940637517809292,-1.876734848978799,-0.12753688127800028,-0.7291184975431494,0.3011899732558828,4.999909409856407,0.4405230637578214,3
320,2024-09-23 20:57:41.721652224,TASK_BEGIN,015,0.5054479935195345,-0.0036278469334521837,-1.896387572346684,-0.15821587249309754,-0.7587707473481289,0.3065832981594004,4.989582217986336,0.3545075076084694,3
321,2024-09-23 20:57:41.789535232,TASK_BEGIN,015,0.5348123512016456,0.0006489544158616544,-1.9291617214253645,-0.16778270799436293,-0.7873385899127412,0.309221178913273,4.985255748541747,0.2781490132740521,3
322,2024-09-23 20:57:42.724733952,TASK_BEGIN,015,0.5635720735605523,0.006355912984270975,-1.9742873945744905,-0.156407303686293,-0.8147753503757706,0.3091800177963854,4.992273871487635,0.21365412287553995,3
323,2024-09-23 20:57:42.800775168,TASK_BEGIN,015,0.5917343662175253,0.01285913953342169,-2.029409459713361,-0.12551127095229467,-0.8410442269570431,0.3066992994737207,5.014744859946643,0.1628828990499657,3
324,2024-09-23 20:57:42.868128256,TASK_BEGIN,015,0.6191732972786308,0.01951572347258409,-2.0907588973411335,-0.0775709781992673,-0.8660660236516695,0.30216834477060717,5.054393599815666,0.12734234421325816,3
325,2024-09-23 20:57:42.936233984,TASK_BEGIN,015,0.6455363108686126,0.025750832511082334,-2.153433913383261,-0.015885791270037364,-0.8896530352511344,0.29610810298558926,5.1102905656588105,0.10810267331304413,3
326,2024-09-23 20:57:43.002780928,TASK_BEGIN,015,0.670255554053,0.031105830313402024,-2.211735986053213,0.05565674160714344,-0.9114554033749549,0.2891416753637399,5.179246321623751,0.1056848147265748,3
327,2024-09-23 20:57:43.065327872,TASK_BEGIN,015,0.6926464383448022,0.03525549935930271,-2.259521067461544,0.13285157316292637,-0.9309331991124912,0.2819415871993668,5.256228181518588,0.12003857278550038,3
328,2024-09-23 20:57:43.127383040,TASK_BEGIN,015,0.7120124327979582,0.03800900596908831,-2.290664741770941,0.2115465540896938,-0.9473753496842992,0.2751687876352628,5.334502534379087,0.15064049270665228,3
329,2024-09-23 20:57:44.083596032,TASK_BEGIN,015,0.7277048426257927,0.03931129212175591,-2.2997404924644718,0.28810690134525563,-0.9599960602592631,0.2694352230152089,5.405758603454945,0.19663933440075507,3
330,2024-09-23 20:57:44.147840000,TASK_BEGIN,015,0.7391583771465687,0.03924846225648837,-2.282797644064831,0.3598633248200224,-0.9680995304583775,0.26529436095984915,5.460606541698573,0.25696179080074677,3
331,2024-09-23 20:57:44.209891072,TASK_BEGIN,015,0.7459461461861787,0.038046571454404855,-2.237968575588034,0.42538877087434074,-0.9712543863405861,0.26323299487965934,5.4895107576011615,0.3303539584161934,3
332,2024-09-23 20:57:44.271967744,TASK_BEGIN,015,0.7478508992176222,0.036049635248862726,-2.16572052809114,0.4845025662954605,-0.9694201818522484,0.2636464890042256,5.483771299855418,0.41541728626004387,3
333,2024-09-23 20:57:44.354756096,TASK_BEGIN,015,0.7449060353387041,0.03367112137306532,-2.068802250150266,0.5380285040298278,-0.9630025709654757,0.2668032971479964,5.436191033529824,0.5106856301078364,3
334,2024-09-23 20:57:44.410245888,TASK_BEGIN,015,0.7373792488729223,0.031328970813843816,-1.9520690788358117,0.5874517878593706,-0.9528388596022882,0.27281066807671,5.341526892716392,0.6146903917091601,3
335,2024-09-23 20:57:44.487404032,TASK_BEGIN,015,0.7257157583636439,0.029388009347461913,-1.822217588914765,0.634620404682308,-0.9401294506329597,0.28159170074280543,5.197012427417681,0.7259134364410988,3
336,2024-09-23 20:57:45.434342912,TASK_BEGIN,015,0.7104761197974053,0.028129923984695996,-1.6872464484718397,0.6815156297080747,-0.9263297340103525,0.2928772050275245,5.003051785999134,0.8425703590117577,3
337,2024-09-23 20:57:45.499567104,TASK_BEGIN,015,0.6922941256472667,0.027749113016473072,-1.555550276779183,0.7300125648511631,-0.9130027984854462,0.30620146345156135,4.764014645033832,0.9622794240624603,3
338,2024-09-23 20:57:45.569680896,TASK_BEGIN,015,0.6718527643279194,0.02835814917112134,-1.4348165046245878,0.781563797821702,-0.9016420271466649,0.32089471528337254,4.488970494021059,1.0817726462171733,3
339,2024-09-23 20:57:45.637659136,TASK_BEGIN,015,0.6498554489300211,0.02999402865124061,-1.331006399396289,0.8368461599454258,-0.8934891050208232,0.3360892689045202,4.192167094395889,1.1967546633994766,3
340,2024-09-23 20:57:45.705468928,TASK_BEGIN,015,0.6269843965256452,0.03262753894074395,-1.2476621722066696,0.8955193055288299,-0.8893609004450004,0.35076238271943216,3.8929630128083756,1.301941300046598,3
341,2024-09-23 20:57:45.763895040,TASK_BEGIN,015,0.6038685835170229,0.036174917416420295,-1.185680180156577,0.9562293947693467,-0.8894926417208782,0.363816735065127,3.614687061545727,1.3913758600181079,3
342,2024-09-23 20:57:45.841025024,TASK_BEGIN,015,0.5810850216624519,0.040503568675794424,-1.143567248800095,1.016860046250543,-0.8934265144535055,0.3741768766116124,3.382091262810755,1.4590953453307451,3
343,2024-09-23 20:57:46.781441792,TASK_BEGIN,015,0.5591774405268661,0.04543077879240821,-1.1181243055493661,1.0749386733012032,-0.8999976944571861,0.38088086224342016,3.2179340466904143,1.4999868111555226,3
344,2024-09-23 20:57:46.839340800,TASK_BEGIN,015,0.5386418614613908,0.050729247314428925,-1.1054301175636119,1.1280817710536626,-0.9074637122047086,0.3831636445459731,3.1398408232393633,1.5105359299590888,3
345,2024-09-23 20:57:46.916524800,TASK_BEGIN,015,0.5198599521284251,0.056150448979663085,-1.1018576638545239,1.1743364372337444,-0.9137641686401694,0.3805347109103234,3.1583082735041668,1.489264794142917,3
346,2024-09-23 20:57:46.979013888,TASK_BEGIN,015,0.5030363477367217,0.06145528844769264,-1.104788724666965,1.2122950470582337,-0.9168300672632222,0.37283833132462013,3.2760534201551774,1.4368181701108536,3
347,2024-09-23 20:57:47.040108800,TASK_BEGIN,015,0.488215802446068,0.06642933510111315,-1.1128562228115944,1.2409887618439883,-0.914865427418643,0.36027612018661986,3.4884250187435346,1.355769473948396,3
348,2024-09-23 20:57:47.117342976,TASK_BEGIN,015,0.47537941476969114,0.07087319623557926,-1.1258147505586213,1.259693242183889,-0.9065764932767483,0.3433857420290549,3.784425236979506,1.2502618719611134,3
349,2024-09-23 20:57:47.188685056,TASK_BEGIN,015,0.46453641954922364,0.07458122938664541,-1.1442797264198965,1.2677844114027892,-0.8913430523218522,0.3229885486947377,4.148020380902364,1.125593242375695,3
350,2024-09-23 20:57:48.133745920,TASK_BEGIN,015,0.4557450729758511,0.07733128422257911,-1.1695288759504636,1.2647256819031407,-0.869313803767974,0.30012165024671955,4.55964931107715,0.9878304871941777,3
351,2024-09-23 20:57:48.201530112,TASK_BEGIN,015,0.4490801941257412,0.07890034724131445,-1.2033610043344063,1.2502178675543776,-0.8414118253890084,0.27596318918999474,4.997852105512272,0.8434807702743616,3
352,2024-09-23 20:57:48.260870912,TASK_BEGIN,015,0.4446032637617451,0.0791012065584281,-1.247796929624812,1.224441234405157,-0.8092480215875374,0.25175435480499897,5.440773605763994,0.6991770639188482,3
353,2024-09-23 20:57:48.337116928,TASK_BEGIN,015,0.44235027585166964,0.07781854183458772,-1.3044908004937055,1.1882187504346045,-0.7749384615611795,0.2287151280005011,5.867329125127738,0.5613631968872567,3
354,2024-09-23 20:57:48.399714048,TASK_BEGIN,015,0.4422981713796823,0.07503045560092328,-1.3740272807407952,1.1429773938014491,-0.7408252581419793,0.2079472604133322,6.2580656778019,0.4360561051761824,3
355,2024-09-23 20:57:48.461743104,TASK_BEGIN,015,0.44428363872362836,0.07082169883710085,-1.455371858146205,1.0905314085873545,-0.7091308886887252,0.19033017851032805,6.595847443729916,0.32873929469346413,3
356,2024-09-23 20:57:48.539748096,TASK_BEGIN,015,0.44791563720453603,0.06539669730098024,-1.5456288752998537,1.0328173282297113,-0.6816185628202466,0.17643756757560689,6.866505580950135,0.24429001223987187,3
357,2024-09-23 20:57:49.456089088,TASK_BEGIN,015,0.45255110736812776,0.05908558307208414,-1.6402394380258962,0.9717405649330825,-0.6593374584416527,0.16650470727200675,7.059712477722045,0.1867617750427951,3
358,2024-09-23 20:57:49.517975040,TASK_BEGIN,015,0.4573643199690449,0.05232666954565904,-1.7336846049407753,0.9092155590379638,-0.6424870087331928,0.16044870582987786,7.170204801191224,0.1589573149427804,3
359,2024-09-23 20:57:49.591507712,TASK_BEGIN,015,0.46147957211324,0.04561806857167439,-1.8204607134304986,0.8473071453037779,-0.6304004713370934,0.15792031438988105,7.198971881437259,0.16193145354410796,3
360,2024-09-23 20:57:49.654372096,TASK_BEGIN,015,0.46409224512587743,0.03945467989394843,-1.8958932914404958,0.7882895813076187,-0.6216503986933964,0.1583699468990054,7.153771540686652,0.19464777170154246,3
361,2024-09-23 20:57:49.715897088,TASK_BEGIN,015,0.46451222704656137,0.03427829115886009,-1.9565724614922138,0.7345434398196751,-0.6142638525932671,0.16111941090860946,7.048630964452442,0.2538966419666387,3
362,2024-09-23 20:57:49.794833920,TASK_BEGIN,015,0.46213312139961654,0.03045446257388577,-2.0005048239588836,0.688344255175679,-0.6059862707899956,0.1654295468948099,6.902442816788261,0.3344224257025865,3
363,2024-09-23 20:57:49.854371072,TASK_BEGIN,015,0.45639506946144165,0.028267576850066194,-2.027072073603391,0.6515971684504417,-0.5945110536953938,0.17055570481678237,6.737025919498967,0.42918539132480904,3
364,2024-09-23 20:57:50.792592128,TASK_BEGIN,015,0.4468032141349911,0.02791343577741423,-2.036761789906136,0.6255429090602864,-0.5776381858843732,0.17578941045241836,6.574955130929116,0.5297748378297745,3
365,2024-09-23 20:57:50.874016000,TASK_BEGIN,015,0.43300162018279537,0.029472541416820736,-2.03071696653157,0.6105105930702031,-0.5533883233497652,0.18048317706840564,6.4372036078600265,0.6270494525454089,3
366,2024-09-23 20:57:50.932261888,TASK_BEGIN,015,0.4148500731618008,0.032866738642270965,-2.01028856136132,0.6058053931123814,-0.5201278585768941,0.18405616392652385,6.340663249184374,0.7120160808005795,3
367,2024-09-23 20:57:51.009530112,TASK_BEGIN,015,0.39245246789170535,0.03782604706008433,-1.9767332300605922,0.6097389892341321,-0.476757575579031,0.18599315669184063,6.296007139474432,0.7768102199673936,3
368,2024-09-23 20:57:51.071874048,TASK_BEGIN,015,0.36613270493752786,0.04389555628920444,-1.9310621370556782,0.6197619005203304,-0.42296046434573353,0.18585478410473694,6.30651811103545,0.8155517737508298,3
369,2024-09-23 20:57:51.145019136,TASK_BEGIN,015,0.3363980798639081,0.050486401360472145,-1.873985453770068,0.6326636528957988,-0.35941706768205195,0.18329965637249732,6.368213314856084,0.8248697826484264,3
370,2024-09-23 20:57:51.211187968,TASK_BEGIN,015,0.3039207676824021,0.05695221861271958,-1.8059233544013984,0.6448074166712856,-0.28788894933434167,0.17810509150313875,6.471235307541069,0.8039805384950193,3
371,2024-09-23 20:57:52.131490048,TASK_BEGIN,015,0.26952811547168243,0.06267452682296779,-1.7270846977564593,0.6523880036158671,-0.21115672494240145,0.1701802084538378,6.602124942295626,0.7543734095375956,3
372,2024-09-23 20:57:52.189918976,TASK_BEGIN,015,0.23419084961612743,0.06714550484779033,-1.6376207614721316,0.6517436695457034,-0.13286492784670226,0.15958084735649097,6.746261670117474,0.6793321243467747,3
373,2024-09-23 20:57:52.268109056,TASK_BEGIN,015,0.199022823598767,0.07003212779837062,-1.5378638802715958,0.6397288421404884,-0.05730175056841405,0.14653551000398504,6.889747968910438,0.5835087964696597,3
374,2024-09-23 20:57:52.328956928,TASK_BEGIN,015,0.16529060829087341,0.07120755236298167,-1.428647401039981,0.6140900865193404,0.010910160743330257,0.13146884387181806,7.020367459766314,0.4725745434349462,3
375,2024-09-23 20:57:52.390477056,TASK_BEGIN,015,0.13438859586797666,0.07074850688961572,-1.3116933911480875,0.573788450771287,0.06722435513621657,0.11499329245926089,7.127792943620807,0.35283765183258237,3
376,2024-09-23 20:57:52.471333120,TASK_BEGIN,015,0.10773616554589774,0.06890777340091082,-1.1900300239088717,0.5192458762190779,0.10764395500379584,0.09785647537424301,7.203581564161532,0.23079084627897672,3
377,2024-09-23 20:57:52.539054080,TASK_BEGIN,015,0.08661701308148764,0.06606901422656493,-1.068280074929603,0.452463426010846,0.12919414948624988,0.08086235139816186,7.24128875787469,0.11267040810977413,3
378,2024-09-23 20:57:53.482513920,TASK_BEGIN,015,0.07204125495111625,0.06268443187499573,-0.9525728424957959,0.3769151867259801,0.13031885417139033,0.06479330324425923,7.236630367105113,0.00410439577654701,3
379,2024-09-23 20:57:53.550113024,TASK_BEGIN,015,0.06468818761228763,0.05920061734506788,-0.84997165026081,0.29717045190608865,0.11111819412426403,0.05034649552565895,7.187547188547767,-0.09014863719469941,3
380,2024-09-23 20:57:53.602746112,TASK_BEGIN,015,0.06490042188671738,0.055991893888191466,-0.7675473449670034,0.21831412444200682,0.07337642429680559,0.03808454288759024,7.09412437865334,-0.16639323587357924,3
381,2024-09-23 20:57:53.680397824,TASK_BEGIN,015,0.07265934923078296,0.05332177165613207,-0.7113178900598821,0.145305972305938,0.02038678488977646,0.028400624236689976,6.958369997624361,-0.22212423954343177,3
382,2024-09-23 20:57:53.742447872,TASK_BEGIN,015,0.08752575013459019,0.051336651506452405,-0.6852550723915192,0.08239823311734196,-0.04338858447389935,0.02150377208664395,6.783940878830525,-0.2560664949282898,3
383,2024-09-23 20:57:53.821470976,TASK_BEGIN,015,0.1085954543970716,0.0500800176273779,-0.690596895873669,0.0326932259699558,-0.11277153234529218,0.017426579628794594,6.575960659462348,-0.2680939960528871,3
384,2024-09-23 20:57:53.880665088,TASK_BEGIN,015,0.13451251165098677,0.0495148436829107,-0.7256925243064979,-0.002091748897626291,-0.18237490959603653,0.016048026894387373,6.34098730284923,-0.25904808932506546,3
385,2024-09-23 20:57:54.825701888,TASK_BEGIN,015,0.1635289251037927,0.04955323455063222,-0.7863656998925571,-0.021646995325029783,-0.24710296695151082,0.017122785570878665,6.0871193319306425,-0.23060220666574202,3
386,2024-09-23 20:57:54.887330048,TASK_BEGIN,015,0.19358434038150524,0.05009836786303823,-0.8665466203326462,-0.026967598598294694,-0.30258157700233557,0.020314175437936257,5.824220757973681,-0.1853243903442055,3
387,2024-09-23 20:57:54.968233216,TASK_BEGIN,015,0.22241619177699262,0.0510943991792888,-0.9590014670304386,-0.020195950440426085,-0.34548255696516794,0.02523069500689922,5.5640488078010915,-0.12684716591690254,3
388,2024-09-23 20:57:55.035956992,TASK_BEGIN,015,0.2477306387728353,0.05256782566451407,-1.0561699294389617,-0.004364511579504382,-0.37373501078472654,0.03146072058454911,5.3198559312795695,-0.05985208222661849,3
389,2024-09-23 20:57:55.102361088,TASK_BEGIN,015,0.26742413643547547,0.0546445236390071,-1.1510512170550282,0.01703329609027218,-0.3865887073235813,0.038593055192090886,5.105229307348875,0.010317899422336062,3
390,2024-09-23 20:57:55.164393728,TASK_BEGIN,015,0.2798019418702467,0.057537048767503124,-1.2379080591744416,0.04059013558639211,-0.38449248375559403,0.046218301278701406,4.932426628346243,0.07834302293323232,3
391,2024-09-23 20:57:55.226390016,TASK_BEGIN,015,0.28375378832427967,0.06150596679269902,-1.3126477928397218,0.06349145119059053,-0.3688372634999572,0.053924974064540644,4.810838241196108,0.13965832562130562,3
392,2024-09-23 20:57:56.182774784,TASK_BEGIN,015,0.2788763685653845,0.06680291484930026,-1.3729474382477325,0.08384854614131179,-0.3416853734818553,0.061312273490268715,4.746114426708367,0.19097808709155012,3
393,2024-09-23 20:57:56.250606080,TASK_BEGIN,015,0.2655198173447275,0.07360531882855449,-1.4181300855608006,0.10077114593838753,-0.3055769411853411,0.0680288838906144,4.739993541639529,0.23049960755949483,3
394,2024-09-23 20:57:56.302780928,TASK_BEGIN,015,0.24471880002503388,0.08196040732519243,-1.4487034327229389,0.1141503075207079,-0.2634023235874756,0.07382589741030164,4.790526889154157,0.25782382430107714,3
395,2024-09-23 20:57:56.381295872,TASK_BEGIN,015,0.2180073993956539,0.09176353586231456,-1.465725236417058,0.12428107356647405,-0.2182532303772328,0.078601316487254,4.8925338892080354,0.2736881507717069,3
396,2024-09-23 20:57:56.443781120,TASK_BEGIN,015,0.18718959166795432,0.10278117916961792,-1.4703893469453848,0.1315639449987719,-0.17318445640115837,0.08241873401887681,5.038313020291962,0.27961145578311253,3
397,2024-09-23 20:57:56.521419008,TASK_BEGIN,015,0.154161401668633,0.11469767915514889,-1.4639962852458337,0.13640081785453412,-0.13090843839551786,0.08549062787563676,5.218515384368855,0.27756971150009035,3
398,2024-09-23 20:57:56.587376128,TASK_BEGIN,015,0.12081526896672773,0.12715452081041595,-1.4480953335393987,0.139196171579727,-0.09352711191708558,0.08812499659320688,5.422887633986738,0.26982348000855383,3
399,2024-09-23 20:57:57.524645120,TASK_BEGIN,015,0.08897756663876408,0.13976907545173634,-1.4245241879921147,0.14034269591324763,-0.0624070557412528,0.09064782007211115,5.640633451533556,0.25891804494376036,3
400,2024-09-23 20:57:57.600649984,TASK_BEGIN,015,0.06032932261847656,0.15214051150015198,-1.3953383125479275,0.14020241429045874,-0.03822227244654391,0.0933235743005926,5.860424524812114,0.24771369655236136,3
401,2024-09-23 20:57:57.663134976,TASK_BEGIN,015,0.03631220603943425,0.16385938289580787,-1.362831072473527,0.13918101097728622,-0.021106795977265513,0.09629746823710354,6.070401866574338,0.23925711546444747,3
402,2024-09-23 20:57:57.730421248,TASK_BEGIN,015,0.01805466088634791,0.17453025580640236,-1.3296741250576365,0.1379114191622792,-0.010826920025556363,0.09957663642253572,6.258584825140541,0.23645023968267956,3
403,2024-09-23 20:57:57.803960320,TASK_BEGIN,015,0.006342816132614795,0.18380176983096796,-1.2989039905464748,0.1374108611855363,-0.006892795005491305,0.1030459203716914,6.4138023353568006,0.24166090357924225,3
404,2024-09-23 20:57:57.864548096,TASK_BEGIN,015,0.0016177944468471462,0.19139655478254428,-1.2735326953487058,0.13904441028629938,-0.008584147541067714,0.1064924419294317,6.526798279701665,0.2564549806857978,3
405,2024-09-23 20:57:57.926570752,TASK_BEGIN,015,0.003955597049404619,0.1971394238025014,-1.2559384743293802,0.1442617991768103,-0.014932331335778669,0.10961790853615329,6.591052207506462,0.28150126917371404,3
406,2024-09-23 20:57:58.871774976,TASK_BEGIN,015,0.013020198688546923,0.20097740103823558,-1.2474417661713888,0.1542333059788618,-0.024708807430625524,0.11203827004916596,6.603216076204695,0.3165746097682405,3
407,2024-09-23 20:57:58.950711040,TASK_BEGIN,015,0.028032432426323826,0.20297975872043722,-1.2483194429758726,0.16955307168195377,-0.03643113132490316,0.11328452722878356,6.563371791780514,0.36058757881598663,3
408,2024-09-23 20:57:59.007751936,TASK_BEGIN,015,0.047803933956542026,0.20331221459165377,-1.258126001142863,0.19008823639382444,-0.04839681858940535,0.11282378115345248,6.475259422667907,0.4116449729431243,3
409,2024-09-23 20:57:59.084955904,TASK_BEGIN,015,0.07084121916016403,0.2021883141178852,-1.2759867657801751,0.214946671173477,-0.05878157714246592,0.11011350585951668,6.346409073636757,0.46712253165668766,3
410,2024-09-23 20:57:59.147111936,TASK_BEGIN,015,0.0954733280357226,0.19981184217117226,-1.300662913903007,0.24252835937538736,-0.06580614114540602,0.10468188320121113,6.18791613388068,0.5237711907918816,3
411,2024-09-23 20:57:59.221790976,TASK_BEGIN,015,0.11996051470711984,0.19633523854182405,-1.3304132369412172,0.2706697021137356,-0.0679164544140078,0.09621047370444086,6.013619440254413,0.5778898076445972,3
412,2024-09-23 20:57:59.289573888,TASK_BEGIN,015,0.14260692453055834,0.19185144254870373,-1.3628027268475826,0.29689479077827446,-0.06392868057684627,0.08459784138258895,5.838720957960517,0.6256043438156391,3
413,2024-09-23 20:58:00.202449920,TASK_BEGIN,015,0.16193538383001133,0.18640945097072084,-1.3946512235632103,0.31875947504892815,-0.05313784931934782,0.06999169322172794,5.678092380637407,0.6632189020093042,3
414,2024-09-23 20:58:00.264486144,TASK_BEGIN,015,0.17691983366652317,0.18002840441089835,-1.422260815967174,0.33423430780774344,-0.03540429597128251,0.052782573798127445,5.544531234177885,0.6875667641075244,3
415,2024-09-23 20:58:00.341383168,TASK_BEGIN,015,0.1871843581663316,0.17269665353970984,-1.4419246175855147,0.3420340062829271,-0.011214923887949058,0.03356215689490797,5.4473297350711105,0.696310653381344,3
416,2024-09-23 20:58:00.403439872,TASK_BEGIN,015,0.19308344775095038,0.16436079668118042,-1.4505903209788396,0.34180192700777706,0.01830873957838573,0.013061271447200802,5.391612212299495,0.6881460722368338,3
417,2024-09-23 20:58:00.465938944,TASK_BEGIN,015,0.19566412769620595,0.15491689925295973,-1.4464850513080558,0.3341059879801968,0.05148930500751588,-0.007912432967859312,5.378607106359313,0.6628598975980305,3
418,2024-09-23 20:58:00.546874112,TASK_BEGIN,015,0.19656059162120487,0.14421383849221622,-1.4295438962569562,0.3202798348742972,0.08625970931039328,-0.02852232168151001,5.406512682714597,0.6212549056108557,3
419,2024-09-23 20:58:00.614616064,TASK_BEGIN,015,0.1978357999018391,0.13207306313679643,-1.4015753944796068,0.30221125093292356,0.12038384865581835,-0.04793777056385109,5.47136395268308,0.5650208233976135,3
420,2024-09-23 20:58:01.558132736,TASK_BEGIN,015,0.20174185083606577,0.11832342496056368,-1.3661296843752737,0.2821514375959254,0.15169916440269526,-0.06537269166248694,5.567487004311602,0.49662037031966283,3
421,2024-09-23 20:58:01.625945088,TASK_BEGIN,015,0.21040228708672964,0.10284745210432787,-1.328037194716254,0.26249578353095654,0.17835816848121094,-0.08013741901857073,5.687597096126854,0.41918492506763655,3
422,2024-09-23 20:58:01.690944768,TASK_BEGIN,015,0.2254866972430157,0.08563490344508695,-1.292658645793162,0.24544341926793914,0.1990454924073682,-0.09169627282785701,5.822934396344504,0.33636817351095105,3
423,2024-09-23 20:58:01.752944896,TASK_BEGIN,015,0.24797040916171106,0.06683316955895052,-1.265000731273395,0.2325723047500226,0.21313981001997684,-0.09971704359488803,5.963711435484803,0.2521292514520998,3
424,2024-09-23 20:58:01.815429888,TASK_BEGIN,015,0.2780370114495476,0.04677464189878087,-1.2489104291695037,0.22449859640176617,0.2207743933280025,-0.10410513095280813,6.099788306607753,0.1704738122375953,3
425,2024-09-23 20:58:01.893537024,TASK_BEGIN,015,0.3151209993112612,0.025964674054009717,-1.2465347644280802,0.22075367398241297,0.22275460294829288,-0.10502190495825098,6.22133110340406,0.0952047824627211,3
426,2024-09-23 20:58:01.956410880,TASK_BEGIN,015,0.35804458210508255,0.005031886202072149,-1.2581379749370778,0.21989513773615615,0.22034309213182865,-0.10288357882805595,6.3193732465572126,0.02970858077362388,3
427,2024-09-23 20:58:02.883127040,TASK_BEGIN,015,0.40520597253496465,-0.01534316285802681,-1.2822275339397633,0.21981095130756673,0.21498307710357606,-0.09832984913678694,6.38641301213024,-0.02323394233942257,3
428,2024-09-23 20:58:02.940519168,TASK_BEGIN,015,0.4547916587476132,-0.03450192115980402,-1.3158579151469232,0.21816272924564858,0.2080433208424263,-0.092158629994804,6.417129599525489,-0.06163361019826506,3
429,2024-09-23 20:58:03.018685952,TASK_BEGIN,015,0.5049698157577155,-0.05186728640610427,-1.355046703926386,0.21289077623212957,0.2006341039093697,-0.08523591887150599,6.409060400964178,-0.08446589203061405,3
430,2024-09-23 20:58:03.080542976,TASK_BEGIN,015,0.5540059148889601,-0.06697619652996842,-1.3952846674926382,0.2026664300784742,0.19349383825890695,-0.07839095952850215,6.363021298789059,-0.09178768097990532,3
431,2024-09-23 20:58:03.142074112,TASK_BEGIN,015,0.6002725616129002,-0.07948127055943438,-1.4320514955299215,0.18717203498291565,0.18692216109181167,-0.07231055454948686,6.283228504814729,-0.084759700130645,3
432,2024-09-23 20:58:03.221910016,TASK_BEGIN,015,0.6421986819204388,-0.08913150575257014,-1.461294328724489,0.16718043912319297,0.18074907257988135,-0.06745803104668462,6.177098642634842,-0.06551567986826473,3
433,2024-09-23 20:58:03.282184960,TASK_BEGIN,015,0.6782485577215338,-0.09575769680902495,-1.479954057097257,0.14451044161553048,0.1743538830197122,-0.06404047703805048,6.054569779009274,-0.03680943529780042,3
434,2024-09-23 20:58:04.245445120,TASK_BEGIN,015,0.7069770587982472,-0.09928476165146674,-1.486521771841197,0.12190205169129753,0.16675697962292288,-0.06202876986017256,5.927033499578831,-0.0015227553079224718,3
435,2024-09-23 20:58:04.322616320,TASK_BEGIN,015,0.7271280685638513,-0.09976506525054725,-1.4813962615284422,0.1027709918394931,0.1567891237680071,-0.06121187436508768,5.806362742136652,0.03769746268444301,3
436,2024-09-23 20:58:04.384646912,TASK_BEGIN,015,0.7377254925660954,-0.0974040319405092,-1.466852894639037,0.09083373349585204,0.14330139093128977,-0.061252545899234206,5.704313151148013,0.07847278489651593,3
437,2024-09-23 20:58:04.447438080,TASK_BEGIN,015,0.7381441750893051,-0.09255710278787845,-1.4466734092641493,0.08967979226682932,0.12535372404728906,-0.06172035748316271,5.632118693376308,0.11845945954970935,3
438,2024-09-23 20:58:04.528377856,TASK_BEGIN,015,0.7281686493669972,-0.0857010143048169,-1.425617047528685,0.10238010060227058,0.10234665132390874,-0.06210575349349756,5.60005819964795,0.15509189674537038,3
439,2024-09-23 20:58:04.591887872,TASK_BEGIN,015,0.7080254779799324,-0.0773920835541277,-1.408870033725094,0.13118294040149794,0.07410040996097955,-0.06183859716191886,5.616768747184575,0.18555557901073222,3
440,2024-09-23 20:58:04.663945728,TASK_BEGIN,015,0.678355521969302,-0.06821617256764517,-1.4015406745375496,0.17731855321675116,0.04087955531946487,-0.06033008791425046,5.687980906338752,0.20709493250887742,3
441,2024-09-23 20:58:05.577573120,TASK_BEGIN,015,0.6401191636869598,-0.0587293709074135,-1.408217161728906,0.24091614998271782,0.0033397207441282673,-0.05703714076274473,5.814758463486618,0.21752123860110856,3
442,2024-09-23 20:58:05.650205952,TASK_BEGIN,015,0.5944823319025802,-0.049397808309606064,-1.4325458198766965,0.32101164883684213,-0.037599103337210046,-0.051531662301536156,5.992049674700388,0.21563383969829777,3
443,2024-09-23 20:58:05.716844032,TASK_BEGIN,015,0.5427551596069051,-0.04055987218243311,-1.476779921105962,0.4155725822877556,-0.08089574917846858,-0.043553540830043244,6.208492911796166,0.2013608743198557,3
444,2024-09-23 20:58:05.778848768,TASK_BEGIN,015,0.4864034638802814,-0.032428796229242086,-1.5413307393228541,0.5214566400468414,-0.12548701437741153,-0.033034185417749266,6.447785272869599,0.17567501806769747,3
445,2024-09-23 20:58:05.841335040,TASK_BEGIN,015,0.4270706241965781,-0.02512444337192673,-1.624450880701985,0.6343245858358958,-0.17032942869428083,-0.02009022129853752,6.69106511364662,0.14050198399143052,3
446,2024-09-23 20:58:05.919440896,TASK_BEGIN,015,0.3665377863722914,-0.018703583508473856,-1.7222324287886965,0.7486587653135616,-0.2144067425753724,-0.004996275483901845,6.919289720235448,0.09877306164998582,3
447,2024-09-23 20:58:05.981938944,TASK_BEGIN,015,0.30661879819532495,-0.013167558771446613,-1.8290641313696478,0.8580576753444827,-0.2567355154096471,0.011852306154312067,7.114894356561299,0.0545504479575639,3
448,2024-09-23 20:58:06.917968128,TASK_BEGIN,015,0.2490392351880425,-0.008448758546902392,-1.9385249426167037,0.9558626330964929,-0.29639700782545236,0.029977072170754213,7.2628170039736135,0.01299475707719375,3
449,2024-09-23 20:58:06.995209984,TASK_BEGIN,015,0.19534406873769677,-0.004394956327153632,-2.0444963931572095,1.0360048958116004,-0.3325921022377883,0.04884555770390017,7.351447511943285,-0.019992716057469165,3
450,2024-09-23 20:58:07.057314048,TASK_BEGIN,015,0.1468442640362047,-0.0007743780161137363,-2.1421880698859495,1.093851278531339,-0.36468238424835253,0.06788863422757209,7.373839392410257,-0.03842761142944339,3
451,2024-09-23 20:58:07.135665152,TASK_BEGIN,015,0.10458213695137555,0.0026900688959046824,-2.228764943927919,1.1268195522508728,-0.39220074171892455,0.08651146495673766,7.328938945869077,-0.037059151289078836,3
452,2024-09-23 20:58:07.196544000,TASK_BEGIN,015,0.06929753040300786,0.006269421192169333,-2.303361522077566,1.1346074092573106,-0.4148581448000853,0.10410573234206896,7.222227639474544,-0.012200951032997369,3
453,2024-09-23 20:58:07.258558976,TASK_BEGIN,015,0.0414116886642027,0.010178843986239425,-2.3665494075549858,1.1190019213874358,-0.4325639273238723,0.12006721436354943,7.065420709937583,0.037563000368353444,3
454,2024-09-23 20:58:07.335746048,TASK_BEGIN,015,0.021057511566371204,0.014541588507308195,-2.419591427217229,1.0833654751825224,-0.44543437689034293,0.13381856160223535,6.87533284661007,0.1109489524153659,3
455,2024-09-23 20:58:08.282476800,TASK_BEGIN,015,0.008141222775075506,0.019372572736017515,-2.4637949684434433,1.0319701487281576,-0.4537783866373718,0.1448404774145042,6.672118363062817,0.20393439530942553,3
456,2024-09-23 20:58:08.342217984,TASK_BEGIN,015,0.002381193664710276,0.024583990076619173,-2.500067725860502,0.9693417460554037,-0.4581036104508939,0.1527247402759187,6.477095634843641,0.3100962133257819,3
457,2024-09-23 20:58:08.417996800,TASK_BEGIN,015,0.0032965075307386086,0.030013075875197383,-2.528644204843386,0.8997106043514,-0.45916081729506514,0.15725132071434536,6.310607054854965,0.421190786241815,3
458,2024-09-23 20:58:08.481406976,TASK_BEGIN,015,0.010181325257857962,0.035468303611955465,-2.5489578165895526,0.8266334987961423,-0.4579553498441708,0.15845714256146043,6.190354507152768,0.5278531793311808,3
459,2024-09-23 20:58:08.553467136,TASK_BEGIN,015,0.022129274561363044,0.04077887624095821,-2.559660006393668,0.7528341653250142,-0.45565045894197004,0.15665506838656856,6.130218793851225,0.6203924989153458,3
460,2024-09-23 20:58:08.606123008,TASK_BEGIN,015,0.03813237608686623,0.0458236126784191,-2.558787521955168,0.6802370006805354,-0.45337394623064814,0.15239254702626395,6.139297746794424,0.6896862861153539,3
461,2024-09-23 20:58:08.683769088,TASK_BEGIN,015,0.05721443388063847,0.050526534214027106,-2.5441147411367475,0.6101206773079738,-0.4520073669583757,0.14637053734871253,6.221005180786804,0.7281153032844542,3
462,2024-09-23 20:58:09.632818944,TASK_BEGIN,015,0.07853915496041257,0.054829260887092925,-2.513704368008899,0.5433624508918948,-0.45203952543272835,0.139351950157789,6.372311218158879,0.7304319095095723,3
463,2024-09-23 20:58:09.697766144,TASK_BEGIN,015,0.1014618399187733,0.05866380351389408,-2.4665109511472703,0.4807532159181487,-0.45350943751049727,0.13207730601513523,6.583382819382869,0.694423018492128,3
464,2024-09-23 20:58:09.760252928,TASK_BEGIN,015,0.12553114217725578,0.06194375163815837,-2.402792490143351,0.4232865053934136,-0.4560008761679863,0.1251875310396758,6.837932014143986,0.6211889376874437,3
465,2024-09-23 20:58:09.822284032,TASK_BEGIN,015,0.150472361724136,0.06457066272397248,-2.3241864430001318,0.3722992715512834,-0.4586591252879902,0.11915346066503621,7.114496762568472,0.5149055478128703,3
466,2024-09-23 20:58:09.903937024,TASK_BEGIN,015,0.17617309596392677,0.0664384560952589,-2.2335325433483537,0.3294341934719002,-0.4602613336257187,0.11422542355988093,7.3886156993808365,0.3821303153987039,3
467,2024-09-23 20:58:09.960929024,TASK_BEGIN,015,0.2026520131652283,0.0674319712587807,-2.13466657055303,0.29648624799931556,-0.4593873696436597,0.1104183067192947,7.635463610557925,0.23091596832339045,3
468,2024-09-23 20:58:10.038089216,TASK_BEGIN,015,0.22998172154177857,0.06743717448801492,-2.032273927462261,0.27519779254398635,-0.4546797766961765,0.10753664797525546,7.832341469815581,0.07001508832732936,3
469,2024-09-23 20:58:10.950942976,TASK_BEGIN,015,0.258178746764052,0.06637553904263994,-1.9316612216386846,0.2670393632841847,-0.4451129485381101,0.10523050455806088,7.960643413824134,-0.09170156284652671,3
470,2024-09-23 20:58:11.013449984,TASK_BEGIN,015,0.2871103027977399,0.06424792777595849,-1.8382975001579682,0.2730083709436944,-0.43018032589679583,0.10305899385551312,8.007237988267883,-0.245638628457658,3
471,2024-09-23 20:58:11.091087104,TASK_BEGIN,015,0.3164461834151173,0.061161378991296346,-1.7571306901066626,0.2934628675342106,-0.4099673465118108,0.10054227033124777,7.965292265191472,-0.383758728231483,3
472,2024-09-23 20:58:11.160866048,TASK_BEGIN,015,0.34563036365721356,0.05733121170594729,-1.6918149757095096,0.3279929224083411,-0.3851526764295181,0.09720788478049425,7.834528759379835,-0.49886457720975785,3
473,2024-09-23 20:58:11.214519040,TASK_BEGIN,015,0.37383564639979133,0.05307174700248149,-1.6440719426781965,0.37533700865381314,-0.35698915924637264,0.09264744553747123,7.62093137867654,-0.5849788065385279,3
474,2024-09-23 20:58:11.292218880,TASK_BEGIN,015,0.39991783862097896,0.04878499601596718,-1.6134200033764885,0.4333588184928124,-0.32725857158722577,0.0865804231622238,7.335953345582634,-0.6377685070710122,3
475,2024-09-23 20:58:11.357842944,TASK_BEGIN,015,0.4224396786741619,0.044940366088247787,-1.597418318346665,0.49912187220702814,-0.2981620161350782,0.07890623828839538,6.995299557003001,-0.6548183479507779,3
476,2024-09-23 20:58:12.302899968,TASK_BEGIN,015,0.4398191578595215,0.04203269486763595,-1.5924009196092588,0.5691090406780577,-0.2721406350381695,0.06972741684870477,6.6175037840962005,-0.6356402935220191,3
477,2024-09-23 20:58:12.364913152,TASK_BEGIN,015,0.4505750311911848,0.040516481405452394,-1.5944288466777863,0.6395597485940918,-0.2516597307610678,0.05933181464456399,6.222636658754504,-0.5814971216383876,3
478,2024-09-23 20:58:12.441656064,TASK_BEGIN,015,0.4535730726841361,0.04073184686468831,-1.6000210421600325,0.7067940706822078,-0.23898965367796052,0.04813313170563391,5.831300686612371,-0.49515144922756066,3
479,2024-09-23 20:58:12.503686912,TASK_BEGIN,015,0.44819005961480146,0.04284696311071406,-1.60635673996826,0.7674101331891373,-0.23600855855570627,0.03659217454344166,5.463825516635108,-0.38059020990994813,3
480,2024-09-23 20:58:12.571941888,TASK_BEGIN,015,0.4343853497695645,0.04683672688366013,-1.6109920886797409,0.8183770206730401,-0.24405067614045506,0.025156799561567387,5.139538103324234,-0.24277732342196,3
481,2024-09-23 20:58:12.646434048,TASK_BEGIN,015,0.4127210520625337,0.05250197001525395,-1.6114035895946621,0.8571299847622482,-0.26379634495896,0.014242248453428684,4.876019677864755,-0.08748176381335167,3
482,2024-09-23 20:58:12.711638016,TASK_BEGIN,015,0.38435767819410255,0.05951323514185003,-1.6046889186001707,0.8817199979749059,-0.2951661408719563,0.004235565497673709,4.6882444074200595,0.07885264639954066,3
483,2024-09-23 20:58:13.650305792,TASK_BEGIN,015,0.35100349168641937,0.06745447139306346,-1.5875738177370362,0.8909662580034547,-0.33720663593850575,-0.004510802165289342,4.587484940258144,0.24928531624716696,3
484,2024-09-23 20:58:13.722712832,TASK_BEGIN,015,0.314777993730844,0.07585538936972654,-1.5566702851763325,0.8845157619344117,-0.3880248665801783,-0.0117082726994683,4.580018626525666,0.4166627549118084,3
485,2024-09-23 20:58:13.790252032,TASK_BEGIN,015,0.27799342414548445,0.08421922106502268,-1.508849291310401,0.8627539365306242,-0.444857576729084,-0.017160113350610635,4.66600824238227,0.573994771893678,3
486,2024-09-23 20:58:13.861082880,TASK_BEGIN,015,0.24292458458649674,0.09205225158129007,-1.4416256921231752,0.8266020284460246,-0.5043143362386105,-0.02075532874379259,4.839116072787798,0.7148625328848801,3
487,2024-09-23 20:58:13.913844992,TASK_BEGIN,015,0.2116490555846174,0.09888817051352496,-1.35350657002393,0.7773009234837848,-0.5627473007740125,-0.02242528368491052,5.087160885677521,0.8337850618447064,3
488,2024-09-23 20:58:13.991085824,TASK_BEGIN,015,0.18596898778922005,0.10429902941427217,-1.2442854704897268,0.7162718332234694,-0.6166322647196912,-0.022101287775684098,5.393741543624939,0.9264572891177444,3
489,2024-09-23 20:58:14.053122048,TASK_BEGIN,015,0.1673538698228228,0.10789811109764733,-1.1153049910718142,0.645097300621484,-0.6628578655734382,-0.019715912359176163,5.740531451450581,0.9897731327303768,3
490,2024-09-23 20:58:15.006757120,TASK_BEGIN,015,0.15685792301667256,0.10934794641513719,-0.9696944484518979,0.5655881713307954,-0.6989056275290679,-0.015247322304880004,6.109795974095134,1.0216358534470082,3
491,2024-09-23 20:58:15.075581952,TASK_BEGIN,015,0.15503448362067151,0.10838217358652218,-0.8124564615208585,0.4798185195546644,-0.7229532121017281,-0.00876827116700546,6.486564360321808,1.0207238794029345,3
492,2024-09-23 20:58:15.143304192,TASK_BEGIN,015,0.16190669516371448,0.10483957673226658,-0.6502216519180734,0.39004231621719054,-0.733913782459704,-0.0004684166657493213,6.859940432717838,0.9864437500388397,3
493,2024-09-23 20:58:15.211049984,TASK_BEGIN,015,0.1770290288233089,0.09869700973470556,-0.49065062486708716,0.29853939802147916,-0.7314211319184777,0.009352144179954718,7.223277380979721,0.9191411524895735,3
494,2024-09-23 20:58:15.268304128,TASK_BEGIN,015,0.19961533366897147,0.09008461204838514,-0.3416418289143853,0.20749582777192177,-0.715790603982918,0.020300270488164535,7.573258198333995,0.8204386555204198,3
495,2024-09-23 20:58:15.346590208,TASK_BEGIN,015,0.22866327922180565,0.07928121188597158,-0.21055536807600764,0.11897344419224397,-0.6879691023812872,0.03189873348297311,7.908241732366333,0.6935416278332694,3
496,2024-09-23 20:58:15.414366976,TASK_BEGIN,015,0.26301288078366997,0.06670657044938785,-0.10363248573223723,0.034968466289557944,-0.6494517662293806,0.04358219471907501,8.226504621550456,0.5434186593367408,3
497,2024-09-23 20:58:16.332950272,TASK_BEGIN,015,0.3013391474361885,0.05292338341380187,-0.02569889595587161,-0.04248565739613067,-0.6021426753792649,0.05469480124715253,8.525061636782882,0.37678519984343695,3
498,2024-09-23 20:58:16.385678080,TASK_BEGIN,015,0.34214172645076757,0.038637511420052555,0.01989016633422326,-0.11126003350501514,-0.5481657804024883,0.06450619814601082,8.799390077054444,0.20185399903825116,3
499,2024-09-23 20:58:16.464052992,TASK_BEGIN,015,0.383796101532682,0.0246711866345243,0.031185784147117337,-0.16918630969385626,-0.48965209948727184,0.07224585365077733,9.043821876071737,0.027882580493780514,3
500,2024-09-23 20:58:16.536361728,TASK_BEGIN,015,0.424672463810837,0.011895758291729971,0.007564194494858859,-0.21420511016344185,-0.42853660293956275,0.07714731027581684,9.25217487043242,-0.13545083085203838,3
501,2024-09-23 20:58:16.598824960,TASK_BEGIN,015,0.4632724638810524,0.0011334511281178377,-0.05033249359143997,-0.2445256985095976,-0.36640252854085154,0.0785045685348282,9.418496953388269,-0.27885575164572324,3
502,2024-09-23 20:58:16.671859200,TASK_BEGIN,015,0.49833174479102127,-0.0069452353336291245,-0.14060061672114368,-0.2587582400977478,-0.30439506229414814,0.07574616566757121,9.537995276801952,-0.394388935047543,3
503,2024-09-23 20:58:16.738017024,TASK_BEGIN,015,0.528882320154857,-0.01190044328463375,-0.25997411085893163,-0.2560508580344286,-0.24319626545686557,0.06851901661838905,9.607971457839954,-0.47640135922284926,3
504,2024-09-23 20:58:17.678726144,TASK_BEGIN,015,0.554311207736862,-0.01356546298573984,-0.4036643470472644,-0.23624975755052327,-0.18305120939298636,0.05676469450745181,9.628344480787412,-0.5222510608136843,3
505,2024-09-23 20:58:17.740773888,TASK_BEGIN,015,0.5744313511770289,-0.012055359024372275,-0.5653353862761871,-0.2000288344738575,-0.12386253489234199,0.04077179366684244,9.601556446940716,-0.5326252830271475,3
506,2024-09-23 20:58:17.818822912,TASK_BEGIN,015,0.5895110579376687,-0.007745210990118974,-0.7374046905055648,-0.14891461716896787,-0.06537702167447637,0.021189179631976043,9.532002837041198,-0.5114011090729929,3
507,2024-09-23 20:58:17.886769920,TASK_BEGIN,015,0.6001849613601716,-0.0012190072872558604,-0.9116968272315386,-0.08517243803843315,-0.00744206081977998,-0.001010797255321396,9.42517276094347,-0.4650294583687537,3
508,2024-09-23 20:58:17.943332096,TASK_BEGIN,015,0.6072411534915688,0.006804002196965049,-1.080290838672151,-0.011571831690386235,0.049755000282774145,-0.02461733863452633,9.286688726319575,-0.4015232836517808,3
509,2024-09-23 20:58:18.022300160,TASK_BEGIN,015,0.6113703856460104,0.015551792108493709,-1.236286673257089,0.06889879884775173,0.10556447466953851,-0.04830053814056456,9.121651071913359,-0.329288137185975,3
510,2024-09-23 20:58:18.082142208,TASK_BEGIN,015,0.6129794214094969,0.02427615342924737,-1.374281068064398,0.15327548792236492,0.15890400420771456,-0.07074651882540431,8.934668587894073,-0.256114158505377,3
511,2024-09-23 20:58:19.033019136,TASK_BEGIN,015,0.6121097517872248,0.03231209500850607,-1.4905284962861471,0.23876092332902718,0.20839097030813813,-0.09078486523147156,8.730458362726145,-0.1885296398583826,3
512,2024-09-23 20:58:19.090121984,TASK_BEGIN,015,0.6084380865326421,0.0391152668760316,-1.582859561243132,0.3227623115549063,0.2524932680244746,-0.107476689620566,8.514446224267221,-0.13150589362675577,3
513,2024-09-23 20:58:19.166922240,TASK_BEGIN,015,0.6013214024259558,0.04428104020393596,-1.6504717190603369,0.4028695869467882,0.289639864722621,-0.1201389669091295,8.292869652080347,-0.0883935863293725,3
514,2024-09-23 20:58:19.228922112,TASK_BEGIN,015,0.5898754755719968,0.04755295469385547,-1.6937705443002349,0.4768542230595726,0.3182898182547902,-0.12831280107394374,8.07230277758881,-0.06097443241154778,3
515,2024-09-23 20:58:19.304102144,TASK_BEGIN,015,0.5730952228930432,0.04882252381531815,-1.714358867970651,0.542764772534863,0.3370016749689815,-0.13171528502809543,7.858834678563512,-0.04956509753055145,3
516,2024-09-23 20:58:19.371856896,TASK_BEGIN,015,0.5500061617224292,0.04811707927029688,-1.7150723563083776,0.5991350201775827,0.3445371628182347,-0.13021601429392646,7.6572492087552515,-0.05319113936258133,3
517,2024-09-23 20:58:19.429918976,TASK_BEGIN,015,0.5198063773352933,0.045578249449241756,-1.699914903554821,0.6452364952635274,0.33998708880965484,-0.1238471217597,7.470522615256013,-0.06987125193527345,3
518,2024-09-23 20:58:20.379013888,TASK_BEGIN,015,0.4819768852948004,0.041439024566641204,-1.6738443787962776,0.681251812495298,0.32287258740261043,-0.11282186720662502,7.2996630915674325,-0.09697272512632665,3
519,2024-09-23 20:58:20.440138240,TASK_BEGIN,015,0.4363841984972038,0.03600221227668606,-1.6424257257472488,0.7082723574981268,0.2931943991201562,-0.09753822306201743,7.143669321163692,-0.13153542043394797,3
520,2024-09-23 20:58:20.518147072,TASK_BEGIN,015,0.38338537458418165,0.029620463116491996,-1.611444538190199,0.7281374385305602,0.2514607709285807,-0.07856822591232832,6.999527349716106,-0.17048030241594467,3
521,2024-09-23 20:58:20.581037056,TASK_BEGIN,015,0.3238829880346498,0.022683506444350958,-1.5866201910441489,0.7432142646651856,0.19872713852454563,-0.056640904460600355,6.862327598486844,-0.21067784038974077,3
522,2024-09-23 20:58:20.654297088,TASK_BEGIN,015,0.25927311531457936,0.015616755121125078,-1.5734036453184057,0.7561636783320558,0.13660697394105456,-0.032618301024157595,6.725583900481905,-0.24893871254327785,3
523,2024-09-23 20:58:20.720295936,TASK_BEGIN,015,0.19130244900359028,0.00888526233631682,-1.5766502558926656,0.7696528762342123,0.06717719805067271,-0.007460301610044316,6.581910383431009,-0.28205280769301894,3
524,2024-09-23 20:58:20.782296832,TASK_BEGIN,015,0.12190613461324637,0.002993493614469501,-1.6000238034350438,0.786011023127598,-0.007233299256336337,0.01782881412175258,6.424087236588488,-0.306937972967687,3
525,2024-09-23 20:58:21.690493952,TASK_BEGIN,015,0.05308675255058607,-0.0015256100692492196,-1.6452629911847647,0.806906241307614,-0.0842805113157846,0.042273723481057984,6.246149903879417,-0.3208233051930823,3
526,2024-09-23 20:58:21.770906880,TASK_BEGIN,015,-0.013147308622588373,-0.004139807471994329,-1.711626160855148,0.8331224648270864,-0.16173948862163207,0.06500182984159959,6.0441626056695865,-0.3213690032019663,3
527,2024-09-23 20:58:21.841562880,TASK_BEGIN,015,-0.07480852408425152,-0.004370140140019855,-1.7957410783678245,0.8644561911466874,-0.2374930743289212,0.08529014714322271,5.8167916612929655,-0.3067218962015087,3
528,2024-09-23 20:58:21.907508992,TASK_BEGIN,015,-0.1299776189265263,-0.001854718575657343,-1.8918388048044508,0.8997097370160461,-0.3094614979426943,0.10257900244222448,5.565797359748032,-0.2755614436673807,3
529,2024-09-23 20:58:21.969993984,TASK_BEGIN,015,-0.1769154067013238,0.003605457716810242,-1.992190459229839,0.9367439087606536,-0.3755880785915795,0.1164663581264622,5.296120116357508,-0.227166553983191,3
530,2024-09-23 20:58:22.044940800,TASK_BEGIN,015,-0.21421764588817233,0.01203909590243708,-2.08759681794904,0.9725765035055992,-0.43390295364564774,0.12669433081404924,5.015271343089765,-0.16151187546193613,3
531,2024-09-23 20:58:22.109193984,TASK_BEGIN,015,-0.2409307127147961,0.02332606020884962,-2.1679461301288314,1.0035628893506918,-0.48259317133650315,0.13312934750578556,4.732349727230512,-0.07940795483336421,3
532,2024-09-23 20:58:23.056045056,TASK_BEGIN,015,-0.25655587264607393,0.037217041314716086,-2.222962846939236,1.0256924144425004,-0.520015912236021,0.13573799027202157,4.457345677024254,0.017304447717363558,3
533,2024-09-23 20:58:23.109525760,TASK_BEGIN,015,-0.26094738215268154,0.053329905895898144,-2.243173737016897,1.0349563234936918,-0.5446776367311535,0.1345696070098241,4.201057453224,0.12554019033272437,3
534,2024-09-23 20:58:23.187191040,TASK_BEGIN,015,-0.2541846653191806,0.07113035910499156,-2.2209374186646005,1.0276997894225268,-0.5552636284373779,0.12975782354300933,3.975305369562343,0.24084586683395995,3
535,2024-09-23 20:58:23.248292864,TASK_BEGIN,015,-0.23650652141177778,0.0899241643184497,-2.151279574394132,1.000909311200086,-0.5507673047100102,0.1215384578520978,3.792811492404306,0.35750924133875617,3
536,2024-09-23 20:58:23.327190016,TASK_BEGIN,015,-0.2083391063873289,0.10888544716965863,-2.0323347838255503,0.9524306781422709,-0.5306741048786903,0.11026459646239718,3.666420154841774,0.46896300738670826,3
537,2024-09-23 20:58:23.387564032,TASK_BEGIN,015,-0.17038178524908343,0.1271298966936212,-1.8654286952404655,0.8811349759712206,-0.4951101608631878,0.09640080590935632,3.6078862331903894,0.5684036779615526,3
538,2024-09-23 20:58:23.449628160,TASK_BEGIN,015,-0.12368462215803797,0.1438197960137813,-1.6549923964662874,0.787058642801917,-0.44490730317446436,0.08049521640162965,3.6266152018178794,0.6494782010932441,3
539,2024-09-23 20:58:24.394231808,TASK_BEGIN,015,-0.06967853719231382,0.15827064694932277,-1.4083966436929092,0.6715217030446661,-0.38158839201211886,0.06314081868862863,3.7285146464341383,0.7069086211802965,3
540,2024-09-23 20:58:24.472337920,TASK_BEGIN,015,-0.010164085002157434,0.17003115121219234,-1.1356618666587512,0.5372036813635572,-0.3072900703838314,0.04494171093926458,3.9149784151813996,0.7369468901536059,3
541,2024-09-23 20:58:24.541701888,TASK_BEGIN,015,0.05273745297047371,0.17892073587669138,-0.8490330586482479,0.38815903963721127,-0.2246474780308181,0.026501684522565967,4.182102934691997,0.7375834915299284,3
542,2024-09-23 20:58:24.608369152,TASK_BEGIN,015,0.11669370446033919,0.1850182492175188,-0.5624209986906626,0.22974460461805504,-0.13667554539737167,0.008443029637073022,4.520335843008491,0.7085445522094972,3
543,2024-09-23 20:58:24.677291008,TASK_BEGIN,015,0.17933664819771386,0.18860563700443553,-0.2905967069557988,0.06839564284499959,-0.04665837123928503,-0.008561740483376443,4.914716649556259,0.6512284089812175,3
544,2024-09-23 20:58:24.732059136,TASK_BEGIN,015,0.2384654863811523,0.19008139160238785,-0.048052437390569504,-0.0887935711146537,0.041973331003509196,-0.023782186337906228,5.345725085694076,0.5686729204878652,3
545,2024-09-23 20:58:24.809290752,TASK_BEGIN,015,0.2922305958319917,0.1898657195287512,0.15223379349143454,-0.23461379964164614,0.12578534583647433,-0.03647019517010346,5.790661103431067,0.4654682664177509,3
546,2024-09-23 20:58:25.751378176,TASK_BEGIN,015,0.33927629133247095,0.18832235302111466,0.29965807998283417,-0.3622589142423506,0.20148132671681637,-0.04593267214004384,6.225429914914907,0.34751569856674525,3
547,2024-09-23 20:58:25.812915968,TASK_BEGIN,015,0.3788400010077709,0.18571460218406147,0.38625991027635265,-0.46574195288894943,0.2660261001651494,-0.05159925637362454,6.626518310801397,0.2216819776734874,3
548,2024-09-23 20:58:25.890885888,TASK_BEGIN,015,0.41080727767460595,0.182195153727121,0.40664722896260946,-0.5402531346673762,0.31677576044295397,-0.05306988310043318,6.972891181640089,0.09543844077431791,3
549,2024-09-23 20:58:25.952893184,TASK_BEGIN,015,0.43570909834377153,0.17781837085008798,0.3579395620013093,-0.58250740896807,0.3516500682506942,-0.050159347820691265,7.247583950436362,-0.023540703343672437,3
550,2024-09-23 20:58:26.027381760,TASK_BEGIN,015,0.45463629089268565,0.17256838764973215,0.23989280413588282,-0.5910409384630574,0.3693295032115526,-0.04295036129517887,7.4388551190873455,-0.1278923452896219,3
551,2024-09-23 20:58:26.095185920,TASK_BEGIN,015,0.46905677902041243,0.16640053851407452,0.05521594890682775,-0.566369259306094,0.3694032566165066,-0.03182937965766685,7.540778559324032,-0.21115555568037758,3
552,2024-09-23 20:58:26.162969856,TASK_BEGIN,015,0.48056004464560903,0.15928964026816303,-0.19001214638922567,-0.5109616196374203,0.35240043617577155,-0.01746334993499922,7.553158042907485,-0.2683054992017903,3
553,2024-09-23 20:58:27.093757952,TASK_BEGIN,015,0.49060453578057706,0.1512735749730075,-0.4860933900725471,-0.4290416275589126,0.319703891774589,-0.0007100685572855242,7.480787591360361,-0.2961112802249884,3
554,2024-09-23 20:58:27.174444800,TASK_BEGIN,015,0.5003577967939447,0.142479007317541,-0.8199533991908664,-0.3262385035008798,0.2734114870737874,0.017496865418174336,7.332355423030135,-0.2932707852178932,3
555,2024-09-23 20:58:27.231998976,TASK_BEGIN,015,0.5106499773150418,0.1331214365950063,-1.1759800525597983,-0.20912365060256846,0.2161862069045444,0.03624128044425554,7.119470941284322,-0.26034499566286634,3
556,2024-09-23 20:58:27.309701888,TASK_BEGIN,015,0.5219705266179366,0.12348493402962012,-1.5372656101633697,-0.08469655031393855,0.1510610636562512,0.054680343369667456,6.856095355062716,-0.1995574221104346,3
557,2024-09-23 20:58:27.377672960,TASK_BEGIN,015,0.5344382455040154,0.11389731698480084,-1.886953924946225,0.04011312403171688,0.08117137697287347,0.0720736525260819,6.558215154913533,-0.11454090161070009,3
558,2024-09-23 20:58:27.434155008,TASK_BEGIN,015,0.5477562300050258,0.10471526167720459,-2.20949916417662,0.15890259731355746,0.009460358485265741,0.08780435465273065,6.243392494291141,-0.010102333264504578,3
559,2024-09-23 20:58:27.512662784,TASK_BEGIN,015,0.5612186119368188,0.09632224681085111,-2.4917715194099324,0.26622398046359064,-0.06156600483249914,0.10141003666697594,5.930012313236423,0.1079875792540887,3
560,2024-09-23 20:58:28.432606976,TASK_BEGIN,015,0.5738139136758887,0.0891262369310945,-2.7239326597623426,0.35797396414562466,-0.12997838097649128,0.11262591056507763,5.636353130291867,0.23323968412433188,3
561,2024-09-23 20:58:28.497030144,TASK_BEGIN,015,0.5844001937210997,0.08353989742570206,-2.899924803445021,0.4316748441214231,-0.19444393450397812,0.1214208697420125,5.379668334105465,0.35878561082035715,3
562,2024-09-23 20:58:28.558388992,TASK_BEGIN,015,0.5918772944983947,0.07994556721931785,-3.01747105989622,0.4865624304021678,-0.2541648902476086,0.1280029618328371,5.175288314555075,0.4778121156658458,3
563,2024-09-23 20:58:28.621346816,TASK_BEGIN,015,0.5953062067285618,0.07866640856494074,-3.0776587455747757,0.52347014050234,-0.3087888613362561,0.1327893726026156,5.035739339943367,0.5840159514457697,3
564,2024-09-23 20:58:28.698080000,TASK_BEGIN,015,0.5939968993068195,0.07995545548690046,-3.0842595725713955,0.5445616911047676,-0.358312845809889,0.1363522801580991,4.970007300311246,0.6719657857969811,3
565,2024-09-23 20:58:28.760566784,TASK_BEGIN,015,0.5876073286577617,0.08399264612471567,-3.0429151072275187,0.5529427705696858,-0.4029767252292446,0.13934808665912454,4.982993180239942,0.7373238185892153,3
566,2024-09-23 20:58:28.838285824,TASK_BEGIN,015,0.5762333893099193,0.09087806456377108,-2.960318697019985,0.552154703923233,-0.4431463443785462,0.1424318618501798,5.075040427404665,0.7769871055880271,3
567,2024-09-23 20:58:29.779141888,TASK_BEGIN,015,0.5604194738862606,0.10062084962097403,-2.8435067447695794,0.5456037263977868,-0.4792019084626636,0.1461702434778978,5.241492876404867,0.789199132498902,3
568,2024-09-23 20:58:29.849929984,TASK_BEGIN,015,0.5410651064409661,0.11312577223932112,-2.6993052186762183,0.5360538175416084,-0.5114494353464025,0.15097683894478148,5.472475423135623,0.7735799307299236,3
569,2024-09-23 20:58:29.917650944,TASK_BEGIN,015,0.5192775207737307,0.12817796494612865,-2.5339478190008484,0.5252999340603245,-0.540059886923129,0.15708555589012432,5.753248610067433,0.7310061002060381,3
570,2024-09-23 20:58:29.979531008,TASK_BEGIN,015,0.49623881637045075,0.1454283917595093,-2.3528604870548886,0.5140581211444675,-0.5650355809851337,0.16455877054310758,6.065511111969483,0.6633308535348504,3
571,2024-09-23 20:58:30.053156096,TASK_BEGIN,015,0.4731351084369021,0.1643799286825463,-2.160602218279878,0.5020681911272059,-0.5862161777329365,0.1733132073702044,6.389796626408874,0.572954070023589,3
572,2024-09-23 20:58:30.118968064,TASK_BEGIN,015,0.45115562005556026,0.18437262602555538,-1.9610107142305548,0.48840285390596766,-0.6033405337556564,0.18314375383013992,6.7085503698024285,0.4623145675213627,3
573,2024-09-23 20:58:30.180028928,TASK_BEGIN,015,0.4315181376222259,0.20457903637750813,-1.7575869976026877,0.47193118561822295,-0.6161579965892351,0.19373754662943882,7.008918065100276,0.333514846017261,3
574,2024-09-23 20:58:31.132180992,TASK_BEGIN,015,0.41545619073553425,0.22403048248030524,-1.5539903097166758,0.4517966888583442,-0.6245550265674157,0.20468780500412667,7.28420708968889,0.18830063956207976,3
575,2024-09-23 20:58:31.199976192,TASK_BEGIN,015,0.4041408175931413,0.24168397246537426,-1.35439888271842,0.42774082928406204,-0.6286472702529113,0.215520225884149,7.533481876885716,0.028428307452301693,3
