,time,MARKER,pid,L_O_DSI,L_D_DSI,L_O_DSphi,L_D_DSphi,R_O_DSI,R_D_DSI,R_O_DSphi,R_D_DSphi,trial_id
0,2024-09-23 20:56:40.925549072,TASK_BEGIN,015,1.469174028059791,0.12797313672968846,-0.27179975436279,0.5332209689496866,1.5881810353265433,-0.11578019105571964,-4.560660600672821,-0.09146542571029881,3
1,2024-09-23 20:56:40.995780029,0,015,1.370169631038442,0.1346518026391981,-0.36500028745686325,0.5364748634977146,1.4924724667671645,-0.054681880979092684,-4.189900987415289,-0.10929781741987629,3
2,2024-09-23 20:56:41.066080078,0,015,1.272669226711446,0.13902524478077788,-0.44335528544287545,0.5393652292565804,1.3960670176577528,4.33371975581365e-06,-3.8947011490317918,-0.11963854780926997,3
3,2024-09-23 20:56:41.132583008,0,015,1.1787677557323921,0.14085391090570715,-0.5064543264151269,0.5408089763450517,1.3008751651083974,0.04691734474293612,-3.682289706050563,-0.12183219493154404,3
4,2024-09-23 20:56:41.196561035,0,015,1.0899265402708511,0.14013060973837038,-0.5550580066000617,0.5398087684165044,1.2086644652613385,0.08522832773865288,-3.555663659161694,-0.11584333483898226,3
5,2024-09-23 20:56:41.266072998,0,015,1.006944377082833,0.1370652471034863,-0.5909579885768916,0.5356553863784781,1.120977391430662,0.11465723080474581,-3.514777341798223,-0.10191405178505937,3
6,2024-09-23 20:56:41.335551025,0,015,0.9299886425288113,0.13205417307274844,-0.6167606715291278,0.5280245955065492,1.039089825686682,0.1354397846194661,-3.5577467860119887,-0.08021436577532587,3
7,2024-09-23 20:56:42.274302979,0,015,0.8587087482634268,0.1256356789183952,-0.6355653248208486,0.5169466272600638,0.9640350292354704,0.14824072709891403,-3.6813978052825203,-0.050687818070495765,3
8,2024-09-23 20:56:42.337169922,0,015,0.7924112509782893,0.11842894948364784,-0.6505133991912759,0.5026894935983458,0.8966794267451297,0.1540237386985099,-3.8810990832410566,-0.013158892269461334,3
9,2024-09-23 20:56:42.415278076,0,015,0.7302210346385584,0.11106558856188162,-0.6642994465485811,0.48561363323865936,0.8377751799021668,0.15391170355698439,-4.150377613129813,0.03243759475400638,3
10,2024-09-23 20:56:42.486886963,0,015,0.6711748331630342,0.10413255050056536,-0.6788541261628048,0.46607002295002575,0.7878928168355483,0.1490785851613828,-4.480749053832623,0.08588150156886183,3
11,2024-09-23 20:56:42.554657959,0,015,0.6142693314255192,0.0981387418807616,-0.6953628611597019,0.44441641514143443,0.7472107942339578,0.14068947100588808,-4.8618627673229255,0.14660284295281936,3
12,2024-09-23 20:56:42.616456055,0,015,0.5585236143363136,0.09350131802133116,-0.714576331374945,0.4211497767609552,0.7152628168820665,0.12987027781299654,-5.2819468399166185,0.21369235490182834,3
13,2024-09-23 20:56:42.690268066,0,015,0.5030833060714586,0.09053494324173016,-0.7372245648299344,0.39705990556869325,0.6907944327061978,0.11767676337122357,-5.728428618717045,0.28592191858984783,3
14,2024-09-23 20:56:43.596735840,0,015,0.44733352171456636,0.08943094374761691,-0.7644013309392513,0.37331176564805346,0.6718144651970435,0.10504699964228117,-6.188461451052618,0.36172590933615445,3
15,2024-09-23 20:56:43.674901123,0,015,0.3909610568907375,0.09023183685914132,-0.7978647630109306,0.35142103844591344,0.6558303106514056,0.0927433389912732,-6.649275133176843,0.43918151550633683,3
16,2024-09-23 20:56:43.736493164,0,015,0.3339365974903796,0.09281997745880226,-0.8401261008928197,0.33311294238591566,0.6401947521593953,0.08130414999246094,-7.098497676892839,0.5160672384704036,3
17,2024-09-23 20:56:43.799635986,0,015,0.2764429113490429,0.09693398718570635,-0.8941642229056036,0.3200840785515944,0.6224667002304772,0.07102633224985548,-7.524432940782436,0.589992862300541,3
18,2024-09-23 20:56:43.877248047,0,015,0.21881212426907254,0.10220970756131781,-0.9628315588157685,0.31375880127331535,0.6007107116540555,0.06198636508404087,-7.916147489909915,0.6585367119451928,3
19,2024-09-23 20:56:43.939321045,0,015,0.16152480104235692,0.10822803965565395,-1.0482723532967466,0.31516530271035414,0.5736986736417112,0.05409007592097711,-8.263496543652154,0.719393231392333,3
20,2024-09-23 20:56:44.000863037,0,015,0.10526176761275496,0.11455123221177195,-1.1516127223635155,0.3249752544323389,0.5409750568387841,0.04713697712848303,-8.557430320586542,0.7705786984629892,3
21,2024-09-23 20:56:44.931605957,0,015,0.050941806158736905,0.12074116574852052,-1.272928536920121,0.3436237811149058,0.5027561849791485,0.040891805375529694,-8.790675104767969,0.810652991646119,3
22,2024-09-23 20:56:44.997972900,0,015,-0.00031394710740937417,0.12636760216033072,-1.41137917692802,0.3713919043201881,0.45970690382533985,0.03515434045368122,-8.958532637186217,0.838821394854989,3
23,2024-09-23 20:56:45.060295166,0,015,-0.04729297531558352,0.1310221285653124,-1.5654136112841333,0.40841106983810765,0.4126920534167017,0.029812163143377722,-9.059467718904173,0.8548419033108858,3
24,2024-09-23 20:56:45.121887939,0,015,-0.08883376418624092,0.13434882329595105,-1.7329523108447864,0.4546276927653749,0.3625697806418258,0.024866056144129834,-9.095264671424848,0.858812877270699,3
25,2024-09-23 20:56:45.202742188,0,015,-0.12395547639965558,0.1360867229553867,-1.911443955596263,0.5097614756677293,0.31004173102127686,0.0204294597018607,-9.070667421263632,0.8509775598138265,3
26,2024-09-23 20:56:45.260297119,0,015,-0.1519641337684633,0.1361063516531788,-2.0977936467410214,0.5732513955407146,0.25556707977342386,0.016709767913585357,-8.992536962254984,0.831616296619479,3
27,2024-09-23 20:56:45.338340088,0,015,-0.17254489290584182,0.13442644625694894,-2.2882956940386836,0.6441880552169434,0.19935927934476694,0.013979830289540708,-8.868622406037048,0.8010012913135208,3
28,2024-09-23 20:56:46.275511962,0,015,-0.18583038393031664,0.13121124826441669,-2.4786770440137045,0.7212514727464255,0.14146892358774787,0.012546601158233972,-8.706076476062647,0.7593540897681659,3
29,2024-09-23 20:56:46.337037109,0,015,-0.19240837169048083,0.12675604167956153,-2.6641784517948857,0.8026548786892667,0.08192221776002598,0.012720490110059103,-8.509949402701686,0.7067849453610603,3
30,2024-09-23 20:56:46.417322998,0,015,-0.19324767006292207,0.12146477765757235,-2.83952546102669,0.8860843985983577,0.020872901783050058,0.01478297624387289,-8.282034347723618,0.6432520880853554,3
31,2024-09-23 20:56:46.485068115,0,015,-0.18956983412921702,0.11581920316279294,-2.9987847622147243,0.9686715571721489,-0.04125605622330301,0.018946133722550326,-8.020449382179129,0.5686002423634011,3
32,2024-09-23 20:56:46.552854980,0,015,-0.182716146307682,0.1103399982095404,-3.1353095479537556,1.047086957889531,-0.1036486229320541,0.025303191826980896,-7.720149793020083,0.48270409656413327,3
33,2024-09-23 20:56:46.612510009,0,015,-0.17403300499182447,0.10554293549848971,-3.2420108487360797,1.117808256267432,-0.1650135757822347,0.033783664895212506,-7.374298593263827,0.38568867333495027,3
34,2024-09-23 20:56:46.674992920,0,015,-0.16476522370735844,0.10189342008660231,-3.3119821717277644,1.1774962408594862,-0.2235869822504597,0.044132611180664624,-6.976245866991592,0.2781856908483322,3
35,2024-09-23 20:56:47.631575195,0,015,-0.1559445605138862,0.09976101978644714,-3.339277952366642,1.2233351771082728,-0.27722817184639803,0.05591761153798054,-6.521764000280893,0.16159440650275206,3
36,2024-09-23 20:56:47.691448975,0,015,-0.14829000784265617,0.09937579127077287,-3.319629570048021,1.2532412203002867,-0.3235685243644234,0.06855074479979473,-6.011084614546163,0.03827895766968435,3
37,2024-09-23 20:56:47.755764893,0,015,-0.14216701561039907,0.10079548525288747,-3.250994361771997,1.2659336588160053,-0.36018520945092203,0.08132012607844952,-5.450263134970164,-0.08839684161793751,3
38,2024-09-23 20:56:47.831822021,0,015,-0.13763910691519346,0.10389917728005056,-3.1338818302791913,1.2609033305056587,-0.3848086562398614,0.09343940344054284,-4.8515993493539975,-0.21424305726321824,3
39,2024-09-23 20:56:47.892875977,0,015,-0.13458304434620616,0.10841467889691919,-2.971412098782864,1.238331757424155,-0.3955599022736927,0.10412051481359455,-4.233141450614796,-0.3345989366353075,3
40,2024-09-23 20:56:47.970103027,0,015,-0.13279826217438778,0.11396993882582958,-2.769156360302822,1.1990439452251287,-0.39118523497465013,0.11266161397957167,-3.6173948718413564,-0.4448140445892326,3
41,2024-09-23 20:56:48.038321045,0,015,-0.13207466210415977,0.12015063905622553,-2.5348878439750755,1.1445455226067223,-0.3712595490196366,0.11853470424020437,-3.029391077248463,-0.5407546527530204,3
42,2024-09-23 20:56:48.976666016,0,015,-0.1322428190805142,0.12655189897676747,-2.2782622412476217,1.0770823165612657,-0.33633620613687004,0.12145793845912577,-2.4944958825104995,-0.6191810635876999,3
43,2024-09-23 20:56:49.038660889,0,015,-0.13324485292455884,0.13282246246794777,-2.0102980239807464,0.9996066098234295,-0.28801200403907445,0.12144050156083044,-2.036360869494248,-0.6779067905988616,3
44,2024-09-23 20:56:49.117416016,0,015,-0.13522365903300776,0.1387042107191305,-1.7425969254076847,0.9156100526170976,-0.22888809733045914,0.11879341568874041,-1.675053771401077,-0.7158155614720016,3
45,2024-09-23 20:56:49.176913086,0,015,-0.13857507985652132,0.14406162824627766,-1.4864323813569644,0.8288627278932305,-0.16242919168067535,0.11410326096355711,-1.4252629402383845,-0.7328516492161936,3
46,2024-09-23 20:56:49.239397949,0,015,-0.14389943350823797,0.14888339826327487,-1.2518812413091787,0.7430981016002103,-0.09272432361481939,0.10816693869546398,-1.2947928117588072,-0.7299660443744407,3
47,2024-09-23 20:56:49.320698975,0,015,-0.15185115266291052,0.1532431835068554,-1.0470810695780597,0.6616641365693036,-0.024180998293935527,0.10189936307315584,-1.28373034357322,-0.7089478614982351,3
48,2024-09-23 20:56:49.388482178,0,015,-0.1629605339148158,0.15723308103614106,-0.8776387667626259,0.5871747560489678,0.038764308821198086,0.09624560985869547,-1.3843904636939577,-0.6721964606874559,3
49,2024-09-23 20:56:50.318006104,0,015,-0.17750637566173283,0.16090414073648932,-0.746267000259405,0.5212392954287544,0.09186769781275547,0.09212032654956363,-1.5819186528889293,-0.6225691189064525,3
50,2024-09-23 20:56:50.399718018,0,015,-0.19546010905232772,0.1642404450272115,-0.6527749550192157,0.46437188422535897,0.1312808813200707,0.09036425002153614,-1.8554619478750585,-0.5633426040300277,3
51,2024-09-23 20:56:50.467480957,0,015,-0.21647846743544968,0.167169278574518,-0.5944812646271329,0.41613101209413383,0.1538035912215864,0.09169360199112327,-2.1798169377713323,-0.49820434514480016,3
52,2024-09-23 20:56:50.535214844,0,015,-0.2399275776574038,0.16959577531145906,-0.5670050777912132,0.37544179068839095,0.15715727996580356,0.09663319283568382,-2.5273382406285245,-0.43117480373506084,3
53,2024-09-23 20:56:50.593528076,0,015,-0.2649465797617195,0.1714497053960527,-0.5653066471481544,0.34099822265314905,0.14018616182720764,0.10544211190418502,-2.8698394040210506,-0.36642051529152403,3
54,2024-09-23 20:56:50.655584961,0,015,-0.290557418678077,0.17273161368566023,-0.5847657186299731,0.31164701919928645,0.10293880780269424,0.11805087878279184,-3.180308572897858,-0.3079805861647397,3
55,2024-09-23 20:56:50.733280029,0,015,-0.31578914321477247,0.17354188173029733,-0.6220255618303507,0.28667120174221217,0.046655414544570034,0.13403587016971455,-3.4343894332482887,-0.25949117649271225,3
56,2024-09-23 20:56:51.681998047,0,015,-0.3397611779880676,0.17408046440044278,-0.6753687693422173,0.26591395781898164,-0.026306665714508272,0.1526523042479204,-3.6115876916553233,-0.2240181378263406,3
57,2024-09-23 20:56:51.737869141,0,015,-0.3617063134159908,0.17462097745700525,-0.7445313336018607,0.24973635558875698,-0.11260531935814837,0.17292261197247916,-3.696110445992012,-0.204025857316759,3
58,2024-09-23 20:56:51.815509032,0,015,-0.3809725736301367,0.17547604421539303,-0.8300931583035388,0.23886252024483368,-0.2081141791279405,0.19375091265729724,-3.677386144895153,-0.20137498625834857,3
59,2024-09-23 20:56:51.876694824,0,015,-0.39705268883125544,0.17696906380577454,-0.9327968138892562,0.2341761420252026,-0.3081904836950526,0.2140290748654653,-3.5505190248138057,-0.21721855673953838,3
60,2024-09-23 20:56:51.938236084,0,015,-0.40964400545594876,0.17941745500517897,-1.0530955049785944,0.23650507888602587,-0.407975429814663,0.23271213828579404,-3.316800334038589,-0.2517844660085838,3
61,2024-09-23 20:56:52.021019043,0,015,-0.4186926143981026,0.18312406830988354,-1.1909247717493228,0.24642404053353084,-0.5026703800199324,0.24885721757343626,-2.9840734616124522,-0.3041556348840689,3
62,2024-09-23 20:56:52.077886963,0,015,-0.42437089528894656,0.18836757864178294,-1.3454985831872386,0.2641068304887198,-0.5877632509222993,0.26163536003468624,-2.566703198477982,-0.3721756561136453,3
63,2024-09-23 20:56:53.032028809,0,015,-0.42698724839294694,0.19538195427144556,-1.5150354459615696,0.2892303312044683,-0.6592236346902618,0.270334034496137,-2.0850469120708364,-0.4525245590616352,3
64,2024-09-23 20:56:53.099860107,0,015,-0.42688236289962755,0.2043229455876565,-1.6964780096823702,0.3208993983100902,-0.7136829825252294,0.27436353301897703,-1.5643320172270188,-0.5409278152693605,3
65,2024-09-23 20:56:53.163656006,0,015,-0.4243610056647721,0.2152284098356787,-1.8852797703098347,0.3575776018799099,-0.7485882571866204,0.2732726107078113,-1.0329157509662676,-0.632445605986117,3
66,2024-09-23 20:56:53.225662842,0,015,-0.41965170432656174,0.2279820361008656,-2.0753140353273505,0.39706987931041793,-0.7623155537064069,0.266776866288336,-0.5202438206903627,-0.7217937119925009,3
67,2024-09-23 20:56:53.287714844,0,015,-0.41285631696795433,0.242289364851221,-2.259004614377793,0.4366342641152911,-0.7542504607450567,0.25480111411111656,-0.05495495360087727,-0.8036568687118039,3
68,2024-09-23 20:56:53.370934082,0,015,-0.40388244392187544,0.25767358967862974,-2.4277674036579038,0.473248448783173,-0.7248448454606524,0.2375257867155017,0.33678819587091796,-0.8730043503399544,3
69,2024-09-23 20:56:53.438662109,0,015,-0.39239789830644917,0.2734958645057792,-2.5727174305874203,0.5039707410483283,-0.675636627227596,0.21541480237447125,0.6329709488130073,-0.9254530230493682,3
70,2024-09-23 20:56:54.349013184,0,015,-0.3778541759500217,0.2890012839070516,-2.685470736161276,0.5262858334013965,-0.6092013400575224,0.18920599605443134,0.8174057191525924,-0.9576560757693043,3
71,2024-09-23 20:56:54.424006104,0,015,-0.359590962164675,0.3033871425583754,-2.7588928109906647,0.5383415357826984,-0.5290109545945708,0.1598653854405302,0.8810389875555844,-0.9675970946673675,3
72,2024-09-23 20:56:54.491785156,0,015,-0.336980725571187,0.3158816898776358,-2.787738578423048,0.5390506668088281,-0.4391929093074034,0.12852088080181442,0.8226068320510314,-0.9547173081527498,3
73,2024-09-23 20:56:54.558985840,0,015,-0.30954345339441663,0.3258128468455551,-2.7691385046292023,0.5280871048871637,-0.3442088035977475,0.09639014633364697,0.6487865143346759,-0.9199390694420095,3
74,2024-09-23 20:56:54.622284912,0,015,-0.27699528076549357,0.3326491654279435,-2.7028456105773846,0.5058045360006029,-0.2485011289234319,0.06471078491809537,0.37403559806996955,-0.8656371893999664,3
75,2024-09-23 20:56:54.683185059,0,015,-0.2392569260809134,0.33601078340986734,-2.591201744738085,0.47311086989086854,-0.1561494812491972,0.03467239738778538,0.01997979982452851,-0.7955066701991799,3
76,2024-09-23 20:56:54.760818115,0,015,-0.19646618581132225,0.3356628403722104,-2.4388678191277977,0.43136510649033577,-0.07055899030636878,0.007344251211766887,-0.3858771535346733,-0.7142854643146247,3
77,2024-09-23 20:56:55.669408203,0,015,-0.14900916973907963,0.3315103848901638,-2.252381577027601,0.3823461641715397,0.00576356581561043,-0.016399190078615726,-0.8121212396417781,-0.6273492854456366,3
78,2024-09-23 20:56:55.747031006,0,015,-0.0975497358039169,0.3236101441186969,-2.039594441162686,0.3282603655123895,0.07126556326635043,-0.035936820551674645,-1.2259218164195114,-0.5401834494493242,3
79,2024-09-23 20:56:55.809066162,0,015,-0.04302225979308396,0.3121963465974007,-1.8090590678013538,0.27169438671541774,0.1252298532146597,-0.050926525441449294,-1.5958068395203298,-0.45775728261803833,3
80,2024-09-23 20:56:55.870624023,0,015,0.013427428471537104,0.29769644684107405,-1.5694626009562824,0.21543811556909362,0.16757606497566288,-0.06130139887886464,-1.8942590664194272,-0.3839480174820463,3
81,2024-09-23 20:56:55.952467041,0,015,0.0705331025141999,0.2807137142834693,-1.3291573363283784,0.16218440489742397,0.1986830413175922,-0.06725330371605547,-2.0996652763441586,-0.32121741691017275,3
82,2024-09-23 20:56:56.009907959,0,015,0.12700657776450627,0.2619765519122133,-1.095734966070395,0.11420046231037963,0.21926689762981022,-0.06921133657087924,-2.1975355227808677,-0.270612874714156,3
83,2024-09-23 20:56:56.087989014,0,015,0.1816466997487158,0.24226738079372384,-0.8755788245740183,0.07307356923044736,0.23030595972877135,-0.06780850051741173,-2.1811867632016413,-0.23199443423424,3
84,2024-09-23 20:56:57.031302002,0,015,0.23347103235756425,0.22233845145904252,-0.6734748563235795,0.03957051016470698,0.23300430216381807,-0.0638311182034877,-2.05198269410887,-0.20436151588500356,3
85,2024-09-23 20:56:57.095032959,0,015,0.2818425160243427,0.2028250763600608,-0.49246009652323625,0.013615019078590983,0.22877410311867796,-0.05815557205153915,-1.81905855001841,-0.18622468276494938,3
86,2024-09-23 20:56:57.163599121,0,015,0.3265205675073933,0.1841835347254679,-0.3339737772237742,-0.005619999573077527,0.21918719381878174,-0.05167880536206676,-1.4984556134292977,-0.1759933208024988,3
87,2024-09-23 20:56:57.225166992,0,015,0.3675936666915439,0.16667999670856704,-0.19818707072147745,-0.019544295974162237,0.20586728716038777,-0.04524670208556994,-1.1116640913754456,-0.17230323510840065,3
88,2024-09-23 20:56:57.302395020,0,015,0.40533678498819126,0.15042809373949512,-0.0843448479418271,-0.029957947759135378,0.1903695294650339,-0.03958937556571799,-0.6836750499465536,-0.17418752693500858,3
89,2024-09-23 20:56:57.370227051,0,015,0.4400830629523769,0.13544765499544187,0.008952436047671796,-0.03884718952235754,0.17412387869037035,-0.035277743288195995,-0.2407914505284221,-0.18106054063973817,3
90,2024-09-23 20:56:57.426177979,0,015,0.4721541859938241,0.12171982932026763,0.08352328009394604,-0.04815740598770054,0.1584561017530753,-0.0327083995335229,0.19145016381713612,-0.19256673750868705,3
91,2024-09-23 20:56:58.381403809,0,015,0.5018219725321614,0.109231227204557,0.14141527387636876,-0.05955426613317175,0.14462479699739772,-0.032108011008659156,0.5899509658593445,-0.20836243172572005,3
92,2024-09-23 20:56:58.440706055,0,015,0.5292600467720984,0.09800735510525195,0.1847327813181409,-0.07420717550245312,0.13381435556431848,-0.03354238504121181,0.9352109590687548,-0.22788671238898262,3
93,2024-09-23 20:56:58.502286865,0,015,0.5544899979317361,0.08813056519358277,0.2154855985200456,-0.09262023641773659,0.12708176364978854,-0.03692423771012161,1.2120885318812527,-0.250199755464868,3
94,2024-09-23 20:56:58.570653076,0,015,0.5773633628624315,0.07973574760129408,0.23549043262756597,-0.11453379640380865,0.12529480320701367,-0.04202565423200157,1.4103044592374758,-0.27397595858340773,3
95,2024-09-23 20:56:58.647844971,0,015,0.5976069947576058,0.07298233175227513,0.2463588617384088,-0.1389536363925661,0.1290954335834557,-0.04850502262475996,1.52469675378918,-0.29767125496293584,3
96,2024-09-23 20:56:58.709903076,0,015,0.6149144112311958,0.06800513626638735,0.2495867320123872,-0.16435999156148332,0.13889240508766942,-0.05595030829368113,1.5551412082171119,-0.31977460866093654,3
97,2024-09-23 20:56:58.772516846,0,015,0.6290259897287113,0.06485227185047987,0.24675210024618424,-0.18906812548809368,0.15485698302364703,-0.06392888190483768,1.5060569552463867,-0.3389955169189677,3
98,2024-09-23 20:56:59.729914795,0,015,0.6397395961568438,0.06342972429006308,0.2397873564611048,-0.21162446643154123,0.17688796004246507,-0.07203142091223991,1.3854898067843684,-0.35429974618837645,3
99,2024-09-23 20:56:59.792399902,0,015,0.6468487836582835,0.06347498380290277,0.2311909209197311,-0.2310842541532222,0.20453364713252203,-0.0799026432955526,1.203953754865077,-0.36483737370821917,3
100,2024-09-23 20:56:59.854885986,0,015,0.6500720526056082,0.06456713632914757,0.22403678453391215,-0.24707768227235055,0.2368922342113779,-0.08725338899864815,0.9733528861813311,-0.36986625411040414,3
101,2024-09-23 20:56:59.932688965,0,015,0.6490363471174826,0.0661656350925863,0.22179843209269548,-0.25971611620833973,0.2725313451487226,-0.09384954050276265,0.7062260435716833,-0.36873350462613097,3
102,2024-09-23 20:56:59.994741943,0,015,0.6433146789672823,0.06766915932232848,0.2280963762541231,-0.2694586953793408,0.30946852141104775,-0.09948626641195017,0.415327423074063,-0.3609296771688536,3
103,2024-09-23 20:57:00.060997070,0,015,0.6324737234978219,0.06848688498974471,0.24635129003736653,-0.2769805039537495,0.34524412854155245,-0.10396855794714592,0.11333957894252158,-0.3461849993387033,3
104,2024-09-23 20:57:00.135590088,0,015,0.6161022403049512,0.0681091847176191,0.27922514386964775,-0.28300776257042887,0.3770890407515516,-0.10710623632411495,-0.18753697721502768,-0.3245221528185721,3
105,2024-09-23 20:57:01.075686035,0,015,0.5938280043546773,0.0661652692070776,0.327907151077915,-0.2881274163415155,0.40214830682532215,-0.10870926661343214,-0.47620963838713903,-0.2961837480978742,3
106,2024-09-23 20:57:01.137720947,0,015,0.5653521436478225,0.06246002339194238,0.3915183257338762,-0.29264152145899813,0.41770472783383944,-0.10857419432122711,-0.7433659005653875,-0.26144440636053745,3
107,2024-09-23 20:57:01.218084961,0,015,0.5305224869050703,0.056982090450552705,0.46684685491688466,-0.2965099580308981,0.42136952021628254,-0.10647564418382406,-0.9818593346622602,-0.22043024639049938,3
108,2024-09-23 20:57:01.285832764,0,015,0.48943116416406984,0.04987863313230008,0.5484531237306528,-0.29937204421826136,0.4112459438921577,-0.10217993426725218,-1.1865987084469518,-0.17309861430786333,3
109,2024-09-23 20:57:01.353629883,0,015,0.44249131736395986,0.04140438735666041,0.6291557252899289,-0.30064359660492873,0.3860873720709994,-0.09548090121393478,-1.3541119642734345,-0.11942428119668952,3
110,2024-09-23 20:57:01.416770020,0,015,0.3904600606943504,0.031863380905102774,0.7008846969477797,-0.2996942280372806,0.3454461783053671,-0.08624473073742837,-1.482172708370715,-0.059700101227773056,3
111,2024-09-23 20:57:01.479258056,0,015,0.33441073413390776,0.021562665203521836,0.7557487430605025,-0.2960635133743676,0.2897777132097671,-0.07444620110823076,-1.569629922950861,0.005176710892834285,3
112,2024-09-23 20:57:02.432587891,0,015,0.27567654796257823,0.010788651330184399,0.7870779705757244,-0.28962626329844166,0.22047385216746349,-0.06018502374309588,-1.6162744937086966,0.07353074068102507,3
113,2024-09-23 20:57:02.500462891,0,015,0.21577823632681192,-0.00019660238776885583,0.7902256528100673,-0.28062328037745093,0.13983132823273306,-0.04368829613761365,-1.6226129114154626,0.14289753383441878,3
114,2024-09-23 20:57:02.567720947,0,015,0.1563265735145601,-0.011150451639478252,0.7629636878755227,-0.26953375270165847,0.050951235325438604,-0.025313529304390122,-1.5895940981237537,0.2101620063968404,3
115,2024-09-23 20:57:02.631230957,0,015,0.09888431075970136,-0.021844192511441134,0.7054419382808681,-0.25684545729930536,-0.042465687580487306,-0.0055513762965501935,-1.5184215576947262,0.27181673006755575,3
116,2024-09-23 20:57:02.693237061,0,015,0.04479569636171816,-0.03205582562374584,0.6198772561974903,-0.24282758187321724,-0.13644184394584513,0.014991002827125118,-1.4105911039742804,0.32434045054040533,3
117,2024-09-23 20:57:02.771631836,0,015,-0.004972057095216288,-0.04155776293552847,0.5101667092930693,-0.2273995218702939,-0.22709207516601915,0.03563546006314678,-1.2682270473679786,0.3646697405535153,3
118,2024-09-23 20:57:02.839458008,0,015,-0.0499185268036742,-0.05010297539818986,0.3814651726066937,-0.2101436650266481,-0.3109148852989486,0.05568993923921967,-1.094663825298255,0.3906667966692982,3
119,2024-09-23 20:57:03.777932861,0,015,-0.09000550965070506,-0.05741858340401203,0.23969482138376602,-0.190457146191599,-0.3849383924950806,0.07449306749373934,-0.8950751280777617,0.40147102337866186,3
120,2024-09-23 20:57:03.840430908,0,015,-0.12558136085716085,-0.06321323904741145,0.0910267601366333,-0.16777980793697303,-0.4467547247521033,0.09143675329631194,-0.6768574999253774,0.3976673312966196,3
121,2024-09-23 20:57:03.918080078,0,015,-0.1572743497714358,-0.0671961216154562,-0.05857442778197909,-0.1418101014709026,-0.49451268131429554,0.10596926432031292,-0.4494916206064681,0.3812440442552185,3
122,2024-09-23 20:57:03.980623047,0,015,-0.18586942239521512,-0.06910093318950158,-0.20367322273056312,-0.1126557766274457,-0.5269075915750816,0.11758981746327571,-0.22370530644788558,0.35531735260426933,3
123,2024-09-23 20:57:04.042640869,0,015,-0.2121575298397993,-0.06871370879077711,-0.3395421615097773,-0.08090986174043169,-0.5431633656037239,0.12585111681674507,-0.010002422174273412,0.3236217511197488,3
124,2024-09-23 20:57:04.119889893,0,015,-0.23676602586845827,-0.06590739629470976,-0.4622642861697957,-0.04765382368897493,-0.5429936067057253,0.13037909162278513,0.18299281455904035,0.2898566111863748,3
125,2024-09-23 20:57:04.181395020,0,015,-0.26002515405053317,-0.06067804188925972,-0.5688357707701073,-0.014396813599979925,-0.526569294912126,0.13090771893522513,0.34975854064732764,0.257057311007773,3
126,2024-09-23 20:57:05.107768066,0,015,-0.2819338314457103,-0.05316789062124471,-0.657250478890454,0.01702594890018977,-0.4945432612599271,0.1273229450308783,0.48834475311310654,0.22712645449704974,3
127,2024-09-23 20:57:05.168214111,0,015,-0.3022329327270471,-0.043665230021205745,-0.7264770583600467,0.04457559896270625,-0.44813860848877635,0.1197089881128932,0.6002063326406405,0.20057296047235712,3
128,2024-09-23 20:57:05.242201172,0,015,-0.3205300428471979,-0.03258550357334244,-0.7763046323387502,0.06616017796639849,-0.3892501320925755,0.10838516164708849,0.6897264385773771,0.17645527831400892,3
129,2024-09-23 20:57:05.304197998,0,015,-0.3364135705040497,-0.020446442475283464,-0.8071453747702023,0.07983667794381342,-0.32048861030514986,0.09391592760373212,0.763730981439926,0.15249469700078835,3
130,2024-09-23 20:57:05.366201904,0,015,-0.34954030906203265,-0.00784388341397808,-0.8198834594389905,0.08405019193407903,-0.24511361211522362,0.07708259065086924,0.8311066727806787,0.12530953186747326,3
131,2024-09-23 20:57:05.446614990,0,015,-0.3597115074218464,0.004573968849011673,-0.8157703335391686,0.07783885816641041,-0.1668365762226192,0.058819408237718494,0.902317385667937,0.09077730040206693,3
132,2024-09-23 20:57:05.505308105,0,015,-0.36694305453485265,0.016137006101876277,-0.7963262939081897,0.06093717157166793,-0.08953660887832326,0.040129923179358616,0.9884071553877685,0.0446052017404636,3
133,2024-09-23 20:57:06.420300049,0,015,-0.3715174386226939,0.026191724506582536,-0.7632492765987711,0.03378406210752192,-0.016985251138133435,0.022008233082989537,1.0993952417555186,-0.016897223221265103,3
134,2024-09-23 20:57:06.498017090,0,015,-0.37399284514921616,0.034150335586403666,-0.7183626897906772,-0.0024950923434530477,0.04735168056859265,0.0053844444014536945,1.242600733680753,-0.09605622627566089,3
135,2024-09-23 20:57:06.565103027,0,015,-0.3751437480172501,0.039540331520848244,-0.663584064142474,-0.04609973721751552,0.1004611414216381,-0.008910577664832747,1.4215584274187956,-0.19333760342380607,3
136,2024-09-23 20:57:06.636766113,0,015,-0.37583886617165135,0.04203466897355564,-0.600825230665545,-0.09462000313267148,0.13993877936353594,-0.02018261802287564,1.6357461594840594,-0.3072030082568554,3
137,2024-09-23 20:57:06.704266113,0,015,-0.3769068186405191,0.041456195306125494,-0.5317871828604714,-0.14522802550298364,0.16414666118712987,-0.027922191688672614,1.880998566341079,-0.43426146845471064,3
138,2024-09-23 20:57:06.772303223,0,015,-0.37904398156330277,0.037767964915382965,-0.45776128269608973,-0.1949727361845105,0.17230691570823942,-0.03184712577292759,2.1503769834062147,-0.5696263070538531,3
139,2024-09-23 20:57:06.828969971,0,015,-0.38277697639681507,0.031060923902889007,-0.379565028215285,-0.24108637776313624,0.16449285601800365,-0.03191751824971378,2.4352434292397134,-0.7074025411446203,3
140,2024-09-23 20:57:07.783027832,0,015,-0.3884475893154118,0.02154091786599534,-0.2975905141230792,-0.2812379581365041,0.14153594008191392,-0.028317339018932724,2.726326712214052,-0.8412373427733761,3
141,2024-09-23 20:57:07.850392090,0,015,-0.39618411690326505,0.009511710954646903,-0.2118769406966709,-0.31373164338355763,0.10488683738730895,-0.021414983408785032,3.0145415298032265,-0.9648284800049376,3
142,2024-09-23 20:57:07.912920898,0,015,-0.40586884891982467,-0.004648401211522921,-0.12221501482870062,-0.3376510827473405,0.05646618013592016,-0.011719831026434388,3.2913050637097374,-1.07226639115645,3
143,2024-09-23 20:57:07.974976074,0,015,-0.4171513478026144,-0.02051390581524334,-0.02833678236989535,-0.3529148354205097,-0.0014630472440688254,0.0001536812763672679,3.54835017551921,-1.158185604715053,3
144,2024-09-23 20:57:08.054152100,0,015,-0.42952767042903855,-0.037637764457013265,0.06984522668501021,-0.36021967886104295,-0.06638788053264386,0.013512456719804118,3.777374598249884,-1.2178432195676827,3
145,2024-09-23 20:57:08.121947998,0,015,-0.44243991995433724,-0.055571581058684476,0.17206128956386904,-0.3608889522488946,-0.1356160539551253,0.027609161629049635,3.9699486615132322,-1.247271765332061,3
146,2024-09-23 20:57:08.174927002,0,015,-0.4553324561468808,-0.0738796650785978,0.277653465565777,-0.35665419729328346,-0.20634401976944833,0.04167388521590496,4.117940494391485,-1.2435680109664016,3
147,2024-09-23 20:57:09.128381104,0,015,-0.4676465520450144,-0.09214902246224442,0.38566644378384934,-0.3493993734475131,-0.2757325750663137,0.05495381404684316,4.214380742091258,-1.2052679902912433,3
148,2024-09-23 20:57:09.191838867,0,015,-0.4787951067768794,-0.10999611280031325,0.49493039271193073,-0.34090816427273685,-0.34099562225514846,0.06675275256361006,4.254321444709331,-1.1326858735821077,3
149,2024-09-23 20:57:09.267008057,0,015,-0.48817473199778405,-0.12706776991957208,0.6040380775155775,-0.3326557321333079,-0.3994942140647889,0.0764607299939226,4.235282678941085,-1.0281026628817165,3
150,2024-09-23 20:57:09.329494873,0,015,-0.4952216676937518,-0.14303731301952158,0.7112843846126699,-0.325665717683402,-0.4488231412290874,0.08357068684688357,4.157366897550719,-0.8957719965637748,3
151,2024-09-23 20:57:09.391537842,0,015,-0.49945483484616876,-0.1576052799190707,0.8146866206821588,-0.3204281854428346,-0.48690203455577985,0.08768792539866573,4.023362951090299,-0.7417806330985379,3
152,2024-09-23 20:57:09.471979980,0,015,-0.500456030996034,-0.17051230313106847,0.9120461350732618,-0.31687705299423935,-0.5120981511229299,0.088539566237957,3.83884519149146,-0.5737907878853684,3
153,2024-09-23 20:57:09.539726074,0,015,-0.49781079895333,-0.18155854865722704,1.000936846215597,-0.3144560690278403,-0.5233870067314276,0.08598724965880142,3.6119841925664273,-0.4006449480449098,3
154,2024-09-23 20:57:10.473143066,0,015,-0.49108372748871904,-0.1906148923436367,1.078655485105303,-0.31230312686013023,-0.5205109297387084,0.08004175271613395,3.3529278754341494,-0.23181579706405875,3
155,2024-09-23 20:57:10.550908203,0,015,-0.47987558581585266,-0.19761347304798424,1.142267760288029,-0.30951607443667695,-0.5040534986151991,0.07087339312404153,3.072846810825387,-0.07672235384379811,3
156,2024-09-23 20:57:10.607697021,0,015,-0.46394309873590384,-0.20251628812076294,1.1888051729240188,-0.30538795988171014,-0.47536781174163684,0.05881084015858146,2.782777343246627,0.056038936743647565,3
157,2024-09-23 20:57:10.684879883,0,015,-0.4433122501856135,-0.20527458212103633,1.2155766005921127,-0.2995110989206635,-0.4363713315495276,0.04432319275706408,2.4924343224526817,0.15945790487214243,3
158,2024-09-23 20:57:10.754223145,0,015,-0.4183172519423711,-0.2058005034275087,1.2205017829640152,-0.2917433376091042,-0.3892637916572661,0.02797986481293354,2.209320264704611,0.22872487717700987,3
159,2024-09-23 20:57:10.808811035,0,015,-0.3895551613079976,-0.20396702433207886,1.2023339382182376,-0.2821064774983839,-0.33622257312424847,0.01038529123992183,1.938490189860943,0.2615677434226069,3
160,2024-09-23 20:57:10.885560059,0,015,-0.35780886984120047,-0.19963598244265834,1.1607103171477025,-0.27068939553965304,-0.2791360760638055,-0.007900784404296172,1.6831262837256025,0.25826783195276304,3
161,2024-09-23 20:57:11.816850098,0,015,-0.32399230034519655,-0.19270208661143987,1.0961020277904752,-0.25758650640105135,-0.2194549352034734,-0.0264306138817772,1.4457764240007636,0.22136964787614916,3
162,2024-09-23 20:57:11.900047119,0,015,-0.2891207627781036,-0.1831387289383787,1.0097718736563939,-0.24287533176464732,-0.1582199108983898,-0.044893736928108906,1.2297751810246238,0.15514984569641696,3
163,2024-09-23 20:57:11.956918945,0,015,-0.2542677849164605,-0.17103574903350924,0.9038075677184806,-0.2266482212620745,-0.09623087376411557,-0.06308802244779063,1.0401447380900177,0.06499279839407224,3
164,2024-09-23 20:57:12.035495117,0,015,-0.22047502873147942,-0.1566271725314328,0.7812280875578691,-0.20911400257827847,-0.034224772729497255,-0.08085581183385131,0.8834822590194263,-0.04314903066706458,3
165,2024-09-23 20:57:12.096831055,0,015,-0.1886330298411814,-0.14031048463384224,0.6460686765607753,-0.19073752303465571,0.027054272395776,-0.09802608350023996,0.7669045162017051,-0.1631112551980482,3
166,2024-09-23 20:57:12.157906006,0,015,-0.1593956214384856,-0.12265291988516153,0.5033059926223393,-0.17232930117769346,0.08689202358709013,-0.11439087951400237,0.6965284080588368,-0.28870950424218916,3
167,2024-09-23 20:57:12.238977051,0,015,-0.13316724231912033,-0.1043744839530909,0.3585284411400998,-0.15499231246032155,0.1446506716391714,-0.12970907423987107,0.6759040945898992,-0.41382877043687455,3
168,2024-09-23 20:57:13.172848877,0,015,-0.11013409083399653,-0.08630270487393675,0.21737676310860093,-0.13989736315322548,0.1997449251299623,-0.1437137519231141,0.704549453669964,-0.5324274207046059,3
169,2024-09-23 20:57:13.235375977,0,015,-0.0902840777037522,-0.06930900741141632,0.08493130827569814,-0.12796435165895023,0.25156611174281773,-0.15611496363997812,0.7767556936707674,-0.6384823862131879,3
170,2024-09-23 20:57:13.317904053,0,015,-0.07340288068044382,-0.05424757555883111,-0.03472701245885859,-0.11960348976210723,0.2994206303213134,-0.16660705630304296,0.8810799331274708,-0.7260044000556373,3
171,2024-09-23 20:57:13.385637939,0,015,-0.0590869763198468,-0.041908414108798184,-0.13866033613604023,-0.11464307997154081,0.3425122010630868,-0.17488886990532093,1.0008610630423742,-0.7892538890601173,3
172,2024-09-23 20:57:13.452284180,0,015,-0.046821906307145944,-0.03297280466108039,-0.2249530685905765,-0.11244957734426034,0.3799664233126305,-0.18069609927052968,1.1156719576741838,-0.8231375922004017,3
173,2024-09-23 20:57:13.517487061,0,015,-0.03612799038938083,-0.02795283453415213,-0.29247224593092014,-0.1121427956669044,0.4108922742776521,-0.18383564915162784,1.2034059593133517,-0.8236789663520274,3
174,2024-09-23 20:57:13.573725098,0,015,-0.026711239329547446,-0.027122278191700478,-0.34069695870783057,-0.11279805003843667,0.43446087808623157,-0.1842084624446167,1.2428180639826643,-0.7885029878119856,3
175,2024-09-23 20:57:14.532540039,0,015,-0.018537024544605332,-0.030472064359737292,-0.36972055703734086,-0.11357666387666314,0.4499727790696248,-0.18181833329410022,1.2163429078089731,-0.7172997482210441,3
176,2024-09-23 20:57:14.589691895,0,015,-0.011802554254000924,-0.037712369635120487,-0.380372824754997,-0.1137783586322167,0.45689993023484393,-0.17677617147077987,1.1127231032311682,-0.612177994934383,3
177,2024-09-23 20:57:14.668187012,0,015,-0.006860029460656683,-0.04831042377178291,-0.3743157367789199,-0.11283861570941281,0.4549135292930073,-0.16930349285679205,0.9288503773626274,-0.4777896304644472,3
178,2024-09-23 20:57:14.729537109,0,015,-0.004144261369785131,-0.06154192292963581,-0.3539625352982126,-0.11031257735021417,0.4439225111491929,-0.15972458129294176,0.6704965204754053,-0.32115283351503626,3
179,2024-09-23 20:57:14.791564941,0,015,-0.00409986063792241,-0.07654842480090333,-0.3221508748383973,-0.10589404732560334,0.42413886565801134,-0.1484376106478014,0.3519450217794921,-0.1511892930425627,3
180,2024-09-23 20:57:14.868722900,0,015,-0.00708104377052873,-0.09240246956822992,-0.28165645770498393,-0.09948388070538684,0.39617253081006487,-0.13587506512672526,-0.0053566725156139194,0.02195662788692707,3
181,2024-09-23 20:57:14.938752930,0,015,-0.013242950346627093,-0.10817558472230822,-0.23473046238059903,-0.09127095171366016,0.3611474237723793,-0.12247832289999111,-0.37498441895314155,0.1877588570173181,3
182,2024-09-23 20:57:15.846221924,0,015,-0.022481921762695378,-0.12299871150882885,-0.18277828196493232,-0.0817925840150974,0.32079700869765726,-0.1086986751801961,-0.7282988866264443,0.3362334112783434,3
183,2024-09-23 20:57:15.922784180,0,015,-0.03445417076234328,-0.1361092144568113,-0.12619215589727348,-0.07198056490311386,0.27746911152651216,-0.09501190229274106,-1.0373411266602521,0.45878836136446205,3
184,2024-09-23 20:57:15.985279053,0,015,-0.048643934016988424,-0.14688349749424204,-0.06436075442821845,-0.06318176759712725,0.23399912604339884,-0.08192466201599302,-1.2773740214730265,0.5488397436980715,3
185,2024-09-23 20:57:16.059537842,0,015,-0.06442334706749303,-0.1548558637724932,0.004085242839890781,-0.057086129619775924,0.1934633807469536,-0.06996084659463568,-1.4287298059748479,0.6021595923982973,3
186,2024-09-23 20:57:16.124353027,0,015,-0.08106273084953149,-0.15973001157661446,0.08078282029729114,-0.0555109475627367,0.15884831434867308,-0.059628930166884045,-1.4779040233677905,0.6170318963655587,3
187,2024-09-23 20:57:16.187270020,0,015,-0.09770180431488565,-0.16139223434416217,0.1669637687630665,-0.06008475440313126,0.13269039112863235,-0.05137890000906838,-1.4180973192040656,0.5942736102986942,3
188,2024-09-23 20:57:16.248856934,0,015,-0.1133413079104092,-0.1599249343086564,0.26275301317615585,-0.07194427293790798,0.116760973738798,-0.04555995572887963,-1.2494746645175927,0.5370977377460896,3
189,2024-09-23 20:57:17.191166016,0,015,-0.12690500060249418,-0.15560790365814586,0.36668477066208255,-0.09154142472524848,0.11185628087805116,-0.04238833953596179,-0.97920026609527,0.45077131451954094,3
190,2024-09-23 20:57:17.268371094,0,015,-0.13736087482229606,-0.14889632650846915,0.4756105503256626,-0.11857729931587285,0.11772892236905938,-0.041928914886506755,-0.6210069127563221,0.34207595679166225,3
191,2024-09-23 20:57:17.330777832,0,015,-0.1438456757196284,-0.14037429007176563,0.5849878879932301,-0.1520280331097465,0.1331954050113316,-0.04409159849911853,-0.19405212016041945,0.21865016287837263,3
192,2024-09-23 20:57:17.408713135,0,015,-0.14574683245101042,-0.13069289115737476,0.6894463919563311,-0.19024982127315776,0.15642332037475615,-0.048647131616601086,0.27883408998140863,0.08833578481056456,3
193,2024-09-23 20:57:17.470781982,0,015,-0.14274300368498177,-0.12050656324434254,0.7834826848391219,-0.23115994316557842,0.18530814985308605,-0.05526269247420154,0.7730897271690753,-0.04136115824143093,3
194,2024-09-23 20:57:17.545217041,0,015,-0.1348403878616159,-0.11041613603433093,0.8620680081501487,-0.27244655125645867,0.2177888714974474,-0.06354505754172687,1.2641852079327565,-0.16366443134375963,3
195,2024-09-23 20:57:17.607285889,0,015,-0.12242597931553792,-0.10091927411918448,0.9209905028552341,-0.31175042630924094,0.25201997708270324,-0.0730761217238223,1.7290884550762722,-0.2728004703824098,3
196,2024-09-23 20:57:18.532633057,0,015,-0.10630856712468799,-0.09236948087876737,0.9569087846737558,-0.34679891299737026,0.28643617894427337,-0.0834355269783111,2.1473986603771382,-0.36414206451323894,3
197,2024-09-23 20:57:18.585210205,0,015,-0.08769400761730778,-0.08495324401493463,0.9672125280147953,-0.3754861707601508,0.31978158942921125,-0.09421362312206584,2.5021134944978978,-0.43419760395632845,3
198,2024-09-23 20:57:18.667962158,0,015,-0.0680712264995372,-0.07869808714417387,0.9498479099833527,-0.3959057601627661,0.35113674431596414,-0.10502025734153954,2.780071623308749,-0.48049071497877777,3
199,2024-09-23 20:57:18.724991943,0,015,-0.04904076913095017,-0.07351188033510368,0.9032960299727635,-0.4063824188115507,0.37994169209835826,-0.11549113347133017,2.972211996235567,-0.5014461104357147,3
200,2024-09-23 20:57:18.801905029,0,015,-0.03214710338973448,-0.06923429234711286,0.8268040111206902,-0.40555313093491135,0.4059922325387674,-0.1252853431136891,3.0737752810798966,-0.4963722241737289,3
201,2024-09-23 20:57:18.864393066,0,015,-0.018750025632404525,-0.06567671004065909,0.7207722802898539,-0.39248589920813454,0.42937792186384904,-0.13406802946116173,3.0844039472150295,-0.4655465103860318,3
202,2024-09-23 20:57:18.926437012,0,015,-0.009922453670529874,-0.06264325517960481,0.5870916525217605,-0.36678013364949397,0.45035418852631853,-0.1414842660413755,3.0079628302143777,-0.4103633436316277,3
203,2024-09-23 20:57:19.871903809,0,015,-0.006356474517035744,-0.05994224906830191,0.4293068063169837,-0.32861553590432024,0.4691764562819894,-0.14713931735334876,2.8520332973597258,-0.3334791848991364,3
204,2024-09-23 20:57:19.949587891,0,015,-0.008299928582322157,-0.05739539425046206,0.25261819518994394,-0.27875312531225277,0.4859391162827295,-0.15060093489108942,2.627294075521129,-0.23884177392618935,3
205,2024-09-23 20:57:20.017750000,0,015,-0.015568120169806377,-0.054839637967416255,0.06375353809794933,-0.21849419760460884,0.5004640660036065,-0.15143453908016444,2.3470361456447364,-0.1315068074091762,3
206,2024-09-23 20:57:20.086035889,0,015,-0.027637458426953344,-0.052118283776556376,-0.12932643005463718,-0.14959276021946835,0.5122811594241025,-0.14927021227898135,2.026812299380064,-0.01725973632535369,3
207,2024-09-23 20:57:20.153803955,0,015,-0.04375908900294817,-0.04907428255439011,-0.317949893985788,-0.07411987829018674,0.5207120713317499,-0.14388312481707397,1.6839776456642088,0.09786086398808935,3
208,2024-09-23 20:57:20.212875977,0,015,-0.0630078395221074,-0.045564321561580266,-0.4934611956695814,0.005700992340271163,0.5250122844295897,-0.1352583047668171,1.3368886708509167,0.20806003172337031,3
209,2024-09-23 20:57:20.289434814,0,015,-0.08424682999237304,-0.04149679119280037,-0.6479763897177826,0.08763891795552801,0.5245009187380902,-0.12361829040279904,1.003755350146594,0.30824525620557924,3
210,2024-09-23 20:57:21.232683838,0,015,-0.10607619871168444,-0.03687747209538873,-0.7749310730907675,0.16952609099863364,0.5186354500034279,-0.10941074185732014,0.7013397117166326,0.39437641728983275,3
211,2024-09-23 20:57:21.300501221,0,015,-0.12685139594392472,-0.031840378770316646,-0.8692851638150441,0.24922717329713123,0.5070301253488324,-0.09326435934985443,0.4437410196450062,0.46365738205704576,3
212,2024-09-23 20:57:21.354416016,0,015,-0.14480037622893333,-0.026646927276069238,-0.9273961918696957,0.3245308869411475,0.48944645128560055,-0.07592472872522484,0.24152107940560183,0.5145631362899411,3
213,2024-09-23 20:57:21.431364990,0,015,-0.15819997065544547,-0.02165028495157524,-0.9467107807098445,0.3930520929833251,0.4657902685287629,-0.05818450367760525,0.1014359520261439,0.5466975199282178,3
214,2024-09-23 20:57:21.493374023,0,015,-0.1655426541983329,-0.01723942360099628,-0.9255236551506648,0.4522491940072523,0.43613555480565613,-0.0408231503071595,0.02686009355596181,0.5604865526015985,3
215,2024-09-23 20:57:21.567100098,0,015,-0.16566101904830255,-0.01378387464428439,-0.8630209625235767,0.4995920571598887,0.4007781694598935,-0.024567876260386638,0.01864193607027627,0.5567873823146797,3
216,2024-09-23 20:57:21.629585938,0,015,-0.15783159044622097,-0.011588645408854863,-0.7596484702039051,0.5328357530348479,0.36030198400238206,-0.010077119664599125,0.07588673957409435,0.5365535488595136,3
217,2024-09-23 20:57:22.567670166,0,015,-0.1418792596056099,-0.010857375374482878,-0.6176254744167847,0.550320512241872,0.3156121720383022,0.0020675323524477493,0.19616604905676116,0.5006687898006501,3
218,2024-09-23 20:57:22.650649902,0,015,-0.11826226580661127,-0.01166212556853691,-0.4413024790408452,0.5512061105303864,0.26788628647937857,0.011382501647899213,0.37499423189503,0.4499680756424883,3
219,2024-09-23 20:57:22.707372070,0,015,-0.08809223779832212,-0.01392308608400535,-0.23712260425483977,0.5355572232595349,0.2184405200947996,0.017524743798592743,0.6049815235459567,0.38536557344154987,3
220,2024-09-23 20:57:22.784032227,0,015,-0.053054277382886435,-0.01740642355346345,-0.013152795199943121,0.5042493222827044,0.16857070362693793,0.020338882841607744,0.8753496599361439,0.30798277511866734,3
221,2024-09-23 20:57:22.846052979,0,015,-0.015239267214792717,-0.021748226597231923,0.22163327972796035,0.4587586376245618,0.11943820712103488,0.019881188687464368,1.1721892010698673,0.2192399259096308,3
222,2024-09-23 20:57:22.908430176,0,015,0.0230475283209471,-0.026501088139688007,0.4580849849348378,0.4009607461079738,0.07202838109846152,0.016406922271818333,1.4793267423582075,0.12094772650397255,3
223,2024-09-23 20:57:22.989572021,0,015,0.05944111896829934,-0.031187160514983946,0.6875106255346556,0.3330128914866656,0.027169111758712595,0.01033002628318816,1.7794584121183734,0.015427098911616697,3
224,2024-09-23 20:57:23.927525879,0,015,0.091633662778503,-0.03534355011872094,0.90221139072906,0.25729550904922394,-0.014416507514692468,0.002172962399193074,2.0553608129815615,-0.09438788795333748,3
225,2024-09-23 20:57:23.989126953,0,015,0.11749407600776905,-0.03856068867967774,1.0958648694458526,0.17635626451383948,-0.05205475000915011,-0.007483475726343346,2.2911825810471864,-0.20495958419763805,3
226,2024-09-23 20:57:24.068430908,0,015,0.13520565126358214,-0.040520930421852876,1.2636806408246783,0.09283764511920019,-0.08510068137580568,-0.01804891639528304,2.4737344812491266,-0.3123238613020302,3
227,2024-09-23 20:57:24.133476074,0,015,0.14339166197791542,-0.04103325769796449,1.4023494137653045,0.009402381771758594,-0.11297808202085684,-0.028967545231708056,2.5934745099511445,-0.4123862770466492,3
228,2024-09-23 20:57:24.203869141,0,015,0.1412048082013292,-0.04004940270018151,1.5099442907026872,-0.07134390615487136,-0.13526569233339897,-0.039752965564993914,2.6449489973636515,-0.5012358229403038,3
229,2024-09-23 20:57:24.271591797,0,015,0.12839425693967038,-0.037655066305169974,1.5859237730033415,-0.14695877085562198,-0.1517806962875501,-0.05001032740014953,2.6267747509799286,-0.5754200289366027,3
230,2024-09-23 20:57:24.329232910,0,015,0.1053658685560678,-0.03404767255919572,1.6312137176394246,-0.21529425804929064,-0.16261516972969328,-0.05943899691132188,2.54135683368863,-0.6321838359731237,3
231,2024-09-23 20:57:25.274501953,0,015,0.07321143630277731,-0.029517233349267535,1.6482179555519032,-0.2746069189334184,-0.16811139858190605,-0.06781427314537047,2.39436529685973,-0.6696678193816822,3
232,2024-09-23 20:57:25.336895020,0,015,0.03365652330842114,-0.02443527189332721,1.640657802255075,-0.32362467847140336,-0.16878525531058783,-0.07496435259852237,2.1939353458317057,-0.6870277398597544,3
233,2024-09-23 20:57:25.414048096,0,015,-0.011095960948208894,-0.019243626828874524,1.613273790727007,-0.36160163802704776,-0.16521833481227033,-0.08076207408564996,1.9496601006601484,-0.6844472636796435,3
234,2024-09-23 20:57:25.486237061,0,015,-0.05859048955453084,-0.014431423655044113,1.5714628620716187,-0.38838480666523834,-0.15794982175992717,-0.08513269052759713,1.6714956499394715,-0.6630416439045443,3
235,2024-09-23 20:57:25.554153809,0,015,-0.10633885625358083,-0.010496329663016068,1.5208352817328568,-0.4044568438835213,-0.14740781455808838,-0.08806324825498013,1.3687218597542021,-0.6246382380989086,3
236,2024-09-23 20:57:25.621936035,0,015,-0.1519719523924084,-0.007900295787939647,1.4666252650774108,-0.41088891227727664,-0.13390515199409603,-0.08960024130441219,1.04912539549415,-0.5714347020295811,3
237,2024-09-23 20:57:25.689743896,0,015,-0.19331260513584297,-0.007035489585321111,1.412982016984083,-0.4091784615756699,-0.11768077462582713,-0.08983548061371777,0.7185252084019507,-0.5056283884268487,3
238,2024-09-23 20:57:26.633739990,0,015,-0.22841664116601962,-0.008207064514005206,1.362294488957476,-0.40100982265701657,-0.09894124555352495,-0.08889262494195435,0.3807128251336685,-0.42916554205727087,3
239,2024-09-23 20:57:26.701432861,0,015,-0.25563614052729844,-0.011626910508262853,1.3147468105412536,-0.3880046056053546,-0.07788705130871167,-0.08692229240863386,0.03785806736712353,-0.3436947576130266,3
240,2024-09-23 20:57:26.769367920,0,015,-0.27371620167154576,-0.01740619795082625,1.2682606673401104,-0.371520085759655,-0.054759468660889876,-0.08409402251847203,-0.30865470774067594,-0.25070553565387166,3
241,2024-09-23 20:57:26.825743896,0,015,-0.28189121835148256,-0.025539659012653496,1.2188856668131656,-0.3525282800127344,-0.029940726132968238,-0.08056871909827078,-0.6571769060487094,-0.15174948090488885,3
242,2024-09-23 20:57:26.904001953,0,015,-0.2799242786358184,-0.03588927100431533,1.1615604266829314,-0.33158616908867095,-0.004069101413685839,-0.07646036433159531,-1.0048937423198776,-0.04859442191296734,3
243,2024-09-23 20:57:26.966489014,0,015,-0.2680561097252318,-0.04818179588619639,1.0910444210716763,-0.3088981180310107,0.021913008408458876,-0.0718156071604453,-1.3473457198094345,0.056786003178215395,3
244,2024-09-23 20:57:27.027613037,0,015,-0.24689775971953404,-0.06202465209723257,1.002800521958631,-0.28446454339338584,0.046807495981367214,-0.06662400996779519,-1.6784257704050265,0.16235837594475658,3
245,2024-09-23 20:57:27.946105957,0,015,-0.21734921692280287,-0.07693253146825108,0.8936696909242748,-0.2582865591865701,0.069261871962693,-0.060845077505220176,-1.9907239893980504,0.26619658809705726,3
246,2024-09-23 20:57:28.025732910,0,015,-0.1805959310611618,-0.09235478865776962,0.7622395611145732,-0.23056339358639477,0.0878739256296278,-0.05443189830629669,-2.275920960161541,0.36653922665270783,3
247,2024-09-23 20:57:28.084135010,0,015,-0.138153023297041,-0.10769819257350692,0.608876491372095,-0.20181571708271298,0.10129679826726863,-0.047343130031230946,-2.5249362679358223,0.46167761683174086,3
248,2024-09-23 20:57:28.161364990,0,015,-0.0918775960717748,-0.12234678187167522,0.4355026460902577,-0.17290352931449962,0.10837672435414725,-0.03954920053133012,-2.7279084324842002,0.5497804318244379,3
249,2024-09-23 20:57:28.222519043,0,015,-0.043901283855141145,-0.13568599329646794,0.24529679476766217,-0.14494788856158367,0.10832308193870013,-0.031038607637893633,-2.8744227699259306,0.6288629299220044,3
250,2024-09-23 20:57:28.285123047,0,015,0.0034982706651429897,-0.147136470698318,0.04249575344065558,-0.11918789395722183,0.10084501032647039,-0.021818727250207306,-2.954312336332026,0.6970005143074892,3
251,2024-09-23 20:57:28.364794922,0,015,0.048043653198140336,-0.15619544537250082,-0.16763043503200112,-0.09681370015863301,0.08619561993931353,-0.011905808547473914,-2.958979782062819,0.7526654426568553,3
252,2024-09-23 20:57:29.282174072,0,015,0.0876026305288288,-0.16247641362358115,-0.37869913177960574,-0.07881667664961463,0.06513367512868226,-0.0013117264928344495,-2.882823322370455,0.7949585538348267,3
253,2024-09-23 20:57:29.345946045,0,015,0.12033297462288552,-0.16573447893486512,-0.5832069518820966,-0.06588548030641231,0.03883952376636395,0.009960207448772112,-2.724243921202676,0.8236168341772963,3
254,2024-09-23 20:57:29.407988037,0,015,0.1448146434127912,-0.16586928632748055,-0.7727640398940225,-0.05836159331555818,0.008798325099420908,0.021904067191645282,-2.485969554160529,0.8388703499607173,3
255,2024-09-23 20:57:29.485174805,0,015,0.1601333962274729,-0.1629084049808925,-0.9386013066437087,-0.056266051098845964,-0.02334284351298334,0.03448429785289173,-2.1747725841946424,0.8412869348578866,3
256,2024-09-23 20:57:29.553199951,0,015,0.16588535105302846,-0.15698040101135985,-1.0722257418618832,-0.05939568197776484,-0.055909996527981246,0.04759732499194785,-1.8007652386341273,0.831655373062569,3
257,2024-09-23 20:57:29.607544922,0,015,0.16211454213676005,-0.14828585101491093,-1.1660845722757147,-0.06743362738458444,-0.0872803881033331,0.06103456840542389,-1.3763979153759978,0.8108655566628783,3
258,2024-09-23 20:57:29.688736816,0,015,0.1492381194383435,-0.13707261952390762,-1.2141774425289829,-0.07999529867987525,-0.1158886107766534,0.07446429856561232,-0.9152571778395925,0.7797453737057491,3
259,2024-09-23 20:57:30.623362061,0,015,0.1280098357995062,-0.12362123814181995,-1.2125825068965475,-0.09660418528809478,-0.14019511912111063,0.08744019929066695,-0.43090873139248376,0.7389014555420051,3
260,2024-09-23 20:57:30.684905029,0,015,0.09952365266970753,-0.10824530816479705,-1.1598269492164135,-0.11666756928434642,-0.15866877050957343,0.09943190720945798,0.06378726225729563,0.6886947151513231,3
261,2024-09-23 20:57:30.767802002,0,015,0.0652165882753932,-0.09130626175537337,-1.0570292441225952,-0.13949158082535507,-0.16982533292846147,0.1098721203287751,0.5566513473666261,0.6294342415964245,3
262,2024-09-23 20:57:30.835522949,0,015,0.02682907846964961,-0.07323076134120822,-0.9078181060907012,-0.16430559278664095,-0.17234046613767762,0.11821383696946366,1.035703875271985,0.5617128067905615,3
263,2024-09-23 20:57:30.901961182,0,015,-0.013690822988781989,-0.05451338731823513,-0.7181071511094435,-0.19026439511517798,-0.16521865253241,0.12398399366844323,1.4887303600689015,0.48670431688548654,3
264,2024-09-23 20:57:30.964947021,0,015,-0.05431999324045003,-0.03569683338183104,-0.49577711448668865,-0.2164331469420887,-0.14797046648513684,0.1268248051813034,1.9032433916827323,0.4062656114052454,3
265,2024-09-23 20:57:31.027002197,0,015,-0.09308893686875308,-0.01733739467081372,-0.2502598718491704,-0.24176511697525388,-0.12074793388918162,0.126528699425444,2.266910760536831,0.32277253516416815,3
266,2024-09-23 20:57:31.967183105,0,015,-0.12817614467938201,3.0916812605296576e-05,0.007955554616213632,-0.26507282400627996,-0.08441330873936549,0.123073958375239,2.5683092142670625,0.2387596671107105,3
267,2024-09-23 20:57:32.044360107,0,015,-0.1579700457326401,0.015924594430370243,0.2678237733764703,-0.2850101242592465,-0.0405550769537736,0.11665803205003797,2.797754720456191,0.15656747239044572,3
268,2024-09-23 20:57:32.105995850,0,015,-0.1811167089815601,0.029927044474620697,0.5182059341987899,-0.3000953285227555,0.008526760375888417,0.1077186979861175,2.94794124911168,0.07817176575236315,3
269,2024-09-23 20:57:32.183195068,0,015,-0.19656030468159633,0.041693292869802924,0.7483027418865937,-0.3087679921278757,0.059878744969561803,0.09692988362337245,3.014194964875313,0.005206926014350275,3
270,2024-09-23 20:57:32.244769043,0,015,-0.20356696095359392,0.050946831247523916,0.9480711079284128,-0.30943760114112545,0.11003578739866805,0.08515949665288093,2.99434037181331,-0.060902611500205574,3
271,2024-09-23 20:57:32.311934082,0,015,-0.20171976449385354,0.057472529563063035,1.1086392028991274,-0.30052474732529516,0.1552655257146474,0.07338695335771687,2.8884084304459052,-0.11880190683863542,3
272,2024-09-23 20:57:32.388969971,0,015,-0.1908892103273102,0.061108367789957145,1.2227497814258192,-0.28055677415271485,0.19188074747999317,0.06259431796913818,2.6985011347202827,-0.16715933209076597,3
273,2024-09-23 20:57:33.328537842,0,015,-0.17120798846442903,0.06174001894902389,1.2852392050168358,-0.2483688140428609,0.21655521249094442,0.05365407195996548,2.4289580712880374,-0.20475030149702136,3
274,2024-09-23 20:57:33.390139160,0,015,-0.1430831308958394,0.05930365771331973,1.2934889835310461,-0.20339576979696364,0.22659474511509614,0.04723308535373498,2.0867179799084417,-0.23059800638132405,3
275,2024-09-23 20:57:33.467977051,0,015,-0.10724506699140993,0.05379860757210418,1.2477224690718767,-0.1459821283290417,0.2201553652548727,0.04372488833626903,1.681703644975098,-0.24411455819634337,3
276,2024-09-23 20:57:33.536358154,0,015,-0.06478905999196868,0.04530393750026215,1.1510613868694304,-0.07761909669466917,0.19642350130370978,0.04321778417026794,1.2271555731738364,-0.2452821168730237,3
277,2024-09-23 20:57:33.604005127,0,015,-0.017166007731099043,0.03399215444460881,1.0093855076444882,-0.001030394629013587,0.15574326588081422,0.04550295427471655,0.7398392542950307,-0.23489159445342114,3
278,2024-09-23 20:57:33.671850098,0,015,0.033869161091538987,0.02014013136524608,0.8310435232285077,0.07996244225835786,0.0996222289344146,0.05012228511856894,0.23991049327645295,-0.2147364878518376,3
279,2024-09-23 20:57:33.727615967,0,015,0.0863111379528558,0.0041403949044882425,0.6263347389374117,0.16081784773908822,0.030553579440497133,0.05644895526687539,-0.24981833794509403,-0.1876177552412161,3
280,2024-09-23 20:57:34.668665039,0,015,0.13794730894594176,-0.013488338984102004,0.40670917784994703,0.23681514830018127,-0.04832566396100774,0.06378459252004388,-0.7052248818492795,-0.1571026050201327,3
281,2024-09-23 20:57:34.750356934,0,015,0.18642457606766627,-0.032098206743707676,0.18383654903086183,0.30361901103362704,-0.13362747402050465,0.0714492456036933,-1.102528956423147,-0.12710145904484457,3
282,2024-09-23 20:57:34.808252930,0,015,0.22937766294402998,-0.050927739935563626,-0.03125926687975881,0.357760969945186,-0.22201922254999915,0.07884508429355393,-1.4199564713320147,-0.10137398262045064,3
283,2024-09-23 20:57:34.884989014,0,015,0.2646039881467038,-0.06914291486705196,-0.22893612592944876,0.39697430461873484,-0.3103791468962547,0.0854926714141758,-1.639392199963225,-0.08303475240947851,3
284,2024-09-23 20:57:34.946520996,0,015,0.2902226225982904,-0.08589662587627506,-0.4014650000327296,0.4203111645178367,-0.39583215204952893,0.09104879319586416,-1.7480184360023603,-0.07409001311242194,3
285,2024-09-23 20:57:35.009006104,0,015,0.30477114716674875,-0.10038819842145298,-0.5431744275450393,0.4279858775966643,-0.4757403807126757,0.09530921436792937,-1.7396503831748173,-0.0750612331521191,3
286,2024-09-23 20:57:35.088219971,0,015,0.30724828818038286,-0.11190879594459219,-0.6501862512733677,0.4210065028536095,-0.5477170833814662,0.09819749284547076,-1.615379959746478,-0.08479894694468419,3
287,2024-09-23 20:57:36.032536865,0,015,0.2971434586762578,-0.11987512115836534,-0.7200349221140548,0.40078424345409774,-0.6096949024463323,0.09974606485284504,-1.3833756570527178,-0.10058982182064342,3
288,2024-09-23 20:57:36.100354980,0,015,0.2744813549738012,-0.12386336485105333,-0.7514644329883149,0.3688909618957369,-0.6600333431705476,0.10007560034333977,-1.0579234133978805,-0.11858826082123107,3
289,2024-09-23 20:57:36.168127929,0,015,0.2398632486744035,-0.123643779896631,-0.7444287667063564,0.32700157494444376,-0.697626362866148,0.09937435641596654,-0.6579477518081243,-0.13446978013240765,3
290,2024-09-23 20:57:36.227485840,0,015,0.19446336633899855,-0.11920127080023722,-0.7001958672006241,0.27695875008256904,-0.7219663528331834,0.0978751429895723,-0.20538476853041854,-0.14408269776544408,3
291,2024-09-23 20:57:36.303694092,0,015,0.13997164905994092,-0.11073239478618023,-0.6214983737131687,0.22087253379887153,-0.7331258254996033,0.09582238064990432,0.2762929751011192,-0.14390365755155315,3
292,2024-09-23 20:57:36.365729980,0,015,0.07851320764351573,-0.09862427297792371,-0.5126661667716785,0.16118652311448917,-0.7316529276987552,0.09342646809172281,0.7633453708789459,-0.13125496340835416,3
293,2024-09-23 20:57:36.427780029,0,015,0.012570868487043158,-0.08342734383843566,-0.37962961653373717,0.10067960332394855,-0.7184360809582429,0.09082195699732154,1.2328928377914081,-0.10435953512678713,3
294,2024-09-23 20:57:37.369003174,0,015,-0.05509589180770839,-0.06583023153686636,-0.229699506072049,0.042380940193751854,-0.6946067460853771,0.0880524768783315,1.6639326267214607,-0.06234971338172944,3
295,2024-09-23 20:57:37.450445801,0,015,-0.12156652385077597,-0.04663564293733234,-0.07111581284393749,-0.010625585604872465,-0.6614915058150515,0.08508507741437414,2.0382640628697346,-0.0053126532796208,3
296,2024-09-23 20:57:37.513184082,0,015,-0.18393443190386424,-0.02672605764116659,0.0875302409624283,-0.055481835131683185,-0.620582165233692,0.08183988718295401,2.3413773706072893,0.06564425154108171,3
297,2024-09-23 20:57:37.585355957,0,015,-0.239533104101714,-0.007005334023615667,0.23786966173623672,-0.08984611674208749,-0.5735078157753536,0.07822438855493186,2.563287335337875,0.1483869842892057,3
298,2024-09-23 20:57:37.653018066,0,015,-0.2861614727032615,0.011683129970503366,0.37227627096346816,-0.11212628005103127,-0.5220055824869168,0.07416727704292315,2.699120096472399,0.23985251248271272,3
299,2024-09-23 20:57:37.710386963,0,015,-0.32224307861253293,0.028636359326423732,0.4843362924838862,-0.12161672029111947,-0.46788136382566353,0.06964715062831756,2.7492177765653327,0.3362351749691375,3
300,2024-09-23 20:57:37.788035889,0,015,-0.3468972105305583,0.0433387827704785,0.5692437215995779,-0.11854813101036853,-0.412955435972141,0.06471252035255129,2.7186828609118705,0.43323786305251666,3
301,2024-09-23 20:57:38.700946045,0,015,-0.359948996371504,0.055467704961045854,0.6240892752206468,-0.10410323460283592,-0.3589907725187766,0.059492295595296056,2.616476615552559,0.5263795504983659,3
302,2024-09-23 20:57:38.775351074,0,015,-0.36189817456794526,0.06487263654514516,0.6480440209124047,-0.08042251240164247,-0.3076038000746512,0.05419952516634047,2.454293964209023,0.6113272254172406,3
303,2024-09-23 20:57:38.836942871,0,015,-0.35383078822242514,0.07154608317188323,0.6424510037363073,-0.050553392221176274,-0.26017729307917364,0.049133469516015195,2.2454610054595743,0.6841993514031678,3
304,2024-09-23 20:57:38.911184082,0,015,-0.3372574776523568,0.07559087805882872,0.6107641825241235,-0.018284293266923858,-0.21781437508408424,0.04467829536280832,2.004060388414415,0.7418106866880351,3
305,2024-09-23 20:57:38.976342041,0,015,-0.3139044724096097,0.0771829959211613,0.5582012683042437,0.012144185513545293,-0.1813553542275872,0.04128582636115322,1.7443440237255188,0.7818361593746038,3
306,2024-09-23 20:57:39.038351074,0,015,-0.2855175844304614,0.07653565873859221,0.4910919539132063,0.036406380562462794,-0.1514425092577307,0.039433315441984425,1.4802621357495651,0.8028654847839697,3
307,2024-09-23 20:57:39.100408936,0,015,-0.25372136883050156,0.07387695380111266,0.41611085521156455,0.0504755117604155,-0.12859938180761052,0.03956414404970484,1.224826189714904,0.8043694716652472,3
308,2024-09-23 20:57:40.023212891,0,015,-0.21992485867069336,0.06944624727496006,0.3395979078592657,0.050984598924522874,-0.11327842445974425,0.042028323363054794,0.9892111551757592,0.7866536853604538,3
309,2024-09-23 20:57:40.085212891,0,015,-0.1852430485751647,0.06349959546320019,0.26703257293001104,0.035550287633096506,-0.10582636750091101,0.047033924597454604,0.7818546260475608,0.7508181339164168,3
310,2024-09-23 20:57:40.161972900,0,015,-0.15043670892450975,0.05631124224985557,0.2026811059575332,0.0030330125203558668,-0.1063679161034265,0.05461190773633951,0.6079036348206268,0.6986497639705432,3
311,2024-09-23 20:57:40.224010010,0,015,-0.11590958651642046,0.04817284796292272,0.14943259541448417,-0.04631395161471369,-0.114683137534402,0.06459467011928352,0.46908513786072775,0.6324146795944359,3
312,2024-09-23 20:57:40.301186035,0,015,-0.08178436114355353,0.039403276954153243,0.10875301418772677,-0.11082705035762384,-0.13015509508918957,0.07661233254395505,0.36390412672573363,0.5546065816127321,3
313,2024-09-23 20:57:40.362733887,0,015,-0.048032218276296015,0.03037387353375179,0.08064942602048623,-0.1875272650674204,-0.15180014383201537,0.09011248795658916,0.2881757950862126,0.4677099540155024,3
314,2024-09-23 20:57:40.439439941,0,015,-0.014601880723493851,0.021534138436796958,0.06365081689590742,-0.27231087354004135,-0.17835511729782585,0.10440462944234608,0.23588901610686608,0.3740350733918953,3
315,2024-09-23 20:57:41.382842041,0,015,0.01850532000396476,0.013409621651602404,0.054911951530633676,-0.3602412460621993,-0.20840534946575023,0.11872468731214583,0.2002709944920234,0.2757009764093733,3
316,2024-09-23 20:57:41.449148926,0,015,0.05123125929489388,0.00655504728754919,0.050515727391097706,-0.4459453209100555,-0.240547844240404,0.13231101563246872,0.17493565549637546,0.17477027833646328,3
317,2024-09-23 20:57:41.518474121,0,015,0.0834942880291504,0.0014727790483321946,0.04598379725079638,-0.5240919130961436,-0.2735638922190621,0.14447808963198627,0.15497747279767005,0.07343104967805832,3
318,2024-09-23 20:57:41.581537842,0,015,0.11521393954243918,-0.0014768932975581823,0.03694817715763491,-0.5898894012402062,-0.3065407206386267,0.1546703368536146,0.13774191232364197,-0.025890387601248524,3
319,2024-09-23 20:57:41.644022949,0,015,0.14631573027164507,-0.002146259272273349,0.019833994735483907,-0.6395063758090003,-0.3388847736547341,0.16248597450588798,0.12305092236635073,-0.12054636120627954,3
320,2024-09-23 20:57:41.721652100,0,015,0.17673787350949036,-0.0006296967999909443,-0.007651734613852233,-0.6703322578411345,-0.37023669271440623,0.16768026826647503,0.11287227682570038,-0.20781815225547656,3
321,2024-09-23 20:57:41.789535156,0,015,0.20644982740471993,0.0027551120221557903,-0.04630740582578156,-0.681069515555149,-0.4003659165203754,0.1701675355908121,0.11053047719567019,-0.2851280906554642,3
322,2024-09-23 20:57:42.724733887,0,015,0.23545232909291772,0.007523160477274788,-0.09541286237105331,-0.6717089122898561,-0.4291062650593444,0.17002660183553298,0.11956507139521756,-0.3501922203235603,3
323,2024-09-23 20:57:42.800775146,0,015,0.2637215307674836,0.013096986293455974,-0.15279572386631435,-0.6434248818326441,-0.4563205283766114,0.16749873109580693,0.14246285848679893,-0.401065892364799,3
324,2024-09-23 20:57:42.868128174,0,015,0.2911110323664482,0.01888504652728516,-0.21498542494251072,-0.5984023715624266,-0.4818562761825852,0.1629741530237209,0.17971523815982599,-0.4361633484814428,3
325,2024-09-23 20:57:42.936233887,0,015,0.31728011885786883,0.02434960456913168,-0.27747361373394863,-0.5396227388799607,-0.5054922224432842,0.1569725787649615,0.22956924428143166,-0.45433365731012887,3
326,2024-09-23 20:57:43.002781006,0,015,0.34170497221978463,0.029051680994304534,-0.3350353269961379,-0.47063638771532373,-0.5268959988600488,0.15011319925150993,0.28831899942814876,-0.4549557376474353,3
327,2024-09-23 20:57:43.065327881,0,015,0.36375938414568676,0.03267092395273485,-0.3820756711937431,-0.39530121399669693,-0.5456040866450733,0.14306553167540703,0.3506491218256075,-0.4379610868735761,3
328,2024-09-23 20:57:43.127383057,0,015,0.38280247362841147,0.035011158968965596,-0.41307097002707654,-0.31744296306113223,-0.5610401929528934,0.13649315167457957,0.40980256378168894,-0.4037621286835924,3
329,2024-09-23 20:57:44.083595947,0,015,0.3982332825485184,0.03600415600796723,-0.42317207319983857,-0.24044725678115897,-0.5725949069826576,0.13101520732905905,0.4577649712354947,-0.3531418379228864,3
330,2024-09-23 20:57:44.147840088,0,015,0.40952707969046714,0.03571427453890644,-0.40887432986548156,-0.16687319207372506,-0.5797583532390279,0.12718958230804864,0.4857605075523976,-0.28717227944140106,3
331,2024-09-23 20:57:44.209891113,0,015,0.416285743055131,0.034335937468374045,-0.368539096350855,-0.0982116903060541,-0.5822593846546287,0.12549778546854398,0.4850977837669247,-0.2071815629791671,3
332,2024-09-23 20:57:44.271967773,0,015,0.418298987637296,0.032173290436354314,-0.30261879857497376,-0.034868725712823324,-0.5801654424100582,0.1263183019616067,0.44805993211475,-0.11472490043578412,3
333,2024-09-23 20:57:44.354756104,0,015,0.4155803287857523,0.029598060387850667,-0.21361979607313333,0.02364660824162664,-0.5739237000064532,0.12989322442721873,0.36855046061149527,-0.01152436187331584,3
334,2024-09-23 20:57:44.410245850,0,015,0.40835667924854807,0.02699389641437368,-0.1059422459207648,0.0784419898092434,-0.5643440114926659,0.1362976981856231,0.24255788604347478,0.10058243817371929,3
335,2024-09-23 20:57:44.487404053,0,015,0.3970245144340419,0.024706121957403227,0.014377041587688169,0.13098452441798772,-0.5525355474230593,0.14542036424478208,0.06864735803741162,0.21960902458926565,3
336,2024-09-23 20:57:45.434343018,0,015,0.382099703319201,0.023012951491613774,0.1401532693149612,0.1828893393411359,-0.539809029008672,0.15695775775231496,-0.15145457217764946,0.34326022431820147,3
337,2024-09-23 20:57:45.499567139,0,015,0.36418101877432246,0.022117359903402203,0.2638365864964124,0.23569815575838,-0.52754632756261,0.1704145618494754,-0.4122464254704549,0.46869113674648843,3
338,2024-09-23 20:57:45.569680908,0,015,0.343926318690376,0.02214745386369131,0.3784485669868483,0.2906012316061095,-0.517046295938777,0.185104348601356,-0.7039432017800007,0.5923079175250441,3
339,2024-09-23 20:57:45.637659180,0,015,0.3220244891042069,0.023158672089324994,0.47844518110141365,0.34813768516635263,-0.5093685297167315,0.200163633336494,-1.0122300269209548,0.7096942617966097,3
340,2024-09-23 20:57:45.705468994,0,015,0.29915738125691804,0.025139540928201972,0.5603101290453725,0.4079916550336559,-0.5051876756412321,0.21459657003747765,-1.318502726259673,0.8156896508348603,3
341,2024-09-23 20:57:45.763895020,0,015,0.275969197943859,0.028020264700566053,0.6227637701084816,0.4689885046558755,-0.504666167712628,0.2273502648668474,-1.6009911968362769,0.9046928672723229,3
342,2024-09-23 20:57:45.841025146,0,015,0.2530616519012453,0.03167779016023009,0.6665719847022856,0.5292929863456621,-0.5073693630934396,0.23740325043554034,-1.8370008238552407,0.9712410392497274,3
343,2024-09-23 20:57:46.781441895,0,015,0.23100283724582527,0.035936458628473146,0.6940007423378072,0.5867369645881116,-0.5122636536171963,0.2438500537220545,-2.005831836282903,1.0107346635963896,3
344,2024-09-23 20:57:46.839340820,0,015,0.21031138763379,0.0405746764616682,0.7080217447638921,0.6391836450455416,-0.5178321735979143,0.24597797666591323,-2.091464277669605,1.0200721922705838,3
345,2024-09-23 20:57:46.916524902,0,015,0.19140160860187194,0.04534582097120739,0.7114844410646276,0.6848147606675288,-0.5222963650612097,0.2433367768914305,-2.0843118315516227,0.9980307480717067,3
346,2024-09-23 20:57:46.979013916,0,015,0.1745327818942568,0.050005096479263586,0.7065208005238626,0.7222431629867897,-0.5238787856728744,0.23579137087540036,-1.981864821385694,0.9453558972623997,3
347,2024-09-23 20:57:47.040108887,0,015,0.15982065184392294,0.05432476392857209,0.694321605712916,0.750453258766453,-0.5210444615587226,0.22354139188714972,-1.7884253272434532,0.8646124975081643,3
348,2024-09-23 20:57:47.117343018,0,015,0.14731024989490338,0.058090379044949444,0.6752123594292946,0.7686708882921802,-0.512698218443147,0.2071026206921999,-1.5142796387829125,0.7598856164068271,3
349,2024-09-23 20:57:47.188685059,0,015,0.1370457460850917,0.061088080461020246,0.6488462144174417,0.7762687067917895,-0.4983306531127815,0.18726022256766714,-1.1745632115302034,0.6364177387252835,3
350,2024-09-23 20:57:48.133745850,0,015,0.1290859625177444,0.0631002780442452,0.6143646080918873,0.7727699130045819,-0.47809676079409513,0.165006211635822,-0.7879043892470217,0.5002518490220349,3
351,2024-09-23 20:57:48.201530029,0,015,0.12347856852836547,0.06392104961859307,0.5705267328290674,0.7579736849817482,-0.4528154571966417,0.14146871824491303,-0.3749260987173493,0.35790608566354176,3
352,2024-09-23 20:57:48.260870850,0,015,0.12023562891773956,0.06338731274541945,0.5159680160147377,0.7321468572697999,-0.42388848776608906,0.11783680472804976,0.043186178154707155,0.21605211592656956,3
353,2024-09-23 20:57:48.337116943,0,015,0.11932243361839892,0.06140895784649722,0.4496826151563478,0.6961494599165716,-0.39313706089439293,0.09527969318002087,0.4458675669903872,0.0811903548593158,3
354,2024-09-23 20:57:48.399714111,0,015,0.12063028283365224,0.0579868916764746,0.3715891380867657,0.6513988786034638,-0.36255872359091346,0.0748567169854769,0.8141153647733997,-0.040614851258710574,3
355,2024-09-23 20:57:48.461743164,0,015,0.12391397125717853,0.053223417073541716,0.2829680834957585,0.5996910127047674,-0.33403115654807164,0.057423657382993966,1.1312721164711785,-0.14389572000789566,3
356,2024-09-23 20:57:48.539748047,0,015,0.1287263501701212,0.04733089350669253,0.1866466187049739,0.5429790911073847,-0.30902269494259577,0.04355785137100559,1.383744410518964,-0.22390886468233648,3
357,2024-09-23 20:57:49.456089111,0,015,0.1344036456550041,0.040633389216034814,0.08682724902894905,0.483234129803182,-0.2883739794970628,0.03352591162687749,1.5618432584341353,-0.2768635941902016,3
358,2024-09-23 20:57:49.517975098,0,015,0.1401249451910149,0.03354876737980045,-0.011487003214673903,0.42245096561706635,-0.2721802791690416,0.027296131350744535,1.6608274438652808,-0.3002964047805157,3
359,2024-09-23 20:57:49.591507812,0,015,0.14502220279820124,0.026545955601401793,-0.10328632628515604,0.3627298190019503,-0.25977675331114025,0.024579219387868972,1.6818443205143672,-0.29348045771865233,3
360,2024-09-23 20:57:49.654372070,0,015,0.14828254116852935,0.020090321602971414,-0.18422725656688063,0.3062932773118223,-0.24982905140929718,0.0248835546187725,1.6322718903150044,-0.2576944177423069,3
361,2024-09-23 20:57:49.715896973,0,015,0.1491915261898419,0.014598964440108803,-0.25101113577385087,0.25537805453611534,-0.24051875795323746,0.02757764241867708,1.5251986510546658,-0.19626498609098386,3
362,2024-09-23 20:57:49.794833984,0,015,0.14711944660893161,0.010416952127364336,-0.3015341975786251,0.2120439198189891,-0.22977464416262394,0.031951369986419544,1.3781332075856305,-0.1144216352069425,3
363,2024-09-23 20:57:49.854371094,0,015,0.1415021635000807,0.007808366403605271,-0.33487556986102457,0.17794380952807257,-0.2154833825521885,0.0372690017782805,1.2112434830773493,-0.019021733988065094,3
364,2024-09-23 20:57:50.792592041,0,015,0.13186376538968564,0.006946718798565104,-0.3510976784318561,0.15407795372674674,-0.19564856523943316,0.04281185840706893,1.0453838059133382,0.08186246859693717,3
365,2024-09-23 20:57:50.874016112,0,015,0.11788056449827979,0.007892151663363562,-0.35089773499491517,0.14059302689496814,-0.16851529570923257,0.04790774666253403,0.8999738124087948,0.179546386926692,3
366,2024-09-23 20:57:50.932261963,0,015,0.09944569496574338,0.010557808527726285,-0.3352553207736441,0.13669615357222803,-0.13270007738411962,0.051944995558121015,0.790812363463322,0.26552459170017656,3
367,2024-09-23 20:57:51.009530029,0,015,0.07669449923013018,0.014686175719610953,-0.3051892163144104,0.14069124753019926,-0.08736340443028989,0.05438036994275837,0.728211243146096,0.3323359852398174,3
368,2024-09-23 20:57:51.071874023,0,015,0.0499871362554488,0.019858340568394597,-0.26163181937764207,0.15010635440564124,-0.03241866397960449,0.054754346582013565,0.7159492926891798,0.37431839631251995,3
369,2024-09-23 20:57:51.145019043,0,015,0.019878777843286927,0.025539055634198463,-0.2053811859149468,0.1618843965756161,0.03129550101487903,0.05271410584078536,0.7513122203644705,0.388085304944082,3
370,2024-09-23 20:57:51.211187988,0,015,-0.012899165889863716,0.031142846983820707,-0.13710913583585624,0.17260920229427326,0.10195751060727283,0.04803387496582375,0.8261945560294083,0.372630277231673,3
371,2024-09-23 20:57:52.131489990,0,015,-0.04745368786841204,0.03610762014473397,-0.057425763071324944,0.17875492508441,0.1768312839451741,0.040627667536688915,0.9289550251360899,0.3290988952613572,3
372,2024-09-23 20:57:52.189918945,0,015,-0.08274888101044811,0.039965900676253795,0.03299569146972681,0.17697795480456974,0.2524204545072173,0.03056142126050651,1.0464556425916456,0.26040418235636076,3
373,2024-09-23 20:57:52.268109131,0,015,-0.11761829256219539,0.042400480808850775,0.13322884868946397,0.1644520992848521,0.3246849252537835,0.01807133098606404,1.1657052722727206,0.1708560138962189,3
374,2024-09-23 20:57:52.328957031,0,015,-0.15077220955704496,0.04327295164380563,0.24184559196098654,0.13919814972712385,0.3893344643816207,0.0035779328984814514,1.2748013403893392,0.06582855343060803,3
375,2024-09-23 20:57:52.390477051,0,015,-0.18083342444776193,0.042623753553012955,0.3566238617453463,0.10035965554797517,0.44220420556856826,-0.012326466442660396,1.3632876657189548,-0.048611356493161596,3
376,2024-09-23 20:57:52.471333008,0,015,-0.20643389471444448,0.040650637198517456,0.4742460280416264,0.04840369170873031,0.4796768747223869,-0.028926217872840526,1.4223285125363463,-0.16613806101690126,3
377,2024-09-23 20:57:52.539053955,0,015,-0.22635569948626635,0.03767138451333195,0.5901131372300767,-0.014796013037530814,0.4990969687235523,-0.04545222818227901,1.4449467723243228,-0.2805939934513073,3
378,2024-09-23 20:57:53.482513916,0,015,-0.23965324079428962,0.0340717761186232,0.6984657296889333,-0.086067511490116,0.49911364088484833,-0.061151753888770186,1.4262693982742765,-0.38634475631076426,3
379,2024-09-23 20:57:53.550113037,0,015,-0.24571106450384553,0.030243697529888428,0.7928912950362691,-0.16127468454123958,0.47988380837344113,-0.07534694531757921,1.3636664846833313,-0.47855607280076334,3
380,2024-09-23 20:57:53.602746094,0,015,-0.24425850308663763,0.02652896622572667,0.8671121767822555,-0.23581872728198602,0.44309409217972096,-0.08748124320698336,1.2567462622129757,-0.5534058930116608,3
381,2024-09-23 20:57:53.680397949,0,015,-0.23539378162347788,0.023185349482629188,0.9158754150876809,-0.3051928444585222,0.3918060351575173,-0.09715285440036646,1.1072096871663324,-0.6082297499150909,3
382,2024-09-23 20:57:53.742447998,0,015,-0.21962935383261123,0.0203784303640594,0.9357787048578099,-0.36549106926206204,0.3301557298925582,-0.10413051653712621,0.9186337895659046,-0.6415816255878634,3
383,2024-09-23 20:57:53.821470947,0,015,-0.1979199299935198,0.018190545044200212,0.9258391691707181,-0.4138014548639301,0.2629518788213104,-0.10834967860775047,0.6962966963625014,-0.6531848371424711,3
384,2024-09-23 20:57:53.880665039,0,015,-0.17164054284818722,0.016637342504699847,0.8876244652453394,-0.4484266098464023,0.19522285156054378,-0.10989474309013099,0.4470902736251431,-0.6437889907372838,3
385,2024-09-23 20:57:54.825701904,0,015,-0.14252312631299371,0.015690921402959312,0.824954624422105,-0.4689242029250899,0.13176566812716928,-0.10897424711099565,0.1795132928569301,-0.6150470616017724,3
386,2024-09-23 20:57:54.887330078,0,015,-0.11257256584822617,0.01531295186161029,0.7433680301580871,-0.4760327193478937,0.07675192389764905,-0.1058915742445436,-0.09627039032596862,-0.5695291506399008,3
387,2024-09-23 20:57:54.968233154,0,015,-0.0839554668573411,0.015493925662297544,0.6494887825269398,-0.4715372561648914,0.033423725877719704,-0.10101177415388528,-0.36847332190604565,-0.5108046146905842,3
388,2024-09-23 20:57:55.035957031,0,015,-0.05884034316483204,0.016285387793977184,0.5502973571669663,-0.458043581901104,0.0038896284127711844,-0.09472914509578885,-0.6241494578782952,-0.44337030470147243,3
389,2024-09-23 20:57:55.102361084,0,015,-0.0391992990005976,0.017812662284844006,0.4523607475807216,-0.4386097512596497,-0.01094995738552015,-0.08744543430173185,-0.8502550638763144,-0.37228497312526304,3
390,2024-09-23 20:57:55.164393799,0,015,-0.026614798499169118,0.020263738860323767,0.3612080841299266,-0.4162820378088487,-0.011318928754057501,-0.07956282147927626,-1.0350940549374235,-0.30257238570396483,3
391,2024-09-23 20:57:55.226389893,0,015,-0.02212452714265595,0.023857308647738072,0.2809676893931465,-0.39366227535015297,0.0016377854790418727,-0.07148129138387571,-1.1696496692645295,-0.2385913792047574,3
392,2024-09-23 20:57:56.182774902,0,015,-0.02611454349538429,0.028796248228647466,0.21422035868462855,-0.3726142535753709,0.026081609630649347,-0.06358387223464437,-1.248375032677199,-0.18357463768912,3
393,2024-09-23 20:57:56.250605957,0,015,-0.038279583523257096,0.035214773602874776,0.16206522958015657,-0.3541795296718681,0.05965946885179267,-0.056202874241180804,-1.2694036383076712,-0.1394290343670458,3
394,2024-09-23 20:57:56.302781006,0,015,-0.057680868387471704,0.04313342548704592,0.1244641413659486,-0.33872602245141636,0.09964008580654209,-0.04957661979089229,-1.2344065090526481,-0.10677211066826996,3
395,2024-09-23 20:57:56.381295898,0,015,-0.08290109353593207,0.05244150457706563,0.1007341408750949,-0.32622924284783933,0.1430711764070415,-0.043814331617938365,-1.148224127489633,-0.0851317959840679,3
396,2024-09-23 20:57:56.443781006,0,015,-0.11223990792922717,0.06291507694566786,0.08988252094101745,-0.31650100516662605,0.18700647728410283,-0.03888281727345428,-1.0182595689986342,-0.07323046677599936,3
397,2024-09-23 20:57:56.521418945,0,015,-0.14387420952764735,0.07425448763293847,0.09065487094016891,-0.3092745073076001,0.22878227465926604,-0.03462231168243257,-0.853712470768285,-0.06925905243691131,3
398,2024-09-23 20:57:56.587376221,0,015,-0.17595768585319918,0.0861172220499378,0.10145605148888608,-0.30421169039702484,0.26626023490139633,-0.030792108248657832,-0.664887004682296,-0.07104506395347031,3
399,2024-09-23 20:57:57.524645020,0,015,-0.20669513544187323,0.09813575587983636,0.120352124856916,-0.30092387724597985,0.2979527819194304,-0.027135739978667864,-0.4627736369406687,-0.0760959414447548,3
400,2024-09-23 20:57:57.600649902,0,015,-0.23442818995165587,0.10992595701550761,0.1451590397847233,-0.29899684418388317,0.3230108427976365,-0.02344779873333479,-0.25888715046363814,-0.08162449255169307,3
401,2024-09-23 20:57:57.663135010,0,015,-0.2577295897432673,0.12109840863322453,0.1734647268208283,-0.2979459537483936,0.3411180531903984,-0.019623368611303732,-0.06510514612927516,-0.08469869414071221,3
402,2024-09-23 20:57:57.730421143,0,015,-0.2754782430822082,0.1312795757581392,0.20256205347649653,-0.2970897884041692,0.35236147564309034,-0.0156761896172105,0.10680659860305003,-0.0825463206364787,3
403,2024-09-23 20:57:57.803960205,0,015,-0.2868953553591828,0.14013827830370895,0.22950092528377522,-0.2954467760474472,0.3571417290694298,-0.011728489639909821,0.24606180288906254,-0.07290048553909627,3
404,2024-09-23 20:57:57.864548096,0,015,-0.29155502629847846,0.14741136134853258,0.2514267329909601,-0.291782472553652,0.35614322854644165,-0.007992073586034515,0.34383843841043266,-0.05424478894329281,3
405,2024-09-23 20:57:57.926570801,0,015,-0.28940234156106875,0.15292700370024012,0.26608219566986757,-0.2848318295179709,0.3503332915756406,-0.004756833482745113,0.3940190933989401,-0.025915451968572867,3
406,2024-09-23 20:57:58.871774902,0,015,-0.2807858323694663,0.15662047332676965,0.27215877151538626,-0.27359782708713554,0.340952413686425,-0.00238712027275278,0.39360076024184154,0.011884903925975443,3
407,2024-09-23 20:57:58.950710938,0,015,-0.26647170088254396,0.1585331934570622,0.26930124958271306,-0.2575945426690848,0.3294875950549827,-0.0013155997898524178,0.3429227114953062,0.05810944443367337,3
408,2024-09-23 20:57:59.007751953,0,015,-0.24760244110313465,0.15879076427838557,0.25786489230656046,-0.2369716006568438,0.31762135418140386,-0.0020202778023784194,0.24582237822098202,0.11092057948502666,3
409,2024-09-23 20:57:59.084955811,0,015,-0.2255967547554997,0.15756262245946404,0.2386822750330049,-0.2125386345710698,0.3071296699119084,-0.004975275198392051,0.10966628927454188,0.16777495832306588,3
410,2024-09-23 20:57:59.147111816,0,015,-0.20202760611368956,0.155014485013606,0.2129949912917826,-0.18571582260585598,0.2997272279366919,-0.010581581497553094,-0.05494103126449739,0.2255396545626075,3
411,2024-09-23 20:57:59.221791016,0,015,-0.17851254850313347,0.15127324491162678,0.18253270351749892,-0.15840432638035407,0.2969040922033426,-0.019096857058219067,-0.23494734557566097,0.28067016888774154,3
412,2024-09-23 20:57:59.289573975,0,015,-0.15660080111996988,0.1464180817397494,0.14962512882178494,-0.13276813136594529,0.29979294539267454,-0.030581605175111545,-0.4161006663812924,0.3294761592114799,3
413,2024-09-23 20:58:00.202449951,0,015,-0.13761501820192817,0.14049062406596075,0.11719941744154601,-0.11094149905382533,0.30906977685966164,-0.04487202430119439,-0.5844500260977208,0.3684445780562474,3
414,2024-09-23 20:58:00.264486084,0,015,-0.1224536933193233,0.13350500279341412,0.08855837728569496,-0.09470742749171215,0.3248787569363204,-0.06158529065089169,-0.7278772837482891,0.39456084595778373,3
415,2024-09-23 20:58:00.341383057,0,015,-0.11142616768481586,0.1254474169494294,0.06694122183070063,-0.08522198792485833,0.3467845847579244,-0.08015495114918222,-0.8373617113599515,0.4055846396381766,3
416,2024-09-23 20:58:00.403439941,0,015,-0.10418738165017045,0.11626899320120046,0.05496952091911104,-0.08285799083602038,0.3737740900091058,-0.09988448769034329,-0.9076134130794238,0.4002410754833892,3
417,2024-09-23 20:58:00.465938965,0,015,-0.09977294493249252,0.10588126579350096,0.054133306759941144,-0.08720328483268397,0.40433230917307017,-0.12000321685409251,-0.9369405547502948,0.3782881251664285,3
418,2024-09-23 20:58:00.546874023,0,015,-0.09669571349478798,0.09416183490827487,0.06444447975957641,-0.09718804821950323,0.43659215305852556,-0.13971245528077547,-0.9266104410398409,0.3404672258420493,3
419,2024-09-23 20:58:00.614615967,0,015,-0.0930914078391526,0.08097331611537842,0.08431324760063036,-0.11126181811064786,0.4685302574897871,-0.15822250528700466,-0.8801625843359385,0.28839870368064147,3
420,2024-09-23 20:58:01.558132812,0,015,-0.08693224393788383,0.06619421707281739,0.110675232129074,-0.12756161779019182,0.4981812766627552,-0.17479226614179272,-0.802997629308482,0.22447531149206024,3
421,2024-09-23 20:58:01.625945068,0,015,-0.07630277237536943,0.04975845318337439,0.13939120201490196,-0.1441056105964299,0.523849783774958,-0.18877828646243888,-0.7022063993178504,0.15175141204362916,3
422,2024-09-23 20:58:01.690944824,0,015,-0.05968036107601104,0.03169967118471025,0.16588196024289673,-0.15907905200552236,0.5442987203800137,-0.19968668762620356,-0.5863444852082337,0.07379042176967064,3
423,2024-09-23 20:58:01.752944824,0,015,-0.03614572883544667,0.012191730906944465,0.18587134226988963,-0.17118009285554409,0.5588882890448427,-0.2072167486773229,-0.46494913539957217,-0.005548728970196812,3
424,2024-09-23 20:58:01.815429932,0,015,-0.005476530102716388,-0.008430379801424246,0.19606431824207254,-0.17989238230781035,0.5676282364064011,-0.2112899796321855,-0.3478697309752075,-0.08236140936675432,3
425,2024-09-23 20:58:01.893537109,0,015,0.03187549791623664,-0.029681965337908036,0.1946079933498532,-0.1855793913432756,0.5711113192416403,-0.21206390239793796,-0.24460731581063733,-0.15294047020281948,3
426,2024-09-23 20:58:01.956410889,0,015,0.07488879518454641,-0.05097093615009624,0.18125847722339905,-0.18938675069572866,0.5703373112260746,-0.20992752393690398,-0.163734432141038,-0.21398962891665382,3
427,2024-09-23 20:58:02.883126953,0,015,0.12212381630582449,-0.07165829766751096,0.15728749215860846,-0.19298520256777582,0.5664836769549295,-0.20547046328118795,-0.11230378056953404,-0.2628119447486553,3
428,2024-09-23 20:58:02.940519043,0,015,0.17189934504891755,-0.09112154335717237,0.12522920732253967,-0.19819933643296597,0.5606899436096873,-0.1994234538034238,-0.0951928987659205,-0.2974869786111542,3
429,2024-09-23 20:58:03.018686035,0,015,0.22245821814260436,-0.10880705917933706,0.08852079035194707,-0.20658684099921842,0.5538966165567598,-0.1925779988487639,-0.11451413953060023,-0.31702625328512196,3
430,2024-09-23 20:58:03.080542969,0,015,0.27207541119372186,-0.12426141608312984,0.05105645998513445,-0.21906184593600744,0.5467411230929281,-0.18569413920895483,-0.1692641452495321,-0.32147210205556104,3
431,2024-09-23 20:58:03.142074219,0,015,0.3190857692369093,-0.13713798680186545,0.01672912000864233,-0.23565921390445013,0.5394943443225266,-0.17940826230934306,-0.25524971007455527,-0.31190954556520567,3
432,2024-09-23 20:58:03.221909912,0,015,0.3618651771089877,-0.14718636064003549,-0.011000375882750504,-0.2554652341394745,0.5320309852408562,-0.17416168273061533,-0.36530878539631223,-0.29034654749625904,3
433,2024-09-23 20:58:03.282185059,0,015,0.3988340079987219,-0.15424412691778375,-0.029563288942799724,-0.2766585280430554,0.523844735753547,-0.17016896750541005,-0.48994192522708835,-0.2594124687525322,3
434,2024-09-23 20:58:04.245445068,0,015,0.42851799404114727,-0.15824792499558765,-0.03775137260128037,-0.2966277757877683,0.5141254021165219,-0.16742992040312815,-0.6182760024937372,-0.22194205607502748,3
435,2024-09-23 20:58:04.322616211,0,015,0.44964081341786055,-0.15925912446181134,-0.03601265555604059,-0.31219536493290473,0.5019003363512767,-0.16577103547272995,-0.7389785237172857,-0.18065426372753324,3
436,2024-09-23 20:58:04.384646973,0,015,0.4612088852849103,-0.1574820363789961,-0.02642632208310114,-0.3199502153272432,0.48621000569310435,-0.16489092348987028,-0.8408978968558342,-0.13808204250298678,3
437,2024-09-23 20:58:04.447437988,0,015,0.46257764004516644,-0.15325853750563218,-0.012394243566307882,-0.3166266457572114,0.46626797826901767,-0.1643907844629503,-0.9135545218534586,-0.09670734563159399,3
438,2024-09-23 20:58:04.528377930,0,015,0.45350436707766784,-0.14704142921913288,0.0018098067910364325,-0.29945617580937134,0.4415759097461933,-0.1637922228857965,-0.9476431214688453,-0.05911437818043768,3
439,2024-09-23 20:58:04.591887939,0,015,0.43417617040353257,-0.13935651830384146,0.011522707364114258,-0.26644768899780824,0.41199480437849545,-0.1625598336100355,-0.9357070662135151,-0.027968164747997005,3
440,2024-09-23 20:58:04.663945801,0,015,0.4051872420808712,-0.1307575254319439,0.01214785272040284,-0.2165753630987965,0.3777698567708192,-0.16014244226148552,-0.8732189863521429,-0.005739104929495056,3
441,2024-09-23 20:58:05.577572998,0,015,0.36746057869948334,-0.12177377830161583,-0.00043584517437203404,-0.1498682954337142,0.3394907389540328,-0.15603164463983832,-0.7599876811995366,0.005720085223657406,3
442,2024-09-23 20:58:05.650206055,0,015,0.3221515159104081,-0.11285783790076742,-0.029486457704538976,-0.0674164316607584,0.2979911590514838,-0.14982343482307442,-0.6012589540124706,0.005521555774898125,3
443,2024-09-23 20:58:05.716843994,0,015,0.27058881404147606,-0.10435143401679817,-0.07700158843536796,0.028652101175281296,0.2542322737195812,-0.1412659342021639,-0.4077803770403414,-0.006138456146478508,3
444,2024-09-23 20:58:05.778848877,0,015,0.21426937125147247,-0.0964837841658785,-0.14334126852728418,0.13515917807183622,0.20921743197613996,-0.13028251366850416,-0.19459575767489795,-0.028048568522030384,3
445,2024-09-23 20:58:05.841334961,0,015,0.15485933222546838,-0.08939383827396762,-0.2269754616508772,0.24784661725818144,0.16394961847213133,-0.11696964176305749,0.020996708369657925,-0.058073982785308946,3
446,2024-09-23 20:58:05.919440918,0,015,0.09414693002053554,-0.08315286242599497,-0.32449811228236963,0.3614429768198968,0.11941477369839235,-0.10157623787898155,0.22152028721894154,-0.09315544856573166,3
447,2024-09-23 20:58:05.981938965,0,015,0.033944866428825424,-0.07777101648256615,-0.43101650774929406,0.4699553065668824,0.07656675736574217,-0.08447304250452094,0.39085694543102445,-0.12926943458396628,3
448,2024-09-23 20:58:06.917968018,0,015,-0.02401918612427236,-0.07318885517242092,-0.5408927053287661,0.5672239348480548,0.03629285275886085,-0.06611984005192294,0.5152846621776483,-0.16152439452538267,3
449,2024-09-23 20:58:06.995209961,0,015,-0.07818884062115093,-0.06926824157495316,-0.648661051877341,0.6476475177825554,-0.0006371972437096391,-0.04703773304669127,0.5844196917709593,-0.1845180099286755,3
450,2024-09-23 20:58:07.057313965,0,015,-0.12723315303288302,-0.06580005873503893,-0.7498764807359642,0.7068995498500148,-0.033609992301448795,-0.027789331780106258,0.5923035200304463,-0.19293038954658234,3
451,2024-09-23 20:58:07.135665039,0,015,-0.17008334355353666,-0.06253493493854557,-0.841645255218017,0.742452553617799,-0.062181959795669664,-0.008963122788676564,0.5384311267330633,-0.1822371208771308,3
452,2024-09-23 20:58:07.196543945,0,015,-0.20596532354511687,-0.0592273941275911,-0.922667633448855,0.7537839682938431,-0.08608749213966486,0.00884353923121257,0.42824715346359177,-0.14942104862762381,3
453,2024-09-23 20:58:07.258559082,0,015,-0.2344150126816816,-0.05567858588717694,-0.9928424840699668,0.7422357919699575,-0.10525473545516906,0.025045638543981452,0.2728318195886547,-0.0935660423936734,3
454,2024-09-23 20:58:07.335746094,0,015,-0.25525476092280913,-0.05176768076085434,-1.0526922743290241,0.710602967125492,-0.11980979346644417,0.039095469740893146,0.08786493997759322,-0.016208187523695943,3
455,2024-09-23 20:58:08.282476807,0,015,-0.26854275452458337,-0.04746701182854586,-1.1028542330831372,0.6625871310909943,-0.13006084022087594,0.050513412038635346,-0.10795903871267765,0.07864766490563985,3
456,2024-09-23 20:58:08.342218018,0,015,-0.2745373681068158,-0.04283890700790038,-1.143724212335084,0.6022462806638873,-0.1364952864398974,0.05893419067664769,-0.2948813834402118,0.18483676265312846,3
457,2024-09-23 20:58:08.417996826,0,015,-0.2736978724472377,-0.038014168338666034,-1.1752354402177916,0.5335224356330935,-0.13980349861221356,0.06416961625377979,-0.45402275099574874,0.29456215967976995,3
458,2024-09-23 20:58:08.481406982,0,015,-0.2666943357304918,-0.03315536151090704,-1.1967570498981528,0.4599032632083304,-0.14087507389390705,0.06626231598992488,-0.5689565322433338,0.3990404838938714,3
459,2024-09-23 20:58:08.553467041,0,015,-0.2543780920380459,-0.028416938482668967,-1.2071153516717632,0.3842586821237607,-0.14071098870550655,0.06549833874753319,-0.6268799470880999,0.489238530569803,3
460,2024-09-23 20:58:08.606123047,0,015,-0.23769473058563384,-0.023920890226686708,-1.2047384622401178,0.3088354365445055,-0.14026174184504486,0.06237048219559768,-0.6195640025115172,0.5566914033453068,3
461,2024-09-23 20:58:08.683769043,0,015,-0.21757121749588001,-0.019757916833490756,-1.1879498436035083,0.23535386945798853,-0.14025401169436563,0.05750852499175997,-0.5441856982617335,0.5943450642770828,3
462,2024-09-23 20:58:09.632818848,0,015,-0.19482397887279593,-0.016006469821761765,-1.1554159488070932,0.16518267345117368,-0.1410703835216536,0.051599588315014155,-0.40396763289495713,0.5973293029597386,3
463,2024-09-23 20:58:09.697766113,0,015,-0.1701128055197982,-0.012751558841410767,-1.1066305680997233,0.09957309300403602,-0.14270310521015897,0.04531328383631598,-0.20841854401330884,0.563543830455673,3
464,2024-09-23 20:58:09.760252930,0,015,-0.1439362224310802,-0.010089439946498713,-1.0422428303099864,0.039874997585073596,-0.14475398101186218,0.03923279630537187,0.027062069264589466,0.49391309106042597,3
465,2024-09-23 20:58:09.822283936,0,015,-0.11664440653895489,-0.008120541437814308,-0.964114549927331,-0.012361630399870345,-0.1464581704380761,0.03379268399721063,0.28237959562617815,0.39220541553906013,3
466,2024-09-23 20:58:09.903937012,0,015,-0.08845346447018866,-0.00694375133933505,-0.8751676773808886,-0.0554249538722674,-0.14675514739857518,0.029234494787581593,0.5346926633822965,0.26446478512256894,3
467,2024-09-23 20:58:09.960928955,0,015,-0.05947509649450517,-0.006655081886671703,-0.7791930251711182,-0.08757189822232893,-0.14444100011810926,0.025592537217737917,0.7607566867814958,0.1182631427769399,3
468,2024-09-23 20:58:10.038089111,0,015,-0.029782808060290468,-0.007337550076826888,-0.6806898894300678,-0.10720102456553966,-0.1383908745689732,0.022713457397057504,0.9391680721957092,-0.03800138292851248,3
469,2024-09-23 20:58:10.950942871,0,015,0.0004965200828099947,-0.009033002599256231,-0.5846315050690015,-0.11303718386028816,-0.12778748021761938,0.02030230292524456,1.0521887438242197,-0.1956569966518751,3
470,2024-09-23 20:58:11.013449951,0,015,0.031104998040050416,-0.011707450235978955,-0.49604759586490105,-0.10430093140397416,-0.11228290160566393,0.017976859808807432,1.087075180011912,-0.34617275032882383,3
471,2024-09-23 20:58:11.091087158,0,015,0.061612951461994483,-0.015230592775647223,-0.41943454821008946,-0.08084710821638944,-0.092066522368243,0.015314830837881281,1.036912868871335,-0.48148740564993325,3
472,2024-09-23 20:58:11.160865967,0,015,0.09139671358012151,-0.01937562329740983,-0.35810490794628236,-0.04326839576205294,-0.06786986019919027,0.01189755707236105,0.9009356108957691,-0.5943317065328181,3
473,2024-09-23 20:58:11.214519043,0,015,0.11960785537586933,-0.023829300764153915,-0.3136547580684336,0.007043599713108679,-0.04094685024479731,0.007361570896551155,0.6843370198271607,-0.6786138919545082,3
474,2024-09-23 20:58:11.292218994,0,015,0.1451469659848564,-0.02820509370926252,-0.28573459880567387,0.06789267444522246,-0.01302519688111961,0.0014547306724508528,0.39761720114338417,-0.729823095127689,3
475,2024-09-23 20:58:11.357843018,0,015,0.1666955680615153,-0.032064456513127546,-0.2722379516039729,0.136356505583895,0.013799465746147785,-0.005918246428873979,0.0555295193716562,-0.745296778552325,3
476,2024-09-23 20:58:12.302899902,0,015,0.18284700729267633,-0.03495550070534047,-0.2698865937338648,0.20898413705588806,0.03722909733758029,-0.014674623195344273,-0.3241897441880031,-0.724264006274543,3
477,2024-09-23 20:58:12.364913086,0,015,0.19231369604215337,-0.03647006188941062,-0.2749978717302257,0.2820893272077818,0.05496094806791158,-0.02456629238450322,-0.7220355347627619,-0.6677226903131236,3
478,2024-09-23 20:58:12.441656006,0,015,0.19413451955419192,-0.03630651785527272,-0.2840905215101546,0.35203689186547216,0.06488915825937462,-0.035226665726072255,-1.1177555627697293,-0.5782374556321568,3
479,2024-09-23 20:58:12.503687012,0,015,0.18781631069300697,-0.034318658790599935,-0.29408775016697397,0.41543229792453445,0.06528812399859855,-0.046234130455643785,-1.4912297163648494,-0.45969914670543005,3
480,2024-09-23 20:58:12.571941895,0,015,0.17339936545506165,-0.03053487044135763,-0.3021471730991225,0.46922888467406465,0.05495683823826405,-0.057162446933742575,-1.8232894492404392,-0.31708949335832365,3
481,2024-09-23 20:58:12.646434082,0,015,0.15147677688159986,-0.025144053512890462,-0.3053569740874652,0.5108322927944353,0.033324701594729056,-0.06760092336359635,-2.096532221145891,-0.15628996607674467,3
482,2024-09-23 20:58:12.711637939,0,015,0.12318741097012746,-0.01846052980817832,-0.3005533474803974,0.5382403273452299,0.0005454985891913558,-0.07715640780041248,-2.2961991832732314,0.016088175389671243,3
483,2024-09-23 20:58:13.650305908,0,015,0.09016597913995676,-0.010887067530307647,-0.28437491126240994,0.5501777270565971,-0.04241263227472996,-0.08546347029439591,-2.4111907370884067,0.19291842733315706,3
484,2024-09-23 20:58:13.722712891,0,015,0.054420902809129354,-0.002885072639873049,-0.2535122554141253,0.5461517227433449,-0.09372590506013732,-0.09221175644277826,-2.43518020832963,0.3668594928936343,3
485,2024-09-23 20:58:13.790251952,0,015,0.018144625391880314,0.005052725101376436,-0.20504565968258645,0.5263855617499066,-0.15078808497437182,-0.09717186654029052,-2.3675273890130595,0.5307277948375994,3
486,2024-09-23 20:58:13.861083008,0,015,-0.01648771316610464,0.012431514363759904,-0.1367885207534387,0.491658303955447,-0.2104267166035213,-0.10019459070927803,-2.2135569426182746,0.6778916166736357,3
487,2024-09-23 20:58:13.913844971,0,015,-0.04746624646954645,0.0187798986206585,-0.04759425575672765,0.443128895002089,-0.2692234482842718,-0.10118113684684099,-1.9839648505016942,0.8026263352415146,3
488,2024-09-23 20:58:13.991085938,0,015,-0.07303040146897362,0.023665073431560487,0.062391529068634266,0.38221568040052045,-0.3238464289273556,-0.10005371083992255,-1.6934209986048718,0.9003605714187967,3
489,2024-09-23 20:58:14.053122070,0,015,-0.09173360779219883,0.026701482009821288,0.19152088429440534,0.31056603067266897,-0.37131180330817615,-0.09675921956122335,-1.3586141509179332,0.9677449760885147,3
490,2024-09-23 20:58:15.006757080,0,015,-0.10252286850310698,0.027562832074628903,0.33647400529896654,0.23009042220422427,-0.40915731722166787,-0.09130546854567714,-0.9961087623880729,1.0025450473531723,3
491,2024-09-23 20:58:15.075582031,0,015,-0.10481520615483797,0.026003863185908506,0.4922288561693651,0.14297097654971042,-0.43554998409007695,-0.08380025945004953,-0.6204766493109575,1.0034873244574034,3
492,2024-09-23 20:58:15.143304199,0,015,-0.09852510832285444,0.021890262683996645,0.6523075871101354,0.05157878114672511,-0.4493361172255338,-0.07446902221644393,-0.24312183136179602,0.9702367456702885,3
493,2024-09-23 20:58:15.211050049,0,015,-0.08401659404979157,0.01522620102848692,0.8093122253092562,-0.04166326801162753,-0.45004049667839463,-0.06364903080638505,0.12797672752665337,0.9035592441589276,3
494,2024-09-23 20:58:15.268304199,0,015,-0.06199912776372446,0.006166490969471084,0.9556220036270914,-0.13439110529407902,-0.43783764954305604,-0.051773678218910074,0.4876335842104136,0.8055675995271513,3
495,2024-09-23 20:58:15.346590088,0,015,-0.03342210057556196,-0.004988444644745877,1.0840832421702458,-0.22434108091317434,-0.41350602441623713,-0.03936158083993058,0.8322205583678464,0.6799265518915768,3
496,2024-09-23 20:58:15.414366943,0,015,0.0005833221120379764,-0.017802174051287974,1.1885457093571645,-0.30932256445538436,-0.3783491077736262,-0.02701399509793651,1.1583238320786942,0.531942637574944,3
497,2024-09-23 20:58:16.332950195,0,015,0.03871407463877056,-0.03170655964770582,1.2641709070590688,-0.38715646264556125,-0.33406786615360057,-0.015409444220831597,1.4618337629104943,0.3684828116108559,3
498,2024-09-23 20:58:16.385677979,0,015,0.07950414454257439,-0.04600944914024862,1.307539681693362,-0.4556483398169618,-0.28259140535590715,-0.005282838784611684,1.7377302790718288,0.1976948853415341,3
499,2024-09-23 20:58:16.464052979,0,015,0.12138128620791647,-0.059924755192858864,1.3166504262894452,-0.5126496287411761,-0.22588833450167944,0.002610593511174461,1.980390963977947,0.028556258906941703,3
500,2024-09-23 20:58:16.536361816,0,015,0.16277530678588378,-0.07263463940048848,1.2908852565898445,-0.5561899505872993,-0.16578713034933473,0.0075397376633088,2.1840951736645713,-0.12971895589016275,3
501,2024-09-23 20:58:16.598824951,0,015,0.20223871826633513,-0.08337569461920698,1.2309741569129355,-0.5846174109645562,-0.10383684053868246,0.008851399752466004,2.343622435710241,-0.2684154799671381,3
502,2024-09-23 20:58:16.671859131,0,015,0.23853864834689747,-0.09152767473109813,1.1389826195322492,-0.5967156926706173,-0.041226797245193444,0.006036876520052122,2.454991375112313,-0.3801589595970696,3
503,2024-09-23 20:58:16.738017090,0,015,0.270714271871324,-0.09668220509047622,1.0183607516231235,-0.5918205378024833,0.021239713469114394,-0.0011957536200063127,2.516192922975417,-0.45972832890718507,3
504,2024-09-23 20:58:17.678726074,0,015,0.29812659692619126,-0.0986807893395429,0.8740181825623885,-0.5699476050159644,0.08312526635792683,-0.012857866576847126,2.5275904203794104,-0.5046586639221899,3
505,2024-09-23 20:58:17.740773926,0,015,0.32051219303804074,-0.09762343274363303,0.7122761093291633,-0.531889124928638,0.14427924994864452,-0.028638461783909386,2.4918253620943087,-0.515507175495526,3
506,2024-09-23 20:58:17.818822998,0,015,0.3379996676535891,-0.09385038779068507,0.5405532324953448,-0.47922165481679924,0.2046837871334469,-0.04789646759708932,2.413336784706368,-0.49572497034331114,3
507,2024-09-23 20:58:17.886770020,0,015,0.35103075391669447,-0.08789808991942989,0.36676925770437935,-0.4141988340725624,0.26424420157948314,-0.06969563758895618,2.297641214696147,-0.45112542758648544,3
508,2024-09-23 20:58:17.943332031,0,015,0.36018350774317004,-0.0804351095410374,0.19859525467263633,-0.33954417739776493,0.322593559386709,-0.09288023367734456,2.1505267335248295,-0.3890188106007334,3
509,2024-09-23 20:58:18.022300049,0,015,0.3659655927088125,-0.07218946630601855,0.04276968499523606,-0.2581998165044382,0.3789902725612584,-0.11617987354355898,1.977478878296128,-0.3172067745123587,3
510,2024-09-23 20:58:18.082142090,0,015,0.3686583136906948,-0.06387955980850711,-0.09535118789504375,-0.17310495509139445,0.432337352649618,-0.1383280262805865,1.7836345760510268,-0.2430936550305521,3
511,2024-09-23 20:58:19.033019043,0,015,0.36824523424316646,-0.056158310737654905,-0.21198336636383366,-0.08705188408128701,0.48128618695077435,-0.15817465698117658,1.574175400250635,-0.17307965066636966,3
512,2024-09-23 20:58:19.090122070,0,015,0.3644088811247685,-0.04957497506489395,-0.30489763385235086,-0.002624047095272589,0.5243598362283789,-0.17476745290468304,1.3547233524772002,-0.11223747428498045,3
513,2024-09-23 20:58:19.166922119,0,015,0.3565676154680264,-0.044552446487508314,-0.3732817669533416,0.07781684475703297,0.5600499826658053,-0.18738207008180952,1.131355757236981,-0.06418671195763542,3
514,2024-09-23 20:58:19.228922119,0,015,0.34394381534722046,-0.04137453567601181,-0.41761933967042714,0.152155254039451,0.5868852669105061,-0.1955068370527132,0.9101776683619862,-0.031079750964845467,3
515,2024-09-23 20:58:19.304102051,0,015,0.32566861696736704,-0.04018187965012196,-0.4396605437465138,0.21861507792786394,0.6035018114417899,-0.19881223839245526,0.6966327789855656,-0.013651338227201559,3
516,2024-09-23 20:58:19.371856934,0,015,0.3009134570053346,-0.04097901326633571,-0.4424087349970153,0.27593235926198667,0.6087405777531294,-0.19713678326512085,0.49482657945898706,-0.011343993140029124,3
517,2024-09-23 20:58:19.429918945,0,015,0.26901557402843784,-0.04365049779435515,-0.43001195229670125,0.3235532283166031,0.6017609564454013,-0.19049626350615514,0.30711134805418083,-0.02253727960877481,3
518,2024-09-23 20:58:20.379013916,0,015,0.22957864940460465,-0.047979821010297144,-0.4075235267644028,0.36176067590808025,0.5821334054181783,-0.17909745030831295,0.13395790105564206,-0.04484741158224421,3
519,2024-09-23 20:58:20.440138184,0,015,0.1825648187206228,-0.05366864340779897,-0.3805481631418108,0.3916553083251298,0.5498889794807732,-0.16333824495231875,-0.0260520644666471,-0.07541459518461885,3
520,2024-09-23 20:58:20.518146973,0,015,0.12838416366323638,-0.06035595778385177,-0.3548492249508316,0.41500337845628654,0.5055479726689287,-0.14379486344213874,-0.17617353818259296,-0.11110998479347269,3
521,2024-09-23 20:58:20.581037109,0,015,0.06794033656091612,-0.0676326197416782,-0.33602836174449796,0.4340296352508557,0.45015210700998737,-0.12120212678097882,-0.32132437813946013,-0.14864031549401943,3
522,2024-09-23 20:58:20.654297119,0,015,0.0025883527057374792,-0.07504791409032609,-0.32927125270467816,0.4511923059154414,0.3852688439731237,-0.09642673866185973,-0.46773075257480323,-0.1845958388467898,3
523,2024-09-23 20:58:20.720295898,0,015,-0.06598286411362835,-0.08211264778919006,-0.33900514818723276,0.4689146086333646,0.3129095875723803,-0.07043064016813452,-0.6222795946762809,-0.21553622273146814,3
524,2024-09-23 20:58:20.782296875,0,015,-0.13588750083187537,-0.08830598389119985,-0.3683652040169415,0.4892741177863118,0.2353540682524452,-0.04421954223525898,-0.7915648917228005,-0.23815979411978178,3
525,2024-09-23 20:58:21.690493896,0,015,-0.20515189109373325,-0.09309090114882859,-0.4185775485830917,0.5137144031711126,0.15495242836378015,-0.01877607937731913,-0.9809192336816639,-0.24949698894332342,3
526,2024-09-23 20:58:21.770906982,0,015,-0.271780324550284,-0.09594378976595415,-0.4885078715224899,0.5428430527229441,0.07400443738914993,0.005006801554751366,-1.1937025711271785,-0.24705128401915288,3
527,2024-09-23 20:58:21.841562988,0,015,-0.33379530930658646,-0.09640168653684472,-0.5745546438795329,0.5763346837041606,-0.005250428800943311,0.026370708227526997,-1.430772822257948,-0.22888503797290718,3
528,2024-09-23 20:58:21.907509032,0,015,-0.38929395862436683,-0.09411724179271296,-0.6708734630937154,0.612923093805926,-0.080597592214427,0.04470963290222455,-1.6900578248142013,-0.19369052530904488,3
529,2024-09-23 20:58:21.969993896,0,015,-0.4365528917951361,-0.08889856201983216,-0.7697927795496607,0.6504549469719044,-0.1498548087288036,0.05957106114431756,-1.9664814355141023,-0.14086809631876968,3
530,2024-09-23 20:58:22.044940918,0,015,-0.4741640147774152,-0.0807178872024291,-0.8623017549239296,0.6859941605609132,-0.2109393800548244,0.07064924537027102,-2.252464923683983,-0.07061676295500138,3
531,2024-09-23 20:58:22.109194092,0,015,-0.5011371207168067,-0.06969621539843544,-0.9386148000791787,0.7160029791472298,-0.261940413714158,0.07777197551421872,-2.538754715518339,0.015953479678284598,3
532,2024-09-23 20:58:23.056045166,0,015,-0.5169132827747349,-0.05608727669387658,-0.9888971143279384,0.7366225773725009,-0.30114764342802797,0.08088271852313068,-2.815063956887802,0.11668185582214931,3
533,2024-09-23 20:58:23.109525879,0,015,-0.5212928933358719,-0.04027738360417654,-1.004160171185183,0.7440154177194026,-0.3270539435487893,0.08002686188410484,-3.0702745482585776,0.22821802696313057,3
534,2024-09-23 20:58:23.187190918,0,015,-0.5143401780308466,-0.02279538265965378,-0.9771969205122848,0.734698002804954,-0.33839560047787925,0.07535149764157918,-3.29243448943168,0.345970180812137,3
535,2024-09-23 20:58:23.248292969,0,015,-0.49633216014584147,-0.004311944465764742,-0.9033472679581577,0.7058219325618418,-0.33426719419591183,0.06711687691637673,-3.4690293817879883,0.46424938333653315,3
536,2024-09-23 20:58:23.327189941,0,015,-0.46777682872006626,0.014390360025540148,-0.7809311985037127,0.6553951130141987,-0.31427521779505213,0.05570479572404867,-3.5877697286578387,0.5766545381245252,3
537,2024-09-23 20:58:23.387563965,0,015,-0.4294730163120769,0.03248242739427035,-0.6113678286749581,0.582452650187294,-0.27866014450911614,0.04161010222136865,-3.637710451767333,0.6766325617503577,3
538,2024-09-23 20:58:23.449628174,0,015,-0.3825608778762872,0.049178585637726514,-0.3991229058717622,0.4871941199454662,-0.22834828676016927,0.025414415438655625,-3.610394807672169,0.7580940401443016,3
539,2024-09-23 20:58:24.394231934,0,015,-0.3285325741872865,0.0638269586482836,-0.15155105361331414,0.3710878273883921,-0.1649354187477763,0.007750921139685217,-3.500883667863399,0.8159770761676892,3
540,2024-09-23 20:58:24.472337891,0,015,-0.26920730898993167,0.07597755047704731,0.12139898913146055,0.23692451944876153,-0.09061502347101809,-0.010727448657997775,-3.3086372440944283,0.846669214845141,3
541,2024-09-23 20:58:24.541701904,0,015,-0.20667370273824343,0.08541511684767963,0.4076207937658317,0.08880553011592729,-0.00807044628086416,-0.029362963678819926,-3.0381591587182473,0.8482232963274808,3
542,2024-09-23 20:58:24.608369141,0,015,-0.14318279279983723,0.0921515840845228,0.693421556110714,-0.0679557475326937,0.07964163391590093,-0.04748513589782898,-2.69924021377249,0.8203900859216868,3
543,2024-09-23 20:58:24.677291016,0,015,-0.08098930118409724,0.09638111084898751,0.9643060374745324,-0.22706588082439125,0.1692063714825113,-0.06439320174584091,-2.3066758736976305,0.7645811598211053,3
544,2024-09-23 20:58:24.732059082,0,015,-0.022172463983525494,0.09840977353402657,1.206027627382556,-0.38164712888441465,0.2571783704732412,-0.07935737362678971,-1.879448464024841,0.6838314127806027,3
545,2024-09-23 20:58:24.809290771,0,015,0.031525924958283894,0.09857765491006035,1.4057122414346979,-0.5247375871494699,0.3401267640771901,-0.09165705114104951,-1.4394427268108676,0.582697048522029,3
546,2024-09-23 20:58:25.751378174,0,015,0.07882706300158036,0.09719347571556473,1.5526819552075783,-0.6497745583410806,0.4147791118011345,-0.10064376992737237,-1.0098088988334166,0.4670150379333552,3
547,2024-09-23 20:58:25.812916016,0,015,0.1190006617474635,0.09449615724300733,1.638804122981817,-0.7509965091319399,0.4781499733976558,-0.10579970961264365,-0.6131589009210962,0.34356490543966833,3
548,2024-09-23 20:58:25.890885986,0,015,0.1519088267920154,0.09064358849446189,1.6585476253880014,-0.8237908825785158,0.527671335852633,-0.1067794277856164,-0.2698272226284466,0.21970479221213216,3
549,2024-09-23 20:58:25.952893066,0,015,0.17799752559604815,0.085720294116828,1.6090198639525386,-0.8650185553658586,0.5613500420572317,-0.10344715874913075,0.0036081796878239827,0.10296769266514726,3
550,2024-09-23 20:58:26.027381836,0,015,0.19821691943459102,0.079758803575868,1.490108052060511,-0.8732794106416167,0.5779367182842198,-0.09591778195266634,0.1954204707486354,0.0005695252407787638,3
551,2024-09-23 20:58:26.095186035,0,015,0.21386114676555662,0.07277248739043056,1.3047305965466398,-0.8490491100138274,0.577048094506124,-0.08458137743577658,0.29933703510084986,-0.0811373399413245,3
552,2024-09-23 20:58:26.162969971,0,015,0.22634864867378165,0.06479437990502426,1.0591251393106138,-0.7946506627601563,0.5591898030758304,-0.07007933035300108,0.31455378061399697,-0.1371557069482946,3
553,2024-09-23 20:58:27.093758057,0,015,0.23700383044825057,0.05591256011281812,0.7629663396607174,-0.7140689553785061,0.5256789700880307,-0.05322680802534322,0.24517893243940728,-0.16418337900826596,3
554,2024-09-23 20:58:27.174444824,0,015,0.24691142743310035,0.046291478074275486,0.4290654281166586,-0.6126295052751125,0.47851685352018525,-0.03491375074829826,0.09934044481400661,-0.16076092000336065,3
555,2024-09-23 20:58:27.231999023,0,015,0.2568615472317522,0.036172876541894584,0.07257732015344552,-0.4965726347622377,0.4202447981623489,-0.016021564700904625,-0.11166662844281207,-0.12724245368896292,3
556,2024-09-23 20:58:27.309701904,0,015,0.2673332577647151,0.025860206865929655,-0.29012827496060717,-0.3725779609775646,0.3537599866894034,0.0026315118065918814,-0.3739677034112966,-0.06563988357262993,3
557,2024-09-23 20:58:27.377672852,0,015,0.27846422422264416,0.015698554035496044,-0.6426898364609617,-0.24729697545658166,0.2820730342446447,0.020323498422593303,-0.671544099901332,0.020594701519294174,3
558,2024-09-23 20:58:27.434155029,0,015,0.2900155553300578,0.006061214674800035,-0.9699071539788838,-0.12691930009565405,0.2080457591271447,0.03645399033625156,-0.9867870331597649,0.12679167491544846,3
559,2024-09-23 20:58:27.512662842,0,015,0.301382894200276,-0.0026547971267086882,-1.2587594008446323,-0.01677018042135093,0.13417043397037767,0.05057477374371721,-1.3012989299181028,0.24728288701273576,3
560,2024-09-23 20:58:28.432606934,0,015,0.3116873383500602,-0.010034247290310553,-1.4992155816654547,0.07904801944118774,0.06243630708041926,0.062427217657429514,-1.596835176779253,0.3756593516569285,3
561,2024-09-23 20:58:28.497030029,0,015,0.31992586977837123,-0.01566319374906399,-1.684708491275523,0.1579120967998633,-0.00570432993250361,0.07197123679480424,-1.8562321326293496,0.5051084675093127,3
562,2024-09-23 20:58:28.558388916,0,015,0.3251223407885051,-0.019160601609687872,-1.8121892371502242,0.21876487797786698,-0.06929929847969368,0.079387704800602,-2.0643009263942487,0.6288270810484603,3
563,2024-09-23 20:58:28.621346924,0,015,0.3264387027747798,-0.020205436627239132,-1.881817403848901,0.2620239131983847,-0.12782994402181064,0.08505062827835194,-2.2086780424935637,0.7404483486188183,3
564,2024-09-23 20:58:28.698080078,0,015,0.32326068204100333,-0.018549987606183815,-1.896409614558152,0.289353738430994,-0.1811327752104984,0.0894781532945946,-2.2805244420677084,0.8343908725463475,3
565,2024-09-23 20:58:28.760566895,0,015,0.3152886496804946,-0.014026707911955524,-1.8607535332958756,0.30332891634964676,-0.2293077780315614,0.09326889256959524,-2.2750286566673785,0.9060898505962348,3
566,2024-09-23 20:58:28.838285889,0,015,0.30261678722901536,-0.006557346981532018,-1.7808982639685587,0.3069960411379083,-0.27261524153906036,0.09702599868735315,-2.1917981946395955,0.9521529879158132,3
567,2024-09-23 20:58:29.779141846,0,015,0.28574598916394894,0.003835406290933034,-1.6635182421547015,0.30338261615014905,-0.31137490141532004,0.1012802145643394,-2.03516587569092,0.9704779430343798,3
568,2024-09-23 20:58:29.849929932,0,015,0.26551159534482094,0.01701553319390423,-1.5153954985522953,0.29505758280096395,-0.34588263113293616,0.10643129867681582,-1.8142623794976416,0.9602913625270058,3
569,2024-09-23 20:58:29.917650879,0,015,0.24296461509613462,0.03272119984289731,-1.3430405720385465,0.2838389106160072,-0.3763496680182355,0.1127204126801192,-1.542589603006412,0.922057891012305,3
570,2024-09-23 20:58:29.979531006,0,015,0.2192600195145596,0.05055443967317218,-1.1524532708922115,0.27068045574853256,-0.40286515303281906,0.12023156928401885,-1.2368197088084072,0.8572538149983638,3
571,2024-09-23 20:58:30.053156006,0,015,0.19558954625291824,0.06997319273996819,-0.9490182657923278,0.25573648379185204,-0.42539193224327343,0.12890916664463936,-0.914728433534669,0.7680169346164892,3
572,2024-09-23 20:58:30.118968018,0,015,0.17316595102401247,0.09028488077714358,-0.7375722508268284,0.23859793831624176,-0.44380801989272994,0.13857637179563967,-0.5926085272191194,0.6567329718486888,3
573,2024-09-23 20:58:30.180028809,0,015,0.15322591203311067,0.11064997881666834,-0.5226655259042287,0.21865694793112625,-0.4579882029327782,0.14894824735689666,-0.2829342361809493,0.5257238669395478,3
574,2024-09-23 20:58:31.132180908,0,015,0.1370026043881623,0.13011143270883405,-0.3089145926162548,0.19548773426393998,-0.46789869314949084,0.15964654367333536,0.006901339240124539,0.37721058134736907,3
575,2024-09-23 20:58:31.199976074,0,015,0.12564779371280735,0.14765691964092403,-0.10125340895818387,0.1691095741941844,-0.47366560617904746,0.17022557300557054,0.27435110168691057,0.2135754282180268,3
576,2024-09-23 20:58:31.267782959,0,015,0.12013151200385466,0.16230213011247244,0.09501483161523733,0.14007381681552344,-0.4755720368191553,0.18020776567523877,0.520238394771632,0.03777774858970373,3
577,2024-09-23 20:58:31.335604004,0,015,0.12116506015920711,0.1731712993636632,0.2742890073885084,0.10942248606149124,-0.4739564049379939,0.18911719844598854,0.7468655437697589,-0.14629553571092235,3
578,2024-09-23 20:58:31.399652100,0,015,0.12915899663410843,0.17955778484915247,0.4307702776781352,0.07858372761098009,-0.4690488834798745,0.19650416865592218,0.9564995621800181,-0.3337096834207214,3
579,2024-09-23 20:58:31.461281982,0,015,0.14418495937237458,0.180966152279132,0.5586425238916466,0.0492157663894863,-0.46084349043960243,0.20196713706222222,1.150516375972098,-0.518650010340075,3
580,2024-09-23 20:58:31.538483887,0,015,0.16591391152069287,0.1771476377500466,0.6524697069450194,0.02298658055638099,-0.44908233270743547,0.20518103423768866,1.3291361315327186,-0.6948532921780335,3
581,2024-09-23 20:58:32.454840820,0,015,0.1935457688804328,0.1681333412084707,0.7078496604056345,0.0013065644887194745,-0.43335517036323923,0.20593489030182519,1.4916323871032753,-0.8561942401221135,3
582,2024-09-23 20:58:32.525620117,0,015,0.22577615142403396,0.1542537109897873,0.7221747103723167,-0.014916758948437353,-0.4132691051680293,0.204175022222664,1.6368117397815864,-0.9972495783181413,3
583,2024-09-23 20:58:32.586645996,0,015,0.2608374930806085,0.136125579696096,0.6952442509949496,-0.02540621887945005,-0.38861272360754634,0.20003562925526516,1.7634573955579205,-1.1137018529295852,3
584,2024-09-23 20:58:32.648192871,0,015,0.29661260685441043,0.11459944948519253,0.6295320586872589,-0.030466545440979615,-0.35943345246202746,0.1938312211529024,1.8705050328548898,-1.2025400983048151,3
585,2024-09-23 20:58:32.726302002,0,015,0.3307840303864267,0.09068112027759755,0.5300638924268656,-0.030778931110874194,-0.32601460395360216,0.18600913811914735,1.9569433100159808,-1.2620828327446147,3
586,2024-09-23 20:58:32.788341064,0,015,0.36098855794847856,0.06545177288149816,0.4040004219159026,-0.02712022745146197,-0.2888171145027769,0.17708972012745378,2.02164509188313,-1.2919110784156838,3
587,2024-09-23 20:58:32.864583008,0,015,0.3849790327097007,0.04000148218757331,0.26006121289789186,-0.020118352205042142,-0.2484404310177775,0.16761708596723313,2.0633380339119665,-1.2928003626392295,3
588,2024-09-23 20:58:33.795916016,0,015,0.4007985002021277,0.015375530193014058,0.1078567952417186,-0.010137460764590238,-0.20559587211212935,0.15811822952512206,2.080745906169077,-1.266661285473679,3
589,2024-09-23 20:58:33.874037109,0,015,0.40693471539178255,-0.007473876939027986,-0.04287743489028403,0.0027012188596021655,-0.16107985903917468,0.14905888490484892,2.0728060277669633,-1.216451724163161,3
590,2024-09-23 20:58:33.939662842,0,015,0.4024016536304112,-0.027732272285845665,-0.1830979139259498,0.018447189945236316,-0.11578275825160017,0.14079760993602497,2.038852525145746,-1.1460353310033633,3
591,2024-09-23 20:58:33.998034912,0,015,0.38672503742419023,-0.04475731137356664,-0.3051333797098581,0.037257810276723244,-0.07076580353032229,0.13355072565489629,1.9787544324788353,-1.059983104471428,3
