,time,MARKER,pid,L_O_DSI,L_D_DSI,L_O_DSphi,L_D_DSphi,R_O_DSI,R_D_DSI,R_O_DSphi,R_D_DSphi,trial_id
0,2024-09-24 12:14:54.553877197,TASK_BEGIN,016,-1.7288258387660422,0.4516976821691744,-1.5116558221154472,0.7565444243325401,-0.9996990525456843,0.2514373178553563,2.664013933355226,-0.06121007159274175,0
1,2024-09-24 12:14:54.621635986,0,016,-1.7362497613292267,0.461534286902772,-1.7215287221775484,0.7948940359485492,-0.9660036446886414,0.2563180085689564,2.4643397227283117,0.014869306158789142,0
2,2024-09-24 12:14:54.689438965,0,016,-1.7315539544808167,0.4687350514789289,-1.9342871854061578,0.8300620158968852,-0.9259551174488093,0.25786294507110236,2.2792096414531144,0.09693121976222645,0
3,2024-09-24 12:14:54.743822998,0,016,-1.715063669350071,0.4732695024643792,-2.1431862685774976,0.8616003706687491,-0.8843427021222077,0.2568492413394956,2.1152287598299164,0.18095219020757455,0
4,2024-09-24 12:14:54.821931885,0,016,-1.687629922374929,0.4752119310476358,-2.341262994314241,0.889201439572489,-0.8454279499605747,0.2540277074465761,1.9762236723012774,0.2632648885192699,0
5,2024-09-24 12:14:55.767481201,0,016,-1.6505882429626786,0.47473369218810524,-2.5219021689147003,0.9126378329192254,-0.8125850634664977,0.2500651159007453,1.863357314010812,0.3407565927514647,0
6,2024-09-24 12:14:55.826009033,0,016,-1.6056816909963052,0.4720878920030875,-2.679285678270829,0.9316966943414713,-0.7881088928800967,0.24551317631877978,1.7757096662168348,0.4109726548749519,0
7,2024-09-24 12:14:55.903685059,0,016,-1.5549602479963653,0.4675946582644867,-2.8086465880206615,0.9461146430950024,-0.7732306287572079,0.24081521070950773,1.7110233461841633,0.4721355561593133,0
8,2024-09-24 12:14:55.965681885,0,016,-1.5006384728833626,0.46162414754972664,-2.906344502120464,0.95552287329641,-0.7682757927873184,0.23633945423823022,1.6664869597840004,0.5230822767633047,0
9,2024-09-24 12:14:56.028167969,0,016,-1.444906843987714,0.4545693569551517,-2.9698568462815085,0.9594159094773981,-0.7728601692960744,0.23241073124168615,1.6395671909465848,0.563125636418411,0
10,2024-09-24 12:14:56.106369141,0,016,-1.389736150962735,0.44681114062566574,-2.997765256002442,0.9571663762427649,-0.7860582872496181,0.22931838887875772,1.628720482289703,0.5918903358491332,0
11,2024-09-24 12:14:56.175169922,0,016,-1.336722789309641,0.43868677930288846,-2.989751643399674,0.9481005584842266,-0.8065131648977458,0.22729692833069023,1.63366529858775,0.609207310425259,0
12,2024-09-24 12:14:57.104072998,0,016,-1.2869949323321779,0.4304686640396729,-2.946580134161547,0.9316166378631614,-0.832472969638318,0.22648693501310616,1.6551246179828405,0.6151027191414311,0
13,2024-09-24 12:14:57.183320068,0,016,-1.241185507367538,0.42235179875132756,-2.870026485734146,0.9073052461741956,-0.8617771529267849,0.22688852950532248,1.6941616765308118,0.6098525097587356,0
14,2024-09-24 12:14:57.244272949,0,016,-1.1994808166939752,0.41444955996713007,-2.762725065633882,0.8750405249995972,-0.891852905149527,0.22832557798861952,1.751195017597064,0.5940671590347365,0
15,2024-09-24 12:14:57.321779053,0,016,-1.1617337084054842,0.40680001613849504,-2.627966393181484,0.8350253749358543,-0.9197816725836818,0.23043917050741283,1.824908325356732,0.5687831027571295,0
16,2024-09-24 12:14:57.384663086,0,016,-1.1275938653661461,0.3993810931949344,-2.4695181553552463,0.7877830124047328,-0.9424612564706192,0.2327167619309548,1.9115394432253217,0.5355249415768646,0
17,2024-09-24 12:14:57.451777100,0,016,-1.0966085548094318,0.3921275469157458,-2.2914894266082837,0.7341033214587431,-0.9568481896572971,0.23454747480623964,2.0048611014761093,0.4963043737930807,0
18,2024-09-24 12:14:57.525193848,0,016,-1.0682866368343582,0.3849449879890936,-2.098213561844041,0.6749795822191245,-0.9602297533919183,0.23528684462777089,2.0966651245005097,0.453554984919897,0
19,2024-09-24 12:14:58.429580078,0,016,-1.0421407198734387,0.37772258406953113,-1.8941448066882633,0.6115726769470482,-0.9504599853916981,0.23431987773640542,2.1774669324165536,0.4100070295647876,0
20,2024-09-24 12:14:58.506753906,0,016,-1.0177125763000485,0.3703467037285377,-1.6837714439414797,0.5451988076278119,-0.9261162996318679,0.23112018003002766,2.237423289748409,0.3684831045594438,0
21,2024-09-24 12:14:58.568885986,0,016,-0.9945805435199186,0.3627126400144772,-1.4715233518168436,0.477307333745651,-0.8865850070292527,0.22530435573789914,2.267415975230605,0.3316347086176742,0
22,2024-09-24 12:14:58.631233887,0,016,-0.9723592977919148,0.35473113566809206,-1.2616437652583594,0.4094351235425881,-0.8321184786290933,0.21667959027688666,2.259992065670426,0.30170582106209565,0
23,2024-09-24 12:14:58.712465088,0,016,-0.9507110697374261,0.3463335919721423,-1.0580590027525372,0.3431550174977169,-0.763879835485723,0.2052816950173729,2.209965167114306,0.28037790118412464,0
24,2024-09-24 12:14:58.770914062,0,016,-0.9293705530783776,0.3374812677815103,-0.8643795571256224,0.28004324064203495,-0.6839358412747213,0.19139388175172242,2.114770007226349,0.2686755391399472,0
25,2024-09-24 12:14:58.848131836,0,016,-0.908163267402298,0.32817421109422523,-0.684123909827984,0.22167024738288202,-0.5951595766574271,0.17553310280874296,1.9746192794371802,0.2669135283039823,0
26,2024-09-24 12:14:59.779596924,0,016,-0.8870124100065168,0.31845335347427245,-0.5210206514231179,0.16958335431211286,-0.5010658566260986,0.15840603947514817,1.7923287215795194,0.2747004161756435,0
27,2024-09-24 12:14:59.856756836,0,016,-0.8659571992594454,0.3084006433863768,-0.37907289266605104,0.1252392161798987,-0.4056221017230906,0.1408531876012916,1.57273483193754,0.2910078484863077,0
28,2024-09-24 12:14:59.929187988,0,016,-0.8451818950069797,0.2981441499821529,-0.2622031999124667,0.08988240912511963,-0.3130226695671022,0.12379517895366943,1.3218870457986192,0.3142933981540321,0
29,2024-09-24 12:14:59.996439941,0,016,-0.8250129387389086,0.2878611942552113,-0.17359076721458916,0.06440660127382172,-0.22740313137254797,0.10818305610725733,1.0464032429458496,0.3426489963815061,0
30,2024-09-24 12:15:00.058927979,0,016,-0.8058651819070508,0.27776857572514435,-0.11494282120597377,0.0492352249559605,-0.15254798513379944,0.0949511126914934,0.7532942075684254,0.37393900365538246,0
31,2024-09-24 12:15:00.120488770,0,016,-0.7881728126415238,0.2681023814075413,-0.08589287809999101,0.04424763386103311,-0.09167410725226074,0.08497067395267334,0.45018082610048477,0.40591838579407374,0
32,2024-09-24 12:15:00.198613037,0,016,-0.7723355354263366,0.25909733186135114,-0.08369248782663481,0.048779514784889795,-0.04729284451522538,0.07899930580606102,0.14549730028110516,0.43636717111419554,0
33,2024-09-24 12:15:01.106705811,0,016,-0.7586693418927031,0.2509681315463491,-0.103349052935619,0.06171047412597536,-0.021095960607570376,0.07762183410344196,-0.15169066843524964,0.46327089303487684,0
34,2024-09-24 12:15:01.186461914,0,016,-0.7473501087251271,0.24388908352635508,-0.13822631625092427,0.08160900441656731,-0.013847042768485012,0.08119023160104542,-0.4322780348373085,0.4850163698345102,0
35,2024-09-24 12:15:01.245781006,0,016,-0.7383661066541943,0.23797329747374338,-0.1809435125771138,0.10688416529512043,-0.025305881374255695,0.08977781498072712,-0.6878033735148066,0.5005407332138201,0
36,2024-09-24 12:15:01.308209961,0,016,-0.731503210312898,0.23326100175537492,-0.22433688765781204,0.13591133466942576,-0.05421450015522967,0.10316320664839486,-0.9108459892386321,0.509393698379079,0
37,2024-09-24 12:15:01.386657959,0,016,-0.7263692304366096,0.22972493130757274,-0.26231478199420827,0.1671300022275909,-0.0983728291564724,0.12085299590426851,-1.0950109684302662,0.5116990431774479,0
38,2024-09-24 12:15:01.457618896,0,016,-0.7224444568599051,0.22728899944055758,-0.29057589824139285,0.1991389427948145,-0.1548360072291925,0.14214038269785065,-1.234683033102529,0.5080227069548869,0
39,2024-09-24 12:15:01.525437012,0,016,-0.7191434978282385,0.2258493572683919,-0.3071862375136375,0.2308102962927263,-0.22022103596566098,0.16618437279255416,-1.3248579989358618,0.49918816570808455,0
40,2024-09-24 12:15:02.468722168,0,016,-0.7158771462233838,0.2252914782285812,-0.31286686056810786,0.26139152021313394,-0.29103140505874514,0.19208744371230368,-1.3612884862526966,0.4860988709128306,0
41,2024-09-24 12:15:02.536562988,0,016,-0.712093672294978,0.2255013462476814,-0.3107728196156258,0.290522186453476,-0.3638803294921241,0.21895127837904046,-1.3409663725866001,0.4696086972639361,0
42,2024-09-24 12:15:02.596304932,0,016,-0.7072820963456663,0.22636731315749106,-0.3056958644815573,0.3181244659012624,-0.4355599964889376,0.24590006469110998,-1.262700922091878,0.45043963490653577,0
43,2024-09-24 12:15:02.658790039,0,016,-0.7009502463976026,0.22777005625945285,-0.30288006342793516,0.34420316582284916,-0.5030243831357026,0.27208054064328163,-1.1275042090461125,0.4291287326457457,0
44,2024-09-24 12:15:02.736718994,0,016,-0.6926057691861132,0.2295648085162368,-0.30681864381928853,0.36863896848970756,-0.5634210421421652,0.2966654613785463,-0.9387118534863528,0.4060098387565787,0
45,2024-09-24 12:15:02.807749023,0,016,-0.6817495647572173,0.23156602809421586,-0.32036400617623323,0.3910435901724352,-0.6142366047338759,0.3188801047727766,-0.7018602064564211,0.3812354073801996,0
46,2024-09-24 12:15:02.875552002,0,016,-0.6678753330560114,0.23354340362617365,-0.34426364110929375,0.410697630492518,-0.6534814083211354,0.33804438792927455,-0.42426629267867105,0.35480964229822354,0
47,2024-09-24 12:15:03.813654053,0,016,-0.6504811444499549,0.2352311604730963,-0.37704342913687383,0.42656355217506214,-0.679797695499106,0.35360841269740895,-0.1143847039795311,0.32662251443736046,0
48,2024-09-24 12:15:03.876142090,0,016,-0.6291103662639126,0.236346999192697,-0.41510492012015204,0.4373638987768137,-0.6924625885998817,0.36517027035789207,0.21869815361398845,0.29653568391667,0
49,2024-09-24 12:15:03.954278076,0,016,-0.6034156254425483,0.23661536448063436,-0.4529381394987825,0.4417041069117233,-0.6913388469626244,0.37248145898378715,0.565240208977172,0.2645633422634683,0
50,2024-09-24 12:15:04.021709961,0,016,-0.5732158820581249,0.2357905785590365,-0.48344135081127426,0.43820788735273786,-0.6768207305110694,0.3754474902020384,0.9142912502016609,0.23109579387050308,0
51,2024-09-24 12:15:04.081064941,0,016,-0.5385404496479824,0.23367762515437515,-0.49843716114689424,0.4256509947954317,-0.6497839957273002,0.3741247167800077,1.253095456203635,0.19704356709044551,0
52,2024-09-24 12:15:04.157047119,0,016,-0.49967993410221556,0.23015046272122197,-0.4894800026353285,0.40309730752414485,-0.6115421686116882,0.3687135305752965,1.5670505427641197,0.16380343515645843,0
53,2024-09-24 12:15:04.225558105,0,016,-0.45723746420588324,0.22516776473721203,-0.4489209728811292,0.3700297381417552,-0.5638203370931198,0.35955193391683965,1.8405531550121768,0.13302863401630952,0
54,2024-09-24 12:15:05.158116211,0,016,-0.4121340422124622,0.21878212622630538,-0.37102011772135984,0.32645691527054516,-0.5087437852557719,0.34711141786553285,2.0585395657017838,0.10629148302231939,0
55,2024-09-24 12:15:05.236736084,0,016,-0.3655268640819446,0.2111331396811683,-0.2528184801025722,0.27298249924669427,-0.44880676149980525,0.331988265117039,2.208063223828428,0.08479528949908552,0
56,2024-09-24 12:15:05.296861816,0,016,-0.3186484766253997,0.20241837887272146,-0.09459164251934835,0.21083328892450492,-0.3867767593248747,0.3148789030571693,2.279395967599339,0.06923289943924187,0
57,2024-09-24 12:15:05.372365967,0,016,-0.27262517232993716,0.19285212859460693,0.1000724033174153,0.1418515107295869,-0.3255114517291465,0.2965337859791345,2.2666866278121174,0.05977200690119987,0
58,2024-09-24 12:15:05.435669922,0,016,-0.22833225189217662,0.182630162251713,0.3244364682970453,0.0684554081919532,-0.26769132984865673,0.27769284470409644,2.1683682996188134,0.05610800743373124,0
59,2024-09-24 12:15:05.497675781,0,016,-0.18629704706612846,0.17190764403510203,0.5690104903905341,-0.006449102581918426,-0.2155023705604908,0.25901099033396396,1.9872817164981194,0.057555454653360934,0
60,2024-09-24 12:15:05.575709961,0,016,-0.1466403518097485,0.16078461919399284,0.8222557664703137,-0.07962692793563109,-0.1703381540201395,0.24098711494848435,1.7303409181658365,0.063187705963379,0
61,2024-09-24 12:15:06.506017090,0,016,-0.10907341088945723,0.14929732981313584,1.0715382935721194,-0.14772615578826356,-0.1325859376077983,0.22391245218523173,1.4077117569974469,0.07202958199753305,0
62,2024-09-24 12:15:06.577562988,0,016,-0.07297613071483944,0.13742189067127145,1.304150788813485,-0.20750308750795463,-0.10152715117519545,0.2078503049965465,1.0318057576866166,0.08324661027951805,0
63,2024-09-24 12:15:06.654612061,0,016,-0.0375455794628771,0.12509282740473074,1.508287517751077,-0.2560400513708296,-0.07537835229375779,0.19265258052444986,0.6164339338632594,0.09624829751932623,0
64,2024-09-24 12:15:06.716697021,0,016,-0.0019721792686693304,0.11222971424587389,1.6739436286679712,-0.2909560258035076,-0.051500626046152374,0.17801214245612926,0.1761034714657652,0.11068540250588149,0
65,2024-09-24 12:15:06.778217041,0,016,0.0343986185793678,0.09876423523064179,1.7936866362340158,-0.31059951927936064,-0.02675870325504052,0.1635420893996115,-0.27477310268777927,0.126408256971612,0
66,2024-09-24 12:15:06.855864990,0,016,0.07195115816722654,0.08466383061686882,1.863190500558145,-0.31419668332356343,0.0020503057717691556,0.1488641079172422,-0.7228253601885236,0.14347950960811962,0
67,2024-09-24 12:15:06.925811035,0,016,0.11074970113255317,0.06994739232950825,1.8814229993028624,-0.3019249935605957,0.03778827752875184,0.13368367508116052,-1.1566324745316874,0.16224859207266965,0
68,2024-09-24 12:15:07.860740967,0,016,0.15054937995258863,0.054686540906265915,1.8504411438129864,-0.2748963942217721,0.08263933457102861,0.11783629589142536,-1.5672462092258281,0.18337249354038535,0
69,2024-09-24 12:15:07.923218018,0,016,0.19084064176897603,0.03899205595560737,1.7748340830884255,-0.23505183130907636,0.13786456584627527,0.10130346297902566,-1.9480733146799514,0.2076734891640099,0
70,2024-09-24 12:15:08.003675049,0,016,0.23089994048132884,0.02299532776274607,1.660916204819512,-0.18497589950284213,0.20365576531061302,0.08420925185823012,-2.294161333793518,0.23586320830554175,0
71,2024-09-24 12:15:08.064263184,0,016,0.2698493725923667,0.006835258062354902,1.5158191229191487,-0.12764915432212276,0.27908269565624844,0.06681104919749874,-2.6012106349810566,0.268256521990553,0
72,2024-09-24 12:15:08.139265137,0,016,0.3067424940335405,-0.009347989429955197,1.3466623553524342,-0.06617902605603869,0.36212194341750253,0.04949091898530251,-2.864683758413869,0.3045571519438735,0
73,2024-09-24 12:15:08.203946045,0,016,0.34065744581440904,-0.02541432965569711,1.1599610122329234,-0.0035598043591652923,0.44976185591420176,0.03274468606258692,-3.0792069683208023,0.3437176689251386,0
74,2024-09-24 12:15:08.266431152,0,016,0.3707567782701905,-0.041218579639832637,0.9613490616288978,0.05751027099995017,0.5381812071024116,0.017161728412872456,-3.2382932346582596,0.3838741657380713,0
75,2024-09-24 12:15:09.191520020,0,016,0.3963184702099092,-0.05660065961792628,0.7556232104476169,0.11475111597327928,0.6230091070701177,0.003388758535777068,-3.3344913089012067,0.4224118676829917,0
76,2024-09-24 12:15:09.258043945,0,016,0.4167748436249591,-0.07138105628779357,0.54707340672123,0.16635747997230244,0.6996839460345374,-0.0079273436365975,-3.360186172079565,0.4562177888689179,0
77,2024-09-24 12:15:09.320072998,0,016,0.4317521713231916,-0.08536732687176933,0.3400077886326349,0.21097904114709548,0.7638953499976255,-0.01621435243687501,-3.3090637275908117,0.48208364705987744,0
78,2024-09-24 12:15:09.382561035,0,016,0.4410636546672661,-0.0983641782833596,0.13930710964634735,0.24763374359208848,0.8120318598476066,-0.021050707372335036,-3.1778363233101317,0.4971460611285457,0
79,2024-09-24 12:15:09.462743164,0,016,0.444647710216093,-0.11017719330582619,-0.049191789724654475,0.2756032439251899,0.8415420433786955,-0.022224242839732396,-2.967603889739853,0.49925562329661743,0
80,2024-09-24 12:15:09.530561035,0,016,0.44250543247827767,-0.12061167615612364,-0.21866036652999427,0.2943671437357591,0.8511508705250389,-0.019766674662013574,-2.6843269553257785,0.4871983481310911,0
81,2024-09-24 12:15:09.589988037,0,016,0.43468875845121335,-0.12947560594286492,-0.36163818049006463,0.30358741722667304,0.8408960407841126,-0.013962275549681283,-2.3383243533556186,0.46074516366760004,0
82,2024-09-24 12:15:10.542000000,0,016,0.4213346729192366,-0.13658954665601525,-0.4706722588876952,0.3031108690105348,0.8119710890998479,-0.005324169565778037,-1.9432140834236729,0.42057536819231284,0
83,2024-09-24 12:15:10.605204102,0,016,0.40270577023661674,-0.14179669480963839,-0.5390824941872235,0.2929697734554001,0.7664351655450277,0.00546596604843177,-1.5146957634830278,0.3681208470656396,0
84,2024-09-24 12:15:10.667229980,0,016,0.3792136304648943,-0.1449672902703117,-0.5617346998661511,0.27339176427132655,0.7069224646826304,0.01764263504003555,-1.0691468057194815,0.3053281692322627,0
85,2024-09-24 12:15:10.743887939,0,016,0.3514280831818011,-0.14600279612576944,-0.5357200735562312,0.24483130488181554,0.6364564072935938,0.030438739791668806,-0.6219878036685147,0.23437147800466882,0
86,2024-09-24 12:15:10.805548096,0,016,0.3200734403588308,-0.14484898542569655,-0.4608780295262433,0.20802272768597538,0.5583596354664979,0.04314404003266195,-0.18619507272448763,0.1574368698906832,0
87,2024-09-24 12:15:10.881010986,0,016,0.28600602176905804,-0.1415166110562345,-0.34011228635793883,0.16404295817308395,0.47617614156818316,0.05513931651524063,0.22855183945352742,0.07667045746430776,0
88,2024-09-24 12:15:10.944803955,0,016,0.2501899332010224,-0.1361022618321996,-0.17939806174607326,0.11435390107070803,0.3935514983687654,0.06591535342496384,0.6159713410664917,-0.005751575110257882,0
89,2024-09-24 12:15:11.863285889,0,016,0.21370060485667583,-0.1288080386638903,0.012632686046654847,0.060783382499832214,0.3140730479638868,0.07508020192775915,0.9726685027525676,-0.08753213460774507,0
90,2024-09-24 12:15:11.925766846,0,016,0.1777460747274893,-0.1199595597836185,0.22553143419846108,0.0054213525538136164,0.24107550351783005,0.08235710349796073,1.2970338123862994,-0.16617891360846104,0
91,2024-09-24 12:15:12.002979980,0,016,0.1436561765600357,-0.11001263943658225,0.44810899508478125,-0.049544766583490746,0.17741205116570594,0.08758061413740262,1.5876108485450382,-0.23893906728482697,0
92,2024-09-24 12:15:12.065465820,0,016,0.11281123348125392,-0.09953642830058855,0.6694386132671611,-0.1019956511053398,0.12523393185047654,0.09069492046403195,1.8414317305672454,-0.3027816528400607,0
93,2024-09-24 12:15:12.127562988,0,016,0.08653823541105743,-0.08917274795792855,0.879597131204235,-0.15000492111626995,0.08586105348006777,0.09174870828829595,2.0530798803504524,-0.35450471949822626,0
94,2024-09-24 12:15:12.207489014,0,016,0.06602086022160052,-0.07958463420177289,1.0702007460114655,-0.19192740205814404,0.05978837691838014,0.09087939286947559,2.21495376032795,-0.39100880661999,0
95,2024-09-24 12:15:12.266827881,0,016,0.05222828324926528,-0.0714062822350715,1.2348687436719525,-0.22647358979159485,0.046799159461845194,0.08828659694655468,2.3186756350839994,-0.409703363204782,0
96,2024-09-24 12:15:13.213556885,0,016,0.045834927539414226,-0.06519640691254071,1.3696317552592179,-0.2527843954133276,0.046133948189223305,0.08420082440747702,2.357099585387738,-0.40892483719709166,0
97,2024-09-24 12:15:13.276042969,0,016,0.0471363292907411,-0.061395133209825196,1.4732074368411123,-0.27050651082350907,0.05668432845968426,0.07885279638812616,2.3261576538466486,-0.3882106840295024,0
98,2024-09-24 12:15:13.353782959,0,016,0.05600750474870761,-0.060291719678710845,1.5470341086992232,-0.27985041446502634,0.077185829379569,0.07244459575952354,2.226029756548635,-0.3483602344910168,0
99,2024-09-24 12:15:13.414885010,0,016,0.07192553011190361,-0.06200984353110321,1.5949390698175123,-0.28159674389819095,0.10637085333354851,0.06512390545597,2.061493757715053,-0.2913360274534997,0
100,2024-09-24 12:15:13.476954834,0,016,0.09402946501738144,-0.06650602756760994,1.6224426230505,-0.2770300767336657,0.14304093560428657,0.05696939054222206,1.8414275189669977,-0.2200848664000775,0
101,2024-09-24 12:15:13.557354980,0,016,0.12119281492714667,-0.07357214844326923,1.6359339183638977,-0.26782237214600785,0.18604343011269464,0.047997870790584735,1.577589084988275,-0.13831171752029803,0
102,2024-09-24 12:15:13.618301025,0,016,0.1521100797295172,-0.08284134723100914,1.6419929630352599,-0.25590682305668516,0.23417044111066757,0.03819620633318899,1.2832703799760377,-0.05023580482587927,0
103,2024-09-24 12:15:14.568416992,0,016,0.18539321369766723,-0.0938044130829729,1.6468585279427792,-0.24334397299778587,0.2860162727316273,0.0275712004017801,0.9725483407826422,0.03962140896104808,0
104,2024-09-24 12:15:14.633678955,0,016,0.21966002132032525,-0.10584122506332846,1.6558127368947733,-0.2321462273097031,0.33985049545384266,0.016204269905268135,0.6601012270969049,0.12662186727007718,0
105,2024-09-24 12:15:14.694472168,0,016,0.25361131054416136,-0.11826541163287303,1.6724159528709923,-0.22405965661469712,0.3935788937428845,0.004293078245166167,0.3608771365235979,0.20623581514972067,0
106,2024-09-24 12:15:14.771586914,0,016,0.2861076920497209,-0.13037776737074966,1.6978480606113058,-0.22035898495519504,0.44482811553035884,-0.007836077706306864,0.08927343682623519,0.2743172336692613,0
107,2024-09-24 12:15:14.833103027,0,016,0.3162416644231798,-0.1415232096295539,1.7306493714370612,-0.22171475685354497,0.4911254490469544,-0.019751639338422552,-0.14184229753317826,0.3273701362860438,0
108,2024-09-24 12:15:14.895133057,0,016,0.3433864722844787,-0.15114304576753765,1.7669115383106977,-0.22815024788474442,0.530120573488263,-0.030969216820918126,-0.3219015406488217,0.3627686195122429,0
109,2024-09-24 12:15:14.972758057,0,016,0.3672166047370014,-0.15881198475590347,1.800789283742435,-0.23907553263637843,0.5598105248345163,-0.041015969672604,-0.44310532001543934,0.3789200559966751,0
110,2024-09-24 12:15:15.919123779,0,016,0.38771117221233986,-0.16425411468220816,1.8252260668825457,-0.2533837859793189,0.5787382871193182,-0.04948829722764509,-0.5006424006455139,0.37533235708460283,0
111,2024-09-24 12:15:15.980781006,0,016,0.4051412290634803,-0.16734153142045644,1.832803672661972,-0.26959537526273375,0.5861281744076804,-0.05609174591018082,-0.49276322028226444,0.35256076288138793,0
112,2024-09-24 12:15:16.042319092,0,016,0.42001856520935876,-0.1680814762440913,1.8165443672005803,-0.28602408775602306,0.5819288887773322,-0.06066198521454773,-0.42089241252826876,0.31210142597196683,0
113,2024-09-24 12:15:16.119458008,0,016,0.43299179855530434,-0.16659276064187767,1.7705296401203716,-0.30094177535495614,0.5667738427242232,-0.06317049928472926,-0.2899540985624085,0.2563330259134917,0
114,2024-09-24 12:15:16.190270020,0,016,0.44472006597398384,-0.16307405375951298,1.690383444185116,-0.31274342507289027,0.5418997292540758,-0.06371757770127646,-0.10884535435213785,0.18850340030007573,0
115,2024-09-24 12:15:16.243961182,0,016,0.4557721513906133,-0.15777428158365706,1.5737456809975707,-0.32012308178969995,0.5090560028208493,-0.06251599946253499,0.10936544844764227,0.1126549049512463,0
116,2024-09-24 12:15:16.325861816,0,016,0.4665620224740784,-0.15097268207695977,1.420723323995761,-0.3222356469279383,0.4704134092032713,-0.05987239327165933,0.3480142500296945,0.033413759367107006,0
117,2024-09-24 12:15:17.268573975,0,016,0.4773024565999704,-0.1429642965384108,1.2341206553317468,-0.3187869077718267,0.42847328150013203,-0.056169945512674,0.5883241619375654,-0.044340748072237104,0
118,2024-09-24 12:15:17.325993896,0,016,0.48798165611361144,-0.1340453151589708,1.019273749885469,-0.31002485328750495,0.38598165939063633,-0.05184774614017965,0.8114504735878236,-0.11587888221844599,0
119,2024-09-24 12:15:17.403625977,0,016,0.49839290216048115,-0.12450313839098467,0.7835620726952864,-0.29667195082041037,0.3458290794679442,-0.04737092263698339,1.0005366633236417,-0.17705605605566138,0
120,2024-09-24 12:15:17.466191895,0,016,0.5082182811500049,-0.11461708864635924,0.5358330968739035,-0.27985316383587244,0.31088428922179445,-0.043190457503080176,1.1423158298288612,-0.2247220090114151,0
121,2024-09-24 12:15:17.539809082,0,016,0.5171234250447395,-0.10466361122021897,0.2858839739137151,-0.261025511113403,0.2837410190714087,-0.039695790662804695,1.2279970184638354,-0.2570098422362541,0
122,2024-09-24 12:15:17.598408936,0,016,0.5248231144489524,-0.094915337128397,0.043979075894324024,-0.24187783628230627,0.2664486898693175,-0.0371701911867374,1.2534666447556901,-0.2734400150269973,0
123,2024-09-24 12:15:17.660896973,0,016,0.5311073386646052,-0.08563198941131879,-0.17967351729946157,-0.22418596692956597,0.2603313527506207,-0.03576440393383989,1.2191123359109362,-0.27485008845708464,0
124,2024-09-24 12:15:18.613600098,0,016,0.5358278762797002,-0.07704679947181299,-0.3755242021795833,-0.20964095769868732,0.2659239058908749,-0.035496659418802534,1.1295466012017676,-0.26319376617010976,0
125,2024-09-24 12:15:18.676086914,0,016,0.5388476062427672,-0.06935002001433771,-0.5353552066941881,-0.19967730051671756,0.28297476163452184,-0.036271044874447086,0.9931668173371315,-0.24124398126187993,0
126,2024-09-24 12:15:18.739348877,0,016,0.5399718135352213,-0.0626703626973648,-0.6529738020137452,-0.1953246058163322,0.31047422685593845,-0.03790009833869556,0.8212977351804805,-0.21224626524773393,0
127,2024-09-24 12:15:18.816736816,0,016,0.538897378755636,-0.057059259173659484,-0.7248087728910516,-0.19710471774296576,0.3467278613661758,-0.04012662690097043,0.6268796495043318,-0.17957565245161763,0
128,2024-09-24 12:15:18.878347900,0,016,0.5352073667142936,-0.05248632499758012,-0.7502945466711894,-0.20498204967659092,0.3895024372855196,-0.0426466865822406,0.4229516547738787,-0.1464118346571988,0
129,2024-09-24 12:15:18.956059082,0,016,0.5284060528997033,-0.04884964791596558,-0.7319952526673776,-0.2183585618800219,0.43621130445029277,-0.045130645687716034,0.22122949925763458,-0.11542833784130963,0
130,2024-09-24 12:15:19.018544922,0,016,0.5179659862560289,-0.045994130638239775,-0.67541234157232,-0.23611543260197165,0.4840693818351705,-0.047236636636759845,0.03100758457687389,-0.08853327815927069,0
131,2024-09-24 12:15:19.943630859,0,016,0.5033729328002935,-0.043729482716169894,-0.588386080797297,-0.25671744330093754,0.5302015920496512,-0.04861901270265464,-0.141469015988385,-0.06672711724150544,0
132,2024-09-24 12:15:20.005676025,0,016,0.4841811785044842,-0.041849150424767986,-0.48009756851313046,-0.2783784766908575,0.5717563863249938,-0.048940204489475864,-0.29310195229750374,-0.05011352619515839,0
133,2024-09-24 12:15:20.079472900,0,016,0.4600884675774604,-0.04015603724705753,-0.35987463463318764,-0.2992509817356477,0.6060532312250894,-0.04788735966518743,-0.42344236021078535,-0.03805014917109798,0
134,2024-09-24 12:15:20.145781982,0,016,0.4310176240293259,-0.03849124098107912,-0.23616682963405589,-0.31758179933979136,0.6307266274406856,-0.04518641891683423,-0.533571520586911,-0.029386524713338528,0
135,2024-09-24 12:15:20.208125000,0,016,0.39718815535358615,-0.03675234536003831,-0.11600341242695253,-0.33179949455529967,0.6438340006351295,-0.040609893087582005,-0.6246861181042808,-0.022712708066625495,0
136,2024-09-24 12:15:20.270611084,0,016,0.3591715224999062,-0.03489458785306076,-0.004962533015837281,-0.34054724186425706,0.6439492557986758,-0.03398515641936543,-0.6970711869613958,-0.01655355629124096,0
137,2024-09-24 12:15:20.348314941,0,016,0.3179178706631665,-0.03292262270514543,0.09255415372878198,-0.3426919272704099,0.6302659275208796,-0.025212500325612834,-0.7498548105585855,-0.00950571635544354,0
138,2024-09-24 12:15:21.292970947,0,016,0.27472839926766446,-0.03088128054861592,0.1729629995090215,-0.33732659732514053,0.6026833498385137,-0.014293446562685986,-0.7813406261168169,-0.00036022317515703407,0
139,2024-09-24 12:15:21.360714111,0,016,0.23116264444030254,-0.028843053988754086,0.23320470076106625,-0.3237834369612212,0.5618248104112271,-0.0013576214767648225,-0.7896674332533483,0.011786790947436569,0
140,2024-09-24 12:15:21.428622070,0,016,0.18890829519367125,-0.026888373083554955,0.2705857228068366,-0.3016738057083902,0.508964071802918,0.01332955719466151,-0.7737798050371253,0.027481679472188176,0
141,2024-09-24 12:15:21.484841064,0,016,0.14965355213217024,-0.025084606230494574,0.282754628378796,-0.27094802330193773,0.44587801168420327,0.029387176984346057,-0.7345206541057662,0.04692987242385337,0
142,2024-09-24 12:15:21.563591064,0,016,0.11497264527882366,-0.023473716517842996,0.2677996277579081,-0.231950219550494,0.3746685757113237,0.046357113399330054,-0.6754390487353963,0.07003779070769833,0
143,2024-09-24 12:15:21.626562988,0,016,0.0862128451825853,-0.022070251088752983,0.2244516374516572,-0.1854490117287711,0.29760896905368606,0.06374190917238999,-0.6031244732487748,0.09645536380481882,0
144,2024-09-24 12:15:21.688589111,0,016,0.06438730003754058,-0.020864730318418054,0.15233615063768657,-0.13263351215972097,0.21705863236595022,0.08103258791443048,-0.5270778532479773,0.12563540557242028,0
145,2024-09-24 12:15:22.610722900,0,016,0.05008907826206197,-0.01983005638903528,0.052225369522047975,-0.0750743012053289,0.13544230133365523,0.09772739168831931,-0.4589518851069278,0.15690034644414416,0
146,2024-09-24 12:15:22.672787842,0,016,0.04342278996835293,-0.018930512012494388,-0.0737234670213362,-0.014658896576703693,0.055239233211150214,0.11334487877907967,-0.41093841000956244,0.18945713469729725,0
147,2024-09-24 12:15:22.754559082,0,016,0.043949229895513274,-0.018129180706559053,-0.22182422153504058,0.04649777794573373,-0.021065986050043135,0.12743488291230845,-0.39357554196164857,0.22232659742351354,0
148,2024-09-24 12:15:22.813127929,0,016,0.050671881570172266,-0.01738836055662491,-0.3869238417689887,0.10617460603550033,-0.09108051467260019,0.1395923993249382,-0.4138415784435198,0.25424263322371565,0
149,2024-09-24 12:15:22.874717041,0,016,0.062105231878028695,-0.016664268892212664,-0.5626237961824992,0.16218114098789044,-0.15263348580247113,0.1494768874974819,-0.47431462384176026,0.2836224785910955,0
150,2024-09-24 12:15:22.957906982,0,016,0.07642219566215655,-0.01590423019036732,-0.7415219921838605,0.21248113548183503,-0.2039186137004664,0.1568312226776152,-0.5734020362592939,0.30865895149901973,0
151,2024-09-24 12:15:23.014772949,0,016,0.09162593630164172,-0.015050553116109793,-0.9154963337852116,0.2552981828369882,-0.2436281372477155,0.16149091532188248,-0.7060369121340616,0.32750471397038167,0
152,2024-09-24 12:15:23.964217041,0,016,0.10569374628968507,-0.014045486069673645,-1.0761499103156666,0.28920930400323897,-0.271054009748594,0.16338180429567137,-0.8643438520121558,0.3384901199367968,0
153,2024-09-24 12:15:24.026962891,0,016,0.1166940264686562,-0.012831671401381788,-1.2153651501570206,0.3132080711182553,-0.28611740278284675,0.16251211631790488,-1.038180681547004,0.3403299218964311,0
154,2024-09-24 12:15:24.104677002,0,016,0.12290577373369817,-0.011351717271726415,-1.3257767226650314,0.32671128081171574,-0.2892924464125283,0.1589618804644534,-1.215590929734507,0.33227900296262186,0
155,2024-09-24 12:15:24.172496094,0,016,0.12293481711955376,-0.009552889418594057,-1.4011208721282244,0.3295148720742707,-0.28144964393938215,0.1528666677119331,-1.3831734446357224,0.3142048253827972,0
156,2024-09-24 12:15:24.228794189,0,016,0.11578286031763467,-0.007394829415821917,-1.4366455519311103,0.3217449232967963,-0.26370065483612487,0.144394415423307,-1.5265060505515013,0.2865752817640635,0
157,2024-09-24 12:15:24.306472900,0,016,0.1008489314680217,-0.004852785953413508,-1.4297324288871094,0.3038541301428869,-0.2372989760770563,0.13372208706922503,-1.6308219573425238,0.25037644901305006,0
158,2024-09-24 12:15:24.368504150,0,016,0.0779003126680353,-0.0019142131113897467,-1.3805836096418906,0.2766648123873649,-0.2035773665573198,0.1210234855632364,-1.6819517090590783,0.20696588038407865,0
159,2024-09-24 12:15:25.318020996,0,016,0.04706467606662047,0.001424959193245867,-1.2926298797016593,0.24141030961072424,-0.16388147467710465,0.10647447564266564,-1.6674376494808567,0.15788191313091787,0
160,2024-09-24 12:15:25.382536865,0,016,0.008847398970393062,0.005158080581604529,-1.1724518454983015,0.19974048414752665,-0.11950459086655477,0.0902719907090796,-1.577787067897792,0.10467005549074841,0
161,2024-09-24 12:15:25.453687988,0,016,-0.03586799574535638,0.009261651506522408,-1.0292508691898825,0.15369373583665763,-0.07167004315850072,0.07265919690970096,-1.4077744203643687,0.04879969368715124,0
162,2024-09-24 12:15:25.506927002,0,016,-0.08586465444941352,0.013692831606556289,-0.8740115289628516,0.10563111106196557,-0.021589593888582344,0.053951147968140524,-1.1575688469143037,-0.008300189328763644,0
163,2024-09-24 12:15:25.578243896,0,016,-0.13966811235424623,0.01839355394700508,-0.7185201311231652,0.05811113405875715,0.029434694048859854,0.03455335184366597,-0.8334474199218874,-0.06512975074417134,0
164,2024-09-24 12:15:25.654339111,0,016,-0.1956295853164591,0.023297207294305074,-0.5744336673253528,0.013709335449537492,0.07993135239233934,0.014962072034208657,-0.44786743457647327,-0.12002473202794901,0
165,2024-09-24 12:15:25.718991943,0,016,-0.2520170491019448,0.028335498795524165,-0.4525523017893947,-0.025174647972580726,0.128245476990388,-0.004258130931117997,-0.01865638615688792,-0.1711778914181384,0
166,2024-09-24 12:15:26.656665039,0,016,-0.3071233726012021,0.03344982463310066,-0.36229764394391795,-0.056477576539468145,0.17259144840542737,-0.02251009505678264,0.43271973973354505,-0.21682196468065104,0
167,2024-09-24 12:15:26.731694092,0,016,-0.35937931465376965,0.03860922108709615,-0.31126280820859126,-0.07859133985848425,0.21114784842800105,-0.03919863408097669,0.8833889954008294,-0.2555166688187199,0
168,2024-09-24 12:15:26.793732910,0,016,-0.4074433924068615,0.04382624981872906,-0.30472851784344573,-0.09045339964413782,0.2421577722483518,-0.05375862599697702,1.3111095277248486,-0.2863930955695442,0
169,2024-09-24 12:15:26.871327881,0,016,-0.45026272438051423,0.04915984217018793,-0.34520152967057005,-0.09159904439804799,0.2639988858687748,-0.06567769533275641,1.6956109075735732,-0.30922799803111767,0
170,2024-09-24 12:15:26.933336914,0,016,-0.48712416684593757,0.05470416570339584,-0.43214123512297653,-0.0821411145810712,0.2752054665840021,-0.07450992944409586,2.01919566742398,-0.32433607069341297,0
171,2024-09-24 12:15:26.995647949,0,016,-0.517695227270196,0.06057114998464945,-0.5619903567744575,-0.06267262113558995,0.2744669990234805,-0.07987765601497952,2.266914539323761,-0.33236381766916434,0
172,2024-09-24 12:15:27.073295898,0,016,-0.5420239834849883,0.06687396990218943,-0.728462845475156,-0.034150770374675864,0.26067407307338636,-0.08147122055591699,2.4267067207113877,-0.33406972435589427,0
173,2024-09-24 12:15:28.018213135,0,016,-0.5604851713616581,0.07371324579203056,-0.922931993782337,0.002153037380735082,0.2330740298457852,-0.07906361876113996,2.4897297217631604,-0.33012733565032676,0
174,2024-09-24 12:15:28.078349121,0,016,-0.5737020064371439,0.08116396906777097,-1.1348423002894947,0.044607967789929454,0.19151569614857963,-0.07254476422505926,2.450855787962568,-0.3209619323002609,0
175,2024-09-24 12:15:28.140832031,0,016,-0.5824787059114248,0.08926393673847355,-1.3522171347622387,0.0911444060394129,0.13667800356203735,-0.06196046550677961,2.309152662778833,-0.3066409292575723,0
176,2024-09-24 12:15:28.218036865,0,016,-0.5877446966038089,0.09800798163602792,-1.5623638030399067,0.1392359225315394,0.07018245987398487,-0.04753571149282072,2.068204815099726,-0.2868585359892036,0
177,2024-09-24 12:15:28.280823975,0,016,-0.5904883513383722,0.10734892480081942,-1.752812812910114,0.18600410834806308,-0.005435225769111547,-0.029674602074618417,1.7362439995151004,-0.26104664381378045,0
178,2024-09-24 12:15:28.357187012,0,016,-0.5916738420483566,0.11720058714548125,-1.9124061308021514,0.22845414454861412,-0.08687043692533773,-0.008941501829247009,1.3260579844937217,-0.2285920446239917,0
179,2024-09-24 12:15:28.420923828,0,016,-0.5921648383648684,0.12743946820613963,-2.0322964135099304,0.26379751213365543,-0.17028761964564798,0.013971826472189561,0.8546019518185055,-0.1890953556558491,0
180,2024-09-24 12:15:29.365935059,0,016,-0.5926830987577977,0.13790885561469077,-2.1066127645442823,0.2897903275280297,-0.251618338864353,0.03829166727247807,0.3422754964518809,-0.14261117619350602,0
181,2024-09-24 12:15:29.428088867,0,016,-0.5937997012996462,0.1484296798851643,-2.132711780767031,0.3050243636157068,-0.3268615631590269,0.0632155179773457,-0.18808063368937183,-0.08983420236824581,0
182,2024-09-24 12:15:29.489679199,0,016,-0.5959293295664231,0.15881263890823705,-2.1110533977575447,0.30911797433726973,-0.3923345168161725,0.08796064260776545,-0.7123885412908836,-0.03220378958069511,0
183,2024-09-24 12:15:29.557462891,0,016,-0.5993122104663787,0.16886323831687455,-2.044789654447223,0.30275914719728453,-0.4448693207671438,0.11179682155636941,-1.206724407651782,0.02810305201324679,0
184,2024-09-24 12:15:29.635610107,0,016,-0.6040009517724064,0.1783825840018541,-1.9392128723600404,0.2875878694504443,-0.4819845075040693,0.1340653293873724,-1.6488720761736821,0.08830278764014411,0
185,2024-09-24 12:15:29.707333984,0,016,-0.6098676742170547,0.18717214849169803,-1.8012088444963312,0.2659577863039155,-0.5020379894557331,0.15419470698077603,-2.0198954620006213,0.1452344049135045,0
186,2024-09-24 12:15:29.775139160,0,016,-0.6166151039351815,0.1950405733877393,-1.6387794390534458,0.24064455105513866,-0.5043299555632157,0.17171614264670515,-2.305540969606236,0.19562957377535087,0
187,2024-09-24 12:15:30.691004150,0,016,-0.6237677578357861,0.20180262194038684,-1.4606194693822931,0.21455665538880989,-0.48914544449482533,0.18627297307217425,-2.497260836635046,0.2363591705663777,0
188,2024-09-24 12:15:30.747392822,0,016,-0.6306514332024362,0.20726841248239644,-1.2756867209260938,0.1904707697254144,-0.45777873696956833,0.19762589386505855,-2.592609734488819,0.2646146240140039,0
189,2024-09-24 12:15:30.825021973,0,016,-0.6363952298018862,0.21123511131688388,-1.0927169388696485,0.17079110364206507,-0.4125634013533596,0.2056638295022263,-2.5949705154394485,0.27804280193883607,0
190,2024-09-24 12:15:30.887016112,0,016,-0.6399733104601005,0.2134943498745376,-0.9197196294837822,0.15734101513567994,-0.3568457008401445,0.2104209876360184,-2.512859331159066,0.274880272068989,0
191,2024-09-24 12:15:30.964041992,0,016,-0.6402706377059858,0.21385397970545825,-0.7635645132507899,0.15121675078176577,-0.2948091264422565,0.21208547053280014,-2.359004380377108,0.25407667355729585,0
192,2024-09-24 12:15:31.026610107,0,016,-0.6361598543029786,0.21216275873437845,-0.6297460104867192,0.15273240658478732,-0.23114690924377773,0.21098777730147514,-2.149257449612565,0.21536707030846805,0
193,2024-09-24 12:15:31.088206055,0,016,-0.6266004346266566,0.2083327827360865,-0.5223118241283454,0.1614551012217495,-0.17068028323071807,0.20757406419843297,-1.9014921495948898,0.15930967575151536,0
194,2024-09-24 12:15:32.032954834,0,016,-0.6107549239495623,0.20235893934663027,-0.4438608063820901,0.1763039009898286,-0.11800937731908133,0.20237365410099126,-1.634624520223302,0.08733263376771445,0
195,2024-09-24 12:15:32.110611816,0,016,-0.5880831865723368,0.1943279357051868,-0.39553242380115533,0.19568782970297866,-0.07721183243359261,0.1959598815787029,-1.367733285970264,0.0017867939959304972,0
196,2024-09-24 12:15:32.172329834,0,016,-0.558395911866989,0.18440984209527353,-0.37698664759595174,0.2176688792818909,-0.05158682927047743,0.18890151715108242,-1.1192445333671683,-0.09403920553784742,0
197,2024-09-24 12:15:32.234355957,0,016,-0.5218902255678608,0.17283782569460876,-0.386424837142059,0.2401379325656704,-0.04346341952063112,0.18171372284334442,-0.9061504246235633,-0.19599062628456546,0
198,2024-09-24 12:15:32.312444824,0,016,-0.47918047059711755,0.1598890615115685,-0.4207025602181752,0.2609854433485244,-0.05408386175021653,0.174821399358047,-0.74314940373246,-0.2992432176413135,0
199,2024-09-24 12:15:32.382424072,0,016,-0.43130518614707675,0.1458740838935174,-0.47551976828471204,0.27823963715159067,-0.08355782834811258,0.16853859887090408,-0.6416082537655889,-0.39862903718810333,0
200,2024-09-24 12:15:32.437439941,0,016,-0.3796928053508364,0.13113131747041426,-0.5455917684036773,0.2901508150379598,-0.13089912235795548,0.16306128333309136,-0.6084461723553677,-0.48903183233530484,0
201,2024-09-24 12:15:33.386389893,0,016,-0.3260872015451635,0.11601845794575512,-0.6247508508987946,0.29523287014187627,-0.19415670600574733,0.1584719729588536,-0.6452914087729419,-0.5657436244550744,0
202,2024-09-24 12:15:33.448875000,0,016,-0.2724385970575421,0.10089715728138139,-0.706090115567283,0.2923047908405172,-0.270603067123355,0.15475517325173932,-0.7482768471339978,-0.624712237711381,0
203,2024-09-24 12:15:33.529143066,0,016,-0.22076199789344458,0.08611380743825325,-0.7823175096646358,0.28056561051961965,-0.35690837066134873,0.1518183416025089,-0.9085641393866497,-0.6627088047105659,0
204,2024-09-24 12:15:33.585575195,0,016,-0.1729720333177567,0.0719781266467706,-0.8463562941196767,0.259690355388696,-0.44926524019300057,0.14950989690455468,-1.1134029209431504,-0.6774850072988171,0
205,2024-09-24 12:15:33.663238037,0,016,-0.1307207946270986,0.058740360145536734,-0.8920786088263796,0.2299038906599762,-0.5434992676349432,0.14763144979563986,-1.3474320098230124,-0.6679300852892371,0
206,2024-09-24 12:15:33.725285889,0,016,-0.0952740852412054,0.04657422571551098,-0.9149961964102241,0.19200165030288852,-0.6352314973725539,0.1459535643994043,-1.5939863173749795,-0.6341716106351856,0
207,2024-09-24 12:15:33.787775146,0,016,-0.06744543734002488,0.03557479413196234,-0.9126880834232238,0.14730721989233012,-0.7201263097534479,0.14424560514942097,-1.8362652059445688,-0.5775784580342942,0
208,2024-09-24 12:15:34.718510986,0,016,-0.047582370475891936,0.025770674371272655,-0.8847925406998213,0.09756753918843677,-0.7941992802660249,0.14231469528796986,-2.058246664315221,-0.5006823292247823,0
209,2024-09-24 12:15:34.786386963,0,016,-0.03559453971208301,0.017141624418242678,-0.8326341470984733,0.044807755382646204,-0.8541261790685969,0.14003648787162404,-2.2453235008356267,-0.4070517391139184,0
210,2024-09-24 12:15:34.853947998,0,016,-0.031022968277130764,0.009636483180433987,-0.7587356554475471,-0.008817431823775972,-0.8974963445407206,0.13736565867959985,-2.3848326867750536,-0.3011191097131889,0
211,2024-09-24 12:15:34.915602051,0,016,-0.033137608614386374,0.0031914055407951183,-0.6663636993654178,-0.0611574111174052,-0.9229630497630549,0.13432462549021823,-2.46668252307893,-0.18792530230282492,0
212,2024-09-24 12:15:34.977683105,0,016,-0.04102237187697957,-0.002255085094684378,-0.5591494587065626,-0.11018190987526984,-0.93025920723372,0.13097359815654155,-2.484122071233927,-0.07274849022933325,0
213,2024-09-24 12:15:35.054910889,0,016,-0.05361892153748211,-0.006756419236958415,-0.44089182615135725,-0.15406676629685873,-0.92009709527586,0.12737061542933154,-2.434544140340518,0.03935809118075774,0
214,2024-09-24 12:15:35.117846924,0,016,-0.06975694036124863,-0.010359709213323855,-0.3156344067372514,-0.19123574712827926,-0.8940210990144605,0.12353810276739254,-2.3201041124002058,0.14402605924649792,0
215,2024-09-24 12:15:36.068716064,0,016,-0.08821780516716765,-0.01310406001782018,-0.18790057256053078,-0.22037011773108386,-0.8542650939286516,0.11945084111866339,-2.147962003347046,0.23793704277306835,0
216,2024-09-24 12:15:36.131200928,0,016,-0.10782209377057712,-0.01501148363590598,-0.06281638759667693,-0.2404170062623759,-0.8036069885140599,0.11504696742534395,-1.9301304779231867,0.3190591267814689,0
217,2024-09-24 12:15:36.204324951,0,016,-0.12748250258654545,-0.016081344915105104,0.05408934628927681,-0.2506244882796642,-0.7451970978384967,0.11025141444366192,-1.6829273831986977,0.38674395798067335,0
218,2024-09-24 12:15:36.270385010,0,016,-0.14619825436865005,-0.016298422975627117,0.15740513360229277,-0.2506092944470715,-0.6823673852205986,0.10499997534255355,-1.4258684903366767,0.44165081430106057,0
219,2024-09-24 12:15:36.332382812,0,016,-0.1630261473940492,-0.01564859174830999,0.24246741301669747,-0.24043052836711287,-0.6184314136604825,0.09925755212326802,-1.179856628932485,0.48546052922231353,0
220,2024-09-24 12:15:36.394414795,0,016,-0.17706350450595787,-0.01413003583191272,0.30584190713524845,-0.22062617229915457,-0.5564604946298508,0.09302713137288864,-0.9647841565536543,0.5203970447882177,0
221,2024-09-24 12:15:36.472052002,0,016,-0.1874458208445878,-0.011759188545650579,0.3455182160223149,-0.19219060989716164,-0.499042123141703,0.08634639667789289,-0.7969844603443942,0.5486671313780787,0
222,2024-09-24 12:15:37.418128906,0,016,-0.19335503171844468,-0.008580063847700435,0.36088615960624715,-0.15650937564147968,-0.44807854210893994,0.07927112681296064,-0.6872046383126603,0.5719869305426196,0
223,2024-09-24 12:15:37.486577148,0,016,-0.19404755285033562,-0.004679745817260579,0.35269481200026825,-0.1152782648188736,-0.40468497365986605,0.07185029115969466,-0.6396818784527291,0.5913299325103405,0
224,2024-09-24 12:15:37.550658936,0,016,-0.1889098570495312,-0.00020075571985901173,0.3230754533025362,-0.07040999909748305,-0.36918741153084056,0.06410356698460791,-0.6524177575591854,0.6069236707924723,0
225,2024-09-24 12:15:37.613158936,0,016,-0.17752168111357905,0.004658319990587632,0.27542805488174626,-0.023908298867114416,-0.34117116451878615,0.056011904284575725,-0.7182672789151704,0.6184111531195619,0
226,2024-09-24 12:15:37.675644043,0,016,-0.15968962489348595,0.009649566017292844,0.21392354989545395,0.022297608703625883,-0.3195544380908942,0.047525052427595,-0.8263658494988343,0.6250536108318172,0
227,2024-09-24 12:15:37.753322998,0,016,-0.13544952824468492,0.014483461632376102,0.1426907529254883,0.06651980825510291,-0.3027169008166256,0.038582288824375144,-0.9636051183628782,0.6259034008219159,0
228,2024-09-24 12:15:37.815336914,0,016,-0.1050820215095707,0.01884464559460642,0.06503338437300756,0.10742060486940982,-0.2887078802902596,0.029137992968808493,-1.1160670412985154,0.6199490900340121,0
229,2024-09-24 12:15:38.754058105,0,016,-0.0691638622236971,0.022424483050925315,-0.0170600152321173,0.1440461286981985,-0.2754918429401298,0.019181103291049485,-1.270345493305531,0.6062548241126423,0
230,2024-09-24 12:15:38.832568115,0,016,-0.02861707001836124,0.02496124627500288,-0.10306134039520928,0.17581431518813934,-0.2611624413745559,0.008737875887438054,-1.4145939660609712,0.5840961828791479,0
231,2024-09-24 12:15:38.894133057,0,016,0.015291929811159006,0.026268328674920197,-0.1936915275320025,0.20247656982611817,-0.24410509713791925,-0.0021447790797086037,-1.5392569436767922,0.5530903025286706,0
232,2024-09-24 12:15:38.967542969,0,016,0.06101326862810207,0.026241549251012363,-0.29033002492549975,0.22404570684748898,-0.2231227851872923,-0.013425941187872903,-1.637667559524214,0.5133288252281896,0
233,2024-09-24 12:15:39.034601807,0,016,0.10682151838498068,0.024851193060909247,-0.3941487459073855,0.24068843709219848,-0.1975191794569409,-0.025092108544830703,-1.706578177226112,0.465502451596492,0
234,2024-09-24 12:15:39.107762207,0,016,0.15095681356796037,0.022128272526382862,-0.5052193361835704,0.25259980989627223,-0.16712644349622302,-0.03716233918686489,-1.746359036490271,0.4109614956643896,0
235,2024-09-24 12:15:39.173846924,0,016,0.19178293837409408,0.01815073196364697,-0.6218321061194235,0.259890705514827,-0.13229310919506485,-0.049674007202765554,-1.76051761242999,0.35164787284685556,0
236,2024-09-24 12:15:40.106104980,0,016,0.22793548044210524,0.013032424856066406,-0.7401193172397261,0.26252095848809454,-0.0938445179193944,-0.06265409258724125,-1.7544302938085026,0.2898730553112441,0
237,2024-09-24 12:15:40.186976074,0,016,0.25842881730575856,0.0069166108074073425,-0.8539610318258333,0.2602946454860025,-0.052986660115261874,-0.07608800251020553,-1.7335162427157713,0.2279602276706341,0
238,2024-09-24 12:15:40.245335205,0,016,0.28270610035514,-2.8228117991703906e-05,-0.955199851106143,0.2529210831808829,-0.01112504601743984,-0.0898997441248397,-1.7013302261553116,0.16781459019862943,0
239,2024-09-24 12:15:40.322544189,0,016,0.30063725340967495,-0.007616524970641738,-1.0342735424335079,0.240135311858915,0.03037105565447475,-0.10395294038427763,-1.6581583069469787,0.11054855943023059,0
240,2024-09-24 12:15:40.390386963,0,016,0.3124748538500405,-0.015660064250968376,-1.081269955963095,0.22183988315013903,0.07040456816179642,-0.11807564689267122,-1.6006365410433754,0.05630295169682781,0
241,2024-09-24 12:15:40.448478027,0,016,0.3187822366183837,-0.02398325595529676,-1.0872213255638763,0.19821108757850278,0.10836409917051136,-0.13210166801057893,-1.5225403192247193,0.004320775339063284,0
242,2024-09-24 12:15:40.526002930,0,016,0.3203675270591165,-0.03243484348130059,-1.045418697901985,0.16974840783593395,0.14429352985630853,-0.1459103046960554,-1.4163186131034393,-0.046780452441254956,0
243,2024-09-24 12:15:41.437361084,0,016,0.3182536186041746,-0.04089967554883005,-0.9525402794558303,0.13727547484995223,0.1789603896949379,-0.15944831674949325,-1.274702702499904,-0.09864690583699545,0
244,2024-09-24 12:15:41.498909912,0,016,0.31366924737370566,-0.049314290357281784,-0.8093069464566722,0.10188069168527707,0.21377066176005127,-0.17273032206593655,-1.092020464626143,-0.15283250842789198,0
245,2024-09-24 12:15:41.578627197,0,016,0.3080196781364231,-0.057680173908949764,-0.6204449177654044,0.06478898430642639,0.2505409855399777,-0.18582337148607667,-0.8652058105313398,-0.2104885461107087,0
246,2024-09-24 12:15:41.640165039,0,016,0.30281934150888307,-0.06606372190964585,-0.39407363508908333,0.02720995959202562,0.2912052361368938,-0.19882652200027198,-0.5945076126419336,-0.2721112684312875,0
247,2024-09-24 12:15:41.701704102,0,016,0.29959331753019897,-0.07457937789685,-0.14085731250630845,-0.009774472124285163,0.3375369290300704,-0.2118566543404323,-0.2837619804022142,-0.3373987627465936,0
248,2024-09-24 12:15:41.782542969,0,016,0.2997498171957149,-0.08336012286765777,0.12686769968871284,-0.04526508849229424,0.3909144323835504,-0.2250420229612289,0.05988157424872986,-0.40528875141067106,0
249,2024-09-24 12:15:41.850377930,0,016,0.30442811091270666,-0.09251969019712307,0.39598503334233537,-0.07856652844102212,0.45211407222369265,-0.23851077161743114,0.42666589886291273,-0.47417733954434493,0
250,2024-09-24 12:15:42.788724854,0,016,0.31435774061027427,-0.10211330336977585,0.6535717624798345,-0.10920383085575308,0.5211272923615963,-0.25236088421930863,0.8050829020577203,-0.5422314384861491,0
251,2024-09-24 12:15:42.850784912,0,016,0.3297816556867326,-0.11211066560614315,0.8879302898996104,-0.13693945078282585,0.5970348928036153,-0.2666174637967941,1.1826717940841829,-0.6076948661785585,0
252,2024-09-24 12:15:42.927476807,0,016,0.350461354684383,-0.12239203717252835,1.0894919182444927,-0.1617584766980884,0.6779863467292783,-0.28120097872628674,1.5467324702233831,-0.6691201292127212,0
253,2024-09-24 12:15:42.995316895,0,016,0.3757401283696814,-0.13276410835057673,1.2513530340029757,-0.18378961416813405,0.7613099126298726,-0.295924346086444,1.8850592917205395,-0.7254912823488877,0
254,2024-09-24 12:15:43.052306885,0,016,0.4046423977183028,-0.14298476839961766,1.3693844323451363,-0.203184643205558,0.8437484182368987,-0.31051938072923224,2.186820600532519,-0.7762499241230032,0
255,2024-09-24 12:15:43.129939941,0,016,0.4359999362488879,-0.1527900399071863,1.4420966983113892,-0.2200257102030067,0.9217912818461799,-0.32468356894578815,2.443508688425668,-0.8212626714514257,0
256,2024-09-24 12:15:43.191970947,0,016,0.46857334794164796,-0.16191856663081353,1.4704629835983123,-0.23431230114235085,0.9920434616995055,-0.3381323930881495,2.649564985910773,-0.8607280452949663,0
257,2024-09-24 12:15:44.141974121,0,016,0.5011200431295395,-0.17012584127282826,1.4576909533224098,-0.24601611313187194,1.0515547357397397,-0.35063662230500037,2.802343487135221,-0.8949971703205458,0
258,2024-09-24 12:15:44.199619141,0,016,0.5324047391717649,-0.17718556696128324,1.4088175191289527,-0.2551431250651502,1.0980587938530804,-0.36203090764029866,2.901613117170491,-0.924355502189755,0
259,2024-09-24 12:15:44.277243896,0,016,0.5612038971502942,-0.18288865784137337,1.3301310252424041,-0.2617549798866052,1.1301147056871221,-0.3722000887388229,2.949106687892877,-0.9488768868696982,0
260,2024-09-24 12:15:44.339314941,0,016,0.5863367679539748,-0.1870514325416364,1.2285706248075918,-0.2659541487791588,1.1471488841732027,-0.38105957271280705,2.9483145249224276,-0.9684103281870227,0
261,2024-09-24 12:15:44.413208008,0,016,0.606706341899746,-0.1895319414677641,1.1112018883401895,-0.267862404720994,1.1493784693325013,-0.3885371523707591,2.9043149380950877,-0.9826585701514783,0
262,2024-09-24 12:15:44.481012939,0,016,0.6213432939146984,-0.190247533092001,0.9847870085245719,-0.2676083511223354,1.1376159126462355,-0.3945538896848143,2.8234051740096633,-0.9912655025484759,0
263,2024-09-24 12:15:44.548833984,0,016,0.6294773441559026,-0.189191599279484,0.8555383482797945,-0.265329217770517,1.1130007871893166,-0.39900269217768247,2.7125605766785337,-0.9938669103232878,0
264,2024-09-24 12:15:45.492064941,0,016,0.6306353308834528,-0.18644904270231927,0.729158464195143,-0.2611921928628062,1.0767306275732973,-0.4017304266346175,2.5790215973587145,-0.9901172223348452,0
265,2024-09-24 12:15:45.559897949,0,016,0.6247189572116565,-0.18220511765004466,0.611054593180744,-0.2554285250454681,1.0298603129841433,-0.4025336314921414,2.430319808506954,-0.9797274945804975,0
266,2024-09-24 12:15:45.621831787,0,016,0.6120204143305304,-0.17673907235283262,0.5064451741144163,-0.24835888527756247,0.9732149433631729,-0.4011712178501356,2.2746787102693404,-0.9625254694917745,0
267,2024-09-24 12:15:45.684374023,0,016,0.59317482090116,-0.17039803967431558,0.42018013722718395,-0.24038963138032748,0.9074172851820352,-0.39738725806393094,2.1212472748685425,-0.9384994216568897,0
268,2024-09-24 12:15:45.761621094,0,016,0.5690643407990242,-0.16355516652599364,0.3562846807399851,-0.23196589102182988,0.8329905384697627,-0.39093615038296825,1.9796151804859219,-0.9077747622912057,0
269,2024-09-24 12:15:45.824107910,0,016,0.5406798579449223,-0.1565601962870887,0.31735496366622845,-0.22348367659378154,0.75048338172191,-0.38160653295332164,1.8586341656252343,-0.8705322431309513,0
270,2024-09-24 12:15:45.898889160,0,016,0.5089564805466873,-0.1496889200205128,0.3040475326209933,-0.21520064815614945,0.6605770370756728,-0.3692409294162978,1.7651077400949151,-0.8269444842894906,0
271,2024-09-24 12:15:46.835431885,0,016,0.47463009514427384,-0.14309965338408634,0.31492526027061385,-0.20719938532204576,0.5641522642508322,-0.35374885165763653,1.7028688239510799,-0.7772015344197567,0
272,2024-09-24 12:15:46.902241943,0,016,0.43816642858939703,-0.13681094388509285,0.3467322003952796,-0.19941857190160928,0.46229847534113183,-0.33511384039378267,1.6723258060130524,-0.7216158893681781,0
273,2024-09-24 12:15:46.974737793,0,016,0.3997732084693581,-0.1307109096422634,0.39493335097858834,-0.19172175935594057,0.35626164616995576,-0.3133976172312977,1.670266858575607,-0.6607138973542046,0
274,2024-09-24 12:15:47.045562012,0,016,0.35946867403430477,-0.12459256540600759,0.454287413742361,-0.18396033739964643,0.24737838014142616,-0.288747434820225,1.6898504095313134,-0.5952240055181331,0
275,2024-09-24 12:15:47.098337891,0,016,0.3171860615461441,-0.11819933630908239,0.5193058163843034,-0.17600460903894852,0.13707420808374216,-0.26141186381208115,1.7209991984499808,-0.5259709055290106,0
276,2024-09-24 12:15:47.181129883,0,016,0.27290143462377703,-0.11126898499836707,0.5845653587403882,-0.1677486482384837,0.026947735298570148,-0.23176144375838725,1.7513474133111004,-0.4537588434699821,0
277,2024-09-24 12:15:47.248931885,0,016,0.2267423107323139,-0.10356995251769088,0.6449307657455374,-0.15911207862254975,-0.08112961634977367,-0.20030040253948106,1.7675136077098754,-0.37929685171053346,0
278,2024-09-24 12:15:48.162511962,0,016,0.17902388838021988,-0.09492566549046698,0.6957916439390944,-0.1500498570822969,-0.18498044364015148,-0.16765748785376808,1.7563316573313645,-0.30316556136246847,0
279,2024-09-24 12:15:48.225377197,0,016,0.13021687454083405,-0.08522631696757949,0.7333809418950501,-0.14056487277163734,-0.28216250779501323,-0.13456016318612204,1.705904116094019,-0.22582814948629515,0
280,2024-09-24 12:15:48.288021973,0,016,0.08090719114313688,-0.07443288219190915,0.7551109322988863,-0.13071623511100217,-0.37004455070186826,-0.1018075932520346,1.6066100352121866,-0.14770634769446092,0
281,2024-09-24 12:15:48.365267090,0,016,0.0317836950692993,-0.06257804816716808,0.7597656551219073,-0.12061584482388454,-0.4459138828692587,-0.07024857032371555,1.45222021857413,-0.06932511059445569,0
282,2024-09-24 12:15:48.427912842,0,016,-0.016371459846351317,-0.04976450066146664,0.7474730936280197,-0.11040529928009012,-0.5071600191908541,-0.040754118159918855,1.2409732260214266,0.008523327602863642,0
283,2024-09-24 12:15:48.505579102,0,016,-0.06272388739326037,-0.03615748015251053,0.7195480021989485,-0.10021476379275752,-0.5515498214141537,-0.014171824005933604,0.9761572442014893,0.08468305510281333,0
284,2024-09-24 12:15:48.574803223,0,016,-0.10644993773571362,-0.021969353616439046,0.6783273494571793,-0.09012074307520308,-0.5775245320079648,0.008738249906913517,0.665867654167541,0.1576610968320229,0
285,2024-09-24 12:15:49.519041016,0,016,-0.14678162988647783,-0.0074401664397659144,0.6270247770817846,-0.080129138754043,-0.5844158258461986,0.02737261810339955,0.3220322052922171,0.2257676119386103,0
286,2024-09-24 12:15:49.572031006,0,016,-0.18300728165461436,0.007177295828368572,0.5695561122770817,-0.07020034444723047,-0.5725397256907888,0.04134299832836076,-0.04092188100258541,0.2873238369702182,0
287,2024-09-24 12:15:49.650157959,0,016,-0.2144376924954526,0.02162389517768559,0.5102910726122452,-0.06030365086524984,-0.5431912479005373,0.050514607953728766,-0.4073704544709224,0.340883185014161,0
288,2024-09-24 12:15:49.712645996,0,016,-0.24037055117676476,0.035635866378764786,0.4537444212551882,-0.050468280670526465,-0.4985565593795639,0.055016746255978854,-0.761592751456423,0.38542235968387795,0
289,2024-09-24 12:15:49.775131104,0,016,-0.2600828959972991,0.04894731711149626,0.40424174472899665,-0.04080544715275751,-0.4415386109461953,0.05522062556654562,-1.088736893561256,0.4204716581844244,0
290,2024-09-24 12:15:49.858211914,0,016,-0.27286562476475973,0.061295254866656615,0.3655218974617451,-0.031488265449762236,-0.3755171612355843,0.05168924447483965,-1.3756777079489848,0.44614295542606963,0
291,2024-09-24 12:15:49.915376953,0,016,-0.27809503593826046,0.07242736656027962,0.340228949567355,-0.022687884683774796,-0.3040956781252895,0.04511576645027669,-1.6115929624917062,0.46302105334397414,0
292,2024-09-24 12:15:50.866585938,0,016,-0.2753184663551969,0.082113760585912,0.3294282575976374,-0.014491292569709003,-0.2308709434614179,0.03626677305430325,-1.788079946376391,0.4719413317297314,0
293,2024-09-24 12:15:50.929071045,0,016,-0.26432171953453765,0.09016025652176961,0.33239928287937476,-0.006842226029063644,-0.1592222133572687,0.025933605266554156,-1.8988965144053411,0.4737393042842846,0
294,2024-09-24 12:15:50.991673828,0,016,-0.24514825367703158,0.09641368976216039,0.346797858204941,0.00047406424243614793,-0.09211322462322896,0.014885576420149618,-1.939730215406416,0.46907606024646675,0
295,2024-09-24 12:15:51.071958984,0,016,-0.2180588318798402,0.10075330501532374,0.36908790483025733,0.007795156927108645,-0.031933207766266306,0.003825678426095855,-1.9084224919163773,0.45840263511798846,0
296,2024-09-24 12:15:51.139741943,0,016,-0.18345639747350737,0.10307805526597777,0.3951269827637402,0.015482853426897923,0.019582401841190956,-0.0066402422631491416,-1.8056359718709845,0.4420418666679418,0
297,2024-09-24 12:15:51.193479004,0,016,-0.14182346214400549,0.10330458388492464,0.42082255479449504,0.02377540083672368,0.0613457291032484,-0.016015316624602493,-1.6354991471921312,0.42030568450313394,0
298,2024-09-24 12:15:51.271171143,0,016,-0.0937016073650742,0.1013755087608889,0.4427642775029937,0.03264493488842013,0.09285510709288194,-0.023913197860657195,-1.4058117158005619,0.39358497769058715,0
299,2024-09-24 12:15:52.187313965,0,016,-0.039712767280728915,0.09726688899938468,0.45874251117910453,0.04171020884571978,0.11410024450845718,-0.030058411505411758,-1.1276918825074411,0.3623892409766979,0
300,2024-09-24 12:15:52.249929932,0,016,0.01939234654535767,0.09099239994224917,0.46810572874378176,0.05021568501538288,0.12544453591679436,-0.03428262991491163,-0.814662586785003,0.32730542657412176,0
301,2024-09-24 12:15:52.327738037,0,016,0.08268460076426834,0.08260996270073914,0.47191219377301835,0.057069895202452064,0.12751455313337526,-0.036511802725536044,-0.4813203180672211,0.2888560577242838,0
302,2024-09-24 12:15:52.389246826,0,016,0.14903567214510102,0.07223020101665747,0.4727618739817374,0.060950531836910786,0.12112691970391642,-0.036749298788948996,-0.14198964304531897,0.24731530554174008,0
303,2024-09-24 12:15:52.464844971,0,016,0.21713624655072888,0.06002003133096301,0.4742172447375661,0.060486251050404075,0.10725397895109551,-0.035065211364011944,0.19031975971660908,0.20259339357332176,0
304,2024-09-24 12:15:52.532645996,0,016,0.28554230022742483,0.04620028895361106,0.4799323038923176,0.05449009395856854,0.0870247485902508,-0.03159639401613786,0.5046786618978666,0.15426415193595883,0
305,2024-09-24 12:15:52.584945068,0,016,0.35273869328349844,0.031041569025485796,0.49277272948380213,0.04218357379243689,0.06176886081358081,-0.02655516694346194,0.7928063412597603,0.1017366720176373,0
306,2024-09-24 12:15:53.543683105,0,016,0.41721200402260644,0.014857728678681834,0.5141373102525368,0.02335421489662846,0.03309106582728887,-0.020240199122232898,1.0493742948390838,0.044499081141168594,0
307,2024-09-24 12:15:53.599545898,0,016,0.47752237579564055,-0.002007961391794844,0.5435559674705234,-0.0015801919812101315,0.0029275758655710974,-0.013038487502456118,1.2719668979373349,-0.017666363398706426,0
308,2024-09-24 12:15:53.679375000,0,016,0.5323711866441699,-0.019204396995961038,0.578631619841277,-0.03160826053644141,-0.02646449674829958,-0.005409732809839658,1.4607010233785103,-0.08454552920290068,0
309,2024-09-24 12:15:53.747126221,0,016,0.5806653013873261,-0.03639599327370133,0.615395129596212,-0.0652600643580094,-0.05259778085893658,0.0021423987684053816,1.6175998178145519,-0.1554233413382017,0
310,2024-09-24 12:15:53.800265137,0,016,0.6215649588206225,-0.05328090875084908,0.649010760399594,-0.10081340135346048,-0.07291638794234703,0.009100806668048427,1.7459077234567766,-0.22908743907962809,0
311,2024-09-24 12:15:53.877461914,0,016,0.6544977740297621,-0.06959977908815694,0.6746068246504036,-0.13652273234658058,-0.08502093144183819,0.01496737818013187,1.849519207602116,-0.3039238428554852,0
312,2024-09-24 12:15:53.943069824,0,016,0.6791444756664802,-0.08513519085357696,0.6879686045182039,-0.1708199929890509,-0.08694349860902482,0.01930747329556006,1.9325840430539174,-0.37808238394760335,0
313,2024-09-24 12:15:54.885536865,0,016,0.6954201263628695,-0.09970791648754655,0.6859501563469306,-0.20244128892537777,-0.0774394810924572,0.02180530963091046,1.999236891571031,-0.4496437183827152,0
314,2024-09-24 12:15:54.961675781,0,016,0.7034607506538056,-0.11317664526773578,0.666635666150573,-0.23045844220287118,-0.05623190318385303,0.022310398932009992,2.0532809916240518,-0.5167145013901783,0
315,2024-09-24 12:15:55.029460938,0,016,0.7036071994394267,-0.12544090334407954,0.6293525735613573,-0.25424310601466055,-0.02411402678241009,0.020853825256420152,2.0977044793482604,-0.5774237949329433,0
316,2024-09-24 12:15:55.085958984,0,016,0.6963879651265226,-0.13644160266955355,0.5746204794323847,-0.2734175020372484,0.017153599653007792,0.01762994932083289,2.134215018382363,-0.6298809922446619,0
317,2024-09-24 12:15:55.164068115,0,016,0.682516948031294,-0.14615732757025945,0.5041050675630449,-0.28782371693974873,0.06510330002959028,0.012956922823848997,2.163142450243723,-0.6721978884391535,0
318,2024-09-24 12:15:55.232795898,0,016,0.6629027723729438,-0.1545991579782672,0.4205891547046391,-0.29750527861173015,0.11684661830168064,0.007233777245392438,2.1838217470855947,-0.7026157221484279,0
319,2024-09-24 12:15:55.289087891,0,016,0.6386340186333441,-0.16180441069550805,0.32789208438905626,-0.3026819789415324,0.1693065443632768,0.0009020954956435003,2.195230969866473,-0.719688441005317,0
320,2024-09-24 12:15:56.240778076,0,016,0.6109091737302685,-0.16782601150104043,0.230681594172121,-0.3037147591177171,0.21941999216993244,-0.005591245949291892,2.196551946740828,-0.7224547240141475,0
321,2024-09-24 12:15:56.303679932,0,016,0.5809189110989003,-0.17271737025023115,0.1341731927210604,-0.3010702671044793,0.26435194063117645,-0.011833250176220285,2.187543241671246,-0.7105876017342744,0
322,2024-09-24 12:15:56.366167969,0,016,0.5497147047027849,-0.17651854106048226,0.04370916713290985,-0.29528640166230286,0.301697811805769,-0.017477849698128975,2.1689114338321462,-0.6845522938252381,0
323,2024-09-24 12:15:56.444273926,0,016,0.5180909589784061,-0.17924866794499625,-0.035762759530156986,-0.2869305349570984,0.32961130277290707,-0.022260794209046534,2.142695584550919,-0.6457322669658833,0
324,2024-09-24 12:15:56.506299072,0,016,0.486493311901931,-0.1809027974446006,-0.10021703566774275,-0.27654770079850677,0.3468190096675968,-0.025991923469465654,2.112184421891532,-0.5963772188790019,0
325,2024-09-24 12:15:56.582501953,0,016,0.45496986588041133,-0.18144930235430878,-0.14699879505295324,-0.2646068945031906,0.35253742128124693,-0.02852869051939389,2.080962247019941,-0.5392856892881831,0
326,2024-09-24 12:15:56.650773926,0,016,0.42318848087001737,-0.18083054180924846,-0.17515990361628211,-0.2514625083160361,0.3463583146843968,-0.029743889301162018,2.0514095219845103,-0.47733790477821597,0
327,2024-09-24 12:15:57.581576172,0,016,0.3905207111015702,-0.17897130629010388,-0.185600639770366,-0.23734828198131286,0.3281667365520963,-0.029506165646685775,2.0234547561282192,-0.4130951832452353,0
328,2024-09-24 12:15:57.658735107,0,016,0.3561644686944231,-0.17579233367109862,-0.18086009868150926,-0.22240301396364442,0.29810547762324674,-0.027681222321211226,1.994153299944821,-0.34859020649861056,0
329,2024-09-24 12:15:57.720633057,0,016,0.3192877120341417,-0.17122320445486647,-0.1644735572629493,-0.2067104303134659,0.25658447443823185,-0.024146396075952793,1.9581066543740577,-0.2852885522489573,0
330,2024-09-24 12:15:57.782697998,0,016,0.2791927692188468,-0.16521489421953256,-0.14005437899641465,-0.19033883685640401,0.20434604520122102,-0.018810745810910755,1.9083262374360752,-0.2241340913276396,0
331,2024-09-24 12:15:57.860565918,0,016,0.23546875960109653,-0.15775367740470364,-0.11047537762723704,-0.17337088347493,0.14256490211848968,-0.011638952686812165,1.8371976976030053,-0.16561300851741032,0
332,2024-09-24 12:15:57.933039795,0,016,0.18806321914388846,-0.14887013731593468,-0.07748195462666267,-0.15591412952578337,0.07291665943762439,-0.002673627267999,1.7374439728040367,-0.10982418086436954,0
333,2024-09-24 12:15:58.000258056,0,016,0.13724625887165218,-0.13863400559056147,-0.041792332004610355,-0.13809326391436547,-0.0024479023776056686,0.007959080753261577,1.6029120740826088,-0.05655470936415078,0
334,2024-09-24 12:15:58.929189941,0,016,0.08352529681468972,-0.12713651579209248,-0.003497231677559229,-0.12003795083296963,-0.08103316092288486,0.020071382562335656,1.4288659872080016,-0.005335707166141366,0
335,2024-09-24 12:15:59.007293945,0,016,0.027585170138157717,-0.11447395254781072,0.03749634198679348,-0.10188026047313466,-0.16018349762107226,0.033450916310963606,1.2117741255932915,0.04452971278662816,0
336,2024-09-24 12:15:59.069852051,0,016,-0.02973827670091426,-0.10074224672771447,0.08113120231541932,-0.08376062579612766,-0.237269605851544,0.0478861253346319,0.9490838569733785,0.0939109758128263,0
337,2024-09-24 12:15:59.147960938,0,016,-0.0874974247889599,-0.0860386911371118,0.12696162762782742,-0.06583000311843698,-0.30987564106154813,0.06316967469581225,0.6395459074651137,0.143694186879383,0
338,2024-09-24 12:15:59.215791016,0,016,-0.1447089624754373,-0.07046331356261144,0.17395752516471769,-0.048244771198568744,-0.37599521937376146,0.07909318192549933,0.28417748990670344,0.19453059731797862,0
339,2024-09-24 12:15:59.272048828,0,016,-0.2004397901982302,-0.05412111375170356,0.22036952727754064,-0.031161345245465998,-0.43418225347270134,0.09544256698792676,-0.11252711194932691,0.24658234407466126,0
340,2024-09-24 12:15:59.350327881,0,016,-0.2538690742403141,-0.03713003061491319,0.2636771006881195,-0.014730827214941676,-0.4835845954154874,0.11198682752838524,-0.5415620814267287,0.29935379378445015,0
341,2024-09-24 12:16:00.262167969,0,016,-0.30432248647004534,-0.01963213125026247,0.300627937286443,0.0009131147164372685,-0.5238692688983547,0.12845766357903537,-0.9888033106390903,0.3516276741942858,0
342,2024-09-24 12:16:00.335911133,0,016,-0.3512839246484344,-0.001800551482907151,0.32743149633714885,0.015675781510320907,-0.5551124845020861,0.14453330854771929,-1.4351190138383294,0.4014998879224425,0
343,2024-09-24 12:16:00.403706055,0,016,-0.3943754797265681,0.016159440308644458,0.34015597748055176,0.02953233396948985,-0.5776979589726545,0.15984011105250925,-1.8575436281720799,0.44653800347141703,0
344,2024-09-24 12:16:00.462174805,0,016,-0.4333073894246185,0.034011156559553876,0.3352375328110787,0.04256446828223995,-0.5922202107374507,0.17397191028641446,-2.2314846021825696,0.4840753263707529,0
345,2024-09-24 12:16:00.539292969,0,016,-0.4678371748542168,0.051489236384388466,0.309908627599673,0.05498798644367956,-0.5993894045874758,0.18651707728277486,-2.5333309943862266,0.5115727949049684,0
346,2024-09-24 12:16:00.607075928,0,016,-0.49778118447699393,0.068310452285657,0.26239986876124693,0.06715762185325533,-0.5999527911453358,0.19708447466249726,-2.7426796813195597,0.5269355552752248,0
347,2024-09-24 12:16:00.671916992,0,016,-0.5230736419213124,0.08419401540753894,0.19191680252332802,0.07954993574325564,-0.5946435876278022,0.20532584687921998,-2.843809443060993,0.5287094038943069,0
348,2024-09-24 12:16:01.596693115,0,016,-0.5438235108649355,0.09888235181838133,0.09852517422222466,0.09272547278537235,-0.5841434564067219,0.21095233569106717,-2.8265650188584934,0.5161630469255177,0
349,2024-09-24 12:16:01.671653076,0,016,-0.5603290851055773,0.11215218322447991,-0.016897315374955788,0.10726254173793136,-0.5690515855663068,0.21374273167416358,-2.6870308608604843,0.4893155027472862,0
350,2024-09-24 12:16:01.733206055,0,016,-0.5730528719870528,0.12381719079502175,-0.15256648780389026,0.12366044829680511,-0.5498920281122215,0.21354985250357134,-2.4281154401455356,0.44893303985594984,0
351,2024-09-24 12:16:01.795408936,0,016,-0.5825752197997138,0.13373181562524436,-0.3056064936556817,0.1422290029901838,-0.5271765004641785,0.2103164108096622,-2.0597732421110364,0.3964544312542014,0
352,2024-09-24 12:16:01.875922119,0,016,-0.5895275713279171,0.14179987389226173,-0.4719141817876849,0.16299373184773913,-0.501484530230098,0.20410026310494783,-1.5985686739495206,0.3338351708237492,0
353,2024-09-24 12:16:01.935134033,0,016,-0.5945025682472972,0.14798086991230733,-0.6462027675291446,0.18563888446731172,-0.47353026068383947,0.19509426065781516,-1.0665777193418728,0.2633952047543378,0
354,2024-09-24 12:16:02.011498047,0,016,-0.5979623917709688,0.15228564472777356,-0.8222739600846959,0.2094944134383398,-0.4442276684056742,0.18362692288700452,-0.4898606121685162,0.187757783297588,0
355,2024-09-24 12:16:02.937292969,0,016,-0.600179478789302,0.1547627938379869,-0.9934739743023867,0.23356850624680808,-0.41474448063761593,0.17014256317972876,0.10316920325025664,0.10987028594772262,0
356,2024-09-24 12:16:03.004590088,0,016,-0.6012227589229494,0.15548527025354986,-1.1532614238097365,0.2566323049074028,-0.38648355444851906,0.15516643437459676,0.6831908647133873,0.03302325365822165,0
357,2024-09-24 12:16:03.077652100,0,016,-0.6009807292568989,0.15454348834637383,-1.2958306808705067,0.27735104165512736,-0.360950834906696,0.1392623451680111,1.2211786276160341,-0.0392165871638622,0
358,2024-09-24 12:16:03.147032959,0,016,-0.5992176987122108,0.15204433628504757,-1.416642401892988,0.29441899214112605,-0.33955709590571853,0.12299508259524108,1.6895714944214137,-0.10319877183511303,0
359,2024-09-24 12:16:03.200820801,0,016,-0.5956631196820372,0.148114194684737,-1.5126398356944317,0.3066483464240194,-0.32344796329756065,0.10690902745146963,2.0635789703245058,-0.15546994841281628,0
360,2024-09-24 12:16:03.278469971,0,016,-0.5901148486167829,0.14290598041458671,-1.582131739912154,0.3130183643819503,-0.313404166074671,0.09152230343385853,2.322504227620432,-0.193037572822054,0
361,2024-09-24 12:16:03.350419922,0,016,-0.5825233812836914,0.13660834018898166,-1.6245825635038356,0.31274076993173083,-0.30977990150441215,0.0773255579532931,2.4508959502815424,-0.21353777054091372,0
362,2024-09-24 12:16:04.280633057,0,016,-0.5730333818012835,0.12944973534252655,-1.6404980271053755,0.3053672212248348,-0.3124505273173432,0.0647734697451146,2.4395576854108167,-0.21533461091436357,0
363,2024-09-24 12:16:04.358879150,0,016,-0.5619757012783536,0.12169055801832951,-1.6313696061889287,0.29090205738264324,-0.32080049134435223,0.05426451999261914,2.2865406164667945,-0.1976333895620381,0
364,2024-09-24 12:16:04.421046875,0,016,-0.5498144439987388,0.11360541008928345,-1.599602939385608,0.2698762457558613,-0.33380467247731754,0.04611722727118576,1.9980760161781561,-0.16064910295284418,0
365,2024-09-24 12:16:04.483041992,0,016,-0.5370633104770871,0.10546358632161904,-1.5484579738806477,0.24337370115860782,-0.3502027074517616,0.04055350066178326,1.5892004333763088,-0.1057971980579608,0
366,2024-09-24 12:16:04.559636230,0,016,-0.5241992462449336,0.09751240142162376,-1.4820111628728816,0.21300885625090588,-0.36869936411746357,0.0376874869328142,1.083729426160552,-0.0358198818449934,0
367,2024-09-24 12:16:04.622136230,0,016,-0.5116059689547611,0.08996477118878017,-1.405047920124375,0.1808353350192742,-0.388132155595896,0.037515305995773233,0.5132199593372163,0.045250685750964005,0
368,2024-09-24 12:16:04.700093018,0,016,-0.4995595176459159,0.0829944970175417,-1.3227894190453646,0.14917042423460186,-0.40760280958167244,0.03991416891811537,-0.08529116101498636,0.13234836213369805,0
369,2024-09-24 12:16:05.643354004,0,016,-0.48823586383299566,0.07674059519339002,-1.2404361921103226,0.12035477483880505,-0.4265638395663951,0.04466027302360665,-0.6725574683054656,0.21982095341327476,0
370,2024-09-24 12:16:05.711156982,0,016,-0.4777075893416554,0.07131208426772885,-1.1625795016316063,0.09649070926460218,-0.4448130983763394,0.05145736923684069,-1.2107157321584794,0.3019665523133877,0
371,2024-09-24 12:16:05.777277832,0,016,-0.4679173526049038,0.06678183897040724,-1.0925622355654294,0.07919285480126707,-0.4624016204141931,0.0599624142428679,-1.6664428279388637,0.3735365745058952,0
372,2024-09-24 12:16:05.846723145,0,016,-0.45864431171533965,0.0631709421819925,-1.031857096920119,0.06936986587945673,-0.4795415095630249,0.06980743453926418,-2.0132625416631096,0.4301310698070771,0
373,2024-09-24 12:16:05.900701904,0,016,-0.44948117031921675,0.060435690835883696,-0.9795310422466939,0.06706697287224883,-0.4965543929852058,0.08061998880143117,-2.232923700453139,0.4684644065571129,0
374,2024-09-24 12:16:05.977910156,0,016,-0.43982971344719646,0.05846353471294472,-0.9319783573968433,0.0714201978806513,-0.5137964326136983,0.09203464494759153,-2.315873623672195,0.48649558984721947,0
375,2024-09-24 12:16:06.050132080,0,016,-0.42892709573573556,0.0570751104975688,-0.883237923695989,0.08076965212315322,-0.531503808885513,0.10368831720515312,-2.2609622872154014,0.48343818970371,0
376,2024-09-24 12:16:06.991049072,0,016,-0.41591139125162496,0.056030943776894104,-0.8260656567892063,0.09293187163599269,-0.5496009207433962,0.11520725264425347,-2.074698495672475,0.45969786033927096,0
377,2024-09-24 12:16:07.048965820,0,016,-0.39991043415728234,0.05504485062933847,-0.7534766846698912,0.10555754665935041,-0.5675664731727043,0.12620269532800404,-1.7703623665400066,0.4167855002287765,0
378,2024-09-24 12:16:07.126167969,0,016,-0.3801268233420716,0.053802586413236424,-0.6601743756539535,0.11646908192907512,-0.5844169044906408,0.1362826874505181,-1.3670859906736454,0.35723299382908524,0
379,2024-09-24 12:16:07.197415039,0,016,-0.3559064359845571,0.05198072180176915,-0.5434674102668166,0.12391435661014058,-0.5988109752639691,0.1450718173669468,-0.8888186378308611,0.28451027894632214,0
380,2024-09-24 12:16:07.256521973,0,016,-0.32678678949193235,0.04926332811896508,-0.4036656680376289,0.12672828402497555,-0.6092517699464881,0.15222948183754664,-0.3629213281088402,0.20289167650416692,0
381,2024-09-24 12:16:07.328028076,0,016,-0.29251565509827526,0.04535741918793401,-0.24415987707705283,0.12441146932570284,-0.6143253338337807,0.15746521574142475,0.18176292404980837,0.11720162707732476,0
382,2024-09-24 12:16:07.390511962,0,016,-0.2530334894605833,0.04000679795749328,-0.07131419722065713,0.11713332758761638,-0.6128759644955661,0.1605491111373867,0.717122851918357,0.0324346945312456,0
383,2024-09-24 12:16:08.336461914,0,016,-0.20843566540103475,0.03300284679885571,0.10591593551694363,0.10566802060617621,-0.6040487000436329,0.16131151091561968,1.2179101491215014,-0.046690363931253545,0
384,2024-09-24 12:16:08.399178955,0,016,-0.1589522656233748,0.024195661843833205,0.27675067033684453,0.09127634670314701,-0.5872063827123124,0.15963135350016494,1.6636286695727358,-0.11618057371407978,0
385,2024-09-24 12:16:08.478343994,0,016,-0.10496733968123614,0.013511493962884332,0.4296061663961856,0.07555566407364135,-0.5617759621281612,0.1554190847273894,2.0399605589082204,-0.17314772123168018,0
386,2024-09-24 12:16:08.546917969,0,016,-0.04704892040590673,0.0009733311041129405,0.5530987001545952,0.06028693034168412,-0.5271045569905116,0.14859893153147935,2.339206720800821,-0.2160014698574853,0
387,2024-09-24 12:16:08.602395020,0,016,0.014050360519638573,-0.013287258142841209,0.6369083438553608,0.04729767505676522,-0.482418113393174,0.1390929455952155,2.5593663263401623,-0.2443910266760271,0
388,2024-09-24 12:16:08.679091064,0,016,0.07741355598933251,-0.029032405744241166,0.6725543560751495,0.038334141131816664,-0.4269281895151643,0.1268116059631773,2.7022158536730134,-0.258974278226372,0
389,2024-09-24 12:16:08.750349121,0,016,0.1419734494390721,-0.04592896094007064,0.6541441584186191,0.03491881571143021,-0.3600450947912932,0.11165878709812636,2.771364904862624,-0.26116359713482895,0
390,2024-09-24 12:16:09.693594971,0,016,0.20653237996723545,-0.06356374055171775,0.5790469802075963,0.038182930460160525,-0.28161160731821494,0.09355603949716274,2.771032606541662,-0.25289959182347704,0
391,2024-09-24 12:16:09.747837891,0,016,0.2698111159347613,-0.08146363539714108,0.4483179670690893,0.04870306263799308,-0.1920927030226547,0.07248265084427355,2.705464956253336,-0.23638300375043325,0
392,2024-09-24 12:16:09.829281006,0,016,0.33051352517455207,-0.09911936192366669,0.26669122477349555,0.0663950251927887,-0.09269382490543139,0.04852125725537802,2.57856510933784,-0.2137446479670328,0
393,2024-09-24 12:16:09.897038818,0,016,0.3873822398460759,-0.11600987881191249,0.042108254297609796,0.09049626908385235,0.014605664938493452,0.02189797776414902,2.3937302444724295,-0.18678180389159107,0
394,2024-09-24 12:16:09.950138184,0,016,0.43924569624629795,-0.13162819249464136,-0.2150777532809538,0.11963096101037168,0.12711645434312038,-0.006991580645948406,2.1542187838181923,-0.15689438734328318,0
395,2024-09-24 12:16:10.027281006,0,016,0.48506198172315107,-0.1455094802329893,-0.49300168545325984,0.151938768001018,0.24159435846833308,-0.03757483831071367,1.8640562893142203,-0.1251963090968269,0
396,2024-09-24 12:16:10.100441895,0,016,0.5239484048349171,-0.15725675012911114,-0.7791332530221471,0.1852511597087987,0.3544430449696116,-0.06911115001555929,1.5290177502018611,-0.09266795790662109,0
397,2024-09-24 12:16:11.018708984,0,016,0.5551918957829066,-0.1665583387468295,-1.0610467640053451,0.21729479129774543,0.4619112016766494,-0.10071184181399566,1.1572116231360643,-0.060252421847044955,0
398,2024-09-24 12:16:11.082181885,0,016,0.5782547954248898,-0.17319900748651818,-1.3271087119324352,0.2458858417681578,0.5602695845476454,-0.13137281931154804,0.7590565442640231,-0.028869877710443588,0
399,2024-09-24 12:16:11.144669922,0,016,0.5927882789713702,-0.17707159038966547,-1.5669793727175818,0.2690693073343559,0.6459938485403836,-0.16003068138305057,0.3465740395773218,0.0006525135850388047,0
400,2024-09-24 12:16:11.211724121,0,016,0.5986518791733201,-0.17819068328544,-1.7718299189779303,0.28518299397436886,0.7159771843074139,-0.18564921166525583,-0.0679053495052329,0.02771932664427474,0
401,2024-09-24 12:16:11.285463135,0,016,0.5959353605393386,-0.17670078669128014,-1.9343458394787953,0.292878437993376,0.7677657461009985,-0.20732414171000715,-0.47318267749810905,0.05212169217491528,0
402,2024-09-24 12:16:11.348303955,0,016,0.5849822786998823,-0.17287197125569675,-2.0487075622814634,0.29115023315483374,0.7997802169543233,-0.22437956659369634,-0.8602499755089305,0.07414091872021834,0
403,2024-09-24 12:16:11.410790039,0,016,0.5664071699090396,-0.16708562442802227,-2.1106655390146756,0.2793915376040882,0.8114701532230726,-0.23643221562393085,-1.2227538962800883,0.09455482763678724,0
404,2024-09-24 12:16:12.368278076,0,016,0.5410878021895644,-0.15981600436016605,-2.117652007957998,0.25745218939453113,0.8033595858868736,-0.24341235168483638,-1.5569248890515548,0.11453707663444126,0
405,2024-09-24 12:16:12.433645996,0,016,0.5101256070321071,-0.15160673059801816,-2.068761306459993,0.2256566705148302,0.7769872771637547,-0.2455425793281574,-1.8610792374013252,0.13547110216644193,0
406,2024-09-24 12:16:12.495675049,0,016,0.47479499622556,-0.14303926506192738,-1.9644943832578647,0.18474625427357877,0.7347757006645758,-0.24328599220345132,-2.134903514677648,0.1587283315521017,0
407,2024-09-24 12:16:12.571104004,0,016,0.4364983196033758,-0.1346964803704218,-1.8063715100564859,0.13575190599471396,0.6798487679210469,-0.23728031002798297,-2.3788592462256526,0.18547789465620132,0
408,2024-09-24 12:16:12.630512939,0,016,0.3967023590033648,-0.1271251741437289,-1.596686352163821,0.07985766920116422,0.6158031540400369,-0.22827085130561164,-2.593853272276759,0.21656682095091612,0
409,2024-09-24 12:16:12.692998779,0,016,0.35682771429229904,-0.12079603706749169,-1.3386252534985597,0.018320296427201368,0.5464508423274255,-0.2170459923631722,-2.780992254492102,0.25244858025984834,0
410,2024-09-24 12:16:12.770684082,0,016,0.3181226871018313,-0.11606310717749069,-1.0367250955234408,-0.04753556106469805,0.4755604023997852,-0.2043759309993791,-2.941219508513558,0.2931084920325741,0
411,2024-09-24 12:16:13.693406982,0,016,0.28158762612785276,-0.11313547000871102,-0.6974152717532293,-0.11627452630182493,0.4066183245901439,-0.19096031169863126,-3.0748591338631748,0.3379612471242562,0
412,2024-09-24 12:16:13.755408936,0,016,0.24796585230632132,-0.11207192531181677,-0.32935134888071155,-0.18631161247488395,0.3426338862054808,-0.17739029506037973,-3.1813237385265336,0.38575664326217596,0
413,2024-09-24 12:16:13.817489014,0,016,0.21776516696791612,-0.11279398510615674,0.056638028017492285,-0.25592830102270187,0.28602131016352267,-0.16412403604263803,-3.2593214295672412,0.43457644525067357,0
414,2024-09-24 12:16:13.895145996,0,016,0.1912951716053199,-0.115106619047559,0.44798822143540745,-0.32335739947218556,0.23857730282197048,-0.15147189209546913,-3.3076527470478063,0.48198844627599324,0
415,2024-09-24 12:16:13.958006104,0,016,0.1687384551598674,-0.11872442993311169,0.8310624722537209,-0.3868942427765203,0.20152012713660636,-0.1395910587419492,-3.3262595683547493,0.5253478865866703,0
416,2024-09-24 12:16:14.020059082,0,016,0.15024324008161372,-0.12330420237898915,1.1918708255970916,-0.4449724883873341,0.1755176888642963,-0.12849103693366223,-3.316923675551052,0.5621410199696131,0
417,2024-09-24 12:16:14.100642822,0,016,0.13598876146747219,-0.12847823737511,1.516794153254542,-0.49618398222880333,0.16067026701451573,-0.11805029441846487,-3.283070735022148,0.5902212001186826,0
418,2024-09-24 12:16:15.043407959,0,016,0.12620400972322063,-0.13388074822123433,1.7933947584735814,-0.5392800315717484,0.15650462809365978,-0.10804709689426825,-3.228604298025488,0.6078687266459923,0
419,2024-09-24 12:16:15.104547119,0,016,0.12115937078944077,-0.13916507841965936,2.011390836422274,-0.573206321995249,0.16206474644705035,-0.0982105855273748,-3.1564035058995525,0.6137505692547363,0
420,2024-09-24 12:16:15.166141113,0,016,0.12113683717733764,-0.14401269699667973,2.163709203422225,-0.5971875833801554,0.17610603099441446,-0.08829022516541866,-3.067409167884655,0.6069047339680111,0
421,2024-09-24 12:16:15.243802002,0,016,0.12636235938625665,-0.1481335555318717,2.2473767242679266,-0.6108316332459091,0.1973158075660943,-0.07812532466650124,-2.9607232143343767,0.5867868522482532,0
422,2024-09-24 12:16:15.311375000,0,016,0.13690415714390824,-0.15125991847637776,2.2639776800112417,-0.6142005200590804,0.22447707957405494,-0.06768845361210814,-2.8343884045766305,0.5533208467098214,0
423,2024-09-24 12:16:15.382958008,0,016,0.15257643634457851,-0.1531430403775471,2.219456051689935,-0.6078032145799351,0.256531293473593,-0.057086522926349935,-2.686199203936839,0.5069008588917959,0
424,2024-09-24 12:16:15.447405029,0,016,0.17288805066714114,-0.15356048552816529,2.123231268463705,-0.5924945809936913,0.29252972789914206,-0.046522187620661,-2.514114838745274,0.4483475421010001,0
425,2024-09-24 12:16:16.394597168,0,016,0.19704420403512066,-0.15232888923621704,1.9869127660881645,-0.5693167240270589,0.3315081327658799,-0.03623295524336876,-2.316294529540431,0.37883072764977094,0
426,2024-09-24 12:16:16.447364014,0,016,0.22399520879528917,-0.1493127494183822,1.8230438620813638,-0.5393594548051417,0.3723845084501801,-0.02643523164091179,-2.0910838521921855,0.29975072778880685,0
427,2024-09-24 12:16:16.530271973,0,016,0.2525346655226549,-0.14443155776176397,1.6441000844687605,-0.5036950164897958,0.41398710159317725,-0.01730189674528198,-1.837192717683497,0.2125820725691143,0
428,2024-09-24 12:16:16.595918945,0,016,0.2814354712559957,-0.13767264392615935,1.461672643397802,-0.46337754090914257,0.4552084457961766,-0.008979838356933553,-1.5539871403367351,0.11871284385678307,0
429,2024-09-24 12:16:16.665882080,0,016,0.30958121676709416,-0.12910556057656408,1.2857287067062435,-0.41947036323745407,0.49515559998794995,-0.0016190813166895091,-1.241777704158071,0.01933951140148761,0
430,2024-09-24 12:16:16.720200928,0,016,0.3360574767494508,-0.11888738669736493,1.1240306737627923,-0.3730807841016946,0.5331810669301605,0.004621554188423838,-0.9022461437840371,-0.08450893443602864,0
431,2024-09-24 12:16:16.797744873,0,016,0.3602039197439802,-0.10725764190772895,0.981893172811638,-0.3253863818974785,0.5688118673938692,0.009595811296578785,-0.539115060596394,-0.19179560625019762,0
432,2024-09-24 12:16:17.737090088,0,016,0.38163765739711464,-0.09452883937185137,0.8623191378971639,-0.27763389104932995,0.6016764837228064,0.01319282285060941,-0.15877602506951796,-0.30123339008993105,0
433,2024-09-24 12:16:17.802645996,0,016,0.40024928985581587,-0.08107487393713603,0.7663667350837191,-0.23110454177399936,0.6314871946173134,0.015340766790628258,0.22952977146760953,-0.41110094211864917,0
434,2024-09-24 12:16:17.876239014,0,016,0.4161825994451605,-0.06731639637643426,0.6935391552979552,-0.18704560671812565,0.6580690761627929,0.015992134440131815,0.6140783439662171,-0.5191715392583285,0
435,2024-09-24 12:16:17.938724121,0,016,0.42981127554155635,-0.05370512095728038,0.642087509234326,-0.14656960845358624,0.6814070427345839,0.015103272588784971,0.9814163233753038,-0.6227316182168611,0
436,2024-09-24 12:16:18.001167969,0,016,0.44169932039371723,-0.04070832641263263,0.6092753585159759,-0.11054633962339024,0.7016592589065618,0.012625017046115773,1.3173742003054802,-0.7186711995404462,0
437,2024-09-24 12:16:18.080858887,0,016,0.452520592473097,-0.02878970658777624,0.5917121850566006,-0.0795277333103278,0.7190713070997893,0.008520572965334238,1.6083010520782144,-0.8036624858812891,0
438,2024-09-24 12:16:18.141369141,0,016,0.46294818444508673,-0.01838563908766214,0.5857807040459216,-0.053721252736910315,0.7337960338867408,0.0028117952286147003,1.8424101800606887,-0.8744190660624536,0
439,2024-09-24 12:16:19.089893066,0,016,0.47356215284728836,-0.009885962957721808,0.5880611756549806,-0.03300253857600046,0.7457167145288388,-0.004367427505911101,2.011021808110074,-0.9279750234127058,0
440,2024-09-24 12:16:19.152378174,0,016,0.4848071806990465,-0.003625695655568257,0.5956172757887492,-0.01696028263928717,0.7543711418344873,-0.01273957840308682,2.1095227358529756,-0.9619247942951324,0
441,2024-09-24 12:16:19.214421143,0,016,0.4969800000663778,0.00012199090194682508,0.6061051647894692,-0.004967442393853693,0.7590059020631618,-0.021889475070585626,2.137896198699661,-0.9746128468559265,0
442,2024-09-24 12:16:19.295395020,0,016,0.5102136221582676,0.001164438819989451,0.6177759241783011,0.003736852832517265,0.7587315441500523,-0.031304882133911215,2.10055880420729,-0.9652679802192642,0
443,2024-09-24 12:16:19.354135986,0,016,0.5244530121686689,-0.0005825162129113479,0.6294391091614235,0.009965978212795707,0.7527200200892843,-0.040437031440243965,2.0052943159522156,-0.9340422066266164,0
444,2024-09-24 12:16:19.431000977,0,016,0.5394227481418853,-0.005068487480959321,0.6404442994052725,0.01449885408639156,0.7403840071098792,-0.048761173288108944,1.8615492950380192,-0.8819398798900129,0
445,2024-09-24 12:16:19.494268799,0,016,0.5545850147267936,-0.012091077022698613,0.6507418604386355,0.017979556870049273,0.7215048406408978,-0.05582163352559062,1.6787499587539703,-0.8106915177357091,0
446,2024-09-24 12:16:20.430658936,0,016,0.5691207263480507,-0.021291935893898824,0.6609682619300016,0.020816755447162355,0.6963092143213974,-0.06126179523630113,1.46509412306792,-0.7226209168791484,0
447,2024-09-24 12:16:20.507910889,0,016,0.5819802936205611,-0.032172825430675824,0.6723906352291038,0.02311422652740259,0.6655002960503829,-0.06485040465117346,1.2267702065518533,-0.6204911067914682,0
448,2024-09-24 12:16:20.577613037,0,016,0.591990820002076,-0.04413048920951104,0.6866756881003102,0.024657436022795094,0.630235901511724,-0.06650777532477942,0.9674067165047258,-0.5073105067799102,0
449,2024-09-24 12:16:20.640485107,0,016,0.5979568568965554,-0.05649796012022252,0.7056503135625517,0.024959369151109936,0.5920503965897207,-0.06632180362674987,0.6878939747893892,-0.3861461589707842,0
450,2024-09-24 12:16:20.702970947,0,016,0.5987305547160718,-0.06858206723200289,0.7311435194260865,0.023352409527513426,0.5527388515186024,-0.06454245167474554,0.3869562493538342,-0.26002081020694234,0
451,2024-09-24 12:16:20.780667969,0,016,0.5932867194092033,-0.07969971087673042,0.764741599102775,0.019108461283335754,0.51423577196278,-0.06155337053863629,0.062454945472995994,-0.13189658855954248,0
452,2024-09-24 12:16:20.842673096,0,016,0.5808263761387206,-0.08921889475655599,0.8073129949747319,0.011566918531042867,0.4784986630343337,-0.05782552636972867,-0.2871792095420088,-0.004658261321441863,0
453,2024-09-24 12:16:21.753266113,0,016,0.5608793220891043,-0.0965999428954048,0.8585223311519001,0.00024210188740791066,0.447366496866055,-0.053854826834072965,-0.6619322222751595,0.118961971221834,0
454,2024-09-24 12:16:21.831374023,0,016,0.5333696456252924,-0.10142654422364038,0.9167216917776231,-0.01511437624708722,0.42237602555815484,-0.05008781615064584,-1.059619461752829,0.2364682708767036,0
455,2024-09-24 12:16:21.893012939,0,016,0.4986458342591522,-0.10342454997964502,0.9792731406375503,-0.03448924687139591,0.4045784828317931,-0.046851659563000775,-1.475480650837083,0.3456091666574386,0
456,2024-09-24 12:16:21.970266113,0,016,0.45748711332501124,-0.10247327333472994,1.0429690556213422,-0.05759085013481422,0.39441612116611996,-0.044308361030251014,-1.901896780817814,0.4443010965585587,0
457,2024-09-24 12:16:22.032281006,0,016,0.41107815825074373,-0.09860904391491784,1.104293442364366,-0.08383263996243175,0.3916807344476685,-0.042439343228351085,-2.328425000456978,0.530556499047647,0
458,2024-09-24 12:16:22.094337891,0,016,0.36094934984641563,-0.09201573569553302,1.1595841401568945,-0.11234385341613363,0.39554960088932273,-0.041054453574736846,-2.7424066211455282,0.6025273511739753,0
459,2024-09-24 12:16:22.174614014,0,016,0.308900851837836,-0.08300254130607385,1.205221226501605,-0.1420325055308715,0.4046936923890944,-0.03982411552166162,-3.130128702461514,0.6586837169110994,0
460,2024-09-24 12:16:23.110002930,0,016,0.2569234673560129,-0.07197834759451409,1.2378405091487108,-0.1716979776875566,0.4174366527613265,-0.03833765995377747,-3.4780868636704074,0.6980231246392709,0
461,2024-09-24 12:16:23.172159912,0,016,0.20710607388206617,-0.05943092284239035,1.2545581941037862,-0.20016577782197004,0.4319090019341678,-0.036175760801074264,-3.773806399204742,0.7201887484564327,0
462,2024-09-24 12:16:23.249366943,0,016,0.16151261346449705,-0.045907452716095754,1.253235150033934,-0.22640714748887192,0.4461476830291588,-0.0329684299717092,-4.006091677808231,0.725471248337923,0
463,2024-09-24 12:16:23.321263916,0,016,0.12202904952521211,-0.03198764687809133,1.232719177493654,-0.24960913028613171,0.458150502136566,-0.02842166977021171,-4.165046624214467,0.7147466768788092,0
464,2024-09-24 12:16:23.388420166,0,016,0.09019902608385985,-0.018248892725597245,1.1929035988428307,-0.269172926227512,0.46593876313780264,-0.022325046567032044,-4.242284765009674,0.6893939005117313,0
465,2024-09-24 12:16:23.456849121,0,016,0.06706578506147681,-0.005229286873399512,1.1345252671692734,-0.28464249254720003,0.4676581937028183,-0.014561766300575199,-4.231469386490889,0.6512086139660067,0
466,2024-09-24 12:16:23.517898193,0,016,0.05303444684151074,0.006609429337666193,1.0587857552669504,-0.2955948254475744,0.46170323359490684,-0.005125589395693445,-4.129067563942684,0.6023382542024993,0
467,2024-09-24 12:16:24.434566895,0,016,0.04778230155085664,0.016918162475081787,0.9669464745716387,-0.3015396482655661,0.4468420731064837,0.005866536231586376,-3.935148401098977,0.5452682616480793,0
468,2024-09-24 12:16:24.497356934,0,016,0.05025050437993374,0.025488159351377323,0.8600470008282476,-0.3018707642042965,0.4223267922571584,0.018175748515862997,-3.654074293194923,0.48285522341991244,0
469,2024-09-24 12:16:24.573920898,0,016,0.058723203654858426,0.03226101014931819,0.7388381570715645,-0.29588693209113004,0.38796015392315186,0.03145976294032786,-3.2949169183233264,0.41834045552130283,0
470,2024-09-24 12:16:24.635954102,0,016,0.07097074901923871,0.037321207910384055,0.603885803132691,-0.28286650843285277,0.3440942917786036,0.04530862189344389,-2.8714375088594983,0.3552564713163725,0
471,2024-09-24 12:16:24.714062012,0,016,0.08444331256457392,0.040875924782098234,0.45571675461438294,-0.2621588810194944,0.2915789091031779,0.05929100325451292,-2.401552010004916,0.2972077287568946,0
472,2024-09-24 12:16:24.776068115,0,016,0.09651772821467322,0.04322242566610861,0.29496437097723616,-0.23326755483245687,0.2316898439796248,0.07299833937670903,-1.9062996215078256,0.24759869282769056,0
473,2024-09-24 12:16:24.837261963,0,016,0.1047688126336109,0.044707100889193135,0.12259802269214322,-0.19593241729504146,0.16602477781265315,0.08608063627592037,-1.4084585284416875,0.20939615292177152,0
474,2024-09-24 12:16:25.781845215,0,016,0.10719830726705976,0.04568928864203528,-0.05972322384806267,-0.15022523784035494,0.09634622851693146,0.09827709484451355,-0.9311220038663066,0.18497221990408602,0
475,2024-09-24 12:16:25.861386963,0,016,0.1023812485272161,0.046517115986047186,-0.24931921366387402,-0.09663835787402336,0.024418595950584716,0.10943954915880787,-0.49648436776766175,0.17602859298104842,0
476,2024-09-24 12:16:25.919455078,0,016,0.089540318213636,0.04750701881121393,-0.44243183488551185,-0.03612323724409969,-0.04808342007757412,0.11953749910077666,-0.12468582318881202,0.18354471399552183,0
477,2024-09-24 12:16:25.981940918,0,016,0.06856031997898782,0.04891790736367196,-0.6345551021666439,0.029940202283283278,-0.11957775296972463,0.12863678997935482,0.16762166792521221,0.20768524450885226,0
478,2024-09-24 12:16:26.064781982,0,016,0.03993496902353875,0.05092496127317085,-0.820941782575068,0.09981967913994562,-0.1885330862551062,0.13685519288891745,0.3689545346566074,0.24768864143765434,0
479,2024-09-24 12:16:26.132571045,0,016,0.0046516912263181494,0.05360643240784142,-0.9969171206544726,0.17151195978109435,-0.25342473565273954,0.14430763835440205,0.4743873609092277,0.3018318678121515,0
480,2024-09-24 12:16:26.198635010,0,016,-0.035949731943937586,0.05694915660302909,-1.157881571347678,0.2428088782684318,-0.3127131702006797,0.15105788152420901,0.48597573367382485,0.3675451082775123,0
481,2024-09-24 12:16:27.143646973,0,016,-0.08030722963188029,0.06086368421685207,-1.2992201197004913,0.31135178694650073,-0.3648720098300227,0.1570890128813918,0.4119224275067369,0.44167142982025803,0
482,2024-09-24 12:16:27.205795898,0,016,-0.12675141527501163,0.06519780344233392,-1.4163364189553809,0.37468433915953114,-0.40848789636225147,0.1622982147839175,0.26488503813801245,0.5207913422272691,0
483,2024-09-24 12:16:27.267667969,0,016,-0.17362767865808879,0.06975099041092443,-1.5048516707204969,0.4303180388955964,-0.4424257446193616,0.16651724112875219,0.06019366822005126,0.601507875141442,0
484,2024-09-24 12:16:27.344832031,0,016,-0.21942573593262352,0.07429911792456283,-1.560952706622541,0.47583414109695205,-0.4660142094671483,0.1695517603301115,-0.1854982839578079,0.6806228971939123,0
485,2024-09-24 12:16:27.406383057,0,016,-0.2628832745987785,0.07862746157107472,-1.581843867312499,0.5090287234984615,-0.4791840755986946,0.17122095803765397,-0.4550425863453438,0.7551929245564111,0
486,2024-09-24 12:16:27.468868896,0,016,-0.3030430732028518,0.08255990375808038,-1.566137113433753,0.5280667353793594,-0.48250493182249116,0.17137962562277095,-0.7312455512282493,0.8225022073865748,0
487,2024-09-24 12:16:27.550535889,0,016,-0.3392740457043625,0.08597757411916367,-1.5139980312541828,0.5316003581249248,-0.47710192972404614,0.1699197247571566,-0.9972191159064694,0.8800332131351171,0
488,2024-09-24 12:16:28.493693115,0,016,-0.3712639563662545,0.08882897863129349,-1.4270341628900038,0.5188441580082431,-0.4644712176968876,0.16676080734136503,-1.237013812186104,0.9255291582663969,0
489,2024-09-24 12:16:28.555386963,0,016,-0.3989820618821639,0.0911329661833969,-1.3080407641639773,0.4896310083417058,-0.4462444247895829,0.16184055395222466,-1.4366604230704918,0.9571754298544458,0
490,2024-09-24 12:16:28.618067139,0,016,-0.422629712293718,0.09297257447873795,-1.1607059295534072,0.44446865312100914,-0.4239719235132346,0.15511304192476338,-1.5852412332596726,0.9738087926138718,0
491,2024-09-24 12:16:28.695638916,0,016,-0.4426120122969684,0.0944816029752105,-0.9893371875227408,0.38459972543025117,-0.3989761076845854,0.14655689221588986,-1.6755105845656255,0.975031635943028,0
492,2024-09-24 12:16:28.764867188,0,016,-0.4595392250714213,0.09583096803714418,-0.7986392491379127,0.3120472290595053,-0.3722734119785543,0.1361891830210347,-1.7039568722817113,0.961192687138859,0
493,2024-09-24 12:16:28.819755127,0,016,-0.4742290129324262,0.09721881760428137,-0.5935099409572087,0.22960223116219727,-0.344531829365259,0.12407788671679272,-1.6705212202624296,0.9332804844739808,0
494,2024-09-24 12:16:28.897405029,0,016,-0.48767437684887055,0.09885997778385197,-0.3787798657095141,0.14070819494204378,-0.3160551905735546,0.11034794522086805,-1.5783081076782202,0.8927987241740923,0
495,2024-09-24 12:16:29.828947998,0,016,-0.5009741248069626,0.10096886204122373,-0.15889909532378485,0.04923657868877018,-0.2868296116630727,0.09518339230749132,-1.4335143912264072,0.841671848820731,0
496,2024-09-24 12:16:29.911627930,0,016,-0.5152526524421533,0.10373877417754503,0.062284819840552966,-0.04080437961109934,-0.25666390720271043,0.0788344342023577,-1.24543828330272,0.782187625461243,0
497,2024-09-24 12:16:29.979435059,0,016,-0.5315840120823869,0.10732608096744914,0.2814949738748776,-0.12557243628746537,-0.22538417894771073,0.0616310060672686,-1.0261819463020552,0.7169490521512406,0
498,2024-09-24 12:16:30.045686035,0,016,-0.5509024199700262,0.11184042470000143,0.49570487117484263,-0.20165204366701048,-0.19298059571527532,0.04398768873565157,-0.789782018565123,0.6487944206518023,0
499,2024-09-24 12:16:30.107702881,0,016,-0.5738831066263845,0.11733413042946308,0.7016486546755164,-0.2662222681536259,-0.15965600351569084,0.02638743009769848,-0.5508554505841068,0.5806504568827481,0
500,2024-09-24 12:16:30.169754883,0,016,-0.600816064794156,0.12378888907375737,0.8953933655145742,-0.31712061370231653,-0.12583792756613507,0.009354527904484712,-0.32321197791251705,0.5153232690367953,0
501,2024-09-24 12:16:30.247435059,0,016,-0.6315163843834042,0.1311067516808874,1.0722282156787017,-0.3528540812083981,-0.09222175888244374,-0.00656602034831837,-0.11889156751811868,0.4552872728679813,0
502,2024-09-24 12:16:31.193809082,0,016,-0.6652982162425191,0.13911091723872832,1.2270045011417536,-0.3726235245349202,-0.05982316543422475,-0.02082485843624929,0.05235922803560431,0.40253829750756887,0
503,2024-09-24 12:16:31.256252930,0,016,-0.7010155958791251,0.14755397265277864,1.3548105455363912,-0.37637813340871284,-0.029987420157235628,-0.03289378420909541,0.18350453329705482,0.35852451992199774,0
504,2024-09-24 12:16:31.321897949,0,016,-0.7371562860496594,0.15612905301221952,1.451632413347469,-0.3648581965048945,-0.0043449764295379265,-0.04230262695614101,0.27068152502248544,0.3241265136574469,0
505,2024-09-24 12:16:31.395436035,0,016,-0.7719620439929593,0.1644842091226563,1.5146714903571012,-0.3395680080545561,0.015279030803864967,-0.048677041694602935,0.3134540977822206,0.2996525440220075,0
506,2024-09-24 12:16:31.464971924,0,016,-0.8035535057943537,0.17224417494452457,1.542320231570976,-0.302658840831042,0.02700569820105394,-0.051769493764185694,0.3145694698816695,0.28481885489581776,0
507,2024-09-24 12:16:31.519212891,0,016,-0.830061418807429,0.17904014777739674,1.5340948578954672,-0.2567554314226039,0.02909525915759458,-0.051485796476868254,0.2793363202099669,0.278708006462805,0
508,2024-09-24 12:16:31.585408936,0,016,-0.8497822819664252,0.18454260719312085,1.4907523907842917,-0.2047718227543979,0.020169734434319745,-0.04790920803409581,0.21502474844756286,0.2797429720373863,0
509,2024-09-24 12:16:32.518970947,0,016,-0.8613642009224755,0.18849364184776762,1.4145280994506553,-0.14973715597943113,-0.0005754169404202661,-0.04131261849602324,0.13048324381618448,0.28572502762148777,0
510,2024-09-24 12:16:32.586818848,0,016,-0.8639958849724488,0.19073749352288125,1.3092653651836033,-0.0946327143701807,-0.03320053474319733,-0.03214806412759125,0.035811123784039604,0.2939547300353273,0
511,2024-09-24 12:16:32.644951172,0,016,-0.8575503538835505,0.19124259170735408,1.180279012114663,-0.04223601471287789,-0.07690349987683362,-0.02101883840287788,-0.058133020215285235,0.30143743558073033,0
512,2024-09-24 12:16:32.721666992,0,016,-0.8426478102388528,0.19010558261028243,1.0339929441016933,0.00502840739841847,-0.12997445580940192,-0.00864979308019234,-0.14047205903061363,0.30517356220749,0
513,2024-09-24 12:16:32.790157959,0,016,-0.8206263504074184,0.18753635379317748,0.8775177581349908,0.04521671827046728,-0.18985207551357594,0.0041390595418268825,-0.2013485329172794,0.30251882518347045,0
514,2024-09-24 12:16:32.845534180,0,016,-0.7934120409310125,0.1838304797854937,0.7182445844846602,0.07695390729055637,-0.2532880941297891,0.01646619448929013,-0.23314839545836166,0.29155375818843715,0
515,2024-09-24 12:16:32.922697998,0,016,-0.7632908941092632,0.1793337492924512,0.563392327625079,0.0994825701074771,-0.31660530010292015,0.027439835404392075,-0.23141608362177454,0.2713452926765777,0
516,2024-09-24 12:16:33.857233154,0,016,-0.7326374550193699,0.1744026919069677,0.4194970637294481,0.11268238614864413,-0.37602529590331324,0.03622209084424913,-0.19496168660661423,0.2419841083490239,0
517,2024-09-24 12:16:33.934493896,0,016,-0.7036858492907583,0.16936909933434693,0.2919977972787058,0.11705526889404959,-0.4280286982560058,0.042091303837812746,-0.12523977136373138,0.20438849929722516,0
518,2024-09-24 12:16:33.996030029,0,016,-0.6783784585117333,0.16451530649326096,0.18509217506017395,0.11365260690462628,-0.4697005802266937,0.0444943393995286,-0.025594718205977772,0.16001209860012236,0
519,2024-09-24 12:16:34.058981934,0,016,-0.6582605421863235,0.1600595736367243,0.10183047591892476,0.1039318567964601,-0.4990123186064751,0.043089378477894735,0.0990603551950126,0.11063622169180974,0
520,2024-09-24 12:16:34.136249023,0,016,-0.6443933248624003,0.15614826523053943,0.04419710781020914,0.08957296061262958,-0.5149938262529377,0.03777768984659671,0.24204555785372003,0.05830963015172246,0
521,2024-09-24 12:16:34.208026855,0,016,-0.6373011358022123,0.15285510572555117,0.012981292638937745,0.07231350986539505,-0.5177795074007129,0.028719153260167017,0.394656827861833,0.005334041473446347,0
522,2024-09-24 12:16:34.275802979,0,016,-0.6369724854538941,0.15018929477892504,0.007525854778825674,0.05383842750051754,-0.5085474426813804,0.016327852887648066,0.5464334776960047,-0.04584587096340389,0
523,2024-09-24 12:16:35.188177002,0,016,-0.6429108066208404,0.14811170034342483,0.025605804126584846,0.035713080592145036,-0.4893567998940212,0.0012422574642864679,0.6860926202693157,-0.09287653484062468,0
524,2024-09-24 12:16:35.250252930,0,016,-0.6542304312759696,0.1465555932623205,0.06356947788400892,0.019328472770440416,-0.4628702212434024,-0.01573505325580865,0.8027497778657825,-0.1337616660316703,0
525,2024-09-24 12:16:35.327435059,0,016,-0.6697987223545312,0.14544767196774563,0.11668779669918887,0.005842039802574001,-0.4319995489709322,-0.033719426773719204,0.8870003098082232,-0.1670592200048446,0
526,2024-09-24 12:16:35.390354004,0,016,-0.6883962388842377,0.14472639986375221,0.1795751233822338,-0.0038802709952837347,-0.39955777997181147,-0.05182828858019553,0.9316720551464017,-0.19195613180965937,0
527,2024-09-24 12:16:35.452428223,0,016,-0.7088390501817403,0.1443552972689543,0.24656429837792476,-0.009302203443851222,-0.36796045625578183,-0.06925517468347951,0.9321564019649708,-0.20820413782308536,0
528,2024-09-24 12:16:35.530329102,0,016,-0.7300304561917479,0.14432749244483584,0.3120214780798958,-0.01021787556250196,-0.33897629869491275,-0.08533198467167201,0.8863734381614801,-0.21595799293453796,0
529,2024-09-24 12:16:35.597837891,0,016,-0.750959328926203,0.144659490450699,0.37065687912082246,-0.006709179860785989,-0.31355881842703165,-0.09957348633285566,0.7947239175672275,-0.21562241695419926,0
530,2024-09-24 12:16:36.543144043,0,016,-0.770683879633874,0.14537857392144496,0.41780217279378046,0.0009393333445187413,-0.29184232420506206,-0.11168822573168835,0.6604286201701312,-0.20781385093261742,0
531,2024-09-24 12:16:36.595629883,0,016,-0.7883200997674816,0.14651006990209442,0.4495546676543432,0.012357997875685965,-0.27334745228391233,-0.12154901606035193,0.49023717473856615,-0.19346441219430618,0
532,2024-09-24 12:16:36.678777832,0,016,-0.8030289778546527,0.14806370959007173,0.4628081174187905,0.02720068431525814,-0.2573080777923548,-0.12914408276463388,0.2949347232456602,-0.17398519630214798,0
533,2024-09-24 12:16:36.746530029,0,016,-0.8140016974496087,0.15001642550980765,0.4552860425877391,0.045195377850663514,-0.24295092240723518,-0.13454161047768531,0.08906583285051661,-0.15137044589369342,0
534,2024-09-24 12:16:36.812505127,0,016,-0.820459591005692,0.15229935603812883,0.4255633209593274,0.0661408131776089,-0.22963036106149765,-0.13787753516017226,-0.11012875477263524,-0.1281940022789972,0
535,2024-09-24 12:16:36.874555176,0,016,-0.8216700860012187,0.1547999291498021,0.3729587587815134,0.08989496034869167,-0.21684256164784615,-0.13935112384691145,-0.2842414733465182,-0.10749594080674835,0
536,2024-09-24 12:16:36.936438965,0,016,-0.8169477697563295,0.15737377235786493,0.2973424633686361,0.11636614172959772,-0.2041918026824531,-0.13921498460496928,-0.41551589632369773,-0.09253999899616888,0
537,2024-09-24 12:16:37.886577881,0,016,-0.805620112093831,0.159850107076883,0.19906220072600872,0.14547425556293328,-0.1913696695690031,-0.13775813750252272,-0.4887887001943767,-0.08644377439322373,0
538,2024-09-24 12:16:37.948641113,0,016,-0.7869799831109542,0.16202696973002595,0.0790960496366283,0.17706779957702953,-0.17817723900049157,-0.13528271350603113,-0.49315800426631895,-0.09175236541862719,0
539,2024-09-24 12:16:38.025308105,0,016,-0.7602632595812133,0.16366815584285074,-0.06063016759368509,0.21081560956253587,-0.16457159720563025,-0.13207911632120406,-0.42292879635076464,-0.11006432370152439,0
540,2024-09-24 12:16:38.088252930,0,016,-0.7246770585902765,0.16451086162039452,-0.21688451946969595,0.24609965823753632,-0.1506842465873097,-0.12841406517473775,-0.27774615724614,-0.14179977507279273,0
541,2024-09-24 12:16:38.150881104,0,016,-0.6794911410456324,0.16428191625869346,-0.3848707358211278,0.28194088164343795,-0.136792496016801,-0.12453932932581739,-0.0622998663815068,-0.186144747239434,0
542,2024-09-24 12:16:38.232243896,0,016,-0.6241853399750814,0.1627172618846845,-0.5582134272506327,0.3169901821737388,-0.12328148344904634,-0.12070827659834413,0.21396971327026432,-0.2411509160868123,0
543,2024-09-24 12:16:38.290113037,0,016,-0.5586141321603769,0.15958203501621718,-0.7292808444287013,0.34959758951975556,-0.11062235548161026,-0.117183116610265,0.5371468687715129,-0.3039474641184695,0
544,2024-09-24 12:16:39.237488037,0,016,-0.4831358238393766,0.15468921515795017,-0.8898009387154405,0.37794877868224785,-0.09934694165613032,-0.11423088609336068,0.8894374202865891,-0.3710235263039726,0
545,2024-09-24 12:16:39.311099121,0,016,-0.3986797827593752,0.1479146180572942,-1.0315512900709152,0.40023249703164715,-0.09002241616550725,-0.11211218687334451,1.250369530962501,-0.4385345863056266,0
546,2024-09-24 12:16:39.377250000,0,016,-0.3067587090692432,0.13920874318094537,-1.1469037726794875,0.41478862389331617,-0.08327683032693457,-0.1110595493392281,1.598537851669464,-0.5025773900963262,0
547,2024-09-24 12:16:39.438770020,0,016,-0.20942472357713315,0.12860621762681904,-1.2292085007699876,0.4202127472527986,-0.0798784091199986,-0.11124592752455037,1.9135717749719556,-0.5594065646177494,0
548,2024-09-24 12:16:39.500798096,0,016,-0.10914230838667006,0.11622799460358377,-1.2731282660543155,0.4154325347955321,-0.0807802367523345,-0.11275823209358385,2.177961007773392,-0.6056212084222979,0
549,2024-09-24 12:16:39.577291992,0,016,-0.00857698844324019,0.10226968186426162,-1.2749672628642736,0.399776065674006,-0.08706821754673004,-0.11559044391494111,2.3784002007781764,-0.6383601850660007,0
550,2024-09-24 12:16:39.642916992,0,016,0.08964625918429156,0.08697701418232084,-1.2329574991186154,0.3730376240077571,-0.09985877618868498,-0.11965467789277506,2.506399445272817,-0.6554992346399904,0
551,2024-09-24 12:16:40.591656006,0,016,0.18315685876851326,0.07061735823639281,-1.1474710810564517,0.3355426172467401,-0.12020274768261766,-0.12480122942937061,2.5581419203984437,-0.6558026363757923,0
552,2024-09-24 12:16:40.653701172,0,016,0.27000572382333404,0.0534556668645711,-1.021123493602359,0.28820455463609385,-0.14898148759668298,-0.13084268868400614,2.533891074006626,-0.6389872932954545,0
553,2024-09-24 12:16:40.715306885,0,016,0.3487838316617805,0.03573740503456425,-0.8586882297023766,0.23254349682643635,-0.18678178499611062,-0.13757768345403093,2.4374207118670967,-0.6057022572357244,0
554,2024-09-24 12:16:40.792931152,0,016,0.4186787210015603,0.01767763723670556,-0.666749106014612,0.17062740325848988,-0.23377952652979,-0.14480946164393158,2.275740114049533,-0.5574645823884096,0
555,2024-09-24 12:16:40.855911133,0,016,0.47945490511069094,-0.0005441012738422038,-0.4531154229378384,0.10492894624920214,-0.2896499337313169,-0.1523586473815853,2.058928273845025,-0.49657250809818904,0
556,2024-09-24 12:16:40.932367188,0,016,0.5313731964831353,-0.018784879347991154,-0.22613300140884712,0.03813465145219889,-0.35349682020602685,-0.1600724888028295,1.7996766191927238,-0.4259747745258906,0
557,2024-09-24 12:16:41.000240967,0,016,0.5750907958542043,-0.03693832166061638,0.005956873738964752,-0.027048199807852998,-0.4238067173071016,-0.16783473046565958,1.512374117606735,-0.34907328338258176,0
558,2024-09-24 12:16:41.930217041,0,016,0.6115707468598042,-0.054931518819421876,0.23553105144858358,-0.08806714454197183,-0.49845048031771827,-0.17557933645911178,1.2118653545881362,-0.26945983561375564,0
559,2024-09-24 12:16:42.008753906,0,016,0.6419927772391953,-0.07271353345143484,0.45597500328095264,-0.14267840579985042,-0.574747258079777,-0.1833028926985224,0.9120656256993173,-0.19060873577541276,0
560,2024-09-24 12:16:42.079106934,0,016,0.6676441641868045,-0.09023650584841787,0.6619751283478156,-0.18907259682210578,-0.6495805393906043,-0.19106556394638466,0.6245520177280844,-0.11557020739329889,0
561,2024-09-24 12:16:42.146467041,0,016,0.6897854473125254,-0.10743685551292101,0.8497018080173546,-0.225966845134412,-0.7195356204855624,-0.19897830344675171,0.35731535089441135,-0.046731036572640786,0
562,2024-09-24 12:16:42.208510009,0,016,0.7095050753271472,-0.12422088088577549,1.0168643256606578,-0.252661817984065,-0.7810381205320248,-0.20718221657553984,0.11404374921754978,0.01428767295380118,0
563,2024-09-24 12:16:42.271047119,0,016,0.7275912906190497,-0.14045459630205354,1.1626832692977087,-0.26906189581117385,-0.830492839448514,-0.21582642260600868,-0.10573589822122674,0.06656875737650961,0
564,2024-09-24 12:16:42.349154053,0,016,0.7444583302166846,-0.1559606333334233,1.2878444087824996,-0.2756523572058986,-0.8644212274353213,-0.22504998431171144,-0.3057334579376455,0.10972889756917437,0
565,2024-09-24 12:16:43.292645996,0,016,0.7601484350526397,-0.17052767648242684,1.3943904892327248,-0.2734272258661554,-0.8796077345044172,-0.23496986037171608,-0.4916033958035821,0.14373770312939457,0
566,2024-09-24 12:16:43.355133057,0,016,0.774398634040757,-0.18393249349066704,1.4854504281827068,-0.2637800482743066,-0.8732948784214905,-0.24566735200943657,-0.6696189451359189,0.16877786219434396,0
567,2024-09-24 12:16:43.417150879,0,016,0.7867503263605699,-0.19596897664959098,1.5647819636915488,-0.24838512384247866,-0.8434487568314567,-0.2571630763727255,-0.8453470600774826,0.18513470179424457,0
568,2024-09-24 12:16:43.494765137,0,016,0.7966847301589307,-0.20647936262118466,1.6361680991901275,-0.2290776481667322,-0.7890541789708685,-0.26938233322754235,-1.0223061738021615,0.19309888123021732,0
569,2024-09-24 12:16:43.558968994,0,016,0.8037593913410581,-0.21538327943262162,1.70276292183752,-0.20772101022139822,-0.7103632619892144,-0.2821243862632167,-1.200865537326959,0.19289465562503097,0
570,2024-09-24 12:16:43.621007812,0,016,0.8077180306857947,-0.22269788847614885,1.7665517560792676,-0.18606190936197198,-0.6090253872221663,-0.29504961162095733,-1.3778244122596677,0.18465252095176216,0
571,2024-09-24 12:16:43.698633057,0,016,0.8085648169029623,-0.22854476942849455,1.828048607570394,-0.16559309589134674,-0.4880483494843613,-0.30769354074549604,-1.5468586507791224,0.1684258192597646,0
572,2024-09-24 12:16:44.605062012,0,016,0.8066016041251821,-0.23314517112588137,1.8862826267088573,-0.14745366357885584,-0.3515946146788644,-0.31950926502634996,-1.6996151770528398,0.14423908346009864,0
573,2024-09-24 12:16:44.686436035,0,016,0.8024077936721399,-0.23680441221200405,1.9391399126796993,-0.13240078621337836,-0.20468614879544353,-0.32992642071955164,-1.8271357901503198,0.11217500742852198,0
574,2024-09-24 12:16:44.744755127,0,016,0.7967433353281402,-0.23988139192639601,1.9840170062316838,-0.12086094547482408,-0.05289570304142278,-0.33840685949509525,-1.9214136814359868,0.07251751652978426,0
575,2024-09-24 12:16:44.806747803,0,016,0.7903978694623058,-0.24274357714795694,2.0185041240158283,-0.11302064926985954,0.09797014664444988,-0.3444875376567629,-1.9768846659323873,0.02592707380777296,0
576,2024-09-24 12:16:44.885299072,0,016,0.7840375230717591,-0.2457188699444109,2.04081536632543,-0.10890153777074743,0.24222929227541415,-0.3478169944941686,-1.9915636627668876,-0.026415499438958503,0
577,2024-09-24 12:16:44.947982178,0,016,0.7780796504009507,-0.24905714501765014,2.0498997814969653,-0.10838994254530729,0.3747080669881936,-0.34819072883035124,-1.9675509645285236,-0.08274283642576175,0
578,2024-09-24 12:16:45.010044189,0,016,0.7726021923100924,-0.2529040869609553,2.0452738693437964,-0.11121991423656313,0.49108639651246033,-0.3455784224552195,-1.9107982242019856,-0.14072215316715347,0
579,2024-09-24 12:16:45.927927979,0,016,0.7673058809105752,-0.2572844484018712,2.0266521258056414,-0.1169350668443098,0.5881476104024081,-0.34013213578627544,-1.830226562050514,-0.19756644518906374,0
580,2024-09-24 12:16:46.007466064,0,016,0.7615538322197182,-0.26209709886636523,1.9935567178534848,-0.12487180188806783,0.6639066597911423,-0.33217141201196215,-1.7363340566682486,-0.25025444976880623,0
581,2024-09-24 12:16:46.067856934,0,016,0.7544767121418793,-0.26712613586636147,1.9451271092439013,-0.13419150488760906,0.7176137054545889,-0.32214758896922596,-1.6393835548553681,-0.29586854653150746,0
582,2024-09-24 12:16:46.145479004,0,016,0.7450938613820276,-0.2720638134340723,1.8802369108994792,-0.14395508406286134,0.7496414401219322,-0.3105909258050076,-1.5473935854714451,-0.3320005880487502,0
583,2024-09-24 12:16:46.211097900,0,016,0.7324098872993939,-0.2765352816924869,1.7978449623255142,-0.15320786360290034,0.76127517319993,-0.29804638670196354,-1.4643748463355952,-0.3571352439270938,0
584,2024-09-24 12:16:46.270004883,0,016,0.7154808155745735,-0.28012164242683074,1.697380845735355,-0.16103692924860313,0.7544451646070178,-0.2850087183655572,-1.3892739166407915,-0.37093611751491756,0
585,2024-09-24 12:16:46.347165039,0,016,0.6934633513980825,-0.2823863216247562,1.578995245138142,-0.16658408145528508,0.731446304159839,-0.27186756796813555,-1.3159138375455068,-0.3743627121417558,0
586,2024-09-24 12:16:47.279322021,0,016,0.6656632689006869,-0.28290772098419853,1.443633620670131,-0.16902931351452877,0.6946771920214305,-0.25886993379840434,-1.2339776119990498,-0.369545455584009,0
587,2024-09-24 12:16:47.357430908,0,016,0.6316008811048279,-0.28131413277419814,1.2929567633703618,-0.1675704754811784,0.6464339648286817,-0.24610630355277058,-1.1308073717724427,-0.35942774618632367,0
588,2024-09-24 12:16:47.419450928,0,016,0.5911081352148102,-0.2773170858066692,1.1291442560231646,-0.16141506830581015,0.5887968860521083,-0.2335242478595033,-0.9935493388961462,-0.34730808136994934,0
589,2024-09-24 12:16:47.497142090,0,016,0.544444034825735,-0.2707432932739345,0.9546473881737689,-0.14978877424405018,0.5236077622350662,-0.2209650361650813,-0.8111059172762598,-0.33644819692867295,0
590,2024-09-24 12:16:47.554429932,0,016,0.4923787994891229,-0.26156246213621925,0.7719770307635744,-0.1319637101964919,0.4524932272421695,-0.2082116834307419,-0.5755883043376016,-0.3298164256941656,0
591,2024-09-24 12:16:47.632698975,0,016,0.4361969491920713,-0.2499014620798462,0.583603878984073,-0.10731738385251104,0.3769040086457789,-0.19503696778522397,-0.2832908386477957,-0.32991074985615476,0
592,2024-09-24 12:16:47.695478027,0,016,0.3776101170968965,-0.23603742791960006,0.3919962782282153,-0.0754295513801307,0.2981767392339633,-0.18124541733319732,0.06472940431715347,-0.338580372057984,0
593,2024-09-24 12:16:48.633430908,0,016,0.3186077769184723,-0.2203736215733343,0.19971468006708082,-0.036199005686738984,0.21761548984928317,-0.16670917985728811,0.4625510481292383,-0.3568535991740108,0
