,time,MARKER,pid,L_O_DSI,L_D_DSI,L_O_DSphi,L_D_DSphi,R_O_DSI,R_D_DSI,R_O_DSphi,R_D_DSphi,trial_id
0,2024-09-24 12:20:27.921122048,TASK_BEGIN,016,0.5438691745737241,-0.13654091189906611,1.8650591964714234,-0.5018404237732104,1.2234734951794148,0.2916468455468322,-0.6791614644790431,0.3817011762963043,1
1,2024-09-24 12:20:27.979811072,TASK_BEGIN,016,0.363747777251059,-0.08477560174665305,1.4066956043719925,-0.5622126943873134,1.6603933757391605,0.18628088456400502,2.2795266153853984,0.08446703994648823,1
2,2024-09-24 12:20:28.042345984,TASK_BEGIN,016,0.18845235438179148,-0.034228710490138876,0.9644798488797952,-0.6207280649271425,2.0846920220415335,0.08410402701284636,5.145353367212975,-0.20094002582342282,1
3,2024-09-24 12:20:28.120879872,TASK_BEGIN,016,0.02325431810055901,0.013932361369167421,0.5490204579807834,-0.6748643077134394,2.483273870796679,-0.011989202223077934,7.838392267199146,-0.4656514468816513,1
4,2024-09-24 12:20:29.064264960,TASK_BEGIN,016,-0.12739611590587196,0.05866073227753853,0.16856660551426686,-0.7225700149956734,2.845022538019673,-0.09954794390759787,10.29235507351749,-0.7030261267844692,1
5,2024-09-24 12:20:29.126753280,TASK_BEGIN,016,-0.2601008315249867,0.09907993442235791,-0.17154782942859445,-0.7623845201818389,3.1613774419441265,-0.17667104667073985,12.457752890551419,-0.9090012440843163,1
6,2024-09-24 12:20:29.204401152,TASK_BEGIN,016,-0.3726055919335472,0.13451392184214694,-0.46915343724696945,-0.7934642100498978,3.4266409036991003,-0.24206120944497875,14.30280051073495,-1.08198811851186,1
7,2024-09-24 12:20:29.265947904,TASK_BEGIN,016,-0.4638125535446401,0.16449874148398114,-0.7250966805435699,-0.8155610969563627,3.638083057779441,-0.2950465270673678,15.8131856904477,-1.222554813954998,1
8,2024-09-24 12:20:29.340007936,TASK_BEGIN,016,-0.5337469987143711,0.18878452670849055,-0.9425572156418718,-0.8289986058747144,3.795860209599111,-0.3355675808528077,16.99138710301199,-1.3330838050740728,1
9,2024-09-24 12:20:29.407824896,TASK_BEGIN,016,-0.5834704084631749,0.2073288084409189,-1.1259642676922645,-0.8346482731906255,3.902744530943007,-0.3641210338550651,17.85532080199857,-1.4174237649606891,1
10,2024-09-24 12:20:29.475622912,TASK_BEGIN,016,-0.6149238101130065,0.2202781552925412,-1.279971263649971,-0.8338587717959721,3.9636840848887904,-0.38166292452649714,18.435945632265494,-1.4804953957823184,1
11,2024-09-24 12:20:30.414468096,TASK_BEGIN,016,-0.6307079129125085,0.22794140790243844,-1.4088570007590049,-0.8282980061863783,3.985243936982864,-0.3894922911885171,18.774031712573432,-1.5278632080830243,1
12,2024-09-24 12:20:30.476955904,TASK_BEGIN,016,-0.6338287866133147,0.23075934331711134,-1.5163445815953849,-0.8197326148564321,3.97500226051234,-0.38913948812032584,18.916625987764245,-1.5653036692482445,1
13,2024-09-24 12:20:30.553939968,TASK_BEGIN,016,-0.6274420076522458,0.22926968861950817,-1.6056568746836457,-0.8097988497211721,3.9409599863720666,-0.3822689410890027,18.913633124273154,-1.5983846732897087,1
14,2024-09-24 12:20:30.620873984,TASK_BEGIN,016,-0.614616902617521,0.22406638140624174,-1.6797016980187882,-0.7997963829710258,3.890976280836388,-0.3705882395454063,18.814719196415123,-1.6320827154648387,1
15,2024-09-24 12:20:30.690069760,TASK_BEGIN,016,-0.5981308192855141,0.21575864514464527,-1.7412919077767433,-0.7905317041318145,3.832223338816898,-0.35575039324365615,18.666661152319836,-1.6704877532001603,1
16,2024-09-24 12:20:30.742372096,TASK_BEGIN,016,-0.5803078987371244,0.2049377945180927,-1.7932334136758379,-0.7822602092140232,3.770693361167458,-0.33924839761183206,18.51137625936955,-1.7166530029951232,1
17,2024-09-24 12:20:30.822318080,TASK_BEGIN,016,-0.5629319508106729,0.19215740732377823,-1.838178611215656,-0.7747584585724807,3.7108337440060373,-0.3223191431636325,18.38480068801389,-1.7726059453565175,1
18,2024-09-24 12:20:31.729568000,TASK_BEGIN,016,-0.5472599086109667,0.17793186050099663,-1.8783143556304955,-0.7674987142901321,3.6553717261373775,-0.3058789095999685,18.316291269156647,-1.8394362592354996,1
19,2024-09-24 12:20:31.808075008,TASK_BEGIN,016,-0.5341223246960304,0.1627542065650613,-1.9150133237003397,-0.7598717020305034,3.6053509003475557,-0.2905049566049542,18.327983336507838,-1.9173321239787353,1
20,2024-09-24 12:20:31.878938112,TASK_BEGIN,016,-0.5240563006840748,0.14712193390515876,-1.9485152098441496,-0.7514227896218615,3.560382233014,-0.2764663170561937,18.434030495336295,-2.0055484072441327,1
21,2024-09-24 12:20:31.938200832,TASK_BEGIN,016,-0.5174282568289584,0.13155299880327245,-1.9776893765444081,-0.7420659776593287,3.5190804168139085,-0.263795082538481,18.640135773089334,-2.102413030164641,1
22,2024-09-24 12:20:32.014439936,TASK_BEGIN,016,-0.5145383324414912,0.11658625276080906,-1.9999922687693812,-0.7322109195124125,3.479599656302804,-0.2523827356668735,18.943598719179505,-2.2054403999368972,1
23,2024-09-24 12:20:32.071391232,TASK_BEGIN,016,-0.5156916122543066,0.10277144452478815,-2.0117327246056997,-0.7227510211789494,3.440142641242599,-0.24208328786822014,19.33373332207774,-2.3115173687941746,1
24,2024-09-24 12:20:32.149679872,TASK_BEGIN,016,-0.5212068712694758,0.09064764973883516,-2.008630619915894,-0.7149291373743888,3.3993270506015927,-0.23279762679763338,19.79254111703188,-2.4170942532517934,1
25,2024-09-24 12:20:33.093341184,TASK_BEGIN,016,-0.5313648915785248,0.08070356770145343,-1.9865213202024978,-0.7101441528029552,3.356360796058638,-0.2245124992064826,20.295755642439342,-2.5183294446869593,1
26,2024-09-24 12:20:33.157675008,TASK_BEGIN,016,-0.5463339160476629,0.07332588574684781,-1.9420573744436689,-0.7097421291256064,3.3110666682270886,-0.21728923956404866,20.814449418934313,-2.6111862467664255,1
27,2024-09-24 12:20:33.219718912,TASK_BEGIN,016,-0.5661000433457671,0.06875449691388565,-1.873318468461697,-0.7147981669112716,3.26384442110387,-0.2112250492304233,21.317229370229104,-2.6915531019362136,1
28,2024-09-24 12:20:33.282545920,TASK_BEGIN,016,-0.5904085129874154,0.06705653671627307,-1.7802438217224381,-0.7258996440098162,3.2156293044488398,-0.20641405897340392,21.772710674670847,-2.755452811921053,1
29,2024-09-24 12:20:33.360160256,TASK_BEGIN,016,-0.6187219853998367,0.06811870696339717,-1.664817643018969,-0.7429778710309312,3.1678409517148745,-0.20291871016506402,22.151789884189085,-2.799317648097982,1
30,2024-09-24 12:20:33.432350208,TASK_BEGIN,016,-0.6502038633589152,0.07165789275976357,-1.5310468777698865,-0.7652436140954311,3.12228291163458,-0.20074888300892346,22.429463200930375,-2.820263451312727,1
31,2024-09-24 12:20:33.499802112,TASK_BEGIN,016,-0.6837273869456447,0.07725482848312461,-1.3848581263400834,-0.7912388878690144,3.080961490484545,-0.1998459170628091,22.586149500890038,-2.8163114570630596,1
32,2024-09-24 12:20:34.432286976,TASK_BEGIN,016,-0.7179109430818447,0.0844093827385127,-1.2339541244610652,-0.81897401142733,3.045815911352698,-0.20007152458561878,22.60844880394852,-2.786525900791457,1
33,2024-09-24 12:20:34.511336192,TASK_BEGIN,016,-0.7511873711671172,0.09260837637195524,-1.0875245047707616,-0.8461149540060194,3.018400419419276,-0.20120515969031652,22.48943067452823,-2.731099046577811,1
34,2024-09-24 12:20:34.567429888,TASK_BEGIN,016,-0.7819138693671972,0.10140074626415528,-0.9557384388421768,-0.8701936221256031,2.9996248658526317,-0.20296060642319144,22.228806804879145,-2.6514639787024734,1
35,2024-09-24 12:20:34.644565248,TASK_BEGIN,016,-0.8085163319207413,0.11047764280011246,-0.8490591339547953,-0.8888189023315308,2.9896461936348646,-0.20503065386856045,21.833113532673636,-2.550418045790192,1
36,2024-09-24 12:20:34.707489024,TASK_BEGIN,016,-0.8296479573311661,0.11974482557858254,-0.7774012291741891,-0.8998844211630911,2.987879179954298,-0.20715045233086712,21.31563633425672,-2.432128889440966,1
37,2024-09-24 12:20:34.769977088,TASK_BEGIN,016,-0.8443329132490768,0.1293681230552868,-0.7491350182813757,-0.9017790513291049,2.9930337158378086,-0.2091613796938163,20.695870154245807,-2.3019555386805175,1
38,2024-09-24 12:20:34.850681856,TASK_BEGIN,016,-0.8520667272113706,0.1397822561892515,-0.7700830083332274,-0.893584523011703,3.0031897807628787,-0.21107477686893444,19.99858186900915,-2.16613363321786,1
39,2024-09-24 12:20:35.765198080,TASK_BEGIN,016,-0.852857062018261,0.1516635556439179,-0.8427719262260356,-0.8752183276099859,3.0159936842434414,-0.2131458872193753,19.252588234854347,-2.0313847432989323,1
40,2024-09-24 12:20:35.834708992,TASK_BEGIN,016,-0.8472048230219568,0.165870113742926,-0.966083154488569,-0.8474875581781529,3.028955949573087,-0.21594731387065252,18.48928019023391,-1.9044721378008604,1
41,2024-09-24 12:20:35.890149120,TASK_BEGIN,016,-0.8360408438657485,0.1833595144212117,-1.1352123974260364,-0.8120501982765873,3.039719162838272,-0.22040860472840657,17.740972680231017,-1.7917354125977352,1
42,2024-09-24 12:20:35.968257792,TASK_BEGIN,016,-0.8206304299494036,0.2050981706549606,-1.3418366153353467,-0.7712901496419492,3.0462000883717777,-0.227796995754577,17.03923760553184,-1.6986540908989722,1
43,2024-09-24 12:20:36.030302976,TASK_BEGIN,016,-0.802433911816718,0.2319646016600801,-1.5746250724898034,-0.7280993319664643,3.046617452663268,-0.23964292969634984,16.413249627307632,-1.6294613518325611,1
44,2024-09-24 12:20:36.093298944,TASK_BEGIN,016,-0.7829199981655971,0.26464107601710296,-1.8202941430085555,-0.6855736516805172,3.039462171666204,-0.2576323044640681,15.888084544087103,-1.5868311880213486,1
45,2024-09-24 12:20:36.176519936,TASK_BEGIN,016,-0.7633814029289642,0.30350325096337544,-2.065031462051515,-0.6466782296408201,3.023435578161119,-0.28348216673235577,15.483146069883864,-1.5717341936557852,1
46,2024-09-24 12:20:37.117131776,TASK_BEGIN,016,-0.7448139423469443,0.34853082282553843,-2.295730655805263,-0.613968235286491,2.9973581995266794,-0.3188038220096705,15.211070125446577,-1.5835419728402922,1
47,2024-09-24 12:20:37.181899776,TASK_BEGIN,016,-0.7278720862817524,0.399250629571663,-2.500624531989275,-0.58943006996013,2.960081725835913,-0.3649573660561434,15.077217117620027,-1.6203025309277512,1
48,2024-09-24 12:20:37.240308992,TASK_BEGIN,016,-0.7128848365832905,0.45470934209420677,-2.669404981388938,-0.5744482236730374,2.9104546555833366,-0.42290805218810873,15.079620929568629,-1.6790224705212577,1
49,2024-09-24 12:20:37.322610176,TASK_BEGIN,016,-0.6999217116237302,0.513475419408376,-2.7932185552204656,-0.5698436179562716,2.8473579692271542,-0.4930955482168203,15.209363986394948,-1.7558919500412833,1
50,2024-09-24 12:20:37.390363904,TASK_BEGIN,016,-0.688902021597828,0.5736765817629021,-2.8648946136498425,-0.5759097635438782,2.7698052956445127,-0.5753282083897904,15.451466481300544,-1.8465085553470781,1
51,2024-09-24 12:20:37.456329216,TASK_BEGIN,016,-0.6797451927025958,0.6330807954599973,-2.8795375834414823,-0.5924064802266531,2.6771114106266602,-0.6687175150811676,15.786297558927087,-1.9461446053750902,1
52,2024-09-24 12:20:37.523595264,TASK_BEGIN,016,-0.672556670659784,0.6892235035776132,-2.8352871048912167,-0.6185242693439549,2.569120263737725,-0.7716649444929273,16.191448245176606,-2.0500329682524083,1
53,2024-09-24 12:20:38.458755072,TASK_BEGIN,016,-0.6678029921713684,0.7395660313960096,-2.7338603369066306,-0.6528588621313971,2.446447209298527,-0.8819054982964564,16.643906498299742,-2.1536428039557203,1
54,2024-09-24 12:20:38.537065984,TASK_BEGIN,016,-0.6663996995453306,0.7816632269810785,-2.58064140639388,-0.6934259316995289,2.3106553423495395,-0.9966040293301903,17.122073206091432,-2.25293982065238,1
55,2024-09-24 12:20:38.597299968,TASK_BEGIN,016,-0.6696862165863671,0.8133460515950824,-2.384340032415767,-0.7377318949267928,2.164276381897842,-1.1124973194784251,17.607028230417487,-2.3445999093897045,1
56,2024-09-24 12:20:38.658173952,TASK_BEGIN,016,-0.6793300370665325,0.8329394063665607,-2.156322503103786,-0.782908466224086,2.010643196545867,-1.2260747479765148,18.082879802087376,-2.4261225414273904,1
57,2024-09-24 12:20:38.737497088,TASK_BEGIN,016,-0.697186643283146,0.8394886357488459,-1.9097239099709586,-0.825897061171949,1.8535999258335354,-1.3337827012380186,18.536569475225896,-2.4958252420950613,1
58,2024-09-24 12:20:38.797409792,TASK_BEGIN,016,-0.7250983720747461,0.8329183527304064,-1.6584944666748762,-0.8636477188583191,1.6971989171954471,-1.4322284496561928,18.957537345204663,-2.5527406509689587,1
59,2024-09-24 12:20:38.875173120,TASK_BEGIN,016,-0.7646471031105903,0.8140672207271044,-1.4164983480177529,-0.8933061822936645,1.545444328656975,-1.5183636787404298,19.337360734996,-2.596441833303907,1
60,2024-09-24 12:20:39.818304000,TASK_BEGIN,016,-0.8169206140178886,0.7845954438059156,-1.1966659152522605,-0.9123873510511862,1.402078130891927,-1.5896415113998184,19.669432324644827,-2.6268458942856863,1
61,2024-09-24 12:20:39.886152192,TASK_BEGIN,016,-0.882329556850061,0.7467865977933954,-1.0101670001423504,-0.9189371339848719,1.2703989494582626,-1.6441502454964039,19.9489129449512,-2.6440986975380647,1
62,2024-09-24 12:20:39.948935168,TASK_BEGIN,016,-0.9604891815941605,0.7032778354835684,-0.8656652102860224,-0.9116690331625902,1.1531205453680247,-1.6807240423161414,20.173084723465816,-2.6486021104200863,1
63,2024-09-24 12:20:40.011420928,TASK_BEGIN,016,-1.0501994638506678,0.656775825513204,-0.7688360610847145,-0.8900525887950628,1.052258036943478,-1.6990128873901358,20.341771732064366,-2.641096686940996,1
64,2024-09-24 12:20:40.088708096,TASK_BEGIN,016,-1.149548528479032,0.6098216463778391,-0.7223374908379594,-0.8543387902174591,0.969012245678726,-1.6994820906657315,20.457242780567487,-2.6226521586527562,1
65,2024-09-24 12:20:40.150704128,TASK_BEGIN,016,-1.2561154919416078,0.564639663567735,-0.7261832071348633,-0.8055269434956275,0.9036581399022311,-1.6833315734101444,20.52342376822485,-2.5945440482168576,1
66,2024-09-24 12:20:40.212727040,TASK_BEGIN,016,-1.3672178881277788,0.5230714404340496,-0.7781925074958956,-0.7452901233899396,0.8554992137217983,-1.6523581987235907,20.544912797458817,-2.55812730215796,1
67,2024-09-24 12:20:41.168389888,TASK_BEGIN,016,-1.4801480113725636,0.4865773663037136,-0.8742351501337818,-0.6758746904074991,0.822953176675783,-1.6087908953532155,20.526327400147846,-2.514773702571469,1
68,2024-09-24 12:20:41.236241152,TASK_BEGIN,016,-1.5923590240474843,0.4562800260407201,-1.00826617752143,-0.5999891135720067,0.8037773461669674,-1.5551146114170462,20.471988442647238,-2.465827972314333,1
69,2024-09-24 12:20:41.304018176,TASK_BEGIN,016,-1.7015915644566446,0.4330236718971972,-1.1723000838993725,-0.5206952552189339,0.7953823142467925,-1.4938968214848687,20.38578711160992,-2.4125525229991482,1
70,2024-09-24 12:20:41.356830976,TASK_BEGIN,016,-1.805955770574031,0.4174365897752205,-1.3564696338881486,-0.441300931879458,0.795159151020525,-1.4276374974425565,20.271364370298862,-2.3561197878569744,1
71,2024-09-24 12:20:41.434501888,TASK_BEGIN,016,-1.9039843264937863,0.409991299386836,-1.5493054561332693,-0.3652449477019888,0.8007599825654317,-1.3586614335613272,20.132714746328155,-2.297719690984869,1
72,2024-09-24 12:20:41.496556032,TASK_BEGIN,016,-1.99466120480516,0.411051718441696,-1.7383357840339604,-0.2959677950514833,0.8103020495477918,-1.2890602809751932,19.97500221348016,-2.2387724369653483,1
73,2024-09-24 12:20:41.562168064,TASK_BEGIN,016,-2.0774257901210835,0.4208949318792912,-1.9109852548517636,-0.23675563176475412,0.8224733686722326,-1.2206762036723373,19.805294573772276,-2.1811574896460497,1
74,2024-09-24 12:20:42.491924992,TASK_BEGIN,016,-2.1521486237863146,0.43970599214152445,-2.0556369999381396,-0.19055140913680893,0.8365239193308012,-1.1551091245938128,19.633051428112132,-2.127355866517658,1
75,2024-09-24 12:20:42.559129856,TASK_BEGIN,016,-2.2190711396120726,0.46755077030446573,-2.1626627659311635,-0.15975956842534503,0.8521756773374789,-1.0937377511219488,19.47021338344988,-2.080453538621066,1
76,2024-09-24 12:20:42.623623936,TASK_BEGIN,016,-2.2787155102652936,0.5043313950371565,-2.225210307270308,-0.1460855964744141,0.8695148452987845,-1.0377556812076456,19.330717664652273,-2.043999031762745,1
77,2024-09-24 12:20:42.686109184,TASK_BEGIN,016,-2.331789121527761,0.5497318975340253,-2.239611920769984,-0.1504229619671577,0.8888812324285192,-0.9882150574378321,19.229433692420347,-2.0217231069677095,1
78,2024-09-24 12:20:42.748176896,TASK_BEGIN,016,-2.3790928441946924,0.6031631948311537,-2.205427267915514,-0.17277304567673113,0.9107289944114219,-0.9460577761395276,19.180776207696645,-2.017146137527997,1
79,2024-09-24 12:20:42.830990848,TASK_BEGIN,016,-2.4214234585359447,0.6637131352473626,-2.125260014993295,-0.21219387021604538,0.9354566285208005,-0.9121205855669912,19.197311845347706,-2.033117260647938,1
80,2024-09-24 12:20:42.886919936,TASK_BEGIN,016,-2.4594846432684156,0.7301116571790894,-2.004536455656325,-0.2667883125977982,0.9632276387182608,-0.8871148339466927,19.288493385284944,-2.071342130151432,1
81,2024-09-24 12:20:43.841985792,TASK_BEGIN,016,-2.493837813168362,0.800730023286403,-1.8513678896671752,-0.3337356865643152,0.9937923302706508,-0.8715880597119228,19.45952897633623,-2.13198076723991,1
82,2024-09-24 12:20:43.909758976,TASK_BEGIN,016,-2.5248974699711972,0.8736306399281987,-1.6764304662221345,-0.40937624688976254,1.0263102304699718,-0.8658746125510154,19.710476090967983,-2.213406817888731,1
83,2024-09-24 12:20:43.977552896,TASK_BEGIN,016,-2.5529653218050017,0.946674953776873,-1.4926306780208765,-0.489384743130776,1.059197106669269,-0.8700432746820356,20.035760952715382,-2.3121823113944755,1
84,2024-09-24 12:20:44.037509120,TASK_BEGIN,016,-2.5783110525705966,1.017685412900897,-1.314364910498022,-0.5690570635492701,1.0900664789123857,-0.8838522966513401,20.424206218757924,-2.4232433706088843,1
85,2024-09-24 12:20:44.099538944,TASK_BEGIN,016,-2.6012883287054667,1.0846328083485164,-1.1563790941542602,-0.6436755289505753,1.1158311680911848,-0.9067217827898767,20.859392180485912,-2.540248629546004,1
86,2024-09-24 12:20:44.177646080,TASK_BEGIN,016,-2.6224458899511682,1.1457999554026541,-1.0323723133300111,-0.7088864897507631,1.1329578103611362,-0.9377285895065012,21.32022447529885,-2.656033646934017,1
87,2024-09-24 12:20:44.248711168,TASK_BEGIN,016,-2.642602416719365,1.1998873469740141,-0.9535250438911033,-0.7610392657539945,1.13780442599637,-0.9756257554394394,21.78189830178705,-2.763127557386913,1
88,2024-09-24 12:20:45.181756160,TASK_BEGIN,016,-2.6628716547561297,1.2460617262585647,-0.9272115558670865,-0.7974531808272232,1.1269657014175163,-1.0188887032584897,22.217468438515933,-2.854286602341556,1
89,2024-09-24 12:20:45.258920960,TASK_BEGIN,016,-2.6846299044477515,1.2839683800073474,-0.9562393706221741,-0.8165892522706464,1.0975782934063025,-1.0657864220364683,22.59997430651413,-2.9230049034552157,1
90,2024-09-24 12:20:45.320487936,TASK_BEGIN,016,-2.709430274483087,1.3137272705557328,-1.0388326991156969,-0.8181186244508662,1.0475638201859796,-1.1144683190373195,22.904906913717895,-2.9639854479655003,1
91,2024-09-24 12:20:45.395920896,TASK_BEGIN,016,-2.7388765385263762,1.335926114287792,-1.169280659648005,-0.8028877203984303,0.9757927790319738,-1.163057208229402,23.112597486834034,-2.9735293902873168,1
92,2024-09-24 12:20:45.460160000,TASK_BEGIN,016,-2.7744625353314913,1.3516117484491528,-1.3389900110015631,-0.7727762194075685,0.8821588342917591,-1.2097446563020071,23.20986692516673,-2.94975928682741,1
93,2024-09-24 12:20:45.531538176,TASK_BEGIN,016,-2.81739576988926,1.3622642691299467,-1.537681794612855,-0.7304525260919735,0.7675835455158284,-1.252884791487523,23.190504042630735,-2.8926419862321118,1
94,2024-09-24 12:20:45.589056000,TASK_BEGIN,016,-2.8684578740303084,1.3697317900452546,-1.7544727010537078,-0.6790614107677436,0.633987423858238,-1.291075494055889,23.054777900374564,-2.8038845780479464,1
95,2024-09-24 12:20:46.542516224,TASK_BEGIN,016,-2.9279467772176466,1.3761148149097535,-1.9785831216632388,-0.621909002149396,0.48422265766473166,-1.3232109503357907,22.80851644436914,-2.686802514444167,1
96,2024-09-24 12:20:46.610362112,TASK_BEGIN,016,-2.995688927284078,1.383604238418005,-2.199600727732654,-0.5622087846706018,0.32191922198308354,-1.3484940898630267,22.462098058191398,-2.5461804782308417,1
97,2024-09-24 12:20:46.666464000,TASK_BEGIN,016,-3.07108379760935,1.3942880408451632,-2.4075470277011184,-0.5029086560663527,0.15122436244922874,-1.3664117674551837,22.029498985031985,-2.3880770213448135,1
98,2024-09-24 12:20:46.743696128,TASK_BEGIN,016,-3.1531699149842694,1.4099526407026692,-2.5931104387461064,-0.44657056777322307,-0.023517193181070845,-1.376687448254431,21.527497001009447,-2.2195259200899935,1
99,2024-09-24 12:20:46.805296896,TASK_BEGIN,016,-3.2407100763788153,1.4319094769266532,-2.7481927565905457,-0.39526115267827283,-0.19806851807215517,-1.3792231900203464,20.97497711427213,-2.0481128630325984,1
100,2024-09-24 12:20:46.866885120,TASK_BEGIN,016,-3.332266121828582,1.4608680473711635,-2.866627943760037,-0.350439681586003,-0.3685320305031933,-1.3740369481539902,20.392110463076246,-1.8814408731369705,1
101,2024-09-24 12:20:46.944866048,TASK_BEGIN,016,-3.4262404406622764,1.4968627371153669,-2.9448381160611015,-0.31287238472851114,-0.531477739904402,-1.361206795562656,19.799340987761337,-1.7265617040090577,1
102,2024-09-24 12:20:47.866132992,TASK_BEGIN,016,-3.5209106499227514,1.539235848114694,-2.982265741647182,-0.28260994325068145,-0.6839890594602799,-1.3408373210504339,19.216469801422438,-1.5894929161445346,1
103,2024-09-24 12:20:47.928162048,TASK_BEGIN,016,-3.614501395190577,1.5866828329118772,-2.9814843573738443,-0.2590376052657219,-0.82367642693504,-1.313056971741407,18.662168907163306,-1.474909131002918,1
104,2024-09-24 12:20:47.990231808,TASK_BEGIN,016,-3.7052985842036144,1.6373653353767275,-2.9479217730420926,-0.24099385125451014,-0.9486783884612532,-1.2780509919908403,18.15389893231686,-1.3860203236791404,1
105,2024-09-24 12:20:48.069200896,TASK_BEGIN,016,-3.791769408231493,1.6890841915081192,-2.889252238288611,-0.22694616682004182,-1.0576486584243363,-1.2361278290284088,17.707910842723948,-1.3245976172383596,1
106,2024-09-24 12:20:48.131686912,TASK_BEGIN,016,-3.872648172047645,1.7394882594533883,-2.8146235753365527,-0.21519474652116705,-1.1497516492069342,-1.187798005387057,17.339033197825586,-1.291096979876041,1
107,2024-09-24 12:20:48.208385024,TASK_BEGIN,016,-3.9469723647678157,1.7862924479776219,-2.7338113752575,-0.20407767834168908,-1.2246764905548086,-1.1338395206292493,17.060030086731118,-1.2848191127317017,1
108,2024-09-24 12:20:48.271418880,TASK_BEGIN,016,-4.014070060071737,1.8274837463843363,-2.6563090775776206,-0.19216537800507774,-1.2826309558955002,-1.0753469410102283,16.880419903020364,-1.3040357274965266,1
109,2024-09-24 12:20:49.216883712,TASK_BEGIN,016,-4.07350385281566,1.8614948932344078,-2.5904537963860474,-0.178425400154092,-1.3242993425416012,-1.013773652318471,16.80497595865949,-1.346065689921398,1
110,2024-09-24 12:20:49.279369216,TASK_BEGIN,016,-4.124996880173938,1.8873293647771554,-2.542804058686803,-0.16232698612615856,-1.35082336725828,-0.9509542733949505,16.832439183265766,-1.4073586219117322,1
111,2024-09-24 12:20:49.354605056,TASK_BEGIN,016,-4.1683879299115745,1.9046329363078331,-2.5179032737595484,-0.14386548256286683,-1.3638567355018847,-0.8890737537673383,16.954943943425977,-1.4836470781442561,1
112,2024-09-24 12:20:49.422384896,TASK_BEGIN,016,-4.203643732138989,1.9137156371079775,-2.5183311531741337,-0.12351262901217687,-1.3656461797454196,-0.830564632774834,17.15842670669646,-1.5701750983985894,1
113,2024-09-24 12:20:49.480199936,TASK_BEGIN,016,-4.2309199318216475,1.9155316355013983,-2.544878945384222,-0.10210808426821578,-1.3590401377730785,-0.7779438765087964,17.42400759764508,-1.6619776354760074,1
114,2024-09-24 12:20:49.554774016,TASK_BEGIN,016,-4.250646384708222,1.9116228234582255,-2.5968261324843027,-0.08070279357343807,-1.347380188464517,-0.7336158494667003,17.730028380910404,-1.7541864900034096,1
115,2024-09-24 12:20:49.625808896,TASK_BEGIN,016,-4.263605856481204,1.9040186871405926,-2.6723261110741077,-0.06038054947831871,-1.3343025482068724,-0.6996717427756624,18.054203980195584,-1.8423272194260965,1
116,2024-09-24 12:20:50.554041088,TASK_BEGIN,016,-4.270966886731813,1.8950742949289805,-2.768809236829977,-0.04210696003790728,-1.3234834304757706,-0.6777158723690713,18.375376727347156,-1.9225525795996852,1
117,2024-09-24 12:20:50.631760896,TASK_BEGIN,016,-4.274234839985552,1.8872425621350182,-2.8833154580462366,-0.026644731897968697,-1.3183378256258569,-0.6687362878290041,18.674701510724006,-1.9917845363181244,1
118,2024-09-24 12:20:50.699318016,TASK_BEGIN,016,-4.275108289868738,1.8828086850979795,-3.012721925900085,-0.01454233327841024,-1.3216882101493905,-0.6730164789733963,18.936386575935753,-2.047776148767365,1
119,2024-09-24 12:20:50.770961920,TASK_BEGIN,016,-4.275268197835262,1.8836345996249875,-3.1538175051115607,-0.006179692135145006,-1.33544305024206,-0.6900808691292422,19.148092862724916,-2.0890962999088414,1
120,2024-09-24 12:20:50.832914176,TASK_BEGIN,016,-4.276169115341324,1.8909589417544341,-3.303197957981621,-0.0018358274342458632,-1.3603345400719178,-0.7186799348526276,19.301039171536683,-2.1150321018972473,1
121,2024-09-24 12:20:50.894913792,TASK_BEGIN,016,-4.2789102219673225,1.9052853709235256,-3.457069299745513,-0.0017299756573010876,-1.3957537039562125,-0.7568305016989776,19.389974356798838,-2.1254504309208833,1
122,2024-09-24 12:20:50.975913984,TASK_BEGIN,016,-4.284215237646246,1.926375073370895,-3.6111304101733754,-0.006006403728420801,-1.4396867292631368,-0.8019283226514173,19.413259999159877,-2.120710980439702,1
123,2024-09-24 12:20:51.919565824,TASK_BEGIN,016,-4.2924773422336795,1.9533338642856468,-3.7606495551935595,-0.014679785944192095,-1.4887453840423048,-0.8509422369674816,19.373191985611562,-2.1017050306422216,1
124,2024-09-24 12:20:51.987407872,TASK_BEGIN,016,-4.3038012663426155,1.9847627463322168,-3.900696576094459,-0.027585627740571227,-1.5383346273486795,-0.9006709119760113,19.27639532279145,-2.0700019943368515,1
125,2024-09-24 12:20:52.039693056,TASK_BEGIN,016,-4.318021972377638,2.018941690178088,-4.026427104105731,-0.044358272259694694,-1.5830286827944393,-0.94801149390934,19.13388293792777,-2.0279847447684483,1
126,2024-09-24 12:20:52.117381120,TASK_BEGIN,016,-4.334731287838192,2.0540284905189234,-4.133420142010399,-0.06441598166833395,-1.6171517422813313,-0.9901903712519955,18.960470580640294,-1.9788380250643172,1
127,2024-09-24 12:20:52.179443968,TASK_BEGIN,016,-4.353338554855632,2.088253860823702,-4.218117711221792,-0.08693376942085165,-1.6354533389360044,-1.0249338119678366,18.773594383474094,-1.9263464996792428,1
128,2024-09-24 12:20:52.257113088,TASK_BEGIN,016,-4.373151407417579,2.1200848839100814,-4.2782651622879735,-0.11083587046985792,-1.6337288684475093,-1.0505780652402437,18.591791995696124,-1.874563396746164,1
129,2024-09-24 12:20:52.319136000,TASK_BEGIN,016,-4.393437274661333,2.148330074175298,-4.313182134663909,-0.1348546892417231,-1.6092626036489726,-1.066125259532684,18.43307194599203,-1.8274331699434538,1
130,2024-09-24 12:20:53.239572992,TASK_BEGIN,016,-4.413437333758424,2.1721745834792623,-4.32384627058745,-0.15764484941599996,-1.5610308878118047,-1.0712484179866228,18.313339661553673,-1.7884272563345833,1
131,2024-09-24 12:20:53.299534080,TASK_BEGIN,016,-4.432348201205097,2.1911565979411445,-4.312851642818301,-0.17789845994524658,-1.489659317347558,-1.066246359129663,18.24510813659293,-1.7602592816829825,1
132,2024-09-24 12:20:53.379812864,TASK_BEGIN,016,-4.449312568679116,2.2051117720362416,-4.284216531241604,-0.19443959516854092,-1.3971519581549743,-1.0519588542298877,18.23673873163597,-1.7447562815357323,1
133,2024-09-24 12:20:53.439909888,TASK_BEGIN,016,-4.463432970287887,2.2141085909862896,-4.243017142373786,-0.20631232225930077,-1.2864464972670973,-1.0296629065576877,18.292262057699006,-1.7429051956221413,1
134,2024-09-24 12:20:53.500881920,TASK_BEGIN,016,-4.4737924345101385,2.218383237184644,-4.19491614550039,-0.21286497182165273,-1.1609144561109084,-1.0009641977897845,18.41161671069944,-1.7550141468961775,1
135,2024-09-24 12:20:53.569606912,TASK_BEGIN,016,-4.479478738781573,2.218278977507082,-4.145623159231789,-0.21381850666835414,-1.0239221444302586,-0.9676858490266447,18.591120922396396,-1.780900980075886,1
136,2024-09-24 12:20:53.645659904,TASK_BEGIN,016,-4.479633603546682,2.2142007343205776,-4.100276925081107,-0.20931024348966248,-0.8784820085142511,-0.9317590662591126,18.823958679623995,-1.820024989702969,1
137,2024-09-24 12:20:54.582168832,TASK_BEGIN,016,-4.473535637700886,2.2065910091656895,-4.062840066165588,-0.1999040723317907,-0.7270016662767625,-0.8951247697920808,19.100384676419598,-1.8714914176930317,1
138,2024-09-24 12:20:54.660708864,TASK_BEGIN,016,-4.46068357931688,2.1959180179985855,-4.035657434397744,-0.18656326940081405,-0.5711948930799113,-0.859643673266493,19.40751555505038,-1.9339081078805203,1
139,2024-09-24 12:20:54.723856896,TASK_BEGIN,016,-4.440832785436033,2.182660493546814,-4.0192569332582275,-0.17059125511094012,-0.4121961879048524,-0.8270027867207247,19.728966421490643,-2.0051550909966736,1
140,2024-09-24 12:20:54.786341888,TASK_BEGIN,016,-4.413981457544975,2.167282680873899,-4.012462796456628,-0.15353488903767545,-0.25081097469404784,-0.798621487591531,20.044951494561538,-2.0822093709003378,1
141,2024-09-24 12:20:54.863969024,TASK_BEGIN,016,-4.380352310960198,2.150205585615535,-4.012910813328167,-0.13703115604495777,-0.087787179873482,-0.7755768515476376,20.333493729610176,-2.161184896381954,1
142,2024-09-24 12:20:54.925494784,TASK_BEGIN,016,-4.340409765670285,2.131786716993713,-4.017901381415437,-0.12259863424875772,0.0759762713362324,-0.7585606084311922,20.572809525970175,-2.237639511880971,1
143,2024-09-24 12:20:54.987524864,TASK_BEGIN,016,-4.29490312000184,2.112316653884302,-4.02530543626881,-0.1114209014951403,0.2393437208641999,-0.7478680166736876,20.74411452515785,-2.307046805849451,1
144,2024-09-24 12:20:55.931718144,TASK_BEGIN,016,-4.244896727406344,2.0920306546959946,-4.0341859740353465,-0.10419253471841415,0.40099556937500486,-0.7434179444122443,20.833869581026992,-2.365282601606752,1
145,2024-09-24 12:20:56.009339136,TASK_BEGIN,016,-4.191771622942558,2.0711295816439503,-4.044956237330459,-0.10107100683299176,0.5595530259684927,-0.7447999094365356,20.834961510811837,-2.4090347197425235,1
146,2024-09-24 12:20:56.079257088,TASK_BEGIN,016,-4.137208729219481,2.049806083757685,-4.059157189054276,-0.10172588827060615,0.7136661447256015,-0.7513343399264065,20.74687006612236,-2.436105259936839,1
147,2024-09-24 12:20:56.133019136,TASK_BEGIN,016,-4.083140305859618,2.0282662997898475,-4.079075484846466,-0.10545018797241942,0.8620006111790424,-0.7621311099609035,20.575124623401884,-2.445588557808923,1
148,2024-09-24 12:20:56.214906880,TASK_BEGIN,016,-4.0316273538044145,2.0067311429514194,-4.107313191700764,-0.1113007626840681,1.0031488871118437,-0.7761420673182128,20.33039345875765,-2.437909728325876,1
149,2024-09-24 12:20:56.272563968,TASK_BEGIN,016,-3.9846481783534293,1.9854123930168466,-4.1463048465419625,-0.11822786940380521,1.1355524625286328,-0.7922137326244897,20.027568138926195,-2.4147513737925372,1
150,2024-09-24 12:20:56.349937920,TASK_BEGIN,016,-3.9438419840635666,1.9644775101270613,-4.197856025089736,-0.12514417006932893,1.2575044014410781,-0.8091472721008468,19.685067763527243,-2.378932774621681,1
151,2024-09-24 12:20:57.293339136,TASK_BEGIN,016,-3.910283121268308,1.9440204583071363,-4.262843119443604,-0.13091989254251513,1.367230657774751,-0.825766161623914,19.324192824436984,-2.3342574538783607,1
152,2024-09-24 12:20:57.351123968,TASK_BEGIN,016,-3.8843572382114604,1.9240488696898088,-4.341113655528466,-0.1343606083459007,1.4629981795177256,-0.8409833289180491,18.9681477717338,-2.2852839575933737,1
153,2024-09-24 12:20:57.428276992,TASK_BEGIN,016,-3.865778360987784,1.9044958191814552,-4.431504729304116,-0.1342456048011986,1.5432058892503326,-0.8538547055630797,18.640566741031698,-2.2369903984744486,1
154,2024-09-24 12:20:57.489795840,TASK_BEGIN,016,-3.85373119954943,1.8852595999981383,-4.531868040148455,-0.1294504443782298,1.6064556787917794,-0.8636117095925762,18.36374428561105,-2.1943568197354053,1
155,2024-09-24 12:20:57.564631808,TASK_BEGIN,016,-3.8470844666006694,1.8662616552768314,-4.63909132618357,-0.11910521667347086,1.6516355564004928,-0.8696784910795823,18.15701325640701,-2.1619264794176374,1
156,2024-09-24 12:20:57.625771008,TASK_BEGIN,016,-3.844627567297026,1.8475075482350942,-4.749258256374568,-0.10271320785780742,1.678042011753696,-0.871683494703111,18.03556789516391,-2.143402870554914,1
157,2024-09-24 12:20:57.688256000,TASK_BEGIN,016,-3.845301467260425,1.829143730360147,-4.8580407338962095,-0.0801873990650907,1.6855102374634665,-0.8694632165457953,18.00964869865743,-2.1413104587258633,1
158,2024-09-24 12:20:58.611448064,TASK_BEGIN,016,-3.848393937138169,1.8115071724069831,-4.961232422796733,-0.05180623412927642,1.674475455489628,-0.863048360746928,18.08393673172739,-2.156749653062862,1
159,2024-09-24 12:20:58.673467136,TASK_BEGIN,016,-3.8536689057580484,1.7951591860512837,-5.055335698212736,-0.01810674135955304,1.6459271895077776,-0.852630403242671,18.25722286836697,-2.189301886872276,1
160,2024-09-24 12:20:58.751643904,TASK_BEGIN,016,-3.861420989241697,1.7808938238534087,-5.138174794714809,0.020245964904008013,1.6012949639587577,-0.8385166955413483,18.522503350689806,-2.2371225091870066,1
161,2024-09-24 12:20:58.814379008,TASK_BEGIN,016,-3.8724734950445505,1.7697225208982184,-5.20933372288918,0.06254974809400146,1.5423298940124466,-0.8210826083806492,18.867531069591173,-2.2971825764592895,1
162,2024-09-24 12:20:58.876429824,TASK_BEGIN,016,-3.8881317664065294,1.7628407016916876,-5.270086572489439,0.1080847386031485,1.4710136464673986,-0.8007256925668698,19.27565376069055,-2.365567608967339,1
163,2024-09-24 12:20:58.954535936,TASK_BEGIN,016,-3.910065947845868,1.7615664632947077,-5.322771375288579,0.15609431701805362,1.3894849609136675,-0.777828486025429,19.726745609090617,-2.4377895981475812,1
164,2024-09-24 12:20:59.017335040,TASK_BEGIN,016,-3.94009377223081,1.767232643237805,-5.369976599508439,0.20578303926205951,1.299959442776417,-0.7527357526620551,20.19829341887741,-2.509141917175007,1
165,2024-09-24 12:20:59.965370880,TASK_BEGIN,016,-3.979883974848107,1.7810342590959958,-5.413949305851978,0.2563508160717123,1.2046434486484718,-0.7257429378821494,20.666792022124827,-2.5750985138893006,1
166,2024-09-24 12:21:00.028329984,TASK_BEGIN,016,-4.030642149545502,1.803860175492542,-5.456313104743719,0.3070350396709966,1.1056797763776527,-0.6970913037585302,21.109256383143784,-2.6316733779101074,1
167,2024-09-24 12:21:00.090727168,TASK_BEGIN,016,-4.092846162520666,1.8361427362714253,-5.497929134190187,0.3571165797268022,1.0051332311959593,-0.6669735991600908,21.504411783904253,-2.675652526839105,1
168,2024-09-24 12:21:00.169114880,TASK_BEGIN,016,-4.16609226563445,1.877752611466468,-5.538777718098383,0.40587742503995117,0.9049559526396552,-0.6355532155905715,21.833378238397326,-2.704683286123855,1
169,2024-09-24 12:21:00.232044800,TASK_BEGIN,016,-4.249095121292711,1.9279664144218913,-5.577912796687299,0.4525458542954491,0.8069043075193318,-0.602989905122755,22.080032477185078,-2.7172480534109744,1
170,2024-09-24 12:21:00.294530048,TASK_BEGIN,016,-4.33984006397275,1.9855276305487135,-5.613572285907902,0.496275188781648,0.7124692800464658,-0.5694593778918938,22.231393281625774,-2.712563162522046,1
171,2024-09-24 12:21:00.371762944,TASK_BEGIN,016,-4.435833874812891,2.0487894617978126,-5.643411811354829,0.5361726612732693,0.6228620061078991,-0.5351561144078812,22.278317003831564,-2.6904747862248626,1
172,2024-09-24 12:21:01.310269952,TASK_BEGIN,016,-4.534382706377408,2.115894472737203,-5.664793182305832,0.571375005744317,0.5390112146182121,-0.5002781971948511,22.216459514359816,-2.6514174294537085,1
173,2024-09-24 12:21:01.386400768,TASK_BEGIN,016,-4.632848076059475,2.184945169539117,-5.675134529805015,0.601159167873762,0.4615394113924619,-0.4650037728071208,22.047084252246872,-2.5964172254802707,1
174,2024-09-24 12:21:01.454241024,TASK_BEGIN,016,-4.728854326363083,2.2541432032139417,-5.672290514055251,0.6250423080415671,0.3907680418737278,-0.42947386545599625,21.777206425203985,-2.527047673011703,1
175,2024-09-24 12:21:01.516581120,TASK_BEGIN,016,-4.820428266866439,2.321890440636841,-5.654790181975915,0.6428001733534066,0.3268198660399875,-0.3937947306376336,21.418809327708015,-2.4452721350149074,1
176,2024-09-24 12:21:01.576593920,TASK_BEGIN,016,-4.906068510966829,2.3868491349752237,-5.621800191429814,0.6543795891305961,0.2697970866463543,-0.35806176481777885,20.987394657004565,-2.353220194177923,1
177,2024-09-24 12:21:01.654226944,TASK_BEGIN,016,-4.984759837755703,2.4479650843252503,-5.572894485941139,0.6597592833283834,0.21992463435280335,-0.322390986340911,20.500604888031067,-2.2530271229397405,1
178,2024-09-24 12:21:01.716266240,TASK_BEGIN,016,-5.055935636754625,2.504463160826194,-5.507833428585633,0.6588422361878948,0.17757195607718892,-0.28694024701079535,19.977484568376997,-2.1468097501885777,1
179,2024-09-24 12:21:02.669220864,TASK_BEGIN,016,-5.119379463773801,2.555821019877767,-5.426536319415314,0.651438557223451,0.143157084546584,-0.2519127818297711,19.43818256324613,-2.036709791111056,1
180,2024-09-24 12:21:02.732750080,TASK_BEGIN,016,-5.175088409419502,2.60172421714887,-5.329327506714955,0.6373513932626393,0.11698869319891671,-0.21754681042474316,18.90341552749159,-1.92488123029905,1
181,2024-09-24 12:21:02.794821120,TASK_BEGIN,016,-5.223153639404862,2.6420127863014518,-5.217321581342143,0.6165213150384867,0.09911234501889901,-0.18409966931609226,18.393342368385017,-1.8133927469386426,1
182,2024-09-24 12:21:02.872646912,TASK_BEGIN,016,-5.263691533332253,2.6766355372990445,-5.092629027923292,0.5891479471241959,0.08921873919076802,-0.15183202279834299,17.926171892861905,-1.704126259005221,1
183,2024-09-24 12:21:02.937051904,TASK_BEGIN,016,-5.296814266044535,2.7056223693750505,-4.9581693425484845,0.555730234320014,0.08663519473755153,-0.12099315580605538,17.51703841533013,-1.5987414684286074,1
184,2024-09-24 12:21:02.995898880,TASK_BEGIN,016,-5.322611386914157,2.729070569310329,-4.81720008800242,0.5170326696357811,0.09037823499169886,-0.09181287134931879,17.17724566511334,-1.4986737295477333,1
185,2024-09-24 12:21:03.074007040,TASK_BEGIN,016,-5.341119813410088,2.747133294247919,-4.672812053807819,0.4740242069268593,0.09921713125398712,-0.0645080356127899,16.913558151772584,-1.4050914092983562,1
186,2024-09-24 12:21:03.987651072,TASK_BEGIN,016,-5.352273847208868,2.760005175101764,-4.527492362185396,0.4278154362813184,0.11170019634935514,-0.0393007621440712,16.727440684714633,-1.3188295445233238,1
187,2024-09-24 12:21:04.061896960,TASK_BEGIN,016,-5.355845884252457,2.7679098269680833,-4.3827619665753454,0.3795935254268526,0.12615867202302342,-0.01644150862392308,16.61466336609349,-1.2404010390269267,1
188,2024-09-24 12:21:04.126542080,TASK_BEGIN,016,-5.35140020726257,2.7710923696917793,-4.238999071831784,0.33056402166467774,0.14076171277508245,0.003760455538426529,16.565756933501397,-1.1701281312418608,1
189,2024-09-24 12:21:04.197404928,TASK_BEGIN,016,-5.338282224840262,2.769813511247311,-4.095607803880234,0.28191285014518214,0.1536388034359984,0.020902645390276833,16.567405631000707,-1.1083255761578366,1
190,2024-09-24 12:21:04.250761984,TASK_BEGIN,016,-5.315661226976408,2.764345447526539,-3.9515606471232965,0.23478540338365078,0.1629983226801954,0.03447160928864691,16.604466730323182,-1.0554427236891835,1
191,2024-09-24 12:21:04.328047104,TASK_BEGIN,016,-5.282628929388064,2.7549754708470644,-3.806169771947679,0.19027663620275204,0.1672058110400855,0.04385736720310849,16.66214338797334,-1.0121211434253,1
192,2024-09-24 12:21:04.390039040,TASK_BEGIN,016,-5.238328109331582,2.742013938494068,-3.659821096284074,0.1494277349344017,0.1648709317748109,0.048392210754569016,16.72787440496451,-0.979169658621518,1
193,2024-09-24 12:21:05.328699136,TASK_BEGIN,016,-5.182076012251194,2.7257926605740592,-3.5143714277507176,0.1132071038693922,0.15498342688211064,0.04739765925228308,16.792583056717923,-0.9574676821623866,1
194,2024-09-24 12:21:05.407375104,TASK_BEGIN,016,-5.113467142863096,2.706648661016634,-3.37302683795049,0.08244755632646852,0.13706636572745987,0.04023634219487897,16.851055331322787,-0.9478080129149589,1
195,2024-09-24 12:21:05.468961792,TASK_BEGIN,016,-5.032459540966225,2.6849027716157265,-3.2397697398825445,0.057745055160374,0.11128747790091172,0.026375016522870363,16.901543552313854,-0.9507150744894005,1
196,2024-09-24 12:21:05.546646016,TASK_BEGIN,016,-4.93945442774469,2.660841634661059,-3.1185990973020976,0.03935779462019505,0.07850079288849424,0.005455883521287764,16.945021146623098,-0.9663050601028689,1
197,2024-09-24 12:21:05.614490880,TASK_BEGIN,016,-4.835384585207356,2.63470379022712,-3.0128756178083966,0.02714346796084851,0.04022022264401888,-0.022638000838820633,16.98448909927718,-0.9942511686900282,1
198,2024-09-24 12:21:05.682265088,TASK_BEGIN,016,-4.7218229441213495,2.6066720273208195,-2.9250181431848343,0.020561662100348738,-0.0014643525640880692,-0.05773409089904096,17.02436445109612,-1.0338579708159974,1
199,2024-09-24 12:21:05.750086912,TASK_BEGIN,016,-4.601087789198654,2.576880789556794,-2.856692826673013,0.018759819229287808,-0.04399710184590079,-0.09934068140371981,17.069660267687965,-1.0841674690889578,1
200,2024-09-24 12:21:06.693325056,TASK_BEGIN,016,-4.476279273993442,2.5454439436935683,-2.8093717431202956,0.020734048219130153,-0.08445234670601666,-0.14663663074198896,17.124808665695657,-1.144009263808451,1
201,2024-09-24 12:21:06.760263936,TASK_BEGIN,016,-4.351186423215726,2.512495385834345,-2.7848953793468496,0.02552253594987348,-0.11962428935415331,-0.1984820736785846,17.19244893915841,-1.2119833452878017,1
202,2024-09-24 12:21:06.823968000,TASK_BEGIN,016,-4.230052955775956,2.4782302795722435,-2.785723458841947,0.03237789044685312,-0.14615473348852673,-0.2534529943842086,17.272663576674002,-1.2864232993279427,1
203,2024-09-24 12:21:06.884884992,TASK_BEGIN,016,-4.117229186411284,2.4429430412183057,-2.8147596359588114,0.04086665415431739,-0.16069252894480593,-0.30990659880529986,17.362798283142006,-1.3653749119225198,1
204,2024-09-24 12:21:06.962323968,TASK_BEGIN,016,-4.016740491817096,2.407059541598414,-2.8747647501041977,0.05085885167485776,-0.16002820697963824,-0.36608626946554,17.457699245887806,-1.446605266731482,1
205,2024-09-24 12:21:07.024350720,TASK_BEGIN,016,-3.931815611820857,2.3711471830850313,-2.967490192067622,0.06241922301770927,-0.14120629971484797,-0.4202649652206792,17.55029282323856,-1.5276816807235079,1
206,2024-09-24 12:21:07.100075008,TASK_BEGIN,016,-3.8644750994136623,2.335885135523798,-3.0927656253580946,0.07565902155043713,-0.10169234252310178,-0.4709042261713431,17.63256128548415,-1.6061613573251126,1
207,2024-09-24 12:21:08.034189824,TASK_BEGIN,016,-3.815307321960668,2.302001473093689,-3.247759561640167,0.09059631245427523,-0.03962247943387277,-0.5167902784986964,17.696874560386973,-1.6798568526163653,1
208,2024-09-24 12:21:08.097060096,TASK_BEGIN,016,-3.7834878504157796,2.270201569324628,-3.426599130227805,0.10703722421191647,0.045937942695968285,-0.5571164294335328,17.7374317424292,-1.7470589186665482,1
209,2024-09-24 12:21:08.175048192,TASK_BEGIN,016,-3.767001296013459,2.2411019972301216,-3.6205594396851493,0.12449417328970265,0.15481370981528086,-0.5915015667189927,17.75129864879027,-1.8065938195381566,1
210,2024-09-24 12:21:08.237135872,TASK_BEGIN,016,-3.7629839825349505,2.2151708135527945,-3.8189018087366193,0.14217258083543916,0.2856443660409127,-0.61994868586186,17.738530287721456,-1.8576884610226088,1
211,2024-09-24 12:21:08.315401984,TASK_BEGIN,016,-3.7680998938244237,2.1926777907346553,-4.0100947806972105,0.15902895210998907,0.4358961220774697,-0.6427566174871414,17.701447161417843,-1.8997557549185027,1
212,2024-09-24 12:21:08.376324864,TASK_BEGIN,016,-3.778870318306156,2.1736623387899052,-4.182959084398145,0.17386057191617865,0.6019434587900716,-0.6604097437083097,17.643736221706185,-1.9322762933191784,1
213,2024-09-24 12:21:08.438810112,TASK_BEGIN,016,-3.7919167730776433,2.1579229796679744,-4.327476450897415,0.18539403458832862,0.7792232093833311,-0.6734735824310584,17.569986947353833,-1.9548768517032151,1
214,2024-09-24 12:21:09.369021952,TASK_BEGIN,016,-3.804131871624832,2.145031949329336,-4.435339550859471,0.1923865467107659,0.9624632171668279,-0.6825097205383175,17.485696463957023,-1.9675527448799814,1
215,2024-09-24 12:21:09.436888832,TASK_BEGIN,016,-3.812817199670807,2.1343801058674208,-4.500458738500897,0.19377055547507738,1.145978288716119,-0.6880115326259482,17.397305666371622,-1.9708802478662915,1
216,2024-09-24 12:21:09.501540096,TASK_BEGIN,016,-3.8158066176758876,2.1252471098838916,-4.51950486183666,0.18882720958027524,1.3240348842748395,-0.690367591687662,17.31182275735181,-1.9660832039361409,1
217,2024-09-24 12:21:09.570398976,TASK_BEGIN,016,-3.8115671210791366,2.1168798355219676,-4.492324453810301,0.17732775921269975,1.491280216574995,-0.6898627788338203,17.235955484298664,-1.9549072886345433,1
218,2024-09-24 12:21:09.630820096,TASK_BEGIN,016,-3.7992666396288275,2.1085649878848782,-4.421986379534013,0.15959794994004697,1.6431872711863542,-0.6867147161897201,17.175124770035183,-1.9393569232512748,1
219,2024-09-24 12:21:09.692888832,TASK_BEGIN,016,-3.7787939779575614,2.0996884666258606,-4.314384127227832,0.13650242003680288,1.7764210152645727,-0.6811299628097431,17.132906591719294,-1.9214099619600382,1
220,2024-09-24 12:21:09.770050048,TASK_BEGIN,016,-3.7507038257121255,2.0897717658870487,-4.17751123734126,0.10935393975748864,1.8890312231003257,-0.6733583738383823,17.11109676228155,-1.9027954788747692,1
221,2024-09-24 12:21:10.711621120,TASK_BEGIN,016,-3.71607166913634,2.078477771612929,-4.020590316224735,0.07975246612330421,1.9804391520086275,-0.6637236478044297,17.11008821031638,-1.8848557827677739,1
222,2024-09-24 12:21:10.773635072,TASK_BEGIN,016,-3.676272474255509,2.0655897521910367,-3.8532442725177773,0.049392407451499476,2.0512726436515014,-0.6526204360884714,17.12922724400874,-1.8685051216343371,1
223,2024-09-24 12:21:10.851335936,TASK_BEGIN,016,-3.632723589325652,2.0509743821022175,-3.6848938448624082,0.01990294504616856,2.1031531256104437,-0.6404909401325385,17.1671851146591,-1.8543173629120526,1
224,2024-09-24 12:21:10.913799936,TASK_BEGIN,016,-3.5866646126453774,2.034541955220785,-3.524430848457949,-0.007243383900526776,2.1385116456413837,-0.6278046560007466,17.222494658389028,-1.8427373542957162,1
225,2024-09-24 12:21:10.990295040,TASK_BEGIN,016,-3.53904836635328,2.0162198981867228,-3.37999985824461,-0.030770955856058387,2.1604367260898303,-0.6150526524546879,17.294080196593768,-1.8343144826603985,1
226,2024-09-24 12:21:11.052887040,TASK_BEGIN,016,-3.4905465201407453,1.9959475838838499,-3.258716277328416,-0.049622019482987514,2.1725023925557534,-0.6027474126108893,17.3813948747208,-1.8298133357412372,1
227,2024-09-24 12:21:11.115374080,TASK_BEGIN,016,-3.4416011252377587,1.9736803976388813,-3.16639664034099,-0.06296757872483517,2.1785228981596245,-0.5914100622556285,17.484039197888194,-1.8301351945027244,1
228,2024-09-24 12:21:12.056729856,TASK_BEGIN,016,-3.392463927250186,1.9493856180807823,-3.107512745576872,-0.07020239721337192,2.1822197212887513,-0.581534440974724,17.601050296939036,-1.836088691163464,1
229,2024-09-24 12:21:12.134838016,TASK_BEGIN,016,-3.3432183577753567,1.923031723424049,-3.0853634539865005,-0.07093991136347064,2.1868621195111495,-0.5735349037969764,17.730092497608887,-1.848087752228705,1
230,2024-09-24 12:21:12.204945920,TASK_BEGIN,016,-3.293799048386462,1.8945863633518454,-3.1021620866500785,-0.0650482755843772,2.1950037340131217,-0.5676981001219118,17.866832711582664,-1.8658768790661138,1
231,2024-09-24 12:21:12.258423040,TASK_BEGIN,016,-3.2440227446058487,1.864027457285304,-3.1588006505616533,-0.05273350312576507,2.2083850268465057,-0.5641574815113815,18.004845252370497,-1.888402312910992,1
232,2024-09-24 12:21:12.336530944,TASK_BEGIN,016,-3.193656382249714,1.8313607694666718,-3.2543997665536413,-0.034605653087601246,2.227945982088111,-0.5628952090821434,18.13614439484314,-1.9139029582258198,1
233,2024-09-24 12:21:12.398136064,TASK_BEGIN,016,-3.142537783863715,1.7966429025984352,-3.385964035996475,-0.011657834655002329,2.25385677423324,-0.5637623979279747,18.252088480431688,-1.9401969178882759,1
234,2024-09-24 12:21:12.460624128,TASK_BEGIN,016,-3.090708582861064,1.7600101261480712,-3.5484118627456738,0.01484655618858013,2.2855525057222663,-0.566506687295954,18.344305152699743,-1.965049921352166,1
235,2024-09-24 12:21:13.407483904,TASK_BEGIN,016,-3.0384890092526837,1.7217014782000044,-3.7350360851567763,0.04352479781115523,2.321824014905728,-0.5708032250774407,18.405404939827537,-1.986480024504664,1
236,2024-09-24 12:21:13.485538048,TASK_BEGIN,016,-2.9864724193730146,1.6820624296827709,-3.938197238236057,0.07300588469045188,2.360979017347711,-0.5762857297395441,18.429414292609543,-2.0029117529998532,1
237,2024-09-24 12:21:13.554944000,TASK_BEGIN,016,-2.9354752626218863,1.6415312758630483,-4.149970186591978,0.10202185463687437,2.4010166040018452,-0.5825681093947426,18.412084540061926,-2.013211679124781,1
238,2024-09-24 12:21:13.612875008,TASK_BEGIN,016,-2.886472753446327,1.600621106995936,-4.362633046629851,0.1294778534522967,2.439786053503265,-0.5892543580379775,18.35138629846287,-2.016710820818429,1
239,2024-09-24 12:21:13.690481920,TASK_BEGIN,016,-2.8405185932229737,1.5599017850658408,-4.569071780772506,0.15451542663438567,2.475176438160842,-0.5959515150153458,18.248266579932633,-2.0132672252632138,1
240,2024-09-24 12:21:13.752162816,TASK_BEGIN,016,-2.798652306941086,1.5199750979234616,-4.7631584543804815,0.17654739372167835,2.5053514439617923,-0.6022994156195738,18.107318260244583,-2.0033160592598334,1
241,2024-09-24 12:21:13.814189056,TASK_BEGIN,016,-2.761830028171911,1.4814424747807184,-4.9400041697058805,0.19522715031146604,2.528955297455795,-0.6080121686105946,17.936951271784046,-1.9878418943483316,1
242,2024-09-24 12:21:14.741724928,TASK_BEGIN,016,-2.7309175583771523,1.4448808898031837,-5.095909863793859,0.21034614031760465,2.545227118116802,-0.6129157808680272,17.74900242074738,-1.968288498626422,1
243,2024-09-24 12:21:14.804360192,TASK_BEGIN,016,-2.7067347702940485,1.4108398536387332,-5.228003714033121,0.2217059713867863,2.554037859060634,-0.6169706157886161,17.558027598033078,-1.9464716643337883,1
244,2024-09-24 12:21:14.866209024,TASK_BEGIN,016,-2.6900896293458727,1.379846663345758,-5.3338141442428855,0.229033751973523,2.55587012107583,-0.6202722671311353,17.380512678809275,-1.9245263687496323,1
245,2024-09-24 12:21:14.945594880,TASK_BEGIN,016,-2.681753202933659,1.3523943911364842,-5.411034746063845,0.23197091031325429,2.551718405988219,-0.6230255152384114,17.23399799877059,-1.904850649893785,1
246,2024-09-24 12:21:15.005408000,TASK_BEGIN,016,-2.682379219092301,1.3289064032443556,-5.457539415478251,0.230120698689608,2.5429079308506197,-0.6254918421052147,17.13587422021842,-1.8899768637761443,1
247,2024-09-24 12:21:15.067405056,TASK_BEGIN,016,-2.692389937410929,1.3096925111612956,-5.471618421215693,0.2231374346262512,2.5308946987606786,-0.6279226083596484,17.101686420039528,-1.8823374861875155,1
248,2024-09-24 12:21:15.145272832,TASK_BEGIN,016,-2.7118364889046904,1.294908667931471,-5.4523891361985255,0.2108363410675486,2.5171194223433297,-0.6304976585205936,17.143216584505012,-1.8839691444066875,1
249,2024-09-24 12:21:16.086603008,TASK_BEGIN,016,-2.740253964521276,1.2845204599263913,-5.400285980458426,0.193290362301599,2.5029220881566,-0.6332840324688168,17.26684611855256,-1.89624136825892,1
250,2024-09-24 12:21:16.148657920,TASK_BEGIN,016,-2.7765639708410217,1.27827415109909,-5.317561865788087,0.17090736621412395,2.4894619097404402,-0.6362157906163127,17.472444184746806,-1.919660231891851,1
251,2024-09-24 12:21:16.226311936,TASK_BEGIN,016,-2.8190712399197833,1.275691068616442,-5.208738471685788,0.14449941173241682,2.477617507496874,-0.6390893929490652,17.75283776675711,-1.9537460222100522,1
252,2024-09-24 12:21:16.287879936,TASK_BEGIN,016,-2.865555602061644,1.2760997106557774,-5.0807931647306175,0.11531711355871906,2.467920105035479,-0.6415757657155957,18.09407963577199,-1.9970002162925695,1
253,2024-09-24 12:21:16.353509120,TASK_BEGIN,016,-2.913433240263347,1.2787021793377087,-4.942811331518357,0.08499896294283629,2.460577033473394,-0.6432579117290258,18.476734902177544,-2.047007594499534,1
254,2024-09-24 12:21:16.427064832,TASK_BEGIN,016,-2.9599677992952333,1.2826577456755615,-4.805066156368265,0.05542420102824863,2.4555595420933014,-0.6436935209713838,18.877988123100703,-2.1006740640814945,1
255,2024-09-24 12:21:16.489548800,TASK_BEGIN,016,-3.002510646492138,1.2871699210485221,-4.677771214542169,0.0285046052683433,2.452664380871099,-0.6424796133506856,19.273980288274384,-2.1545214026059805,1
256,2024-09-24 12:21:17.436094976,TASK_BEGIN,016,-3.038729645463215,1.2915720111455227,-4.569801186717688,0.005965439175685464,2.4515177161782526,-0.6392960517412868,19.641777236012814,-2.204938445601538,1
257,2024-09-24 12:21:17.497684992,TASK_BEGIN,016,-3.066793611981104,1.295405404224128,-4.487607595844064,-0.010838910638529277,2.4516043062816384,-0.6339321563258129,19.960623735508623,-2.2483398130437022,1
258,2024-09-24 12:21:17.563032064,TASK_BEGIN,016,-3.085517109551134,1.2984812385979707,-4.434561653057004,-0.021039129997883925,2.452381043302985,-0.626308797049313,20.21248907367608,-2.2812595914220286,1
259,2024-09-24 12:21:17.640698880,TASK_BEGIN,016,-3.0944805152610586,1.300921635450819,-4.4108828363586206,-0.024277931707662202,2.453397446446385,-0.616487036804628,20.382179642258965,-2.300443988657926,1
260,2024-09-24 12:21:17.702194176,TASK_BEGIN,016,-3.0941080597621995,1.303185329621181,-4.414011061959624,-0.020670479725625343,2.454317476858238,-0.6046489819050713,20.457313951967613,-2.3029886787271763,1
261,2024-09-24 12:21:17.779817216,TASK_BEGIN,016,-3.0856561624675627,1.3060773954839668,-4.4390557758911955,-0.010752742636606532,2.454830626803237,-0.5910552329962117,20.428369534222526,-2.2865246604982152,1
262,2024-09-24 12:21:17.845549056,TASK_BEGIN,016,-3.071086776784303,1.3107277639584745,-4.479152974101001,0.004551855556014566,2.4545032110229688,-0.5759927022089544,20.288939086845645,-2.2494178564243037,1
263,2024-09-24 12:21:18.788018176,TASK_BEGIN,016,-3.0528644593077403,1.3185230882472079,-4.525926984706619,0.02397777988334318,2.4526368252008224,-0.5597239438992903,20.03619730396939,-2.1909418435571175,1
264,2024-09-24 12:21:18.847529728,TASK_BEGIN,016,-3.033738288322218,1.3309942746117156,-4.570292199270823,0.046017970954114897,2.4482088551079246,-0.5424502884155765,19.671411634781382,-2.1114052704101987,1
265,2024-09-24 12:21:18.924774912,TASK_BEGIN,016,-3.016522073163144,1.3496719599758706,-4.6035673301640925,0.06908197784158066,2.439936910343235,-0.5242985879477744,19.20030079189873,-2.0122315643043067,1
266,2024-09-24 12:21:18.995877888,TASK_BEGIN,016,-3.00384875942632,1.3759183209354937,-4.618659763141592,0.09167721165103915,2.4264422715868332,-0.5053296852538348,18.63324810267445,-1.8960084771069166,1
267,2024-09-24 12:21:19.048872960,TASK_BEGIN,016,-2.9979084930591875,1.4107506677734871,-4.611017130786715,0.11256676384102876,2.4064499975269107,-0.4855588295582078,17.98555972764488,-1.7665377713565535,1
268,2024-09-24 12:21:19.126500096,TASK_BEGIN,016,-3.0002323424286748,1.454691728359833,-4.57909097424274,0.13086736070540164,2.3789795506016445,-0.46498170925742277,17.277750994065496,-1.6288558309025365,1
269,2024-09-24 12:21:19.188878080,TASK_BEGIN,016,-3.011570171737681,1.507679979314281,-4.524215959861375,0.146079036651645,2.3435201425734946,-0.44360723010707875,16.535381089531654,-1.4890922670781788,1
270,2024-09-24 12:21:20.139951872,TASK_BEGIN,016,-3.0318566234408375,1.5690467117987037,-4.450011907485388,0.15805573001042855,2.3001972635584553,-0.42149862481611616,15.787881181030475,-1.3540394286500594,1
271,2024-09-24 12:21:20.210290944,TASK_BEGIN,016,-3.0602543437915846,1.6375511769961686,-4.361545913460414,0.16693213174804333,2.2499006599334135,-0.39881538278393897,15.066422099896567,-1.230476881083188,1
272,2024-09-24 12:21:20.278121984,TASK_BEGIN,016,-3.095286206336371,1.7114704930085447,-4.264520886689989,0.17304526874243673,2.1943133400145975,-0.3758419206332457,14.401401304576018,-1.1244481523337417,1
273,2024-09-24 12:21:20.341262080,TASK_BEGIN,016,-3.1350364585429555,1.788737212378992,-4.164692431766481,0.17689554476783392,2.1358083299316855,-0.35299627700355607,13.819951411748619,-1.040656059457888,1
274,2024-09-24 12:21:20.413711104,TASK_BEGIN,016,-3.17735857893807,1.8670985841325574,-4.067561489182666,0.1791441233173592,2.0772279985883073,-0.3308215107730842,13.343615829218669,-0.98203775821038,1
275,2024-09-24 12:21:20.480497920,TASK_BEGIN,016,-3.220056499882632,1.9442674773239614,-3.9782399022689265,0.18060281089555652,2.0215946451029176,-0.30995981421461566,12.986529297075151,-0.9495614354274281,1
276,2024-09-24 12:21:20.549332992,TASK_BEGIN,016,-3.2610475141135358,2.018052883611866,-3.901366011099902,0.18218874454078834,1.9718366780588998,-0.29110812555687215,12.754528266912388,-0.9422952484714795,1
277,2024-09-24 12:21:21.468276736,TASK_BEGIN,016,-3.29849009802324,2.086469447974674,-3.841017485365503,0.18484305704602505,1.93060959352744,-0.2749648684545026,12.645266465886547,-0.9577257252618622,1
278,2024-09-24 12:21:21.536097280,TASK_BEGIN,016,-3.3308336359656527,2.1478216221494404,-3.8005623000694086,0.18941241548587487,1.9002162386498491,-0.2621845508689189,12.649045753996651,-0.992197505277215,1
279,2024-09-24 12:21:21.603874048,TASK_BEGIN,016,-3.356796387081329,2.2007609449289576,-3.7823543406192774,0.19649668697630793,1.882571560869328,-0.2533490539276612,12.75007803045576,-1.041336223414067,1
280,2024-09-24 12:21:21.671676928,TASK_BEGIN,016,-3.3753255636198176,2.244324536067538,-3.787362733077703,0.2063071757500455,1.8791603920462423,-0.24895176935457658,12.928125580242831,-1.1004046678027848,1
281,2024-09-24 12:21:21.729933056,TASK_BEGIN,016,-3.3855576512387042,2.277956170236938,-3.815072041061941,0.21861229790188763,1.8909668136452695,-0.2493877605993769,13.160476880502127,-1.1646030679753283,1
282,2024-09-24 12:21:21.807215104,TASK_BEGIN,016,-3.386760651364788,2.301499454343222,-3.863818609817319,0.23279637969503705,1.9183883211907033,-0.2549489141466064,13.424020204916976,-1.2293248385109055,1
283,2024-09-24 12:21:21.868872704,TASK_BEGIN,016,-3.378276390923485,2.315163461787926,-3.931260117872746,0.24796805390683535,1.9611672798422255,-0.265824952232701,13.697136034061437,-1.2903879500036757,1
284,2024-09-24 12:21:22.807769088,TASK_BEGIN,016,-3.3595083483025014,2.319477325775551,-4.014569798183647,0.2630512454874637,2.0183652354763333,-0.2821079458961378,13.96119320078379,-1.3442587313982797,1
285,2024-09-24 12:21:22.871085056,TASK_BEGIN,016,-3.3299619105864453,2.3152412733242693,-4.110296152997063,0.2768647266881742,2.088390783477972,-0.3037974536971549,14.201520060131006,-1.388249334261258,1
286,2024-09-24 12:21:22.954497024,TASK_BEGIN,016,-3.2893053288542515,2.303465408991526,-4.214128514655806,0.28822421954169014,2.169065602927093,-0.3308020696560821,14.407923329782674,-1.420671733016883,1
287,2024-09-24 12:21:23.022274048,TASK_BEGIN,016,-3.2374226229888725,2.2852939962615277,-4.320793597072689,0.29605434815547976,2.257677806143896,-0.3629284748126916,14.574895914869318,-1.4409536008765895,1
288,2024-09-24 12:21:23.087685120,TASK_BEGIN,016,-3.17444726128982,2.2619266641124174,-4.424134936759691,0.29945916427916647,2.3509799027707485,-0.399854160276148,14.701421327968395,-1.449683229856029,1
289,2024-09-24 12:21:23.150170112,TASK_BEGIN,016,-3.1007823380032207,2.234543977973735,-4.5173308902886244,0.29772514189195726,2.4451628058655057,-0.4410969412620589,14.79013579927207,-1.4484985178966168,1
290,2024-09-24 12:21:23.212176128,TASK_BEGIN,016,-3.0171275240206983,2.2042369419173267,-4.593261074225718,0.29029374137560493,2.5359105510868405,-0.4860034696393089,14.845877840465635,-1.4397793038535232,1
291,2024-09-24 12:21:24.167834880,TASK_BEGIN,016,-2.9245250522241,2.1719456837566837,-4.645091197285028,0.2767732826183708,2.6186284629613836,-0.5337685403660802,14.874110598651365,-1.4262242608533613,1
292,2024-09-24 12:21:24.230319104,TASK_BEGIN,016,-2.824409018659303,2.138417041689313,-4.667049993282706,0.25701853094230764,2.6888321100696353,-0.5834766716372863,14.87985730403119,-1.4104596119518067,1
293,2024-09-24 12:21:24.292371200,TASK_BEGIN,016,-2.7186411986411883,2.1041829025755736,-4.655226213076016,0.2312397706630383,2.7425822459587756,-0.6341467794760048,14.867427626960191,-1.3947684047071214,1
294,2024-09-24 12:21:24.369504000,TASK_BEGIN,016,-2.6095444119268265,2.0695564290569117,-4.608204222298247,0.20008393341305128,2.776845359102769,-0.6847685260192499,14.840654106147912,-1.3809257558594359,1
295,2024-09-24 12:21:24.431991296,TASK_BEGIN,016,-2.499935747626518,2.034649453457389,-4.527406910863674,0.16465129203026224,2.789715040573704,-0.7343282301324339,14.803133558572005,-1.3700895661548773,1
296,2024-09-24 12:21:24.507756800,TASK_BEGIN,016,-2.393113020458388,1.9994158572255678,-4.417034419090193,0.12643696771825857,2.7804754427310066,-0.7818209259691399,14.758210684116833,-1.3627305691948313,1
297,2024-09-24 12:21:24.572630784,TASK_BEGIN,016,-2.2927409804122965,1.9637165470163385,-4.283594298432232,0.08721056577744984,2.749526238454483,-0.8262487783329824,14.708809746049852,-1.3586231122306471,1
298,2024-09-24 12:21:25.483645952,TASK_BEGIN,016,-2.2026437658777227,1.9273998628993503,-4.1352095010732235,0.04886306500795936,2.6982190332349547,-0.8666199469342595,14.65731195373389,-1.356925101099926,1
299,2024-09-24 12:21:25.556238080,TASK_BEGIN,016,-2.1265573259201345,1.890399885940159,-3.980948874260544,0.013252799598378962,2.628665377321134,-0.9019683714559342,14.605428240010857,-1.356346085690565,1
300,2024-09-24 12:21:25.623865088,TASK_BEGIN,016,-2.0678763950153654,1.8528462119483826,-3.830291924139603,-0.017918822705844915,2.5435833747706535,-0.9314075578208119,14.553874703104352,-1.3553639206118266,1
301,2024-09-24 12:21:25.696039680,TASK_BEGIN,016,-2.0293990919321026,1.815151283335831,-3.6926842500207977,-0.04317971518525299,2.4462277882655705,-0.9542146445741184,14.501966477821496,-1.3524541323019743,1
302,2024-09-24 12:21:25.758525952,TASK_BEGIN,016,-2.0130843566429375,1.7780370624328445,-3.5770540322572555,-0.06131312291293209,2.3403580990959476,-0.9699168685460717,14.447573113200168,-1.3463197358730539,1
303,2024-09-24 12:21:25.820582144,TASK_BEGIN,016,-2.0198616591668217,1.742494844013101,-3.491156303446238,-0.07136977519910906,2.2301379295534933,-0.978341119771607,14.387671529071367,-1.3360921646662989,1
304,2024-09-24 12:21:25.900331008,TASK_BEGIN,016,-2.0495242213472356,1.709700738802374,-3.4407683725120246,-0.07269078533378033,2.119936236639922,-0.9796112506692518,14.319215507432062,-1.3214456784104638,1
305,2024-09-24 12:21:26.830490880,TASK_BEGIN,016,-2.1007110455957454,1.680906562799786,-3.4289888936928015,-0.06493549590189161,2.014103380435821,-0.9741137304419535,14.23985254888631,-1.3025928464125993,1
306,2024-09-24 12:21:26.912023040,TASK_BEGIN,016,-2.1709796367685263,1.6573137676253042,-3.455922401079732,-0.0480977903556166,1.9167720281605467,-0.9624569157737906,14.148270901209791,-1.2801744775021497,1
307,2024-09-24 12:21:26.971127808,TASK_BEGIN,016,-2.256985928769595,1.6399447730971901,-3.5188390221572905,-0.022505119109158582,1.831653307969068,-0.9454266202473754,14.044191765122473,-1.255065033757591,1
308,2024-09-24 12:21:27.047609088,TASK_BEGIN,016,-2.35477327626028,1.6295381294889664,-3.6127233172381903,0.011197025001823332,1.7618035642044394,-0.9239291987922946,13.928094981644154,-1.2281220411002574,1
309,2024-09-24 12:21:27.110304256,TASK_BEGIN,016,-2.460128337130304,1.6264858517192378,-3.7310587248391114,0.05206569601748187,1.7094106094638009,-0.8989257952901911,13.800896462843022,-1.1999487102409128,1
310,2024-09-24 12:21:27.172358144,TASK_BEGIN,016,-2.5689407655980054,1.6308117681729168,-3.8666523584408923,0.09887266849530578,1.675671696360453,-0.8713741735993863,13.663822074277116,-1.1707501195177719,1
311,2024-09-24 12:21:27.250467072,TASK_BEGIN,016,-2.677519212696284,1.64218326153005,-4.012297784501178,0.1501109866392149,1.660775818888787,-0.8421875101143166,13.518414694627577,-1.1403022198687163,1
312,2024-09-24 12:21:28.193602048,TASK_BEGIN,016,-2.7828310940221415,1.6599534580592137,-4.161193205089045,0.20402877798502736,1.663953365066079,-0.8122048358891497,13.366315507218244,-1.1079875614365546,1
313,2024-09-24 12:21:28.255177984,TASK_BEGIN,016,-2.8826276676576246,1.6832262756625898,-4.307198912934689,0.2587275272330431,1.6835690289257725,-0.7821660582562938,13.2086696765495,-1.0728651509359628,1
314,2024-09-24 12:21:28.329208064,TASK_BEGIN,016,-2.9754242891352005,1.7109244218116864,-4.445035212891206,0.3123136037171685,1.7172429193993695,-0.7526904526509011,13.045548129818739,-1.0338029204161243,1
315,2024-09-24 12:21:28.395909888,TASK_BEGIN,016,-3.0603657383687244,1.741844644779325,-4.570415806553018,0.3630354668816982,1.7619657887757436,-0.724258042834812,12.875940234119803,-0.9897013566234141,1
316,2024-09-24 12:21:28.456325888,TASK_BEGIN,016,-3.1370673368240305,1.7747063341052849,-4.680076956355481,0.4093558362827511,1.8142040378171385,-0.697194233226051,12.698410718188908,-0.9397507531191781,1
317,2024-09-24 12:21:28.532018176,TASK_BEGIN,016,-3.2055002395238605,1.8082068036202785,-4.771755221572286,0.44998803872057735,1.870060745449919,-0.6716654078506816,12.512033451854608,-0.8836116608604012,1
318,2024-09-24 12:21:28.600419072,TASK_BEGIN,016,-3.26591329874189,1.8410786575576765,-4.8442632172517035,0.48396722645734774,1.925545730208954,-0.6476942339892229,12.317218451771591,-0.8214802857431933,1
319,2024-09-24 12:21:29.543631104,TASK_BEGIN,016,-3.318755558768241,1.8721351635646526,-4.897763008516857,0.5107839199467812,1.976898863272513,-0.6251895701514785,12.116271762769067,-0.7541004572467752,1
320,2024-09-24 12:21:29.600261888,TASK_BEGIN,016,-3.36459212145092,1.900305113940531,-4.93414123896119,0.5305302829729689,2.0208531671528878,-0.6039738741224968,11.913630315783308,-0.6827847435049628,1
321,2024-09-24 12:21:29.679215872,TASK_BEGIN,016,-3.404021159325507,1.9246673497253688,-4.957215290624905,0.5439564805145076,2.054784132678132,-0.583798989710654,11.715772828813146,-0.6094441345437273,1
322,2024-09-24 12:21:29.739566080,TASK_BEGIN,016,-3.4375871048037694,1.9444799134900188,-4.972497558435082,0.5523461931796788,2.076769127737378,-0.5643578020311328,11.530852167897397,-0.5365834721709216,1
323,2024-09-24 12:21:29.801635072,TASK_BEGIN,016,-3.4656931005184077,1.9591916867518129,-4.986452425310131,0.5572182638544585,2.0855895723113935,-0.5453003920054296,11.367998642325697,-0.46720369254495775,1
324,2024-09-24 12:21:29.878863104,TASK_BEGIN,016,-3.4885471421783922,1.9684431281648913,-5.005467307097852,0.5599713515591964,2.080690852129497,-0.5262529836097894,11.236150887386025,-0.4045567301348789,1
325,2024-09-24 12:21:29.941350912,TASK_BEGIN,016,-3.5061718812121576,1.97207346798658,-5.03488344527053,0.5616020992784807,2.062130712338872,-0.5068392878084201,11.142469399386998,-0.35176015945123346,1
326,2024-09-24 12:21:30.883672064,TASK_BEGIN,016,-3.518462690268081,1.9701326706160638,-5.078316107059179,0.5625593989453752,2.030551620713027,-0.4867105784429731,11.09081399193537,-0.31138565445737804,1
327,2024-09-24 12:21:30.962224128,TASK_BEGIN,016,-3.525263341690215,1.9628808362643253,-5.137314811932115,0.5627387425449804,1.9871558906434208,-0.46557974247979655,11.080980355858454,-0.2851806951881651,1
328,2024-09-24 12:21:31.030077952,TASK_BEGIN,016,-3.526448378729683,1.9507700119676237,-5.2113486904051625,0.5616034706669926,1.9336256306741586,-0.4432411649439262,11.109040426700814,-0.27398381338839606,1
329,2024-09-24 12:21:31.097861120,TASK_BEGIN,016,-3.5219969288742345,1.9344169215742193,-5.2981046169542,0.5584060331725504,1.8719957518638053,-0.4195729790951014,11.168473086940393,-0.2777401014162634,1
330,2024-09-24 12:21:31.163818240,TASK_BEGIN,016,-3.5120326264636286,1.914568762170877,-5.394016275458293,0.5524445183706467,1.8045642239298703,-0.39454323314717915,11.251478661667074,-0.29549933778567683,1
331,2024-09-24 12:21:31.225867008,TASK_BEGIN,016,-3.496830739798959,1.8920562959449156,-5.494856513870411,0.5432747536358781,1.7338850433896493,-0.3682384336233355,11.35006161721223,-0.32539507766123316,1
332,2024-09-24 12:21:31.288365056,TASK_BEGIN,016,-3.476821591064697,1.8677360966739263,-5.596263961877361,0.5308456894701442,1.6627944020602186,-0.3409060929433901,11.456670210191707,-0.36467465433342455,1
333,2024-09-24 12:21:32.243424768,TASK_BEGIN,016,-3.4526054133338815,1.8424359384114168,-5.6941574008060565,0.5155737001992227,1.5943970019001503,-0.3129863230275545,11.56437490765208,-0.40981249973552075,1
334,2024-09-24 12:21:32.300319744,TASK_BEGIN,016,-3.4249567347248093,1.8169149957410302,-5.785002127158786,0.49836079148611806,1.5319843686203638,-0.28511583583013733,11.666917529539315,-0.45671688739400873,1
335,2024-09-24 12:21:32.378428928,TASK_BEGIN,016,-3.394793718458923,1.7918363850165253,-5.8659085393229295,0.48053341357355783,1.478886553004281,-0.25810490065348246,11.759010213595227,-0.5010577602953384,1
336,2024-09-24 12:21:32.440446976,TASK_BEGIN,016,-3.3631290134019483,1.7677450968235855,-5.9346126144610025,0.46369253988717285,1.4382421031344745,-0.23288995218432598,11.836820627278922,-0.538699215367619,1
337,2024-09-24 12:21:32.502477056,TASK_BEGIN,016,-3.33103139990631,1.7450540495930682,-5.98941750635004,0.4495093492777596,1.4126665654134982,-0.21045586720054835,11.89827535979068,-0.5661291832194316,1
338,2024-09-24 12:21:32.582084864,TASK_BEGIN,016,-3.299583984129587,1.7240443349461327,-6.029133201542031,0.4395169761649616,1.4038753350786515,-0.19173041269419597,11.942904180469657,-0.5807562297736008,1
339,2024-09-24 12:21:32.643612928,TASK_BEGIN,016,-3.2698041132477496,1.7048744983522555,-6.053035057319644,0.43492786672839817,1.4124071367517828,-0.17747667236055883,11.971118929629284,-0.5810056155462886,1
340,2024-09-24 12:21:33.580485120,TASK_BEGIN,016,-3.2425316036427394,1.68758630318934,-6.06090798556145,0.43649903194766315,1.437559752238534,-0.16821390236067424,11.98307608618788,-0.5662296646384348,1
341,2024-09-24 12:21:33.658116096,TASK_BEGIN,016,-3.2183271885074136,1.6721037668850518,-6.0532433485706685,0.4444855469029936,1.477525711206832,-0.1641779249131802,11.977664607492363,-0.5365214158977156,1
342,2024-09-24 12:21:33.719662848,TASK_BEGIN,016,-3.1974109759320433,1.658234957311473,-6.031555289741301,0.4587122710984067,1.5296658038224602,-0.16531745135791717,11.952212470920648,-0.49255138724008585,1
343,2024-09-24 12:21:33.781698048,TASK_BEGIN,016,-3.179649996259345,1.6456846991071572,-5.998682163235578,0.4787387982099578,1.5908717485793478,-0.1713221846657142,11.90299439442406,-0.4355009042772104,1
344,2024-09-24 12:21:33.859807232,TASK_BEGIN,016,-3.1645963803151,1.6340753067659326,-5.958906238197602,0.5040409925250195,1.6579274812869305,-0.1816730691420835,11.8261551878084,-0.36707839333681447,1
345,2024-09-24 12:21:33.932252928,TASK_BEGIN,016,-3.151562850485476,1.6229681087438572,-5.9177449640022015,0.5341252280204364,1.7277415247684873,-0.19569396068934952,11.71863444097125,-0.2895339887153641,1
346,2024-09-24 12:21:34.000297216,TASK_BEGIN,016,-3.1397017298499135,1.6118841137792517,-5.881384934526749,0.5685377188736301,1.7974090013962822,-0.21258911574374306,11.578820634542332,-0.20558429326256486,1
347,2024-09-24 12:21:34.918968064,TASK_BEGIN,016,-3.1280524469382693,1.6003244877017022,-5.855933077614617,0.6068029777481319,1.8641944375757455,-0.2314713122079228,11.406883925419445,-0.11825341017798345,1
348,2024-09-24 12:21:34.985061888,TASK_BEGIN,016,-3.1155472061188885,1.5877848548505373,-5.846779397048249,0.6483694815609261,1.925557109065104,-0.2513963944538867,11.205038203530998,-0.030732993923246785,1
349,2024-09-24 12:21:35.046433792,TASK_BEGIN,016,-3.101002447650536,1.573758836750992,-5.858276083077901,0.6926239672641233,1.9792697487510749,-0.27141171070254316,10.977910221222187,0.05367834146519392,1
350,2024-09-24 12:21:35.107348992,TASK_BEGIN,016,-3.0831413735619195,1.5577418896371762,-5.893677543242811,0.7389664943313697,2.0236130463704547,-0.2906127418756295,10.732673296368796,0.13162896121159465,1
351,2024-09-24 12:21:35.186639104,TASK_BEGIN,016,-3.0606609929805844,1.5392490778869246,-5.955107668444419,0.7868803816250405,2.057595063184027,-0.30819778136842546,10.478501146664795,0.19986055825536952,1
352,2024-09-24 12:21:35.247507968,TASK_BEGIN,016,-3.032317283564419,1.5178415304689503,-6.043443718479996,0.8359470623200559,2.0811109505892613,-0.32351285130113744,10.225565215608956,0.2554260633746409,1
353,2024-09-24 12:21:35.325162752,TASK_BEGIN,016,-2.997011324875653,1.4931497920686432,-6.158206737930321,0.8858056442941701,2.09495352023361,-0.33608230789765614,9.98431120377688,0.295863410919361,1
354,2024-09-24 12:21:36.240154112,TASK_BEGIN,016,-2.9538852998867666,1.4648991572788037,-6.297522435690536,0.9360722705831291,2.1006591171527913,-0.3456233826064046,9.765408232523153,0.3192521921943563,1
355,2024-09-24 12:21:36.302642176,TASK_BEGIN,016,-2.9024268308992185,1.432948857416058,-6.458092043062214,0.986233823320578,2.100271214673196,-0.35204698344437696,9.580023038909019,0.32419360893332255,1
356,2024-09-24 12:21:36.379854080,TASK_BEGIN,016,-2.842555753778154,1.3973390029129988,-6.635127095327748,1.0355434326279687,2.0961319201526374,-0.35545237313817657,9.43973069239639,0.30981594993228245,1
357,2024-09-24 12:21:36.442771968,TASK_BEGIN,016,-2.7746712202740227,1.3583266453785303,-6.822323590953793,1.0829549201542008,2.0907534446170244,-0.35612205754626247,9.355656278965649,0.27586812237917374,1
358,2024-09-24 12:21:36.504477952,TASK_BEGIN,016,-2.6996552926726123,1.3164039846138238,-7.012018062189241,1.1271309297530292,2.086737203865795,-0.3545139081330976,9.336978430124958,0.2228688160974512,1
359,2024-09-24 12:21:36.578364928,TASK_BEGIN,016,-2.6188230578705443,1.272300928148102,-7.195610814123859,1.1665400399056962,2.0866706892912497,-0.3512422066314627,9.38932852698605,0.15221203704089994,1
360,2024-09-24 12:21:36.640438016,TASK_BEGIN,016,-2.5337964870685705,1.2269629379767084,-7.36422678394545,1.1996219178439849,2.09296019691711,-0.3470411992828514,9.51371663813926,0.06614863022393012,1
361,2024-09-24 12:21:37.593583872,TASK_BEGIN,016,-2.446318585712078,1.181493507367608,-7.509492470140713,1.2249738797452001,2.1076058082872917,-0.3427077153817529,9.706321258377418,-0.03234336340943135,1
362,2024-09-24 12:21:37.655194112,TASK_BEGIN,016,-2.358088852020126,1.1370776773509246,-7.624247538673995,1.2415019611236469,2.1319613614100468,-0.3390260862494454,9.958955096571591,-0.13971707686772425,1
363,2024-09-24 12:21:37.720824832,TASK_BEGIN,016,-2.2706928960596677,1.0949213294485163,-7.703001469301191,1.2484813410733626,2.166546146383577,-0.33668910349563774,10.259767098206602,-0.25200775831627187,1
364,2024-09-24 12:21:37.794685952,TASK_BEGIN,016,-2.185624193099653,1.0562193597216207,-7.742035481299696,1.2455125496880286,2.2109623698690855,-0.33623071374253755,10.59401517792601,-0.36503700045504167,1
365,2024-09-24 12:21:37.857814016,TASK_BEGIN,016,-2.1043497241399316,1.0221347347804002,-7.739218076448059,1.232423431849544,2.2639124848850316,-0.33797841825291247,10.945036602630818,-0.4747183535157834,1
366,2024-09-24 12:21:37.932719104,TASK_BEGIN,016,-2.0283704442836212,0.9937678899323118,-7.6937151928599805,1.2091879169714732,2.3232750120636383,-0.34203075849765313,11.295375074915631,-0.5773922420103178,1
367,2024-09-24 12:21:37.997033216,TASK_BEGIN,016,-1.9592307682958143,0.9721082728999615,-7.605748741677776,1.1759078760973485,2.386243070737814,-0.3482678258505171,11.627790865529045,-0.670061316971492,1
368,2024-09-24 12:21:38.941391872,TASK_BEGIN,016,-1.8984495684878506,0.9579626403166598,-7.4765051343797015,1.132869965043996,2.449573418872092,-0.35639426430358123,11.926042227869265,-0.7504716543046571,1
369,2024-09-24 12:21:38.997611008,TASK_BEGIN,016,-1.8473937870665467,0.9518609262443142,-7.308236817671002,1.0806467927803518,2.5099315421497557,-0.36599461377629994,12.17563179778237,-0.8170868819915532,1
370,2024-09-24 12:21:39.075719936,TASK_BEGIN,016,-1.8071456545077174,0.9539634141101053,-7.104418667726029,1.0201750945801429,2.564230125179123,-0.37657293509258016,12.36477001102894,-0.8690387043615051,1
371,2024-09-24 12:21:39.137783808,TASK_BEGIN,016,-1.7783902782853511,0.9640088417868118,-6.869735196233434,0.9527628134156673,2.6098935647944526,-0.3875699144282922,12.485576751640572,-0.9061069967944301,1
372,2024-09-24 12:21:39.215040000,TASK_BEGIN,016,-1.7613232927478406,0.9813283136355226,-6.609902037760384,0.8800409983241303,2.6450702184086614,-0.39838042981933625,12.535254108599519,-0.9287411371519624,1
373,2024-09-24 12:21:39.279343872,TASK_BEGIN,016,-1.7556014961503734,1.0049210344641717,-6.331504831821318,0.8039021929523374,2.6687844608146145,-0.4083916689995096,12.516824246538084,-0.9381188341482363,1
374,2024-09-24 12:21:39.350686976,TASK_BEGIN,016,-1.7603865690216995,1.033572644766668,-6.041877357093554,0.726433821991767,2.6809493055167053,-0.4170318221536765,12.439027644413796,-0.9362035316752859,1
375,2024-09-24 12:21:40.279538944,TASK_BEGIN,016,-1.774494368269399,1.0659924030884407,-5.748873017780069,0.6498338584591712,2.682223793131778,-0.42380965103060636,12.315208126461982,-0.9257107842934313,1
376,2024-09-24 12:21:40.361720832,TASK_BEGIN,016,-1.7965999215205204,1.1009413102429546,-5.460502210330154,0.5763168847540058,2.6738120188093677,-0.4283424091572626,12.161527573601717,-0.909927431965341,1
377,2024-09-24 12:21:40.418771968,TASK_BEGIN,016,-1.8254376931517078,1.137330366888645,-5.184570700367726,0.5080267576222904,2.6572932461827623,-0.4303765286463798,11.995188915857646,-0.8924158536865143,1
378,2024-09-24 12:21:40.496471808,TASK_BEGIN,016,-1.8599553358980234,1.174285031686269,-4.928416514307778,0.4469481472637081,2.6344900007163887,-0.42979378487126046,11.833122302365835,-0.8766669733539333,1
379,2024-09-24 12:21:40.559998976,TASK_BEGIN,016,-1.899383085574083,1.211176241635894,-4.698770693377981,0.39481187757049824,2.6073454753237364,-0.4265943730649,11.69111569256344,-0.8657612286353078,1
380,2024-09-24 12:21:40.622535936,TASK_BEGIN,016,-1.9432009049027872,1.2476143252368765,-4.501750893010597,0.3530215649741495,2.5778018470795963,-0.4208667331651803,11.583098920081833,-0.8620964447361743,1
381,2024-09-24 12:21:40.700645120,TASK_BEGIN,016,-1.9910321249723204,1.283411808530659,-4.342881617885046,0.3226207390246203,2.5476880527602646,-0.4127628634955831,11.520362924235675,-0.8672105651451383,1
382,2024-09-24 12:21:41.638136064,TASK_BEGIN,016,-2.042515958996763,1.3185345391097703,-4.226971838259025,0.30428348108048586,2.5186196891619574,-0.4024832770990546,11.510759369829765,-0.8816884868351998,1
383,2024-09-24 12:21:41.709500928,TASK_BEGIN,016,-2.0971991688079923,1.3530550613230734,-4.157876331855627,0.2983176413172279,2.491918317876825,-0.39026523864850826,11.558097115720843,-0.9051496784952934,1
384,2024-09-24 12:21:41.778091776,TASK_BEGIN,016,-2.154470442813829,1.3871073837498775,-4.138289065759409,0.304684581430093,2.4685782697327823,-0.3763769660579173,11.661937567750732,-0.9363306412597969,1
385,2024-09-24 12:21:41.839628800,TASK_BEGIN,016,-2.2135430674047094,1.4208413585525683,-4.1695390374767305,0.3230119164732966,2.4493045113007965,-0.36112487831015877,11.81782536906464,-0.9732518168556755,1
386,2024-09-24 12:21:41.902116864,TASK_BEGIN,016,-2.2734656844560672,1.4543830833964875,-4.251283381314594,0.3525707302456638,2.4346023502768808,-0.34486564342815407,12.017733168967474,-1.0134195588882697,1
387,2024-09-24 12:21:41.983006720,TASK_BEGIN,016,-2.3331366329272982,1.4878056222732177,-4.381188128662431,0.3922423687805701,2.4248585389520128,-0.3280030645853613,12.2504639947726,-1.0540169456974249,1
388,2024-09-24 12:21:42.050847232,TASK_BEGIN,016,-2.391327153669267,1.5211070868835062,-4.554769594892558,0.4405219157397354,2.420358798993759,-0.31096289910107017,12.502070920441627,-1.0920835041774024,1
389,2024-09-24 12:21:42.994042112,TASK_BEGIN,016,-2.44673629569375,1.5541972843705616,-4.7654303223004,0.49555924640105603,2.42124006820395,-0.29415932006413936,12.756497962366812,-1.1247020546495397,1
390,2024-09-24 12:21:43.061885952,TASK_BEGIN,016,-2.4980791423844497,1.5869002095567635,-5.004633988041926,0.5552107358747426,2.4274207044018703,-0.27796847831179866,12.996427947850226,-1.1491843339609529,1
391,2024-09-24 12:21:43.129716992,TASK_BEGIN,016,-2.5441887734567055,1.6189710003032713,-5.262210308194055,0.6171064219561145,2.438546329394578,-0.26271256641271373,13.204298185420512,-1.1632551333754455,1
392,2024-09-24 12:21:43.183248128,TASK_BEGIN,016,-2.5841176547324833,1.6501155833546204,-5.526825184198076,0.6787621002162131,2.453969646731825,-0.2486528479678818,13.363637201352583,-1.1652537779789138,1
393,2024-09-24 12:21:43.260935936,TASK_BEGIN,016,-2.617228694231497,1.6800076263942265,-5.786600918223451,0.737732975109535,2.472786774978172,-0.2359939945701734,13.46072744977632,-1.1543176351692777,1
394,2024-09-24 12:21:43.333035776,TASK_BEGIN,016,-2.643251570635273,1.7083073495628511,-6.029799089791824,0.7917608018211797,2.493947619241808,-0.22490162757239723,13.486201946709748,-1.130471691011368,1
395,2024-09-24 12:21:43.400618240,TASK_BEGIN,016,-2.6622749269414627,1.7346815077855735,-6.245496959318364,0.8388752908041094,2.516414144065312,-0.21552602599747295,13.436087977470486,-1.094605316611835,1
396,2024-09-24 12:21:44.333532928,TASK_BEGIN,016,-2.674676726550257,1.7588168008767162,-6.424247031196741,0.877455820634093,2.539288791415627,-0.2080164512277174,13.312061133236766,-1.0483644603287376,1
397,2024-09-24 12:21:44.411191808,TASK_BEGIN,016,-2.681035748229191,1.7804280348137418,-6.558680509637413,0.9062791531309161,2.5618456844573356,-0.20251495965982713,13.120904617216391,-0.9939627005490264,1
398,2024-09-24 12:21:44.476745984,TASK_BEGIN,016,-2.6820647141974083,1.7992728691911806,-6.643938754408139,0.9245634557884921,2.583498932623832,-0.19913890675289841,12.8732728132558,-0.9339117188680333,1
399,2024-09-24 12:21:44.547525888,TASK_BEGIN,016,-2.678564351205567,1.8151765688127084,-6.677848578818093,0.9320048390695962,2.603807420871053,-0.19797379049042194,12.582035235909752,-0.8707276410117197,1
400,2024-09-24 12:21:44.603153152,TASK_BEGIN,016,-2.671380454462213,1.828054596667751,-6.660872865433366,0.9288014761048511,2.622521353471679,-0.19907893074814484,12.260713229797929,-0.8066992646985616,1
401,2024-09-24 12:21:44.683092992,TASK_BEGIN,016,-2.6613708806941756,1.8379220399181035,-6.595913668871675,0.9156561448846817,2.639579587403703,-0.20248743745145692,11.922442228269663,-0.7437517125297615,1
402,2024-09-24 12:21:44.741938176,TASK_BEGIN,016,-2.649398639836073,1.8448928633541333,-6.488050392288105,0.8937480887723438,2.6550433627432413,-0.2081962945511014,11.579440053712982,-0.683368385480668,1
403,2024-09-24 12:21:45.694195968,TASK_BEGIN,016,-2.6363355827693717,1.849174757403869,-6.3443177518747405,0.8646813866500186,2.669055135017757,-0.21616340487172597,11.242672882644108,-0.6265380464721857,1
404,2024-09-24 12:21:45.761153024,TASK_BEGIN,016,-2.6230448492229494,1.8510546749973245,-6.173551886045211,0.8304236452812824,2.681870199277376,-0.22631880689088607,10.921570262883046,-0.5737459817939012,1
405,2024-09-24 12:21:45.823198976,TASK_BEGIN,016,-2.6103466142511076,1.8508704689205355,-5.9861721120109985,0.7932292533147577,2.69391405944992,-0.23857652387104064,10.623930951544713,-0.525039731656195,1
406,2024-09-24 12:21:45.885212928,TASK_BEGIN,016,-2.599002397444971,1.8489804425611647,-5.793718011809278,0.7555206940664485,2.7057999357523315,-0.25283162625503125,10.356244488680284,-0.48017914889719016,1
407,2024-09-24 12:21:45.965384960,TASK_BEGIN,016,-2.5897178033500126,1.845746333888493,-5.608107518299816,0.719714589877994,2.7182868725101073,-0.2689425026151838,10.124387463419385,-0.43885791057351753,1
408,2024-09-24 12:21:46.025771008,TASK_BEGIN,016,-2.5831209952201695,1.8415258550148805,-5.440792739877059,0.6880314162711136,2.7321966944363147,-0.28671172999961925,9.934191291170729,-0.4009283816772921,1
409,2024-09-24 12:21:46.087688960,TASK_BEGIN,016,-2.579707875452713,1.8366600399944801,-5.302040318890338,0.6623550920898053,2.748298718257832,-0.30587456021181136,9.791315788787884,-0.3665215257106854,1
410,2024-09-24 12:21:47.009063936,TASK_BEGIN,016,-2.579800883659938,1.8314556615625186,-5.200401548014289,0.6441607392941541,2.7671500132016185,-0.32609028034981674,9.70049882538225,-0.3360278665859723,1
411,2024-09-24 12:21:47.087132928,TASK_BEGIN,016,-2.5835456327258917,1.8261737470004153,-5.142304276683936,0.6344796019664434,2.788910369707683,-0.3469319277884264,9.664869056542726,-0.3100270512853886,1
412,2024-09-24 12:21:47.153806848,TASK_BEGIN,016,-2.590911747354209,1.8210216491353364,-5.131765368701067,0.6338872891621691,2.8132181978902486,-0.36788366377235376,9.685804550875746,-0.28925744649330903,1
413,2024-09-24 12:21:47.211591168,TASK_BEGIN,016,-2.6016802422258167,1.8161372101379463,-5.170314903515577,0.6425205853450755,2.839210012298635,-0.38835808272980976,9.76320341575398,-0.2746176273304324,1
414,2024-09-24 12:21:47.290508032,TASK_BEGIN,016,-2.6154508235409453,1.8115691209227924,-5.257149604761953,0.6601032839474237,2.865666083500071,-0.4077314241641329,9.895861572777898,-0.26714543178089023,1
415,2024-09-24 12:21:47.350840064,TASK_BEGIN,016,-2.6316829071783356,1.807270425112067,-5.389437625768625,0.6859632105719379,2.8911995956931147,-0.4253863649833575,10.081768641165704,-0.26794466059360433,1
416,2024-09-24 12:21:47.413616896,TASK_BEGIN,016,-2.6497347450608415,1.803111717980514,-5.562724333560401,0.7190736081285054,2.914431056398752,-0.4407586103623887,10.31803075366288,-0.2780363099379284,1
417,2024-09-24 12:21:48.337714944,TASK_BEGIN,016,-2.668882338422548,1.7989053861119124,-5.771406939227643,0.7581699149765888,2.9341081230353367,-0.4533845788124173,10.600140298900648,-0.29812914485892117,1
418,2024-09-24 12:21:48.411491072,TASK_BEGIN,016,-2.6883492867636423,1.794432232233992,-6.009219485755232,0.8019461010463009,2.9491457259495295,-0.46293986008315435,10.920765302693763,-0.3283621875887278,1
419,2024-09-24 12:21:48.476728064,TASK_BEGIN,016,-2.7073710991756306,1.7894707308607851,-6.269677971570396,0.8492697199577902,2.958626725863254,-0.469259444438262,11.268628029875076,-0.36808262241006645,1
420,2024-09-24 12:21:48.547070976,TASK_BEGIN,016,-2.725261439307611,1.783828536111986,-6.546390795570307,0.8993212650024335,2.961839087850147,-0.47234177232719055,11.628017610843344,-0.41569381254877225,1
421,2024-09-24 12:21:48.614897920,TASK_BEGIN,016,-2.7414289878284417,1.7773645639518458,-6.8330792133829155,0.9515983313808027,2.9583724414551655,-0.4723455591348851,11.979320291622464,-0.46863656285784294,1
422,2024-09-24 12:21:48.677552896,TASK_BEGIN,016,-2.7553479919880957,1.7699905594912042,-7.123298363916453,1.0058014785316969,2.9482265187824157,-0.4695833741134059,12.30071506924554,-0.5235844717185592,1
423,2024-09-24 12:21:48.739572992,TASK_BEGIN,016,-2.7665415672804623,1.761660983227126,-7.410107884990416,1.061660661724972,2.9318755621347132,-0.46450662158498557,12.570664071975179,-0.5768258446464628,1
424,2024-09-24 12:21:49.686710016,TASK_BEGIN,016,-2.7746196971255133,1.7523710369262173,-7.685970693989557,1.1187563662296298,2.910279274846851,-0.45767621197303593,12.770418627236678,-0.6246964070121287,1
425,2024-09-24 12:21:49.749197056,TASK_BEGIN,016,-2.7793597231932563,1.742167559618277,-7.942933773353713,1.1763747343059403,2.884851868449324,-0.4497200953978894,12.885975923058462,-0.6639716003916466,1
426,2024-09-24 12:21:49.825959936,TASK_BEGIN,016,-2.780796118349114,1.7311590368323082,-8.172965920265046,1.233423070841629,2.8573722750722492,-0.4412829418415637,12.909377101790627,-0.6922004873150395,1
427,2024-09-24 12:21:49.893058048,TASK_BEGIN,016,-2.77929220079792,1.7195131239924617,-8.368343114360423,1.2884220236712947,2.829806771004798,-0.4329721462322638,12.839366612196232,-0.7079403389886173,1
428,2024-09-24 12:21:49.950927872,TASK_BEGIN,016,-2.7755653051261957,1.7074459941018003,-8.522047166844358,1.3395812132283944,2.8040438630643933,-0.4253015360171593,12.681392519328904,-0.7108331897326966,1
429,2024-09-24 12:21:50.031214848,TASK_BEGIN,016,-2.7706360526986584,1.695213604666411,-8.628160975492335,1.3849481590393447,2.781585140878252,-0.41863675367041087,12.446992558256353,-0.7015127607048784,1
430,2024-09-24 12:21:50.090426880,TASK_BEGIN,016,-2.7656990858562125,1.6831043528139145,-8.682256508348775,1.4226075340854891,2.7632678266024095,-0.41315160278049556,12.152690645143531,-0.6813768927473509,1
431,2024-09-24 12:21:51.037935104,TASK_BEGIN,016,-2.761963502194204,1.6714264428517032,-8.681827638554187,1.450905812454971,2.749074796451894,-0.4087992633022202,11.818525300604843,-0.6522879284074029,1
432,2024-09-24 12:21:51.100396032,TASK_BEGIN,016,-2.760527972122344,1.6604923434352916,-8.626824690093498,1.4686683319009572,2.7380423073921345,-0.40529424167674094,11.466319065689694,-0.6162797846173467,1
433,2024-09-24 12:21:51.162458112,TASK_BEGIN,016,-2.7623039257924997,1.650608589003676,-8.520210955685313,1.4753697285282683,2.728278388502629,-0.40210902829383516,11.117893186803352,-0.5753409059882946,1
434,2024-09-24 12:21:51.240132096,TASK_BEGIN,016,-2.7679493953795253,1.6420706266534946,-8.368285073628485,1.4712285749587672,2.717122744333991,-0.3985016545824839,10.793540138175644,-0.5313114013253993,1
435,2024-09-24 12:21:51.303097856,TASK_BEGIN,016,-2.7777943971313426,1.6351535306763563,-8.180492905468794,1.457205691158595,2.7014369399218308,-0.3935854098723025,10.510996737714041,-0.48589899093757544,1
436,2024-09-24 12:21:51.380835072,TASK_BEGIN,016,-2.7917869095018446,1.6300945246840035,-7.968659308498321,1.434901677352222,2.6779590535978617,-0.38643528053928994,10.284947140647263,-0.44077294290222113,1
437,2024-09-24 12:21:51.443523072,TASK_BEGIN,016,-2.809496072978881,1.6270767144048666,-7.7458674384906745,1.4063877915938852,2.6436782037705155,-0.3762138857667213,10.126891064269811,-0.39764824327107623,1
438,2024-09-24 12:21:52.392339968,TASK_BEGIN,016,-2.830171650710188,1.6262257297223541,-7.525347093137614,1.3740228143135444,2.59624290715758,-0.36229868615680605,10.04517949044243,-0.35829609841893173,1
439,2024-09-24 12:21:52.460189184,TASK_BEGIN,016,-2.8528295502411076,1.6276164946198002,-7.319597326016289,1.3402812041262977,2.534401787466982,-0.3443946273780447,10.045050135351268,-0.3244897640214008,1
440,2024-09-24 12:21:52.527155968,TASK_BEGIN,016,-2.876346050431437,1.631276928152605,-7.139762754341262,1.3075895372853,2.458375376959792,-0.32261063076222246,10.128414797843087,-0.2979008253652561,1
441,2024-09-24 12:21:52.595709952,TASK_BEGIN,016,-2.8995603792474136,1.6371837272920615,-6.995212407276572,1.2781688895787442,2.3700006846180313,-0.29747232078591235,10.293297205561014,-0.27995015589007083,1
442,2024-09-24 12:21:52.661867008,TASK_BEGIN,016,-2.9213665789186063,1.6452570986260804,-6.893270196603468,1.2538853753059833,2.272580552052853,-0.2698610965813274,10.533350133058422,-0.27168041411233274,1
443,2024-09-24 12:21:52.718777856,TASK_BEGIN,016,-2.9407596030138325,1.6553596072923584,-6.839036701809804,1.2361142410321044,2.1705177835080396,-0.24090396491449512,10.838062292155318,-0.2737298763289754,1
444,2024-09-24 12:21:52.799147008,TASK_BEGIN,016,-2.9568332313971273,1.6672980326116429,-6.835261298661224,1.2256407759801384,2.06886508983051,-0.2118536425422312,11.193754735815325,-0.2863817318031705,1
445,2024-09-24 12:21:53.742394112,TASK_BEGIN,016,-2.968770524754816,1.6808302358868714,-6.8822564396767305,1.222626033712697,1.97288565499021,-0.18398443865911884,11.584971508564436,-0.30959988424264895,1
446,2024-09-24 12:21:53.810233856,TASK_BEGIN,016,-2.9758596019525156,1.695684426447739,-6.977873691774673,1.2266404156401518,1.8876725225129536,-0.15850590787291366,11.995911684035068,-0.34302505007214923,1
447,2024-09-24 12:21:53.866223104,TASK_BEGIN,016,-2.977521449392269,1.7115905139822203,-7.1176018609347675,1.2367524007714255,1.8178321910705493,-0.13648556076587595,12.411811627019043,-0.3859715113233623,1
448,2024-09-24 12:21:53.942953984,TASK_BEGIN,016,-2.973318822890041,1.7283081069190478,-7.294854127102937,1.2516623135462084,1.7672132977824129,-0.11878139167503461,12.820134158720192,-0.4374385847162968,1
449,2024-09-24 12:21:54.004988160,TASK_BEGIN,016,-2.9629494682290636,1.745636836219776,-7.501453311742719,1.2698607777461863,1.7386635241704438,-0.10599422225368595,13.211176861839858,-0.49610802997292613,1
450,2024-09-24 12:21:54.067491072,TASK_BEGIN,016,-2.9462556447853023,1.763414425633608,-7.728256413086498,1.2897775670033493,1.7338130025721377,-0.09844233219014792,13.577855009319986,-0.5603271540511648,1
451,2024-09-24 12:21:54.145598976,TASK_BEGIN,016,-2.9232589626505723,1.781516311537465,-7.965818247980575,1.3099021976183165,1.7529104328921208,-0.09615189244692338,13.914799223153382,-0.6281084378485068,1
452,2024-09-24 12:21:55.088446976,TASK_BEGIN,016,-2.894195302616105,1.7998538918943978,-8.204977196892044,1.328885908849058,1.7947473778465717,-0.09885772911089626,14.217056831037944,-0.6971534663029982,1
453,2024-09-24 12:21:55.150481920,TASK_BEGIN,016,-2.8595254573125923,1.8183542171345395,-8.437266903136527,1.3456319758440907,1.8566770944573827,-0.10601311006672438,14.478843369804805,-0.7649011732887964,1
454,2024-09-24 12:21:55.228201984,TASK_BEGIN,016,-2.8199160395561744,1.8369164684206336,-8.65512704559917,1.359358334838802,1.9347420138481173,-0.11681610485254128,14.693003220062826,-0.8286254306342778,1
455,2024-09-24 12:21:55.295985920,TASK_BEGIN,016,-2.776191812503379,1.8553629065414532,-8.851991451862435,1.3696233571845322,2.0239762317100807,-0.1302696037389413,14.851546817488003,-0.8856121489423522,1
456,2024-09-24 12:21:55.351799040,TASK_BEGIN,016,-2.729253666333724,1.8734021327023607,-9.022386841998747,1.3763319271884003,2.1189100523965965,-0.14528112116427977,14.94700702772654,-0.9334294240964381,1
457,2024-09-24 12:21:55.430045952,TASK_BEGIN,016,-2.679961081746102,1.8906039277682416,-9.162070669522398,1.3797294120819936,2.214159342657318,-0.1607802322569949,14.974096969143721,-0.9702603263638858,1
458,2024-09-24 12:21:55.492076032,TASK_BEGIN,016,-2.6290069312271003,1.9063798919193091,-9.268099137447901,1.3803650734852482,2.3049168710888113,-0.17582064667818909,14.93113281730825,-0.9951834427733712,1
459,2024-09-24 12:21:56.431730944,TASK_BEGIN,016,-2.576828300331335,1.9199769883797388,-9.338765765952543,1.3790223662672085,2.387266967590231,-0.18965436945253591,14.8206324132651,-1.0082589833852624,1
460,2024-09-24 12:21:56.509799168,TASK_BEGIN,016,-2.5235704089022435,1.930495081485898,-9.373495389611797,1.376646946761732,2.4583826319338553,-0.20178966159398365,14.648827604277159,-1.010383202452052,1
461,2024-09-24 12:21:56.577163008,TASK_BEGIN,016,-2.4690943700119714,1.9369306532626493,-9.372807169368652,1.3742934413168233,2.5166615050735968,-0.21204045314176162,14.424510634396784,-1.002994493848331,1
462,2024-09-24 12:21:56.645904128,TASK_BEGIN,016,-2.4130307467995937,1.9382491090170146,-9.338358124846804,1.373066983321095,2.561746744407575,-0.22054866098078005,14.157961220009764,-0.9877502047516892,1
463,2024-09-24 12:21:56.704705024,TASK_BEGIN,016,-2.3548855398927397,1.9334961861581956,-9.27294856603308,1.3740134829959856,2.5943700349395,-0.22775528283176938,13.860396538711802,-0.9662761051700145,1
464,2024-09-24 12:21:56.781724160,TASK_BEGIN,016,-2.294173611679557,1.9219510059590952,-9.180338900572417,1.37794688896432,2.6160839180015096,-0.23432638937439018,13.543774162847821,-0.9400264565874072,1
465,2024-09-24 12:21:56.839360000,TASK_BEGIN,016,-2.2305401547054484,1.9033001916805095,-9.064864909243852,1.3852659060226697,2.6290098161193316,-0.24106145880183683,13.220421097881877,-0.910210045697784,1
466,2024-09-24 12:21:57.752889856,TASK_BEGIN,016,-2.16385581107742,1.8777979418447166,-8.931012962248428,1.3958370852216064,2.6356453516643903,-0.24879608470638825,12.902224613985277,-0.8777416160458719,1
467,2024-09-24 12:21:57.830131200,TASK_BEGIN,016,-2.0942899260302137,1.8463762651214428,-8.78309993302975,1.4089663174003555,2.6387084264978635,-0.2582980571351535,12.599631032736616,-0.8432506934669013,1
468,2024-09-24 12:21:57.904075008,TASK_BEGIN,016,-2.0223688738766623,1.8106732555055827,-8.62503949047234,1.4234155982610435,2.6410022459225777,-0.2701722581385544,12.320811011741295,-0.8071763104046942,1
469,2024-09-24 12:21:57.968719872,TASK_BEGIN,016,-1.9490255570493742,1.772957301665375,-8.460125672737842,1.437440063465463,2.6452765903027005,-0.28480110417453697,12.071097748999948,-0.7698869679443484,1
470,2024-09-24 12:21:58.031328768,TASK_BEGIN,016,-1.8756300151026508,1.7359465908080403,-8.290835258784428,1.4488785151639592,2.654041797178141,-0.3023292397462146,11.85274616337056,-0.7317408508528037,1
471,2024-09-24 12:21:58.107518720,TASK_BEGIN,016,-1.8039756047558915,1.7025499455584754,-8.118669574384352,1.4553298270910917,2.6693327362718158,-0.3226801007121853,11.665234830046836,-0.6930887258229639,1
472,2024-09-24 12:21:58.172000000,TASK_BEGIN,016,-1.7362110346306057,1.6755763997041306,-7.94407116928938,1.4544064028632155,2.692481582304945,-0.3455874409472368,11.50623260102803,-0.65428954877346,1
473,2024-09-24 12:21:59.093980928,TASK_BEGIN,016,-1.6747310010718954,1.6574692031544405,-7.7665510936445346,1.44403508189602,2.7239670125526203,-0.37062786859603647,11.372967300566438,-0.6157700532707683,1
474,2024-09-24 12:21:59.155255040,TASK_BEGIN,016,-1.6220300529305338,1.650108002626717,-7.585164286442624,1.4227607147036245,2.763384180784362,-0.39724987270790235,11.26352513108491,-0.5780949042015756,1
475,2024-09-24 12:21:59.217317120,TASK_BEGIN,016,-1.580506245456205,1.6546912853399902,-7.39925154482778,1.3899851814741424,2.809558134651059,-0.4248119069642452,11.177672750783842,-0.5420158235010463,1
476,2024-09-24 12:21:59.297446144,TASK_BEGIN,016,-1.5522177698415673,1.6716817385084206,-7.209188423463797,1.3460837634442409,2.860786384168035,-0.4526456052169766,11.116969426093977,-0.508493421284208,1
477,2024-09-24 12:21:59.356492032,TASK_BEGIN,016,-1.53863437971385,1.7007947778070691,-7.016964687298828,1.2923891504300165,2.9151521462761694,-0.48013830003971414,11.084193701356213,-0.4786754815984774,1
478,2024-09-24 12:21:59.418044160,TASK_BEGIN,016,-1.540430730081568,1.741026098158209,-6.826555364114046,1.2310719964321846,2.970829253465306,-0.5068079606196216,11.082348551145477,-0.4538232525249647,1
479,2024-09-24 12:21:59.500770048,TASK_BEGIN,016,-1.557347606818753,1.7907207123196376,-6.643992815829235,1.164941349171594,3.0263009357504567,-0.5323478587543,11.113636028524457,-0.43522935726559775,1
480,2024-09-24 12:22:00.438790912,TASK_BEGIN,016,-1.5881526681081022,1.8476833761843512,-6.476981838435594,1.0971723971986698,3.0804396949429487,-0.5566352829717385,11.1788376262472,-0.42418780156174263,1
481,2024-09-24 12:22:00.509093120,TASK_BEGIN,016,-1.6307402515893248,1.909332616524296,-6.334061020081996,1.0309927650238297,3.1324607567612563,-0.5797105160084204,11.27736213765218,-0.4220268273923145,1
482,2024-09-24 12:22:00.573652992,TASK_BEGIN,016,-1.682359577244541,1.972897909112397,-6.22352483333565,0.9693896007465654,3.1818231371868055,-0.6017394682390085,11.407739654662993,-0.4301484464369054,1
483,2024-09-24 12:22:00.647545088,TASK_BEGIN,016,-1.73989422194062,2.0356378950671106,-6.15233129157567,0.9148789176387965,3.2281405723229595,-0.6229746535873097,11.567969589124335,-0.44997154488418806,1
484,2024-09-24 12:22:00.713827840,TASK_BEGIN,016,-1.8001191267921521,2.095037474395215,-6.125140836060812,0.8693352129334544,3.2711156197457503,-0.6437207167314819,11.755409202222198,-0.4827095936417445,1
485,2024-09-24 12:22:00.775822080,TASK_BEGIN,016,-1.8599182996849573,2.1489527787804836,-6.143626563827285,0.833873606517357,3.3105043475151255,-0.6643007307881332,11.966560033340686,-0.52905640023628,1
486,2024-09-24 12:22:00.851011840,TASK_BEGIN,016,-1.916474922501086,2.19570400268468,-6.206187194189979,0.8088018201895434,3.346135119645061,-0.6850187635539797,12.197257804110366,-0.5889496596010391,1
487,2024-09-24 12:22:01.780011008,TASK_BEGIN,016,-1.967431348103632,2.234130464402336,-6.308075255759386,0.7936626774636141,3.3779920565648385,-0.7061228381912774,12.443202958688653,-0.661497430939336,1
488,2024-09-24 12:22:01.857211136,TASK_BEGIN,016,-2.011011929994597,2.2636129129969804,-6.441834566926834,0.7873557088062147,3.40633556070089,-0.7277782188350114,12.70032537336776,-0.7450145921779384,1
489,2024-09-24 12:22:01.918821120,TASK_BEGIN,016,-2.0461200313411405,2.2840603426436386,-6.597980847819591,0.788302091319027,3.431793396204409,-0.7500527695137335,12.964739917067554,-0.8371040238660737,1
490,2024-09-24 12:22:01.997562880,TASK_BEGIN,016,-2.072415994455838,2.2958652169201166,-6.765935246848136,0.7946232546989351,3.455353814307659,-0.7729064784800145,13.23255096348888,-0.9347950770007853,1
491,2024-09-24 12:22:02.057101056,TASK_BEGIN,016,-2.090345350761814,2.2998363350590045,-6.935132025409888,0.8043184324489878,3.4782296829827,-0.7961827778392684,13.499749374746486,-1.0347668117901134,1
492,2024-09-24 12:22:02.133135872,TASK_BEGIN,016,-2.101074687804013,2.297112208411321,-7.096045913078288,0.8154260452847731,3.501608434633166,-0.8196099034542584,13.76208625541279,-1.1336130850407,1
493,2024-09-24 12:22:02.196564992,TASK_BEGIN,016,-2.106333055546241,2.2890536493874603,-7.24086391368107,0.8261429070779737,3.5263692869301706,-0.842823279339166,14.014757208793705,-1.2280667816566802,1
494,2024-09-24 12:22:03.143819008,TASK_BEGIN,016,-2.108198921163578,2.277124931476605,-7.3637557594716645,0.8348945836853492,3.5529009970786465,-0.8654131544799991,14.251934180862309,-1.3151344193818433,1
495,2024-09-24 12:22:03.206305792,TASK_BEGIN,016,-2.108880171221549,2.2627870750980508,-7.4609501204655775,0.8403928628979012,3.5810972092049496,-0.886984596924225,14.46633971690451,-1.3921426452661907,1
496,2024-09-24 12:22:03.274872064,TASK_BEGIN,016,-2.110523050409725,2.2474231206954784,-7.530816883045209,0.8417092779243055,3.6104868550778444,-0.9072047720585235,14.649114093488171,-1.4567354328841915,1
497,2024-09-24 12:22:03.347662848,TASK_BEGIN,016,-2.1150678235353078,2.2322935607027654,-7.573960361670291,0.8383422828838705,3.6404027514098165,-0.9258232672480559,14.790040852026092,-1.5068723746101533,1
498,2024-09-24 12:22:03.408403968,TASK_BEGIN,016,-2.124152835225093,2.218506561542533,-7.593181534604615,0.8302398438386892,3.67011355042898,-0.9426693611635821,14.878002361559478,-1.5408550780910444,1
499,2024-09-24 12:22:03.471098880,TASK_BEGIN,016,-2.1390614656881692,2.206996037771964,-7.593145854842029,0.8177635482852418,3.698886939529602,-0.957633138707312,14.901706765160592,-1.5573781168376075,1
500,2024-09-24 12:22:03.551067136,TASK_BEGIN,016,-2.160692672362462,2.198510682396359,-7.5797046388098375,0.8016033485114559,3.7259959857052376,-0.9706351370001967,14.850805742156346,-1.5555700653042464,1
501,2024-09-24 12:22:04.482440960,TASK_BEGIN,016,-2.1895299418539653,2.19361264705802,-7.559021147914697,0.7826743700522893,3.7507014937705163,-0.9815945617110894,14.717110799071863,-1.5349664957784281,1
502,2024-09-24 12:22:04.554636032,TASK_BEGIN,016,-2.2256192364753002,2.192679471878633,-7.5367699857743,0.7620388267640197,3.772224793659773,-0.9904069063847478,14.495354091330768,-1.495399672359917,1
503,2024-09-24 12:22:04.617372928,TASK_BEGIN,016,-2.2685964997934684,2.1959082366341267,-7.517602465654313,0.7408699329169237,3.7897119725301773,-0.9969319215543595,14.183338941266271,-1.4368784265523447,1
504,2024-09-24 12:22:04.695785216,TASK_BEGIN,016,-2.3177724634831547,2.2033273801649975,-7.504934200870646,0.7204382061376765,3.802205251236507,-1.0009861921454797,13.781871467057337,-1.3595476726629827,1
505,2024-09-24 12:22:04.765527040,TASK_BEGIN,016,-2.372235844450005,2.2148191113931963,-7.501063471179477,0.702100266887125,3.8086366064539012,-1.002337957882324,13.294913353048432,-1.26375191783345,1
506,2024-09-24 12:22:04.818883072,TASK_BEGIN,016,-2.430937531185112,2.2301456977632266,-7.507590398649778,0.6872916760856499,3.807848744115688,-1.0007110766042342,12.730046942141179,-1.1501870511519683,1
507,2024-09-24 12:22:04.901167104,TASK_BEGIN,016,-2.4927528029188997,2.2489704147206493,-7.525953231950166,0.6775218961689711,3.7986724977089055,-0.9958120610513994,12.099071129147118,-1.0201178372303314,1
508,2024-09-24 12:22:05.844368896,TASK_BEGIN,016,-2.5565377858282057,2.2708752815533972,-7.55776863756978,0.6743465541443471,3.780094368013194,-0.9873851691463388,11.418455605796813,-0.8755963232842541,1
509,2024-09-24 12:22:05.908498944,TASK_BEGIN,016,-2.621174208820056,2.295382987285565,-7.604780201391634,0.6792935957876572,3.7514791545373973,-0.9752790762544822,10.709283757763734,-0.7195708665661188,1
510,2024-09-24 12:22:05.970627840,TASK_BEGIN,016,-2.6855700766450763,2.3219779025708664,-7.668497841330741,0.6937477344239725,3.7127472883088397,-0.9594992758713891,9.996263679633618,-0.5558042850719321,1
511,2024-09-24 12:22:06.037341184,TASK_BEGIN,016,-2.7486155869877966,2.3501141299299446,-7.74975829844836,0.71881342712137,3.6644175223953384,-0.9402287200254307,9.305629567494215,-0.38860254750127415,1
512,2024-09-24 12:22:06.111630848,TASK_BEGIN,016,-2.8091530707908436,2.379211814857913,-7.848341343673072,0.7551635877316383,3.607495832346322,-0.9178101822412742,8.662252041408227,-0.22241483321606634,1
513,2024-09-24 12:22:06.173186048,TASK_BEGIN,016,-2.8660096597171028,2.4086562190219043,-7.962621819609166,0.8028686586006434,3.5432787834070907,-0.8926948898999794,8.086703037586943,-0.06138886452945549,1
514,2024-09-24 12:22:06.235694848,TASK_BEGIN,016,-2.918068825915064,2.4378088225289463,-8.08924178606201,0.8612219319376334,3.473172908487567,-0.8653770822947917,7.593171033679494,0.09099933535627892,1
515,2024-09-24 12:22:07.179274240,TASK_BEGIN,016,-2.964327383816326,2.4660233881568185,-8.222903242026607,0.9286157686425736,3.398574702986973,-0.8363415235253479,7.188867943443337,0.23210451943823596,1
516,2024-09-24 12:22:07.259475200,TASK_BEGIN,016,-3.0039226203347384,2.4926534452483846,-8.356448956033477,1.0025376671137796,3.3207937562011196,-0.806038910341707,6.874888275584386,0.36001667142595617,1
517,2024-09-24 12:22:07.320003840,TASK_BEGIN,016,-3.0361480273420267,2.5170509530573018,-8.481375960756429,1.079728878954853,3.241000158608262,-0.7748843431003063,6.647878072757148,0.4733133466376912,1
518,2024-09-24 12:22:07.382492160,TASK_BEGIN,016,-3.060467649186767,2.5385699622544164,-8.588788928304155,1.1564952163944968,3.160196540044123,-0.7432659279968844,6.501885548704266,0.5707977096507229,1
519,2024-09-24 12:22:07.460529152,TASK_BEGIN,016,-3.0765186972240577,2.5565819399845937,-8.670593603931007,1.2291156102652772,3.0792292378365747,-0.711555229505262,6.430079262245106,0.6512940297706641,1
520,2024-09-24 12:22:07.525191168,TASK_BEGIN,016,-3.0840991350092692,2.5704958023039888,-8.72063310251922,1.2942792186490375,2.998862138356539,-0.680117539374748,6.426057344319503,0.7135415866251453,1
521,2024-09-24 12:22:07.584877056,TASK_BEGIN,016,-3.0831644940784595,2.5797804983229473,-8.73551250128867,1.3494703101479129,2.9199064636292484,-0.6493208666519535,6.48441330096038,0.7562453840850383,1
522,2024-09-24 12:22:08.518563072,TASK_BEGIN,016,-3.073860903011262,2.583997666234375,-8.71491754949934,1.3932037474584786,2.843339378836676,-0.6195391938503961,6.600491814577519,0.7783189842875059,1
523,2024-09-24 12:22:08.582179840,TASK_BEGIN,016,-3.056586582928303,2.5828420203957085,-8.661342392819074,1.4250430988067715,2.7703306543637227,-0.5911452273309529,6.769647378327633,0.7792671371864164,1
524,2024-09-24 12:22:08.644184064,TASK_BEGIN,016,-3.0320448009008247,2.5761734796781024,-8.579387720282392,1.4454259455374296,2.702145906561208,-0.5644931510446328,6.986404839006475,0.7595638273994552,1
525,2024-09-24 12:22:08.721314816,TASK_BEGIN,016,-3.001253991427299,2.564032502334087,-8.474980874073657,1.4553994063505322,2.639951150850599,-0.5398936617279508,7.243786009666047,0.7208626918644717,1
526,2024-09-24 12:22:08.782993920,TASK_BEGIN,016,-2.9654949606444045,2.5466423966299265,-8.354741432811428,1.4563657070426217,2.5845925948946653,-0.5175817754684433,7.532928908150602,0.6659639600287035,1
527,2024-09-24 12:22:08.857624064,TASK_BEGIN,016,-2.9261982948050926,2.5243987967012154,-8.225474246196022,1.4498913782590026,2.5364611579061087,-0.4976840800441173,7.843015749771661,0.5985842485054936,1
528,2024-09-24 12:22:08.922952960,TASK_BEGIN,016,-2.884818498186099,2.497844792181933,-8.09379276950474,1.4376015685952317,2.495513744640898,-0.4801993134091783,8.161456068394928,0.5230219763215166,1
529,2024-09-24 12:22:09.860281088,TASK_BEGIN,016,-2.8427576550297817,2.4676427293646936,-7.966018861661043,1.4211594702039818,2.46141398347989,-0.4649982479093878,8.474320495481523,0.44378551320644477,1
530,2024-09-24 12:22:09.936457984,TASK_BEGIN,016,-2.8013482091920756,2.4345559580677274,-7.8483950490371805,1.4023021513738594,2.4336827988737535,-0.4518354247568432,8.76715455023813,0.36524153590906666,1
531,2024-09-24 12:22:10.000337920,TASK_BEGIN,016,-2.761844747407061,2.39943499834299,-7.7473591434525995,1.3828709199281888,2.411781154861286,-0.4403649951953803,9.02624539759312,0.2913496789926535,1
532,2024-09-24 12:22:10.072057088,TASK_BEGIN,016,-2.725386700869256,2.3631911120558846,-7.6695612957107135,1.3647698605687528,2.3951182954088326,-0.43015937668883886,9.240134484651232,0.22550445900490199,1
533,2024-09-24 12:22:10.124434176,TASK_BEGIN,016,-2.692947544415283,2.3267540795108523,-7.6215278874056045,1.3498405639765616,2.3830162694697448,-0.4207298299405014,9.40107026707141,0.17042446252618432,1
534,2024-09-24 12:22:10.202540032,TASK_BEGIN,016,-2.6653060896814127,2.2910296212442667,-7.609107481039538,1.3397103358886973,2.3746842441973257,-0.41154954971424845,9.50623579281964,0.1280052914759932,1
535,2024-09-24 12:22:10.264556032,TASK_BEGIN,016,-2.643053292392403,2.2568706411682,-7.636896936846301,1.3356840146503288,2.3692654045994916,-0.40208832538620565,9.558596049545347,0.09910696575443896,1
536,2024-09-24 12:22:11.185468928,TASK_BEGIN,016,-2.6266240201639612,2.225059906399943,-7.707792724847833,1.3387054495593693,2.365964333543424,-0.3918698119406576,9.567024094101722,0.08334285076177464,1
537,2024-09-24 12:22:11.247569152,TASK_BEGIN,016,-2.616338340033963,2.1962944315095605,-7.822714087612762,1.3493665782642252,2.3641762824899937,-0.38054572093977024,9.54532862105631,0.07901757935153168,1
538,2024-09-24 12:22:11.325678336,TASK_BEGIN,016,-2.6124390004019378,2.171171535613821,-7.9805000659411265,1.3679347143091147,2.3635334184824965,-0.36795984160713974,9.510163610035843,0.08332853753253713,1
539,2024-09-24 12:22:11.387324928,TASK_BEGIN,016,-2.6151039641919414,2.1501825826942875,-8.178028400434378,1.394399428389717,2.3638825791670186,-0.3541778972045739,9.4782966394887,0.09280708936892573,1
540,2024-09-24 12:22:11.464808192,TASK_BEGIN,016,-2.624413074923331,2.133710959008401,-8.41055624429498,1.4285459681022676,2.3652945282587408,-0.3394853469110099,9.46394849680534,0.10386681697826228,1
541,2024-09-24 12:22:11.532638976,TASK_BEGIN,016,-2.6402865850153163,2.1220259017746708,-8.672114026542292,1.4700187963068565,2.3681484592449222,-0.3243668745788418,9.47684235495636,0.1133121512826415,1
542,2024-09-24 12:22:11.598355968,TASK_BEGIN,016,-2.6624494980647118,2.1152754620211036,-8.955790543191872,1.5183277923987273,2.373192177796027,-0.309465454002542,9.52133158718929,0.11870711120346222,1
543,2024-09-24 12:22:12.531539968,TASK_BEGIN,016,-2.69044529088748,2.113488210328614,-9.253928792558002,1.57280261537956,2.3814512774504184,-0.2955103101713059,9.596604575089534,0.11856954029826548,1
544,2024-09-24 12:22:12.611527936,TASK_BEGIN,016,-2.7236717735686495,2.1165817577340453,-9.558287358895829,1.632535614880447,2.39400406538757,-0.2832223962160383,9.697637187373015,0.11241207971979346,1
545,2024-09-24 12:22:12.673523968,TASK_BEGIN,016,-2.7614223668958986,2.1243682986993373,-9.860162635477469,1.6963410078294474,2.4117545330294257,-0.27322339811427954,9.816448632653975,0.10067374885662114,1
546,2024-09-24 12:22:12.747088896,TASK_BEGIN,016,-2.8029495435316245,2.136557007714221,-10.150550498585506,1.7627468561111366,2.4352807991480496,-0.26596569870292935,9.943301062470418,0.08457547519270091,1
547,2024-09-24 12:22:12.813465088,TASK_BEGIN,016,-2.847547582723248,2.15276395647578,-10.420458817282917,1.8300299016440713,2.4647330134022445,-0.261686087243549,10.067608150713362,0.06591538880923116,1
548,2024-09-24 12:22:12.875493120,TASK_BEGIN,016,-2.8946095218182046,2.172534578297104,-10.661289838093936,1.8962798203939173,2.499754817533805,-0.26038643593401967,10.178549535236955,0.04680474215660463,1
549,2024-09-24 12:22:12.937548032,TASK_BEGIN,016,-2.9436250320524104,2.1953686375608554,-10.865137800056837,1.9594673583006248,2.539453742317013,-0.26185024731458173,10.265706213998866,0.029343915391217754,1
550,2024-09-24 12:22:13.882283008,TASK_BEGIN,016,-2.9941432802535064,2.220736929009029,-11.025056524263322,2.017514781541545,2.5824436934714368,-0.2656957145981862,10.320004528099478,0.01528793773936245,1
551,2024-09-24 12:22:13.960790016,TASK_BEGIN,016,-3.045742006177951,2.24809486961356,-11.135447486562656,2.0683890081816463,2.6269534665761203,-0.2714470611798378,10.334811025385699,0.00581594260063033,1
552,2024-09-24 12:22:14.022861056,TASK_BEGIN,016,-3.097998712612594,2.276902889446245,-11.192522193681295,2.110219795714258,2.670983489041686,-0.2785999388871338,10.3066967371733,0.001504266210985274,1
553,2024-09-24 12:22:14.097332992,TASK_BEGIN,016,-3.1504321690488997,2.3066476537385965,-11.194653790165273,2.1414204028135417,2.7124808728036514,-0.2866696910066655,10.23556246344699,0.0024987782515907575,1
554,2024-09-24 12:22:14.162674688,TASK_BEGIN,016,-3.202416209472565,2.336849453440667,-11.142557354097889,2.160797438895504,2.749509977717827,-0.2952267173258911,10.124243024337343,0.008764956651435283,1
555,2024-09-24 12:22:14.224805120,TASK_BEGIN,016,-3.2531139146078307,2.3670568668564815,-11.039378194269116,2.1676554526725993,2.780432472260758,-0.30392780395205926,9.97786828848078,0.020260346434889272,1
556,2024-09-24 12:22:14.287291904,TASK_BEGIN,016,-3.3014823162075215,2.3968462247716036,-10.89070402265594,2.1618963369109045,2.8041034902098954,-0.3125418244994197,9.803123456655392,0.036958524418217197,1
557,2024-09-24 12:22:15.237930240,TASK_BEGIN,016,-3.346351849195665,2.4258342220289775,-10.704386905591491,2.1440926663005304,2.8200285561941905,-0.3209548322737833,9.607511634057314,0.05876745961682531,1
558,2024-09-24 12:22:15.299985920,TASK_BEGIN,016,-3.386541835297585,2.4536930518202658,-10.490112991442563,2.1155059192121626,2.8284087842306267,-0.32914457216213583,9.398797870595565,0.08541739362045839,1
559,2024-09-24 12:22:15.379523840,TASK_BEGIN,016,-3.42098182302806,2.480159492137313,-10.25887357602895,2.078037003096604,2.8300694402922577,-0.3371350480345923,9.18474138724414,0.11635964665524641,1
560,2024-09-24 12:22:15.439238144,TASK_BEGIN,016,-3.448839862046563,2.5050458079136466,-10.022531531080599,2.0341094315044512,2.826341290509011,-0.3449552794408099,8.972992325756739,0.1507132662482199,1
561,2024-09-24 12:22:15.501399808,TASK_BEGIN,016,-3.4696497608473864,2.5282593249424767,-9.793394040163813,1.9864809560602301,2.8189565535686114,-0.35261961566154626,8.770866135677013,0.18731412553174207,1
562,2024-09-24 12:22:15.576803072,TASK_BEGIN,016,-3.4833963218982156,2.5498167847202327,-9.583502092547977,1.937992259014162,2.8099463386203682,-0.3601281250826594,8.58479781553689,0.22487762607044576,1
563,2024-09-24 12:22:15.639288832,TASK_BEGIN,016,-3.490523450083757,2.569833586508788,-9.403596662655445,1.8912974972729033,2.8014864959352703,-0.3674747252894321,8.4195585352522,0.26220454910849844,1
564,2024-09-24 12:22:16.593995008,TASK_BEGIN,016,-3.4918649619051205,2.5884906737815534,-9.262113954200599,1.84863678380137,2.7956749546193325,-0.37465293322119064,8.277558611279563,0.2983203156029493,1
565,2024-09-24 12:22:16.661860864,TASK_BEGIN,016,-3.4885148308851566,2.605999584655269,-9.16456045582835,1.811682904253056,2.7942683266891453,-0.3816522467340822,8.15861424173347,0.33246504530319076,1
566,2024-09-24 12:22:16.715220992,TASK_BEGIN,016,-3.481658796753989,2.6225749212863843,-9.113279964071939,1.7814611509710592,2.7984060877655628,-0.38843966082269266,8.060365101485747,0.36394917168953,1
567,2024-09-24 12:22:16.792424704,TASK_BEGIN,016,-3.4724070637838906,2.6384093046382704,-9.107469936001959,1.7583429353347166,2.808345950405503,-0.3949286545834354,7.9791890810415,0.39200055010735413,1
568,2024-09-24 12:22:16.865190912,TASK_BEGIN,016,-3.4616833683120345,2.6536541233656834,-9.143443382212768,1.742123014407586,2.8232805077115852,-0.4009506230591171,7.911277086258838,0.4157245048957756,1
569,2024-09-24 12:22:16.932110080,TASK_BEGIN,016,-3.4502015683845992,2.6684174931612574,-9.215180713045173,1.7321654561060829,2.8413537121214127,-0.40624941065602255,7.8535955751134745,0.4341728356843803,1
570,2024-09-24 12:22:16.993613056,TASK_BEGIN,016,-3.4385029973229906,2.682775452206396,-9.315055722021393,1.7275720258453493,2.859929506438472,-0.4105097851438095,7.804547137637851,0.44643225326249886,1
571,2024-09-24 12:22:17.932176896,TASK_BEGIN,016,-3.4270023573028374,2.6967779254329556,-9.434534260782334,1.727332129132227,2.876007696768647,-0.41341031996881056,7.764205563350789,0.45167528510611743,1
572,2024-09-24 12:22:18.011956992,TASK_BEGIN,016,-3.41602093897032,2.7104424850497013,-9.564755974262535,1.7304429835663788,2.886618863332307,-0.4146791506100944,7.7341556649826355,0.4491822657645236,1
573,2024-09-24 12:22:18.071476992,TASK_BEGIN,016,-3.4058095639147727,2.7237441159294784,-9.697025030071247,1.735999142348468,2.8891239996889704,-0.4141381748995111,7.717125720624754,0.43837079024275666,1
574,2024-09-24 12:22:18.133483776,TASK_BEGIN,016,-3.3965479978009654,2.736603125750408,-9.823244981041023,1.7432417623863103,2.881438094508698,-0.41173393733581526,7.7165890005830535,0.4188616601884259,1
575,2024-09-24 12:22:18.211108864,TASK_BEGIN,016,-3.388306571189629,2.7488648535403892,-9.936337497733032,1.7515696436022938,2.8621905307496,-0.40755544245940306,7.7363564074342985,0.3905693356823873,1
576,2024-09-24 12:22:18.283170048,TASK_BEGIN,016,-3.3809960834720862,2.760276445203858,-10.03066812019846,1.7605365545252643,2.8308048790433156,-0.40183309532692263,7.780193750080158,0.35375416221347533,1
577,2024-09-24 12:22:18.335851008,TASK_BEGIN,016,-3.374356593906678,2.77047906704382,-10.102378016585241,1.7698506621693408,2.787494162074126,-0.39491515139072136,7.851654000892053,0.30898100821268687,1
578,2024-09-24 12:22:19.256176128,TASK_BEGIN,016,-3.368005307062743,2.7790234265161464,-10.149460870427909,1.779373572751073,2.733201950752303,-0.3872316306755399,7.954176656519414,0.2569964217418301,1
579,2024-09-24 12:22:19.334428928,TASK_BEGIN,016,-3.36152726935066,2.7853967474733703,-10.171573297703194,1.7891187735572776,2.6695191528442117,-0.3792583315663838,8.091136693656445,0.1985965580555769,1
580,2024-09-24 12:22:19.397357056,TASK_BEGIN,016,-3.354594063591373,2.789050181152096,-10.169719937981037,1.7992430127572652,2.598567741400089,-0.3714783194758059,8.265433244496899,0.13458308532337723,1
581,2024-09-24 12:22:19.459353088,TASK_BEGIN,016,-3.347098261533302,2.7894328054351076,-10.145958905952487,1.8100105832862543,2.522835645595209,-0.36433187773577214,8.478499649370644,0.06587519836855066,1
582,2024-09-24 12:22:19.539858176,TASK_BEGIN,016,-3.339261844921503,2.786041038301881,-10.103242445497507,1.8217332583509092,2.4449903841911427,-0.3581611519420085,8.728943988773922,-0.00624969834076193,1
583,2024-09-24 12:22:19.604892160,TASK_BEGIN,016,-3.3316548230322907,2.7784747792822766,-10.04545985152058,1.8347259278017822,2.3677198277861558,-0.35316959906296264,9.01114028978379,-0.07990312358873544,1
