,time,MARKER,pid,L_O_DSI,L_D_DSI,L_O_DSphi,L_D_DSphi,R_O_DSI,R_D_DSI,R_O_DSphi,R_D_DSphi,trial_id
0,2024-09-24 12:20:29.204401152,0,016,0.9992211531321534,-0.0738884181980516,-0.0007935375466562855,0.060332023017496475,1.2381466279785245,0.20897365841455237,5.045276628840788,-1.4234899586651557,1
1,2024-09-24 12:20:29.265947904,0,016,0.9790810241136941,-0.059252796940469594,1.2489564044444128,-0.013502968675178861,1.0979203038296002,0.24877724551552866,4.1637844429131095,-1.2677498962481988,1
2,2024-09-24 12:20:29.340007936,0,016,0.9603268996657407,-0.04538506782955869,2.456164680537061,-0.08433283730669879,0.9623271164731615,0.28770020516820277,3.3126209469956067,-1.1206122994060457,1
3,2024-09-24 12:20:29.407824896,0,016,0.9435535776639248,-0.032928248354323175,3.5846215752806447,-0.1505494486071341,0.8339909970343209,0.3249707405651433,2.513398821456949,-0.9878453713897081,1
4,2024-09-24 12:20:29.475622912,0,016,0.9290600805310906,-0.022427551534503466,4.605113272978868,-0.21106452143698706,0.715382191000999,0.35990611581713616,1.7863649732834839,-0.8744847288835768,1
5,2024-09-24 12:20:30.414468096,0,016,0.9168317987245945,-0.014303285109359272,5.496899205834393,-0.26533658188914144,0.60874242841876,0.3919443472360577,1.1496436907945375,-0.7846326555508651,1
6,2024-09-24 12:20:30.476955904,0,016,0.9065892734953821,-0.00883655506853783,6.247924006167832,-0.3132698548114573,0.5159870780497361,0.4206554752564892,0.6185098092479877,-0.7213187043789111,1
7,2024-09-24 12:20:30.553939968,0,016,0.8978745396177708,-0.006169251974938956,6.854175382155494,-0.3550498935513088,0.4386058264116095,0.44573325938026753,0.2048432840057785,-0.6864009629203118,1
8,2024-09-24 12:20:30.620873984,0,016,0.8901545605741854,-0.006319228665467635,7.318496740882218,-0.3909581828616198,0.37754710296902544,0.46698356640764155,-0.08323012424224005,-0.6805062141451529,1
9,2024-09-24 12:20:30.690069760,0,016,0.8829308152700374,-0.009204453442530194,7.649121265557174,-0.42120253991399065,0.3330616272532895,0.48432855628272437,-0.2415331628698961,-0.7030378651130371,1
10,2024-09-24 12:20:30.742372096,0,016,0.875837893187988,-0.014667253023924865,7.858235584940013,-0.44582175487866316,0.30452759887826614,0.4978314603007974,-0.26972449908496365,-0.7522941780574107,1
11,2024-09-24 12:20:30.822318080,0,016,0.8686976574215682,-0.022491835044575432,7.960786682806007,-0.4647042461093705,0.2903296881544182,0.5077271401742633,-0.1707582371410181,-0.8257039676826997,1
12,2024-09-24 12:20:31.729568000,0,016,0.8614979392547758,-0.03240882044719228,7.973545827166416,-0.4776999603076616,0.2878543699807717,0.514436990523481,0.0497464565042887,-0.9200911163166077,1
13,2024-09-24 12:20:31.808075008,0,016,0.8543044076718996,-0.04408452624585968,7.914357959446517,-0.48477734055542876,0.29362920058764613,0.5185533510728175,0.38367469451300285,-1.031838817080283,1
14,2024-09-24 12:20:31.878938112,0,016,0.8471553182991091,-0.05710523001398505,7.801544951668235,-0.48619519357126956,0.30361659413577236,0.5207891594491548,0.8200868714124432,-1.156939498365436,1
15,2024-09-24 12:20:31.938200832,0,016,0.8399770771999424,-0.07097291252415613,7.653427048570522,-0.4826573085244377,0.31364250445840847,0.5218998102208093,1.344851491515378,-1.2910412925045935,1
16,2024-09-24 12:20:32.014439936,0,016,0.8325246049802064,-0.08511738349775183,7.487849829412095,-0.47538741826238573,0.31988446018358313,0.5225905706839382,1.940522968302469,-1.4295659016084794,1
17,2024-09-24 12:20:32.071391232,0,016,0.8243576430313849,-0.09891880377406785,7.321592460256506,-0.46607397107460846,0.31930308677573976,0.5234255453164764,2.586380683295408,-1.5678700263605623,1
18,2024-09-24 12:20:32.149679872,0,016,0.814879277438167,-0.1117411149857563,7.1696522909055584,-0.45670183682488874,0.30991129299086195,0.5247615404181417,3.2585739002652363,-1.7013898036550779,1
19,2024-09-24 12:20:33.093341184,0,016,0.803432249281789,-0.12298246933253836,7.044528404869588,-0.44933418660821167,0.2908412033612289,0.5267312871452156,3.9305446538138553,-1.8257234735171575,1
20,2024-09-24 12:20:33.157675008,0,016,0.789413747199107,-0.1321361478054616,6.95562495731626,-0.44588767117467926,0.2622571367032951,0.5292790136764778,4.573969335281408,-1.9366570577757958,1
21,2024-09-24 12:20:33.219718912,0,016,0.7723797317267422,-0.13884300985365383,6.908834898752059,-0.4479061301842828,0.22520891878540228,0.532223937052029,5.160286702568926,-2.0302095977864414,1
22,2024-09-24 12:20:33.282545920,0,016,0.7521322237056532,-0.14292345648814386,6.9063625677285865,-0.45634234467685636,0.181489365315447,0.5353231214231572,5.662535748269219,-2.1027680493185033,1
23,2024-09-24 12:20:33.360160256,0,016,0.728783280151758,-0.1443894833937,6.946829524849275,-0.47139360575649436,0.13349328621467904,0.5383221580926528,6.057049309859456,-2.151292278091978,1
24,2024-09-24 12:20:33.432350208,0,016,0.7027878013809246,-0.14343693646065642,7.025602566652859,-0.4924452576549819,0.08404046688617933,0.5409955296634495,6.324766382742432,-2.1735258663534576,1
25,2024-09-24 12:20:33.499802112,0,016,0.67494490281941,-0.14041338477452742,7.135198897358058,-0.5181333766516762,0.03613233743405383,0.5431790787840277,6.452132576757387,-2.1681631974319284,1
26,2024-09-24 12:20:34.432286976,0,016,0.6463680692415862,-0.13576324436939777,7.265713806178012,-0.5464944430476203,-0.0073655644419905655,0.5447943875786021,6.4315230277655475,-2.134941815933222,1
27,2024-09-24 12:20:34.511336192,0,016,0.6184170871272406,-0.12995945711100515,7.405365696721558,-0.5751660420187641,-0.04407536205288565,0.5458615125193624,6.261280724408686,-2.074691975724934,1
28,2024-09-24 12:20:34.567429888,0,016,0.5925859811251788,-0.12342713114322704,7.541224014334203,-0.60161041981423,-0.0723875247929309,0.5464894785158342,5.945718982521634,-1.9894234355271643,1
29,2024-09-24 12:20:34.644565248,0,016,0.5703539540403324,-0.11646176343207515,7.660076437424424,-0.6233380592479085,-0.09157964767035506,0.5468359486686748,5.495205414657417,-1.882431691592493,1
30,2024-09-24 12:20:34.707489024,0,016,0.5530202769083613,-0.10915486908780767,7.74941335149209,-0.6381267580042463,-0.10180679378940265,0.5470458388800218,4.926049175692399,-1.7582945816787396,1
31,2024-09-24 12:20:34.769977088,0,016,0.5415530550720307,-0.1013464161445816,7.798526948733963,-0.6442419217735867,-0.10405802458011981,0.5471874552628349,4.259974138514416,-1.6226905592831122,1
32,2024-09-24 12:20:34.850681856,0,016,0.5364808172277101,-0.09261390202734367,7.799582398940391,-0.6406422581191549,-0.10006983331608237,0.5471872164008714,3.5232329129898816,-1.4820864328992107,1
33,2024-09-24 12:20:35.765198080,0,016,0.5378437776767228,-0.08229764929904827,7.74840211666008,-0.6271290082199023,-0.09211466213745614,0.5467530361061118,2.7454641142594687,-1.3433532665836452,1
34,2024-09-24 12:20:35.834708992,0,016,0.5452052228325868,-0.06955885812852959,7.644825005865144,-0.6044044103704378,-0.08268569451446357,0.5452974341368556,1.9583137099601262,-1.2133315841868204,1
35,2024-09-24 12:20:35.890149120,0,016,0.5577080659670678,-0.053460324354760454,7.492735069037227,-0.5740360329791183,-0.07421094097847052,0.5418941039626084,1.193890801602773,-1.098377190789145,1
36,2024-09-24 12:20:35.968257792,0,016,0.574164481471175,-0.03305582218451206,7.299866523818319,-0.5383334474439765,-0.06889341086083695,0.5352931951175369,0.4832080472441974,-1.0039367680782703,1
37,2024-09-24 12:20:36.030302976,0,016,0.5931905683466883,-0.007485827682763384,7.077253492454743,-0.5001307875976747,-0.0686668111072424,0.5239919262381281,-0.1453694417474076,-0.9341736069999271,1
38,2024-09-24 12:20:36.093298944,0,016,0.6133892799999113,0.02391485091175668,6.838129067052128,-0.46248222150297563,-0.07521059935226966,0.506338752731019,-0.6677314306073715,-0.8916661538294284,1
39,2024-09-24 12:20:36.176519936,0,016,0.633532112040073,0.06150718651124671,6.596452017132727,-0.4283259549026529,-0.08999921590140347,0.4806544990434269,-1.0655133110822879,-0.8772741112655574,1
40,2024-09-24 12:20:37.117131776,0,016,0.6526782722626541,0.10525883408567593,6.365623094939552,-0.400203331948714,-0.11438313198054566,0.44536656195116764,-1.3271229282560606,-0.8902517778100579,1
41,2024-09-24 12:20:37.181899776,0,016,0.670218236479301,0.1546872945001471,6.157805558010671,-0.3800979738527966,-0.14966909985917914,0.3991522159279353,-1.4481936994332671,-0.9285308182329669,1
42,2024-09-24 12:20:37.240308992,0,016,0.6858576857005143,0.20883251474797646,5.983763489486944,-0.3694004516658209,-0.19714901397384268,0.34108060729027023,-1.4315951072413455,-0.9890082332398221,1
43,2024-09-24 12:20:37.322610176,0,016,0.6995519052038073,0.2662586366768842,5.85283016010778,-0.368944448421787,-0.25806083293727133,0.27074235719890016,-1.2870303201000999,-1.067775527087376,1
44,2024-09-24 12:20:37.390363904,0,016,0.7113973209469404,0.32509118326102954,5.772650192960175,-0.3790408515357741,-0.3334868317970449,0.18835460173907195,-1.0301314767464147,-1.1603453367499648,1
45,2024-09-24 12:20:37.456329216,0,016,0.7214822828034108,0.3830977079995928,5.7485641804478425,-0.3994696051737406,-0.4241850418886103,0.09482625437740008,-0.6810431405150003,-1.261920207805065,1
46,2024-09-24 12:20:37.523595264,0,016,0.7297024445143276,0.43781466920051204,5.7828317816893025,-0.42944246774562905,-0.5303623641634627,-0.00822883100010636,-0.2625522723441838,-1.3676787894784976,1
47,2024-09-24 12:20:38.458755072,0,016,0.7355870483580362,0.48670548076955844,5.874078551093842,-0.46757622778347147,-0.6514343675998167,-0.11853510841490855,0.20207754715031,-1.4730510758202664,1
48,2024-09-24 12:20:38.537065984,0,016,0.7382123540224408,0.5273278178558816,6.017200828866637,-0.5119063750591475,-0.785851579422515,-0.2332511959601166,0.6911082944877868,-1.5739774919121243,1
49,2024-09-24 12:20:38.597299968,0,016,0.7362280269990474,0.5575159051217646,6.203705855440023,-0.5599571453166872,-0.9310815634376862,-0.3491113614451511,1.1855768526473442,-1.6671208912815878,1
50,2024-09-24 12:20:38.658173952,0,016,0.7279540867672982,0.575598082704339,6.422383067941385,-0.6088755796890282,-1.0837794679494717,-0.46260553218975486,1.6696263031589402,-1.749978031835652,1
51,2024-09-24 12:20:38.737497088,0,016,0.7115219656674517,0.5806230950720864,6.660196810332695,-0.6556156667621417,-1.2400809079474786,-0.570183027980479,2.1302925998581532,-1.8208720031886616,1
52,2024-09-24 12:20:38.797409792,0,016,0.6850764443888389,0.5725187490474454,6.903246811204457,-0.6971372004145934,-1.3959078217590224,-0.6684557813797825,2.557152307389803,-1.878847247021523,1
53,2024-09-24 12:20:38.875173120,0,016,0.6470235851582439,0.5521265745128829,7.137677252031168,-0.7305929544894482,-1.547227352531573,-0.754381262248952,2.9419453401392266,-1.923492939041447,1
54,2024-09-24 12:20:39.818304000,0,016,0.5962648241123196,0.5211092359648163,7.350532917833934,-0.7535023500387971,-1.6902679583955393,-0.8254189639920129,3.278239173684273,-1.954744860149791,1
55,2024-09-24 12:20:39.886152192,0,016,0.5323802820881083,0.48175232252914085,7.530594227334877,-0.7639136064994593,-1.821702280350903,-0.8796636883271453,3.561370037542774,-1.972768608616171,1
56,2024-09-24 12:20:39.948935168,0,016,0.45574718722525986,0.4366945438214496,7.669130764932344,-0.7605406748343208,-1.9387899666742168,-0.9159558699462534,3.788786884792528,-1.977985603312197,1
57,2024-09-24 12:20:40.011420928,0,016,0.36755977457591993,0.3886436849855722,7.760390206282322,-0.7428520536992873,-2.0394923693674665,-0.9339512624160736,3.9604652476581195,-1.971154796915555,1
58,2024-09-24 12:20:40.088708096,0,016,0.2697257946595236,0.34014153615330334,7.801633882375865,-0.7110965699082707,-2.1225887644207546,-0.9341202476780036,4.078805469002605,-1.9533624617857888,1
59,2024-09-24 12:20:40.150704128,0,016,0.16466353184207125,0.29341281839822436,7.7927684277176015,-0.6662705951030229,-2.1877881674372373,-0.9176670085279371,4.147842484802259,-1.9258983435312516,1
60,2024-09-24 12:20:40.212727040,0,016,0.055054190059726976,0.2502991514477024,7.735899841774022,-0.6100438126946323,-2.23577495870305,-0.8863918107152897,4.172260072634061,-1.890129050639491,1
61,2024-09-24 12:20:41.168389888,0,016,-0.0563946677089158,0.21226074204255918,7.635091423161727,-0.5446590067877514,-2.2681229960899967,-0.8425261328789451,4.156738600506754,-1.847435406574881,1
62,2024-09-24 12:20:41.236241152,0,016,-0.16713545623938744,0.18041981331721937,7.496330757254459,-0.47282110882604206,-2.287069876524642,-0.7885566690726378,4.105640521605625,-1.7991686431104592,1
63,2024-09-24 12:20:41.304018176,0,016,-0.27490740256908625,0.15562013304996675,7.327556483017934,-0.3975886568835144,-2.2952028237547792,-0.7270519157788886,4.0228797092212165,-1.7465953484031964,1
64,2024-09-24 12:20:41.356830976,0,016,-0.3778187826186723,0.13848943072018038,7.138599669295937,-0.32226648311950223,-2.2951309841318506,-0.6605122431289714,3.912103739744212,-1.6908900778745113,1
65,2024-09-24 12:20:41.434501888,0,016,-0.47440015872837776,0.12949964142688788,6.940903823051122,-0.2502908294626478,-2.2892043300528346,-0.5912623312545591,3.777300737864694,-1.6332431485859196,1
66,2024-09-24 12:20:41.496556032,0,016,-0.563633286081571,0.12901410603087146,6.74692430352343,-0.18510009129916122,-2.2793090953883675,-0.5213933189244818,3.623618340148921,-1.5750737743650056,1
67,2024-09-24 12:20:41.562168064,0,016,-0.6449553705074182,0.13730936833476232,6.56922836917011,-0.1299788047112956,-2.2667616441662233,-0.4527465700774752,3.458101019128326,-1.518259388343717,1
68,2024-09-24 12:20:42.491924992,0,016,-0.7182349170654757,0.15456999554993597,6.419431749494965,-0.08786875783145964,-2.252316866733276,-0.38692102191024147,3.290180734113887,-1.4652782619926041,1
69,2024-09-24 12:20:42.559129856,0,016,-0.7837115403349116,0.18086144246828936,6.307167109831854,-0.06117365058819162,-2.2362577918747153,-0.32529430035401935,3.131768473859449,-1.4192131978843476,1
70,2024-09-24 12:20:42.623623936,0,016,-0.8419058583962793,0.216085497148058,6.239295257736673,-0.05159859959863043,-2.2185030702612685,-0.2690589020881886,2.99677181179814,-1.3836093835940155,1
71,2024-09-24 12:20:42.686109184,0,016,-0.8935239909716127,0.25992592724899555,6.219495289751937,-0.0600370152893125,-2.198717376792591,-0.2192659094630289,2.90003201794113,-1.3621942801362261,1
72,2024-09-24 12:20:42.748176896,0,016,-0.9393658352776453,0.3117934604812147,6.248220583429094,-0.08649046944050379,-2.176450518005355,-0.176856245470454,2.855938315404314,-1.3584851610308308,1
73,2024-09-24 12:20:42.830990848,0,016,-0.9802274785269958,0.3707758239598632,6.3228811374945595,-0.1300173626439704,-2.1513073434399304,-0.1426658036153833,2.877035210995951,-1.3753283813698962,1
74,2024-09-24 12:20:42.886919936,0,016,-1.0168121630093152,0.4356028946893632,6.438064113017284,-0.18872107810951672,-2.1231270385322327,-0.11740521482929514,2.9727571683826404,-1.4144272067316979,1
75,2024-09-24 12:20:43.841985792,0,016,-1.0496810916368788,0.5046459241135405,6.585670806143577,-0.25978151106031727,-2.092161330764978,-0.10162144549615042,3.148297968226765,-1.4759397037206206,1
76,2024-09-24 12:20:43.909758976,0,016,-1.0792487419848698,0.5759673473667959,6.755036337712476,-0.33953952741762206,-2.059252103403682,-0.09564841715634921,3.403704566825953,-1.558238006375376,1
77,2024-09-24 12:20:43.977552896,0,016,-1.1058169469867114,0.647428669797587,6.9332638592781395,-0.42367048005473457,-2.025984436701535,-0.09955461930347158,3.73339624921795,-1.6578830590027431,1
78,2024-09-24 12:20:44.037509120,0,016,-1.129655626091778,0.7168524185532178,7.105964851223365,-0.5074708235591452,-1.9947451709981148,-0.11309813151736692,4.1261919110367495,-1.769810292013221,1
79,2024-09-24 12:20:44.099538944,0,016,-1.1511187561840852,0.7822094756232534,7.258399441745328,-0.5862233869858144,-1.968621443386471,-0.13569899186933723,4.56567077936153,-1.8876779921711377,1
80,2024-09-24 12:20:44.177646080,0,016,-1.1707554302265821,0.8417827517493348,7.376872868623353,-0.655574957294005,-1.95114626092068,-0.16643407637392305,5.030739607241142,-2.004321661013396,1
81,2024-09-24 12:20:44.248711168,0,016,-1.1893846970947513,0.894272833794196,7.450207386671948,-0.7118752120742129,-1.9459610170736177,-0.2040565098584723,5.496596368656378,-2.1122706075991977,1
82,2024-09-24 12:20:45.181756160,0,016,-1.2081206637473196,0.9388465527271471,7.471030061575453,-0.7524437527239745,-1.956470288802439,-0.2470418491302408,5.936299781580231,-2.204281421443744,1
83,2024-09-24 12:20:45.258920960,0,016,-1.2283399671709054,0.9751492735287774,7.4365335395362155,-0.7757417967737823,-1.9855366024462264,-0.2936592481833495,6.322893919610024,-2.273848691232548,1
84,2024-09-24 12:20:45.320487936,0,016,-1.2515960156228438,1.003301025058989,7.348492848066923,-0.7814406178353922,-2.035237502062373,-0.3420582948667462,6.631874764173967,-2.3156759409348693,1
85,2024-09-24 12:20:45.395920896,0,016,-1.2794928374209185,1.0238895774207644,7.212617414619767,-0.7703867058378864,-2.106701679736982,-0.39036198666865,6.84357851059349,-2.326064888979422,1
86,2024-09-24 12:20:45.460160000,0,016,-1.3135244771576362,1.0379618085653879,7.0374985555238325,-0.7444597546524654,-2.200034723951908,-0.4367620665458192,6.9448307652869286,-2.3031386482158562,1
87,2024-09-24 12:20:45.531538176,0,016,-1.354898596289086,1.0469978427825155,6.833413033171288,-0.7063281417496869,-2.3143144168708942,-0.47961282408753053,6.929424598931167,-2.246864589073236,1
88,2024-09-24 12:20:45.589056000,0,016,-1.4043969358427075,1.0528458105251473,6.611241860703293,-0.6591365790918167,-2.4476196933967906,-0.5175122807406585,6.797632753402819,-2.15895026864917,1
89,2024-09-24 12:20:46.542516224,0,016,-1.4623174913062142,1.0576062221986693,6.381762390494511,-0.6061911157239013,-2.5970979223919453,-0.5493547407165782,6.555286209969534,-2.0427115397971614,1
90,2024-09-24 12:20:46.610362112,0,016,-1.5284867388202734,1.063469970774235,6.15538484337983,-0.5507051439950784,-2.759118796805963,-0.5743432268849477,6.212765720630924,-1.902933412629731,1
91,2024-09-24 12:20:46.666464000,0,016,-1.6023041486011502,1.072525028110813,5.942085829283749,-0.4956264647983858,-2.9295348437928777,-0.5919646631247387,5.784049247598502,-1.745674691650704,1
92,2024-09-24 12:20:46.743696128,0,016,-1.6828082193513954,1.0865577993130575,5.751175325327755,-0.44351693425392213,-3.10400120304923,-0.6019425608362023,5.285915683863468,-1.5779693337809948,1
93,2024-09-24 12:20:46.805296896,0,016,-1.768761701474425,1.106879706519025,5.5907502309820005,-0.3964430963328486,-3.2782808969869,-0.6041790035675942,4.737250620597041,-1.4074031421592272,1
94,2024-09-24 12:20:46.866885120,0,016,-1.8587263759961743,1.134200228829176,5.466975583975055,-0.35586414283815365,-3.448476360566223,-0.5986919549346172,4.158225326598672,-1.2415791963383551,1
95,2024-09-24 12:20:46.944866048,0,016,-1.9511045661924191,1.1685537318463823,5.383428561374639,-0.3225462371741765,-3.6111576725326238,-0.5855594816739645,3.5692835077531675,-1.0875492578738128,1
96,2024-09-24 12:20:47.866132992,0,016,-2.0441738206303,1.2092824983363035,5.340666255627544,-0.2965400069856368,-3.7634083536379004,-0.5648861552896312,2.9902257654932556,-0.9513308564468205,1
97,2024-09-24 12:20:47.928162048,0,016,-2.1361587177597245,1.2550819627193448,5.336114924775162,-0.27723066043588424,-3.9028389741544127,-0.5368003976168049,2.4397233975608175,-0.8375985537228822,1
98,2024-09-24 12:20:47.990231808,0,016,-2.225345102434256,1.304113752371095,5.364346749774744,-0.2634566510833352,-4.027588225882891,-0.5014874226211294,1.9352362080539238,-0.7495622452317399,1
99,2024-09-24 12:20:48.069200896,0,016,-2.3102001093541498,1.3541786887824008,5.41768762720812,-0.25368544955208927,-4.136309972070062,-0.4592556445819426,1.4930142875667844,-0.6889929629817084,1
100,2024-09-24 12:20:48.131686912,0,016,-2.389457994343715,1.4029256177586782,5.4869899966628655,-0.24621724589545269,-4.228168769130202,-0.41061555265578015,1.12788532289074,-0.6563465797401035,1
101,2024-09-24 12:20:48.208385024,0,016,-2.462156205826099,1.448069437919363,5.562478607077797,-0.23939013236597603,-4.302853879934543,-0.3563451143076135,0.8526125760040634,-0.6509237026863224,1
102,2024-09-24 12:20:48.271418880,0,016,-2.52762278512092,1.487597130529123,5.63466040362372,-0.23177453593826375,-4.360573195901279,-0.2975388662524403,0.6767136903684591,-0.6709959555477603,1
103,2024-09-24 12:20:49.216883712,0,016,-2.5854203026870812,1.5199414280376142,5.695198672868349,-0.22233802771586775,-4.402011114645105,-0.23565016817178133,0.6049613257058966,-0.7138821253690162,1
104,2024-09-24 12:20:49.279369216,0,016,-2.635271878562308,1.5441058022698986,5.7375352809524145,-0.210549869040443,-4.428309434443214,-0.17251361674663393,0.6360958686650762,-0.7760317667007294,1
105,2024-09-24 12:20:49.354605056,0,016,-2.6770162897078236,1.5597360255071897,5.75712718611,-0.19640542860489085,-4.4411219235741655,-0.11031414349319191,0.7622512554957052,-0.8531773792821551,1
106,2024-09-24 12:20:49.422384896,0,016,-2.710620260705001,1.567142125136284,5.7513950056897505,-0.18037646877028882,-4.44269535968598,-0.05148427383267396,0.9693636328877182,-0.9405629605729245,1
107,2024-09-24 12:20:49.480199936,0,016,-2.7362394351587667,1.5672782684184525,5.7195477733294995,-0.16330267085308717,-4.435878209822554,0.0014590362224651487,1.238552905877331,-1.0332234331791748,1
108,2024-09-24 12:20:49.554774016,0,016,-2.7543036705386106,1.5616863468242006,5.662306238123192,-0.1462350015123865,-4.424012068393972,0.04611142881311086,1.5481607092670913,-1.1262905786440363,1
109,2024-09-24 12:20:49.625808896,0,016,-2.765595736313136,1.552395846337593,5.581517183167057,-0.130257273024183,-4.410733156019952,0.08038171650157508,1.8759019128186034,-1.2152899450685146,1
110,2024-09-24 12:20:50.554041088,0,016,-2.7712841770173307,1.541761835275699,5.479750383178254,-0.11633511110355206,-4.3997176816104036,0.1026655846346196,2.200618855537054,-1.2963742871196506,1
111,2024-09-24 12:20:50.631760896,0,016,-2.7728743625027747,1.5322372288323212,5.359965975222003,-0.10523123780214076,-4.394380624580355,0.11197498305075233,2.5034664792254717,-1.366465575889382,1
112,2024-09-24 12:20:50.699318016,0,016,-2.772064871473082,1.5261072230439745,5.225286854133923,-0.09749413445910367,-4.397544446348716,0.10802642002236304,2.7686531151561087,-1.42331688069778,1
113,2024-09-24 12:20:50.770961920,0,016,-2.7705366697258644,1.5252337531366917,5.078924168372703,-0.0935037399552706,-4.411117595883512,0.09129546946845159,2.9838398082002104,-1.465497097925937,1
114,2024-09-24 12:20:50.832914176,0,016,-2.7697443119829934,1.5308554542301316,4.924282142809688,-0.09353908217324057,-4.435832249642624,0.06303165166127171,3.1402454723393216,-1.4922933550418043,1
115,2024-09-24 12:20:50.894913792,0,016,-2.7707869797964073,1.5434759844757446,4.765154730099583,-0.09781940475291803,-4.471079415093701,0.025218137814049153,3.232619074792474,-1.5035725442454513,1
116,2024-09-24 12:20:50.975913984,0,016,-2.774388393672801,1.562856528455114,4.605843005375612,-0.1064889803064527,-4.514845264630559,-0.019540828062046014,3.259322301075959,-1.499694374728835,1
117,2024-09-24 12:20:51.919565824,0,016,-2.7809417326338695,1.5881028993447457,4.451078650259692,-0.11956248765105017,-4.563741553907057,-0.0682140877912487,3.2226511298742566,-1.4815501413758152,1
118,2024-09-24 12:20:51.987407872,0,016,-2.7905517251159537,1.6178160974716485,4.305791768481522,-0.13687543587487216,-4.613173232582763,-0.11760031068448065,3.12923064288078,-1.4507092701101456,1
119,2024-09-24 12:20:52.039693056,0,016,-2.803053330124512,1.6502760908819873,4.174826675229094,-0.1580621711844074,-4.657714518052724,-0.16459664428684445,2.990073823870633,-1.409554645365081,1
120,2024-09-24 12:20:52.117381120,0,016,-2.818038370695211,1.6836406714131065,4.062604318564554,-0.18254095847447696,-4.691689599156345,-0.2064294776940341,2.8199964599792033,-1.361271019355162,1
121,2024-09-24 12:20:52.179443968,0,016,-2.8349161836102343,1.7161405494878252,3.9726826345065542,-0.20948681380690093,-4.709848008931634,-0.24082507879015858,2.6364347028048294,-1.309643063492201,1
122,2024-09-24 12:20:52.257113088,0,016,-2.852994396809562,1.746242804738223,3.9073162378888973,-0.23782397479748701,-4.707985145656692,-0.26611969603195296,2.457926203605359,-1.258724010822864,1
123,2024-09-24 12:20:52.319136000,0,016,-2.8715404328677145,1.7727559482818784,3.8671854632534037,-0.2662848487277376,-4.683385287060038,-0.2813154565773786,2.3024794779779234,-1.2124583180697988,1
124,2024-09-24 12:20:53.239572992,0,016,-2.8897954620493507,1.7948651286455377,3.851312651054325,-0.29352406242179907,-4.63502478320321,-0.2860853817669929,2.1859999272868924,-1.1743174237047345,1
125,2024-09-24 12:20:53.299534080,0,016,-2.9069560937523,1.812108528596429,3.8571037195346647,-0.31823372832829744,-4.5635292387605,-0.28072828792340615,2.121000509679294,-1.1470149535317178,1
126,2024-09-24 12:20:53.379812864,0,016,-2.922165012494455,1.8243217992674519,3.880540387391002,-0.3392379246646669,-4.470902728957343,-0.2660839437984327,2.1158425418788807,-1.1323779420528988,1
127,2024-09-24 12:20:53.439909888,0,016,-2.934524745267579,1.8315734225693028,3.916546453300276,-0.3555807228695964,-4.360082950840443,-0.2434293499241166,2.174556585731371,-1.131393327145482,1
128,2024-09-24 12:20:53.500881920,0,016,-2.943118313559973,1.8340995776312188,3.9594592586785446,-0.3666104581831397,-4.234441436204836,-0.21437018509850994,2.29708118476021,-1.1443692293652452,1
129,2024-09-24 12:20:53.569606912,0,016,-2.947033487999485,1.8322435281216034,4.0035691999715,-0.37204809839274955,-4.097344505236413,-0.1807295674747592,2.4797345169637968,-1.171123490719953,1
130,2024-09-24 12:20:53.645659904,0,016,-2.9454119824410663,1.8264101932615964,4.043737553942552,-0.37203096545958253,-3.9518046145154817,-0.1444387000877653,2.7157005155828067,-1.2111154029295037,1
131,2024-09-24 12:20:54.582168832,0,016,-2.937532399425792,1.817042071508047,4.076001717911493,-0.36712295494816327,-3.8002293919268744,-0.10743850032560272,2.995233822428929,-1.2634502051400567,1
132,2024-09-24 12:20:54.660708864,0,016,-2.9228934709083263,1.8046073757927776,4.098016861616401,-0.35828734877910673,-3.6443326223664267,-0.07158967898713182,3.305451029787151,-1.3267357385954792,1
133,2024-09-24 12:20:54.723856896,0,016,-2.901250548036987,1.7895848358730941,4.109255103631762,-0.34682757322695473,-3.4852488138421442,-0.038579243367578515,3.6299671964674913,-1.3988520317058146,1
134,2024-09-24 12:20:54.786341888,0,016,-2.8726018266097553,1.7724386938894237,4.110892232049115,-0.33429049382610204,-3.3237833987877745,-0.009826568273443219,3.9489964972519793,-1.4767760863355681,1
135,2024-09-24 12:20:54.863969024,0,016,-2.8371700164320526,1.7535899525935597,4.105292478574384,-0.32231310145564135,-3.1606843115900793,0.013591273138741899,4.240561846654507,-1.5566218496361535,1
136,2024-09-24 12:20:54.925494784,0,016,-2.7954195321286157,1.7333961183544861,4.095155465586554,-0.312413980266762,-2.996850484931347,0.030982553422994448,4.482879606279447,-1.633947164767422,1
137,2024-09-24 12:20:54.987524864,0,016,-2.7480996667778506,1.712147767217795,4.08261027611161,-0.30577671413127167,-2.8334175838956126,0.04205201643556268,4.65716538277705,-1.7042256192459748,1
138,2024-09-24 12:20:55.931718144,0,016,-2.696274768667782,1.6900801547769961,4.068593931125219,-0.3030958859769817,-2.671705214445962,0.04688079623024912,4.749879997660459,-1.7633330357700419,1
139,2024-09-24 12:20:56.009339136,0,016,-2.641325867749681,1.667394140440346,4.0526932036706835,-0.30452897466331974,-2.5130921737944156,0.04587937712565075,4.753910237951832,-1.8079572345827641,1
140,2024-09-24 12:20:56.079257088,0,016,-2.584933881555384,1.6442823704329053,4.03336714511002,-0.30974555650827396,-2.3589284139273734,0.03972733298299032,4.66873582675468,-1.8359003152468556,1
141,2024-09-24 12:20:56.133019136,0,016,-2.5290310646387457,1.620950980700579,4.008329112794449,-0.3180386462754705,-2.210548255203811,0.029314791712752565,4.499886113289752,-1.8462566134456488,1
142,2024-09-24 12:20:56.214906880,0,016,-2.4756784128633798,1.5976208816416801,3.974977051614361,-0.32846510646857846,-2.069359241620167,0.015689907489775837,4.258029347326536,-1.8394512443448676,1
143,2024-09-24 12:20:56.272563968,0,016,-2.4268542264283153,1.57450385020947,3.9308764356092403,-0.33997519978230617,-1.9369198888949222,6.1616181761890276e-06,3.9580570697880773,-1.8171668105385286,1
144,2024-09-24 12:20:56.349937920,0,016,-2.3841977047576908,1.5517673437135608,3.8742216992987712,-0.3514815937946928,-1.8149371387301791,-0.01653761020360315,3.618388354693226,-1.7822225927798026,1
145,2024-09-24 12:20:57.293339136,0,016,-2.348783193014083,1.5295053233367903,3.8041364602891052,-0.36185452195907797,-1.7051850429424211,-0.03276488193328626,3.2603236682728807,-1.7384221144917018,1
146,2024-09-24 12:20:57.351123968,0,016,-2.320996334229522,1.507725418358663,3.720773202005745,-0.3698995613488493,-1.6093966593422002,-0.047588579368984495,2.9070674347150467,-1.6903239220530963,1
147,2024-09-24 12:20:57.428276992,0,016,-2.300551149246041,1.4863607008218052,3.625294837643189,-0.37439600480460494,-1.5291730712238392,-0.060064632150996757,2.582253763352315,-1.6429061284887694,1
148,2024-09-24 12:20:57.489795840,0,016,-2.2866323427241264,1.4653094610689081,3.5198496769174623,-0.3742194202915886,-1.4659123927303055,-0.06942445635606091,2.308177180697351,-1.6011487772835076,1
149,2024-09-24 12:20:57.564631808,0,016,-2.2781086220409934,1.4444931393551288,3.4075499908503346,-0.3684999028861886,-1.420726621657485,-0.07509220008078601,2.1041705103809045,-1.569595126694068,1
150,2024-09-24 12:20:57.625771008,0,016,-2.273769386994295,1.4239172960091073,3.2923121197550116,-0.35674074423079694,-1.394319274473564,-0.07669630600732481,1.985427966293839,-1.5519486699093339,1
151,2024-09-24 12:20:57.688256000,0,016,-2.272555597822421,1.4037283796234439,3.1784641699293545,-0.33885493092843905,-1.3868551647975265,-0.07407326820140898,1.9621900168274369,-1.5507338726022366,1
152,2024-09-24 12:20:58.611448064,0,016,-2.2737550197688057,1.3842633580541885,3.0702124870293837,-0.31512091228485845,-1.39789907697762,-0.06725378876670235,2.039137697947583,-1.5670511439413328,1
153,2024-09-24 12:20:58.673467136,0,016,-2.277131576242237,1.3660835400750428,2.9710547058720436,-0.2860757220874461,-1.4264614937126168,-0.05642934158699218,2.2150618543414504,-1.600481917216149,1
154,2024-09-24 12:20:58.751643904,0,016,-2.282979877935037,1.349982975342501,2.8831666020907836,-0.2523844801635939,-1.471112896990545,-0.04190727610388939,2.4829586984518857,-1.649181541396485,1
155,2024-09-24 12:20:58.814379008,0,016,-2.2921232268673077,1.3369730960366515,2.8069641755420967,-0.2147493285788442,-1.5301021781128599,-0.02406296097664775,2.8305810912101146,-1.7101210728329204,1
156,2024-09-24 12:20:58.876429824,0,016,-2.3058669608412483,1.3282493237585964,2.741173347132313,-0.17389014245024742,-1.601447676783192,-0.003293944924052084,3.2412767380494665,-1.779386031671522,1
157,2024-09-24 12:20:58.954535936,0,016,-2.3258812189379316,1.325129752664869,2.683456095937579,-0.13056354671268638,-1.6830106599338484,0.02001723622253109,3.6949197937316116,-1.852488409193993,1
158,2024-09-24 12:20:59.017335040,0,016,-2.3539837285912366,1.3289472173825938,2.631223964742737,-0.08556499097551798,-1.772575528672809,0.04552582065565076,4.168997031907357,-1.9247215784054263,1
159,2024-09-24 12:20:59.965370880,0,016,-2.391843219657906,1.3408967325846166,2.582229903976101,-0.039694570045168596,-1.8679359329432792,0.0729363650703836,4.640003254173497,-1.9915594869670408,1
160,2024-09-24 12:21:00.028329984,0,016,-2.4406652805609776,1.3618671599934011,2.5348503144367625,0.006285102750334961,-1.966949081430044,0.1020076094949002,5.0849533943650735,-2.049016124317096,1
161,2024-09-24 12:21:00.090727168,0,016,-2.5009277720791556,1.392290840553522,2.4882240694041142,0.05165489151823454,-2.067550175425554,0.13254680716046716,5.482572704010986,-2.0938775078775635,1
162,2024-09-24 12:21:00.169114880,0,016,-2.5722269406600495,1.4320384414007086,2.4423708562926207,0.09569677949353048,-2.1677870819066025,0.1643905686616813,5.8139811667203665,-2.123790962921501,1
163,2024-09-24 12:21:00.232044800,0,016,-2.6532774433016653,1.4803865729822525,2.398236746217526,0.13763903979066872,-2.265903440562366,0.19737914402160436,6.0630554827482905,-2.1372388869287318,1
164,2024-09-24 12:21:00.294530048,0,016,-2.7420646090782563,1.5360787178132014,2.3575838345563866,0.17663498812404377,-2.3604082736670953,0.23133682519795237,6.216814403229274,-2.1334376135633315,1
165,2024-09-24 12:21:00.371762944,0,016,-2.836095213729139,1.5974680749491887,2.3227565070232514,0.2117918516922177,-2.4500904518058384,0.2660691337707927,6.26611425013687,-2.112233315445631,1
166,2024-09-24 12:21:01.310269952,0,016,-2.9326754044227834,1.6626972060634648,2.2963929656192246,0.24224635889185395,-2.534021252523009,0.30137798930301435,6.2066108639718225,-2.0740604973725763,1
167,2024-09-24 12:21:01.386400768,0,016,-3.029166693158879,1.7298686144337339,2.2810750905430375,0.2672754498242325,-2.611578176451119,0.3370852473246128,6.039567653788795,-2.019945292488175,1
168,2024-09-24 12:21:01.454241024,0,016,-3.1231934170493907,1.7971839481758722,2.2789482327957553,0.28639627929191225,-2.682439784585041,0.37304988570622544,5.771999797382589,-1.9514611993806903,1
169,2024-09-24 12:21:01.516581120,0,016,-3.212782380281162,1.86304507127036,2.291483356622914,0.29938458882390234,-2.7464833233771153,0.40916565103167923,5.415890559367553,-1.8705715809057761,1
170,2024-09-24 12:21:01.576593920,0,016,-3.2964321908600698,1.9261142339895914,2.319513815289621,0.3061871981658748,-2.80360659649693,0.445337148913694,4.986741607168667,-1.7794060196465564,1
171,2024-09-24 12:21:01.654226944,0,016,-3.37312762248551,1.9853372315342512,2.363465676366243,0.3067828296985904,-2.8535846797055466,0.4814483630851871,4.502195385932624,-1.6800997879420876,1
172,2024-09-24 12:21:01.716266240,0,016,-3.4423020592858715,2.039938933147574,2.4235785878429543,0.3010744580898581,-2.8960481325042733,0.5173414438191472,3.9812964134767004,-1.5747697145843025,1
173,2024-09-24 12:21:02.669220864,0,016,-3.503739051676695,2.0893969913326025,2.499933260710334,0.28887218728176456,-2.9305789285849015,0.5528131581897352,3.444193525240834,-1.4655575146659452,1
174,2024-09-24 12:21:02.732750080,0,016,-3.5574356848678135,2.1333969588608968,2.5922053577084183,0.26997915853058874,-2.9568684009293986,0.5876252886466332,2.9116033463139344,-1.3546171726863088,1
175,2024-09-24 12:21:02.794821120,0,016,-3.6034831191739785,2.1717788664963686,2.6992802989920532,0.24433593699876902,-2.9748709929750383,0.6215205007464158,2.4036847541958197,-1.2440173677392412,1
176,2024-09-24 12:21:02.872646912,0,016,-3.641997728797159,2.2044915213038068,2.819047610939933,0.21214214168940523,-2.984896011962443,0.6542381322721027,1.9386465260369765,-1.1356400177074666,1
177,2024-09-24 12:21:02.937051904,0,016,-3.6730916831778027,2.2315648196171645,2.9485878084642385,0.17389671183288313,-2.9876161452968457,0.6855289003674289,1.5316229464430733,-1.031144824427119,1
178,2024-09-24 12:21:02.995898880,0,016,-3.6968545262839942,2.2530960453171605,3.084643339783512,0.13036413486918555,-2.984014876077766,0.7151630041014565,1.193917714915739,-0.9319671421419924,1
179,2024-09-24 12:21:03.074007040,0,016,-3.7133231701784903,2.2692383526460307,3.2241234263823344,0.0825133590835983,-2.9753229394402196,0.7429235793695941,0.9322953111729048,-0.8392753376909855,1
180,2024-09-24 12:21:03.987651072,0,016,-3.722431911129907,2.2801863696162887,3.364540957053712,0.0314549689936984,-2.9629920289988356,0.7685885147052345,0.748220514756926,-0.7539044478182357,1
181,2024-09-24 12:21:04.061896960,0,016,-3.723953139670727,2.2861637084221305,3.504374989379263,-0.02162387324389873,-2.948690909451566,0.7919073545095271,0.6374633979367684,-0.6763673762274645,1
182,2024-09-24 12:21:04.126542080,0,016,-3.7174511331118008,2.2874154860058775,3.6432473295357966,-0.07551762589977981,-2.9342504327448355,0.8125708314560247,0.5905546684002737,-0.6069863612490246,1
183,2024-09-24 12:21:04.197404928,0,016,-3.7022712946420917,2.284202407438909,3.7817538626382965,-0.1290403693961888,-2.9215411204977175,0.8301764626756192,0.5941785402877738,-0.5460761577686623,1
184,2024-09-24 12:21:04.250761984,0,016,-3.677582908839306,2.276796665709557,3.920922115334259,-0.18104671679137754,-2.9123546004880096,0.8442107986096636,0.6331922553933474,-0.49408611559532084,1
185,2024-09-24 12:21:04.328047104,0,016,-3.6424776860063823,2.26548555023149,4.061439928296316,-0.23044171883716547,-2.9083253386378516,0.8540638613127285,0.6927989402701639,-0.4516578042118137,1
186,2024-09-24 12:21:04.390039040,0,016,-3.596098397984728,2.25057941538559,4.202921394661737,-0.27618419477709594,-2.9108436781446434,0.8590679444913064,0.7604373659685147,-0.4196000467659188,1
187,2024-09-24 12:21:05.328699136,0,016,-3.537762284802926,2.232410068373721,4.343509717888063,-0.3173057458968069,-2.92091988346888,0.8585445695407502,0.827030777936849,-0.39879225603389024,1
188,2024-09-24 12:21:05.407375104,0,016,-3.467063845760895,2.2113145302205055,4.479998837455102,-0.3529735644549378,-2.9390308917047476,0.8518563680462344,0.8873651342835547,-0.3900272307739571,1
189,2024-09-24 12:21:05.468961792,0,016,-3.3839611152407203,2.187613629814582,4.608406351452343,-0.38259169317505554,-2.9650089797230645,0.8384700990352103,0.9396927285560203,-0.39382939448712,1
190,2024-09-24 12:21:05.546646016,0,016,-3.2888553090091057,2.1615940065400556,4.724733307218226,-0.40590194338727165,-2.998000124499703,0.8180279658799903,0.9849869576934781,-0.41031494028119,1
191,2024-09-24 12:21:05.614490880,0,016,-3.1826792036569773,2.1334941975654824,4.825619008251318,-0.423046627416712,-3.0364904205436467,0.7904130266392118,1.0262487767253603,-0.43915706698143403,1
192,2024-09-24 12:21:05.682265088,0,016,-3.0670057245329834,2.1034969889915263,4.908644623869447,-0.4345661639262047,-3.078389994050062,0.755797829059159,1.0678951964706698,-0.47966034504362376,1
193,2024-09-24 12:21:05.750086912,0,016,-2.944153150930053,2.0717368215262617,4.972144011934998,-0.44131311630675557,-3.1211430205933595,0.714674080483621,1.1149392525331356,-0.5308667769667149,1
194,2024-09-24 12:21:06.693325056,0,016,-2.817221630982682,2.0383275590213255,5.0146451087068264,-0.44429138126921414,-3.1618238281431994,0.6678629246118578,1.1718130315483029,-0.5916059629411919,1
195,2024-09-24 12:21:06.760263936,0,016,-2.6900001839805343,2.0034030946726964,5.034307438472796,-0.44446277751657776,-3.1972266253751034,0.6165042287677787,1.2411557975449912,-0.6604778931715148,1
196,2024-09-24 12:21:06.823968000,0,016,-2.5667325234130054,1.9671585891659256,5.028671288853169,-0.44257470260715776,-3.2239932224538603,0.5620220108695831,1.323050009107511,-0.7358161533499508,1
197,2024-09-24 12:21:06.884884992,0,016,-2.4517689585954514,1.9298884559041367,4.994833016605578,-0.439060619680981,-3.238772475682516,0.5060590670599966,1.4148413411187386,-0.8156665293616705,1
198,2024-09-24 12:21:06.962323968,0,016,-2.3491348608007008,1.89201856280494,4.930031793435347,-0.4340505097203411,-3.23835492278594,0.45037201690477324,1.5113759508838511,-0.8977961047583157,1
199,2024-09-24 12:21:07.024350720,0,016,-2.262058964432869,1.8541163093321655,4.832516239666258,-0.4274796383014838,-3.2197851023550723,0.39668790363788076,1.6055801667059189,-0.9797721964003958,1
200,2024-09-24 12:21:07.100075008,0,016,-2.192561817058875,1.8168608624224536,4.702456702903871,-0.4192367576429106,-3.1805285562326477,0.3465451892487038,1.6894362288464584,-1.0591520076063614,1
201,2024-09-24 12:21:08.034189824,0,016,-2.141231780618851,1.7809802933454049,4.542684682599574,-0.40930380815003403,-3.118721434919213,0.30115764964638964,1.7553140350348402,-1.1337480943482907,1
202,2024-09-24 12:21:08.097060096,0,016,-2.107244420640818,1.7471799727211943,4.359073060556846,-0.39787466692738416,-3.033429091743768,0.26133197969076527,1.797412649715241,-1.2018512085875142,1
203,2024-09-24 12:21:08.175048192,0,016,-2.088584342932493,1.7160764706532,4.160346739330643,-0.3854369230964186,-2.9248267472306773,0.22744929372962533,1.8127978600238726,-1.262287614278583,1
204,2024-09-24 12:21:08.237135872,0,016,-2.0823878658475183,1.6881378409735444,3.9572444113174354,-0.3727851610977101,-2.7942748637374413,0.1995065983474396,1.8015246441633401,-1.3142842171049425,1
205,2024-09-24 12:21:08.315401984,0,016,-2.0853189678016224,1.6636338532133705,3.761297544325054,-0.3609628812593553,-2.644307237034949,0.17720506501077699,1.76591347427444,-1.3572539287571566,1
206,2024-09-24 12:21:08.376324864,0,016,-2.093898931789814,1.642603914475659,3.583685420647154,-0.35117280436807274,-2.4785493927347386,0.1600603136980642,1.7096512721239163,-1.3906773412204454,1
207,2024-09-24 12:21:08.438810112,0,016,-2.1047492694795027,1.624846543798262,3.434426320352783,-0.3446883416796766,-2.3015645041100297,0.14750682859583225,1.6373274864133622,-1.4141812298651637,1
208,2024-09-24 12:21:09.369021952,0,016,-2.1147625889257395,1.6099339742297132,3.321827583906792,-0.34275229220057085,-2.1186247343302522,0.13898302491370051,1.5544392126675404,-1.427760909392335,1
209,2024-09-24 12:21:09.436888832,0,016,-2.1212404704199144,1.5972570609511343,3.251978868224226,-0.34643221433050153,-1.9354152833000327,0.13399553014868346,1.4674273156652102,-1.431992654710293,1
210,2024-09-24 12:21:09.501540096,0,016,-2.12201676898986,1.5860954616515084,3.2282093364241353,-0.3564469649623956,-1.7576696972570827,0.13215577340027126,1.383299968077892,-1.4281003089844118,1
211,2024-09-24 12:21:09.570398976,0,016,-2.1155584746413645,1.5756960475610042,3.250672466699416,-0.3730252995024602,-1.5907407699518943,0.13317887565162984,1.3087648872185187,-1.4178295476509415,1
212,2024-09-24 12:21:09.630820096,0,016,-2.1010335116886303,1.565345520869426,3.316299405076747,-0.39584147797615477,-1.43915552229833,0.13684721687131413,1.2492429658165343,-1.4031847918907583,1
213,2024-09-24 12:21:09.692888832,0,016,-2.078330679329397,1.5544297783162107,3.4191966744774067,-0.4240308677027553,-1.3062489936254882,0.14295424009911842,1.2083101509309946,-1.3861438957685361,1
214,2024-09-24 12:21:09.770050048,0,016,-2.0480046617748053,1.5424703111293196,3.551370745595629,-0.4562807040221077,-1.1939714161285586,0.15125009228504693,1.1877622253882798,-1.368435933289058,1
215,2024-09-24 12:21:10.711621120,0,016,-2.011130939832244,1.529130002338694,3.7035990232270986,-0.49099103550798234,-1.102901538979493,0.16141107699512572,1.1879920876733296,-1.3514032131153564,1
216,2024-09-24 12:21:10.773635072,0,016,-1.9690844740898192,1.5141921174169524,3.8662586098807803,-0.5264674594386999,-1.0324115270043235,0.17304254494390806,1.2083460158562895,-1.335959983133321,1
217,2024-09-24 12:21:10.851335936,0,016,-1.923282607365596,1.4975233279296583,4.029928778065469,-0.5610808001063343,-0.9808799591106879,0.18570229678482206,1.2474952311175214,-1.3226801106710333,1
218,2024-09-24 12:21:10.913799936,0,016,-1.8749649325194833,1.4790339248354842,4.1857177237349505,-0.5933585259154877,-0.945875794032865,0.19892083854952966,1.3039725394532253,-1.312008443313662,1
219,2024-09-24 12:21:10.990295040,0,016,-1.8250842662506352,1.4586513318584209,4.3254808831043885,-0.6220250189309897,-0.9243105159166196,0.21220710357253406,1.3767022321281441,-1.3044943678265353,1
220,2024-09-24 12:21:11.052887040,0,016,-1.774312272810261,1.4363149189659512,4.4421028642253715,-0.6460225334133528,-0.9126101056543048,0.22504861083371927,1.4651374244541802,-1.300902471834933,1
221,2024-09-24 12:21:11.115374080,0,016,-1.723090997987433,1.4119800685681125,4.529767143626118,-0.6645220789046412,-0.9069603166188072,0.23692423664353246,1.568878591408834,-1.3021340361933729,1
222,2024-09-24 12:21:12.056729856,0,016,-1.6716721819463676,1.3856140563768589,4.584001934174146,-0.676918424635761,-0.9036396769171973,0.2473401435131919,1.6869628336896663,-1.3089976930103637,1
223,2024-09-24 12:21:12.134838016,0,016,-1.6201392508420125,1.3571853576893476,4.60150838608329,-0.6828250126213133,-0.8993789354768451,0.255881978511243,1.8170544468818133,-1.3219073686809426,1
224,2024-09-24 12:21:12.204945920,0,016,-1.5684268308044564,1.3266616192710794,4.580073189439842,-0.6821100028708644,-0.8916244576078334,0.26226309433581424,1.9548203125148882,-1.340607564462447,1
225,2024-09-24 12:21:12.258423040,0,016,-1.5163516619122235,1.2940207576252007,4.518804348418493,-0.6749794142349999,-0.8786357877557089,0.26635004152301534,2.0938347139388127,-1.3640445214797354,1
226,2024-09-24 12:21:12.336530944,0,016,-1.4636806745369615,1.2592685340756502,4.418581253357826,-0.6620433114151878,-0.8594729483420445,0.26816066105435554,2.2261118958591934,-1.3904571440847366,1
227,2024-09-24 12:21:12.398136064,0,016,-1.4102516857790548,1.22246154840628,4.282399314060679,-0.6442948091986316,-0.8339657713709157,0.2678438399346318,2.343010169537013,-1.4176635350444788,1
228,2024-09-24 12:21:12.460624128,0,016,-1.3561063236057203,1.1837360671656012,4.115340137847074,-0.6229973091714504,-0.8026791609023217,0.2656519410156463,2.43615714836072,-1.4434294237020326,1
229,2024-09-24 12:21:13.407483904,0,016,-1.3015648125811679,1.1433311255187328,3.924110897539266,-0.5995335385688788,-0.7668222850870876,0.26190981850522527,2.49816333033033,-1.4657728658337614,1
230,2024-09-24 12:21:13.485538048,0,016,-1.2472205035924027,1.1015921914745619,3.716351069310997,-0.5752745085170038,-0.728087434863483,0.25698375603574797,2.523055136055048,-1.4831183869828755,1
231,2024-09-24 12:21:13.554944000,0,016,-1.1938898405910945,1.0589575573797747,3.4999857997360238,-0.5514881868098059,-0.6884755257812282,0.2512598475945245,2.506583864360765,-1.4943325593254906,1
232,2024-09-24 12:21:13.612875008,0,016,-1.1425480325753907,1.0159403105691385,3.2827369835934324,-0.5292694332503622,-0.6501372857095341,0.24513410128670035,2.446720101330429,-1.498746400689604,1
233,2024-09-24 12:21:13.690481920,0,016,-1.0942487754723231,0.973110310106393,3.0717186696469363,-0.5094767079465208,-0.6151836488448719,0.23899947986656156,2.3444108288841425,-1.4962179581465949,1
234,2024-09-24 12:21:13.752162816,0,016,-1.0500315888208227,0.9310693409212402,2.8730588037246605,-0.4926971969658224,-0.5854509357063633,0.23321615014205793,2.2042488925901633,-1.4871823983860675,1
235,2024-09-24 12:21:13.814189056,0,016,-1.010852600741084,0.8904188293042739,2.691646294765245,-0.4792775103176166,-0.5622949262516649,0.22807000545422296,2.034644194623734,-1.472624292836917,1
236,2024-09-24 12:21:14.741724928,0,016,-0.9775776072430415,0.8517357464994096,2.531180216916347,-0.46942620969525045,-0.5464765075151553,0.22373504102469263,1.8474335109661646,-1.4539874094856455,1
237,2024-09-24 12:21:14.804360192,0,016,-0.9510264756114559,0.8155696002325334,2.3945324039841265,-0.463341693059796,-0.5381247328903417,0.22025089555826421,1.657172702295959,-1.4330875404606547,1
238,2024-09-24 12:21:14.866209024,0,016,-0.9320071658164287,0.7824476846397156,2.2841744433462696,-0.46129685756506533,-0.5367570080990133,0.21752197739799048,1.4803476135563833,-1.4120596629297855,1
239,2024-09-24 12:21:14.945594880,0,016,-0.9212907398051292,0.7528630690105319,2.2024127545610224,-0.4636502805845017,-0.5413788378266684,0.21534350830315513,1.3344985502123807,-1.3933018148014207,1
240,2024-09-24 12:21:15.005408000,0,016,-0.9195309201578994,0.7272391166554489,2.151373452847088,-0.47079871544391766,-0.5506650115328123,0.2134540083813819,1.23701614433092,-1.3793463519739124,1
241,2024-09-24 12:21:15.067405056,0,016,-0.9271499610086379,0.705885636143091,2.1327662806778274,-0.4830878502296413,-0.5631595326331084,0.21160211910724325,1.203445442559646,-1.3726257501264119,1
242,2024-09-24 12:21:15.145272832,0,016,-0.9441989879165835,0.6889585775940067,2.147473876335835,-0.5007024676078558,-0.5774216950169091,0.20960799806481525,1.2455684009258976,-1.3751766364259326,1
243,2024-09-24 12:21:16.086603008,0,016,-0.9702130863728363,0.6764235244557693,2.195061830996356,-0.5235696289015591,-0.5921115186414403,0.20740460747656891,1.3697663941190141,-1.388368540585832,1
244,2024-09-24 12:21:16.148657920,0,016,-1.0041138575004618,0.6680267377571556,2.273277244075574,-0.5512814718366732,-0.6060697964829628,0.20505788903402683,1.5759085544507365,-1.4127075366417152,1
245,2024-09-24 12:21:16.226311936,0,016,-1.0442060278973655,0.6632895417404661,2.377598447286032,-0.5830259430980907,-0.6184179146566132,0.20277138485500154,1.8568218353329817,-1.4477139113859927,1
246,2024-09-24 12:21:16.287879936,0,016,-1.0882694224090075,0.6615404316581401,2.501048085261393,-0.617552433596296,-0.6286246560709067,0.20087417079504608,2.198558977692255,-1.4918891417854214,1
247,2024-09-24 12:21:16.353509120,0,016,-1.1337202185728363,0.6619815067055848,2.634540782620552,-0.653222457694745,-0.6364826961277179,0.19978324614539136,2.581685061648107,-1.5428180080877258,1
248,2024-09-24 12:21:16.427064832,0,016,-1.1778220556992294,0.663772034970607,2.767803366260828,-0.6881567798637527,-0.6420207920642882,0.1999409230286392,2.983384614056421,-1.5974064174309424,1
249,2024-09-24 12:21:16.489548800,0,016,-1.2179262956623853,0.6661155249065611,2.8906222721388755,-0.7204436282642582,-0.6454422004255406,0.201750183641681,3.3797985943745403,-1.6521761472699903,1
250,2024-09-24 12:21:17.436094976,0,016,-1.251700796610145,0.6683452792762352,2.994122830797447,-0.7483577449985512,-0.6471207613617205,0.20553116721534523,3.747992810636603,-1.7035160330207184,1
251,2024-09-24 12:21:17.497684992,0,016,-1.2773143688531639,0.6700026834107404,3.071853530509584,-0.7705447490708165,-0.6475717231285505,0.21149455567246506,4.067212001750652,-1.7478406945458833,1
252,2024-09-24 12:21:17.563032064,0,016,-1.2935815704341178,0.6708988726969437,3.120443171363787,-0.7861353319205424,-0.6473382001277903,0.21971948117372528,4.31942542434191,-1.7816842182221901,1
253,2024-09-24 12:21:17.640698880,0,016,-1.3000827729774411,0.6711559653915361,3.13967228658407,-0.7947722119694408,-0.6468706796797303,0.23014488293229335,4.489439439860696,-1.8017928118581354,1
254,2024-09-24 12:21:17.702194176,0,016,-1.2972422016704583,0.6712326934056366,3.1321009711877723,-0.7965705587922228,-0.6465052071632487,0.24258865674113916,4.564872528719468,-1.8052621493165408,1
255,2024-09-24 12:21:17.779817216,0,016,-1.2863162704615032,0.6719341281864616,3.1026197903736654,-0.7920663465911931,-0.6465522968398253,0.25679020406125197,4.5362021920364635,-1.7897232293528456,1
256,2024-09-24 12:21:17.845549056,0,016,-1.2692669272923804,0.6743901977253178,3.0580927594259277,-0.782183004987724,-0.6474456404949506,0.2724626148685579,4.397021097327027,-1.7535419743072829,1
257,2024-09-24 12:21:18.788018176,0,016,-1.2485587232923852,0.6799875522964239,3.006895561460702,-0.7681860745692228,-0.6498836489732206,0.28934333691417163,4.144503908412714,-1.6959919611184697,1
258,2024-09-24 12:21:18.847529728,0,016,-1.226940731279168,0.690257095232755,2.9581138161508185,-0.751582620345986,-0.6548889430324104,0.30723104195711476,3.779918044166064,-1.6173818381868565,1
259,2024-09-24 12:21:18.924774912,0,016,-1.2072267551207896,0.7067294605293235,2.920428822363284,-0.7339630988643123,-0.6637439196033872,0.3259988799150777,3.308982186884945,-1.5191350327200746,1
260,2024-09-24 12:21:18.995877888,0,016,-1.1920497349450696,0.7307668218528032,2.900933205582292,-0.7168201046389714,-0.6778273045368245,0.3455860101380331,2.742079633598961,-1.4038392964724298,1
261,2024-09-24 12:21:19.048872960,0,016,-1.1835998112308481,0.7633864865566629,2.9041793444656756,-0.7013905518320134,-0.6984140456762117,0.36597718550972325,2.0945165145169087,-1.2752963918692413,1
262,2024-09-24 12:21:19.126500096,0,016,-1.1834080468758401,0.8051111795811614,2.9317157091132593,-0.6885577197706949,-0.726484687115972,0.38717671974207857,1.3868081265626424,-1.1385427026465857,1
263,2024-09-24 12:21:19.188878080,0,016,-1.1922243006131226,0.8558793746160327,2.9822076444183034,-0.6788215796691569,-0.7625500236271542,0.4091757091882249,0.6445136269958328,-0.9997078400244999,1
264,2024-09-24 12:21:20.139951872,0,016,-1.2099832094268967,0.915022359892837,3.052035341784871,-0.6723281988188767,-0.8064845716281681,0.4319109232482092,-0.10293584753612728,-0.8655841526562539,1
265,2024-09-24 12:21:20.210290944,0,016,-1.235847414099555,0.9812993836640298,3.1361317161160014,-0.6689428918762286,-0.8573985912774144,0.45522287463187494,-0.824369496042404,-0.7429512058935153,1
266,2024-09-24 12:21:20.278121984,0,016,-1.2683397827058736,1.0529875611005697,3.2287938697586718,-0.6683286375864468,-0.9136090807948276,0.47882714882602884,-1.4893898904247096,-0.6378525275790821,1
267,2024-09-24 12:21:20.341262080,0,016,-1.3055445572413071,1.1280194418144078,3.3242662093728557,-0.6699850377990041,-0.9727430205877649,0.5023057093009112,-2.0708644443550686,-0.5549909346557018,1
268,2024-09-24 12:21:20.413711104,0,016,-1.3453152107596467,1.204142271899089,3.4170478057199434,-0.6732509346449882,-1.0319580482904975,0.5251154992883214,-2.547249780385015,-0.4973035827646607,1
269,2024-09-24 12:21:20.480497920,0,016,-1.3854556701482412,1.2790689174775427,3.5020268267255275,-0.6773145272445776,-1.0882318713233299,0.5466143286257378,-2.904411188785395,-0.46575865862864785,1
270,2024-09-24 12:21:20.549332992,0,016,-1.4238832226697982,1.3506083672763534,3.5745649435727227,-0.6812586841846381,-1.1386360876424846,0.5661052611949534,-3.136512248325741,-0.4594243194965278,1
271,2024-09-24 12:21:21.468276736,0,016,-1.458756339241988,1.4167752633415622,3.630584497831137,-0.6841422782979291,-1.1805152077172234,0.5828898754520864,-3.2458992622178124,-0.4757870931739762,1
272,2024-09-24 12:21:21.536097280,0,016,-1.4885243987433316,1.4758740544775772,3.666717525758356,-0.6851186481360693,-1.2115663909475196,0.5963136655467451,-3.2422704008346463,-0.5111916190259037,1
273,2024-09-24 12:21:21.603874048,0,016,-1.511905654838399,1.526556276544259,3.680610153209731,-0.683587932209808,-1.2298746964322922,0.6057947524626638,-3.14141379533941,-0.5612635318350304,1
274,2024-09-24 12:21:21.671676928,0,016,-1.5278473143001512,1.5678590463627056,3.6712932653874057,-0.6793388319136323,-1.2339552988541298,0.6108397465875222,-2.9635671911335297,-0.6212656196178311,1
275,2024-09-24 12:21:21.729933056,0,016,-1.5354858573089776,1.5992261356711726,3.6392823099405924,-0.6726029367804371,-1.2228241232921384,0.6110535865833859,-2.731442141457254,-0.6863981117922897,1
276,2024-09-24 12:21:21.807215104,0,016,-1.5340892798138692,1.620501148441931,3.586240952892155,-0.6639959261751983,-1.1960836807666362,0.6061443880777369,-2.4681504030158923,-0.7520544228235481,1
277,2024-09-24 12:21:21.868872704,0,016,-1.5229994032618264,1.6318931551424158,3.5145115269831004,-0.6544091729492342,-1.1539916126633791,0.5959224309464105,-2.195311525628118,-0.8140525231916078,1
278,2024-09-24 12:21:22.807769088,0,016,-1.5016197005615344,1.6339312860427144,3.426920810529647,-0.6449187577815022,-1.0974863796521308,0.5802956462634455,-1.9315567068424235,-0.8688587417268561,1
279,2024-09-24 12:21:22.871085056,0,016,-1.4694555533179707,1.6274157652262755,3.326920312558111,-0.6367059140503659,-1.0281593928950288,0.559264477581362,-1.6915576220126038,-0.9137852298814773,1
280,2024-09-24 12:21:22.954497024,0,016,-1.4261752071298297,1.6133566943155122,3.218820712000743,-0.6309549253531939,-0.9481889798600281,0.532920332992829,-1.4855075838637923,-0.947143961965279,1
281,2024-09-24 12:21:23.022274048,0,016,-1.3716626763992203,1.592898333859299,3.1078953062214745,-0.6287411732130848,-0.8602870347756609,0.5014565335713145,-1.3189137176741195,-0.9683626110751239,1
282,2024-09-24 12:21:23.087685120,0,016,-1.3060514239442154,1.5672403099001582,3.0003005699867376,-0.630960611511456,-0.7677010545491145,0.4651955903211336,-1.1927925412786926,-0.9780294691119861,1
283,2024-09-24 12:21:23.150170112,0,016,-1.2297445385289199,1.5375631849317277,2.902858158004781,-0.6383267719006139,-0.6742401326729153,0.4246196901403974,-1.1045078549018021,-0.9777824339025063,1
284,2024-09-24 12:21:23.212176128,0,016,-1.1434416855623624,1.504957960089676,2.822688464991092,-0.6513981996307913,-0.5842202400395952,0.38038218327417583,-1.049221177278455,-0.9700013441869898,1
285,2024-09-24 12:21:24.167834880,0,016,-1.0481850924432363,1.4703647602510521,2.7666257935149807,-0.6705665804461824,-0.5022360586745486,0.3332882768784758,-1.0214693917304745,-0.9573848729771041,1
286,2024-09-24 12:21:24.230319104,0,016,-0.9454088497337135,1.4345304206766722,2.7404414210453214,-0.69597715465766,-0.4327720265501091,0.28425345487280645,-1.0162292984837933,-0.9425592432135044,1
287,2024-09-24 12:21:24.292371200,0,016,-0.8369747272644212,1.3979868252899634,2.74804660801154,-0.727419643582995,-0.37976739667272663,0.23425880334874633,-1.0291912576149203,-0.9278075023393629,1
288,2024-09-24 12:21:24.369504000,0,016,-0.7252055393076305,1.3610471337951962,2.790857000068686,-0.764247121223561,-0.34625568712285354,0.18431466228417073,-1.0565227608496068,-0.9149047669796548,1
289,2024-09-24 12:21:24.431991296,0,016,-0.6129183694882945,1.3238231755790055,2.8674497185924626,-0.8053593203757691,-0.3341433133836003,0.1354347149287896,-1.0946270216491787,-0.9050089377652867,1
290,2024-09-24 12:21:24.507756800,0,016,-0.5034110270386469,1.2862688291522721,2.9736246345565887,-0.8492611254708237,-0.34414612965152175,0.08862392924437668,-1.1401593705718982,-0.8985907481823612,1
291,2024-09-24 12:21:24.572630784,0,016,-0.400348256462113,1.2482449982319448,3.102874207799876,-0.8941829368435709,-0.37586446960357406,0.04488014254290954,-1.190195574796578,-0.8954245453668858,1
292,2024-09-24 12:21:25.483645952,0,016,-0.3075541906611962,1.2096000199494703,3.247075497433755,-0.9382337813296057,-0.427946734306479,0.005195197229916987,-1.2423544554103059,-0.8946682350410684,1
293,2024-09-24 12:21:25.556238080,0,016,-0.2287647732138529,1.170267972431935,3.3971596675073306,-0.9795553303765145,-0.49828138006984996,-0.02946484426150285,-1.294925110024722,-0.8950313669773684,1
294,2024-09-24 12:21:25.623865088,0,016,-0.16737473310787457,1.1303784485502195,3.5436472231732807,-1.0164461818754884,-0.5841503093951671,-0.05821348573786083,-1.347191470873403,-0.8949917956695703,1
295,2024-09-24 12:21:25.696039680,0,016,-0.12618218362337708,1.0903438877771279,3.677092576420895,-1.0474342547441617,-0.6822987661602724,-0.08032786362785585,-1.3998384336100458,-0.8930250474404243,1
296,2024-09-24 12:21:25.758525952,0,016,-0.10714605924385008,1.0508862495037246,3.7885675581983227,-1.0713027996931688,-0.7889672756357875,-0.09533521264494652,-1.4549964796612722,-0.8878341372864302,1
297,2024-09-24 12:21:25.820582144,0,016,-0.11119582449860906,1.0129968255641408,3.870317147211166,-1.0871025516707358,-0.8999922220914622,-0.10306242070707598,-1.5156887196643196,-0.8785504984332386,1
298,2024-09-24 12:21:25.900331008,0,016,-0.13812469574096162,0.9778517237443352,3.916564045839593,-1.0941746296053094,-1.011004655087805,-0.10363333811554616,-1.5849614020942657,-0.8648483904939812,1
299,2024-09-24 12:21:26.830490880,0,016,-0.18657166989176502,0.9467027571033437,3.9242096111514466,-1.092178381720737,-1.1176542211072071,-0.09743443195584484,-1.6651670568229675,-0.8469403826600459,1
300,2024-09-24 12:21:26.912023040,0,016,-0.2540942463159468,0.9207513743207766,3.893149320363178,-1.0811076971085427,-1.2158082594940374,-0.08507405679435834,-1.75761746655452,-0.8254672836451723,1
301,2024-09-24 12:21:26.971127808,0,016,-0.33734835342573677,0.9010199922742684,3.826113057299528,-1.0612900318227265,-1.3017556486577913,-0.067338024095774,-1.8625914610525587,-0.8013035554120873,1
302,2024-09-24 12:21:27.047609088,0,016,-0.4323773403901375,0.8882471582964475,3.7281162729586095,-1.033370884339184,-1.3724400508206178,-0.04513268667152171,-1.979609229784688,-0.7753067237663285,1
303,2024-09-24 12:21:27.110304256,0,016,-0.5349678596060063,0.8828248843647583,3.60567554013618,-0.9982932062584371,-1.4256736599513178,-0.019419186284858923,-2.107754891173876,-0.7480799993028133,1
304,2024-09-24 12:21:27.172358144,0,016,-0.6410095597982814,0.8847769959226877,3.465983756665454,-0.9572852286641098,-1.4602592300032669,0.008844715324505375,-2.2458026101569097,-0.7198284602438538,1
305,2024-09-24 12:21:27.250467072,0,016,-0.7468110865059315,0.8937708727085908,3.3162473674044546,-0.911853912993832,-1.4760077735494788,0.038745843880972276,-2.392209538551084,-0.6903280574113693,1
306,2024-09-24 12:21:28.193602048,0,016,-0.8493398498315053,0.909159638049086,3.1632681816013797,-0.8637511373537716,-1.4736889091408036,0.06944517044943464,-2.545334523534547,-0.658961340832144,1
307,2024-09-24 12:21:28.255177984,0,016,-0.9463471023620822,0.9300472069041299,3.013185917844897,-0.8148754226860501,-1.4549379493126386,0.10020278981676671,-2.70403243111242,-0.6247873171047663,1
308,2024-09-24 12:21:28.329208064,0,016,-1.0363481941346497,0.9553562838027385,2.8712802826023442,-0.7671204052996178,-1.4221347917030298,0.13039942866731913,-2.8682323645963175,-0.5866739181622688,1
309,2024-09-24 12:21:28.395909888,0,016,-1.1184878995670675,0.9838836140749742,2.7418375856013055,-0.7222376313934716,-1.3782886905933516,0.1595550653589719,-3.0389449874048955,-0.5435216306348128,1
310,2024-09-24 12:21:28.456325888,0,016,-1.192381534628654,1.014348584317593,2.6281215757300003,-0.6817643870552168,-1.326933251792308,0.18734429759363616,-3.217605601317885,-0.49452074796747036,1
311,2024-09-24 12:21:28.532018176,0,016,-1.2580002488451152,1.0454485054180256,2.5323957050398636,-0.6469873511287572,-1.2719654029451795,0.21360074346539798,-3.4051403670261093,-0.43933182100088997,1
312,2024-09-24 12:21:28.600419072,0,016,-1.3155928889925712,1.0759159786661057,2.455847369809276,-0.6188713769965043,-1.2173753320894405,0.2383017378141003,-3.601139298397657,-0.37815105551477984,1
313,2024-09-24 12:21:29.543631104,0,016,-1.3656084938630677,1.1045642687652182,2.398314516243258,-0.5979259498497493,-1.166923174619864,0.2615384242505117,-3.8032963811294676,-0.3117222808718919,1
314,2024-09-24 12:21:29.600261888,0,016,-1.4086121598060137,1.1303221650706519,2.357910512077961,-0.5840589115498375,-1.123875914597902,0.28348834711036686,-4.0071747148147265,-0.2413580650895054,1
315,2024-09-24 12:21:29.679215872,0,016,-1.4452020538578658,1.1522685056781907,2.3308179866042,-0.5765201027640346,-1.090858067769942,0.30439966470628343,-4.206295611987353,-0.16896939807698771,1
316,2024-09-24 12:21:29.739566080,0,016,-1.4759226029307386,1.169661330214181,2.311524556227299,-0.5740258485303487,-1.0697922728219869,0.3245794940442832,-4.392506237144564,-0.09706112152552217,1
317,2024-09-24 12:21:29.801635072,0,016,-1.5011769441571592,1.1819495172512147,2.2935658493626048,-0.5750573116095186,-1.0618971163490953,0.3443777563242832,-4.55667631153606,-0.02863417147678927,1
318,2024-09-24 12:21:29.878863104,0,016,-1.5211730677454043,1.1887735224984601,2.270554461497413,-0.5782158386283331,-1.0677272191984748,0.36416822969165763,-4.689867230416524,0.033059517716957254,1
319,2024-09-24 12:21:29.941350912,0,016,-1.5359336196227134,1.1899725732680428,2.2371491624958506,-0.5825047922497645,-1.087224842800171,0.38432720530402165,-4.784918528023345,0.08490237166201446,1
320,2024-09-24 12:21:30.883672064,0,016,-1.5453539669357765,1.185596631013723,2.1897346964646047,-0.5874752861887262,-1.1197475259586085,0.40520341144174676,-4.837970421299125,0.12432271651192456,1
321,2024-09-24 12:21:30.962224128,0,016,-1.549277876526469,1.1759057930008339,2.1267615552743546,-0.5932318341085095,-1.16409296186096,0.42708396326070563,-4.849227249969237,0.14957307234878564,1
322,2024-09-24 12:21:31.030077952,0,016,-1.5475798861432473,1.161352103319758,2.048760619749559,-0.6003111010682203,-1.2185790485424388,0.4501744778582801,-4.822617109045121,0.15981490754479716,1
323,2024-09-24 12:21:31.097861120,0,016,-1.5402391177707027,1.142552282872646,1.9580450267559149,-0.6094606428559305,-1.2811708815244818,0.4745968240973442,-4.764661146608106,0.15510312985881625,1
324,2024-09-24 12:21:31.163818240,0,016,-1.5273792002449436,1.120253525799919,1.858181103757233,-0.6213823768122649,-1.349570497670261,0.5003829558868514,-4.68315906813082,0.13638796089403005,1
325,2024-09-24 12:21:31.225867008,0,016,-1.5092753963629186,1.0952865913423173,1.753396014144735,-0.6365204812126506,-1.421223907043837,0.5274463688266346,-4.586106437847581,0.10553584560298576,1
326,2024-09-24 12:21:31.288365056,0,016,-1.4863580228044668,1.068508050330615,1.6480511395771438,-0.6549260112056158,-1.4932949244101597,0.5555395526200821,-4.481055029711433,0.06529945081238331,1
327,2024-09-24 12:21:32.243424768,0,016,-1.4592273071375195,1.040745673871269,1.5462277100744444,-0.6761825981162118,-1.5626788543933485,0.58422239747039,-4.374934407247887,0.019204344706195184,1
328,2024-09-24 12:21:32.300319744,0,016,-1.4286577719747982,1.0127586336006398,1.4514604404826161,-0.6993882419326625,-1.6260841778658413,0.6128581935468568,-4.274002781086286,-0.028657746124771115,1
329,2024-09-24 12:21:32.378428928,0,016,-1.395567575031707,0.985210042924978,1.366638943763929,-0.7232164980638673,-1.6801808506282316,0.6406366736709437,-4.183548044063328,-0.07395676454961639,1
330,2024-09-24 12:21:32.440446976,0,016,-1.3609693596674695,0.9586448894822424,1.2940272541069053,-0.7460663987362216,-1.7218303311826149,0.6666214052799162,-4.107402559301611,-0.112556807379043,1
331,2024-09-24 12:21:32.502477056,0,016,-1.3259319007275445,0.9334760887553543,1.2353222290869328,-0.7662667707513527,-1.7484170797117482,0.689827513720091,-4.0476397681857215,-0.14094580510416527,1
332,2024-09-24 12:21:32.582084864,0,016,-1.2915382988620752,0.909984729417327,1.19171389350582,-0.7822844853424374,-1.7582257075642758,0.7093272341238138,-4.004729931964521,-0.15653232353027993,1
333,2024-09-24 12:21:32.643612928,0,016,-1.258805895739124,0.8883293539892795,1.1639269014360676,-0.7929071019830708,-1.7507174967049193,0.7243574849203819,-3.9782612409157108,-0.15774162305596076,1
334,2024-09-24 12:21:33.580485120,0,016,-1.2285745022322476,0.8685517229005446,1.1521763523556228,-0.7973776153472674,-1.726594671915231,0.7343990120735392,-3.9680772467152323,-0.14392602766449947,1
335,2024-09-24 12:21:33.658116096,0,016,-1.2014048460254387,0.8505758506300047,1.155970895319131,-0.7954409560087928,-1.6876647101150972,0.7392159954896235,-3.9752890226135276,-0.11517857608586665,1
336,2024-09-24 12:21:33.719662848,0,016,-1.1775170296996211,0.8342098021007465,1.1737963982918032,-0.7872722701180273,-1.6365668277271679,0.738859725953963,-4.0025686218331105,-0.0721697861182557,1
337,2024-09-24 12:21:33.781698048,0,016,-1.1567780780876848,0.8191583990021167,1.20281451847197,-0.7733119696537072,-1.5764093128465673,0.7336405026210884,-4.053641357026108,-0.016080983255516632,1
338,2024-09-24 12:21:33.859807232,0,016,-1.1387401165051008,0.8050439528785275,1.2387429980774334,-0.7540841959836451,-1.5104082362535387,0.7240773833110364,-4.13236244899314,0.051379406292490847,1
339,2024-09-24 12:21:33.932252928,0,016,-1.1227158618272497,0.7914277892364087,1.2760643990966096,-0.7300825807865727,-1.4416550817151152,0.7108465142472206,-4.24179233844597,0.12796124834721428,1
340,2024-09-24 12:21:34.000297216,0,016,-1.1078576316223114,0.7778309138642379,1.3085921390166988,-0.7017609155410334,-1.3730547334499836,0.6947436411193356,-4.383542575367126,0.2109479401769067,1
341,2024-09-24 12:21:34.918968064,0,016,-1.0932048489084225,0.7637544896415386,1.330219301360226,-0.6695946932398477,-1.3073426716443035,0.6766559881508365,-4.5574430334739375,0.29731537870000213,1
342,2024-09-24 12:21:34.985061888,0,016,-1.0776897125417526,0.7486941379573552,1.33555589371196,-0.6341354426227664,-1.2470596271320757,0.6575277130960256,-4.761279853456004,0.3838719095729145,1
343,2024-09-24 12:21:35.046433792,0,016,-1.0601286572684498,0.7321434773864142,1.3202497371901551,-0.5959964323947952,-1.1944328736194443,0.6383114698604813,-4.990426313589021,0.4673189188772715,1
344,2024-09-24 12:21:35.107348992,0,016,-1.0392448796041622,0.7135979612120935,1.2810464356253812,-0.5557776087397817,-1.1511817279631016,0.6199117796491369,-5.237709126620997,0.5443047719554448,1
345,2024-09-24 12:21:35.186639104,0,016,-1.0137353831629436,0.6925726508612742,1.2158221094872963,-0.5139956584532207,-1.11829813549638,0.6031303511935676,-5.493954605484661,0.6115711618650009,1
346,2024-09-24 12:21:35.247507968,0,016,-0.982356140088765,0.6686286723514951,1.1236995103510032,-0.4710691540184369,-1.095886951416553,0.5886211645006055,-5.748991337310857,0.6661710195022527,1
347,2024-09-24 12:21:35.325162752,0,016,-0.9440082244295211,0.6413965674167531,1.0051576050093716,-0.4273589932162941,-1.0831553706715429,0.5768598654735811,-5.992373652156542,0.7056422793353821,1
348,2024-09-24 12:21:36.240154112,0,016,-0.8978338136429431,0.6106016276982422,0.862070695942174,-0.3832490386700361,-1.0785670548216435,0.5681292247914735,-6.213432459302657,0.7280645327874865,1
349,2024-09-24 12:21:36.302642176,0,016,-0.8433205245153272,0.57610308156077,0.697737563224009,-0.33925241390537847,-1.0800785371371149,0.5625183365648712,-6.40100105232648,0.7320389817105749,1
350,2024-09-24 12:21:36.379854080,0,016,-0.7803881873962385,0.5379410364848995,0.5169466829498985,-0.29611599446059833,-1.0853477168574244,0.5599279401949324,-6.543504392407608,0.7166939150190266,1
351,2024-09-24 12:21:36.442771968,0,016,-0.7094359485201264,0.49637254112729384,0.326002068031829,-0.2548859643468904,-1.0918623895545727,0.5600755319511396,-6.6298174242101675,0.6817782400191791,1
352,2024-09-24 12:21:36.504477952,0,016,-0.6313458646563536,0.45188979233667237,0.13256719760075766,-0.21689968537095605,-1.0970211460276493,0.5625032424971502,-6.6507615468735075,0.6278106466529296,1
353,2024-09-24 12:21:36.578364928,0,016,-0.5474330171846918,0.4052226946895995,-0.05475822205203874,-0.18368858471236837,-1.0982365014834912,0.5665967922284821,-6.600705409936415,0.556185140992547,1
354,2024-09-24 12:21:36.640438016,0,016,-0.45931937178862603,0.3573167072285568,-0.22709911673211877,-0.15681300080051586,-1.0931021664981104,0.5716219370321184,-6.478638975462041,0.4691525681709642,1
355,2024-09-24 12:21:37.593583872,0,016,-0.3687479283958569,0.30927532026844434,-0.37608197354273093,-0.13767562311961778,-1.0796180661279131,0.5767818497422249,-6.288383779313945,0.36969096925076855,1
356,2024-09-24 12:21:37.655194112,0,016,-0.2774181797073392,0.2622835718861161,-0.49454644706354867,-0.1273704218172414,-1.0564303689655419,0.5812922011663572,-6.038127143280315,0.2613472113420182,1
357,2024-09-24 12:21:37.720824832,0,016,-0.18691573027151093,0.21754734064995276,-0.5770020056645708,-0.1266222234615659,-1.0230197915142536,0.5844602018238186,-5.739720152538391,0.14808604639802325,1
358,2024-09-24 12:21:37.794685952,0,016,-0.09873404983839805,0.17626151966750603,-0.6197298572360762,-0.13583050362146998,-0.9797841337148657,0.5857519072215912,-5.407904923109448,0.03408588183748366,1
359,2024-09-24 12:21:37.857814016,0,016,-0.014340113888521248,0.13958907259504583,-0.6205984921682837,-0.1551674230779603,-0.9280209491514946,0.584839818226273,-5.059344218760037,-0.0765668324526493,1
360,2024-09-24 12:21:37.932719104,0,016,0.06476512799473297,0.10863043178593107,-0.5787738371853345,-0.18465905808072508,-0.8698517237950478,0.5816253954965136,-4.711494367565832,-0.18021252086546186,1
361,2024-09-24 12:21:37.997033216,0,016,0.13703726656639975,0.08437504200846473,-0.49447779203877296,-0.22420354324983607,-0.8080833449163023,0.5762285497882697,-4.381595129451255,-0.27385383431503346,1
362,2024-09-24 12:21:38.941391872,0,016,0.20095743503566038,0.06762965694145112,-0.36889675681487955,-0.2735142284324224,-0.7459590611549684,0.5689446392393501,-4.085888281693888,-0.3552368485879149,1
363,2024-09-24 12:21:38.997611008,0,016,0.25515869671661406,0.0589242076920916,-0.2042831668257313,-0.3320185103238568,-0.6868133934325632,0.5601891260603568,-3.8388712191262178,-0.42282519154701187,1
364,2024-09-24 12:21:39.075719936,0,016,0.29855882665475547,0.05841897473266372,-0.004111886851346488,-0.3987796593150789,-0.6337336637461211,0.5504579515576078,-3.652333536668951,-0.4757505674027801,1
365,2024-09-24 12:21:39.137783808,0,016,0.3304727228978013,0.06585269298084784,0.22693258281509823,-0.47248973809881706,-0.5892954818672819,0.5403104316856274,-3.5341553809744974,-0.5137928514162299,1
366,2024-09-24 12:21:39.215040000,0,016,0.3507047566194572,0.08055646384244214,0.48313461900303606,-0.5515177033032526,-0.5553504969895724,0.5303516905390798,-3.4871346937473207,-0.5374014213300468,1
367,2024-09-24 12:21:39.279343872,0,016,0.35959813508702826,0.10152948916989894,0.7579085935957399,-0.6339710169473248,-0.5328743409271157,0.5211945425148999,-3.5082493410445443,-0.5477539857393702,1
368,2024-09-24 12:21:39.350686976,0,016,0.3579911832946523,0.1275574065014554,1.0439207393147012,-0.7177622600056561,-0.5219540067830483,0.5134107995591219,-3.5887588746008,-0.5468139884171901,1
369,2024-09-24 12:21:40.279538944,0,016,0.34706804985803236,0.1573494714266804,1.33331766335684,-0.8006934651279471,-0.5219304605485915,0.5074917020540378,-3.715319500875636,-0.5372969838047285,1
370,2024-09-24 12:21:40.361720832,0,016,0.32815371267380244,0.1896666818029904,1.6180889806738392,-0.8805500555815444,-0.531599613682807,0.5038199986039066,-3.8717693696475304,-0.5224898117454975,1
371,2024-09-24 12:21:40.418771968,0,016,0.3025137128894076,0.22342003533258278,1.8904289370438334,-0.9551881802875765,-0.5493822091615339,0.502649259227377,-4.04090558159201,-0.50595485111578,1
372,2024-09-24 12:21:40.496471808,0,016,0.2712004032942928,0.2577349877197882,2.1429995174549585,-1.0226231747138534,-0.5734557281300033,0.5040977106826902,-4.205798018275734,-0.49118302569328276,1
373,2024-09-24 12:21:40.559998976,0,016,0.23498355359877626,0.2919824730080568,2.369069692083759,-1.0811242206359715,-0.6018769842849165,0.5081651598685546,-4.350658750966785,-0.48125477302638486,1
374,2024-09-24 12:21:40.622535936,0,016,0.19438320660532335,0.3257728167399362,2.5625218169032884,-1.1292877072906173,-0.632703807162209,0.5147631689789512,-4.461557976741529,-0.4785679182012385,1
375,2024-09-24 12:21:40.700645120,0,016,0.14977603675155138,0.3589185419998682,2.7178313986405414,-1.166070110796345,-0.6641072665968432,0.5237397418224177,-4.527204786995554,-0.4846604045870132,1
376,2024-09-24 12:21:41.638136064,0,016,0.10152283634961831,0.3913854934231934,2.8301894784453223,-1.190797355463423,-0.6944717724043952,0.5348943674881795,-4.539747547636827,-0.5001171290372235,1
377,2024-09-24 12:21:41.709500928,0,016,0.050076849094319045,0.4232462124014004,2.895741290003124,-1.2031615967855434,-0.722475769605043,0.5479897834356457,-4.495377430523919,-0.5245575601212727,1
378,2024-09-24 12:21:41.778091776,0,016,-0.003950607895075724,0.4546347045562401,2.9117928776390496,-1.2032014787369616,-0.7471249339837382,0.5627577738833157,-4.394533060532871,-0.5567181988539662,1
379,2024-09-24 12:21:41.839628800,0,016,-0.059772815481503976,0.4857008190923501,2.8770152552574584,-1.191289391933291,-0.7677143055829152,0.578891921980936,-4.241669825238858,-0.5946194868426571,1
380,2024-09-24 12:21:41.902116864,0,016,-0.11643841001251144,0.5165706507171328,2.7917512999631082,-1.1681542582458564,-0.7837385833204998,0.5960355618383585,-4.044815106059833,-0.6357677775730385,1
381,2024-09-24 12:21:41.983006720,0,016,-0.17284572491922437,0.5473172604640419,2.6583349917793564,-1.134914737311751,-0.7948110215199962,0.6137848924150474,-3.815165906407769,-0.6773461492652774,1
382,2024-09-24 12:21:42.050847232,0,016,-0.22776599552386423,0.5779387570755058,2.48125002674769,-1.0930757511400384,-0.8006459051288587,0.6317141585247833,-3.5666691830488695,-0.7163941286939266,1
383,2024-09-24 12:21:42.994042112,0,016,-0.2798982653092008,0.608344944736225,2.26709387398749,-1.044487430123919,-0.8011063029608152,0.6494091892119245,-3.315380950321164,-0.7499945360605862,1
384,2024-09-24 12:21:43.061885952,0,016,-0.327957612129574,0.6383598153098837,2.0244028677585826,-0.991293404824591,-0.7962738638126686,0.6664938357726063,-3.078618411655335,-0.775459108092609,1
385,2024-09-24 12:21:43.129716992,0,016,-0.37077711017061066,0.6677385036987603,1.763347303400823,-0.9358636431184579,-0.7865029724939745,0.6826459077716782,-2.8739442892579214,-0.790512635934007,1
386,2024-09-24 12:21:43.183248128,0,016,-0.4074092197242188,0.6961869336883217,1.4952612908906602,-0.8806823551065178,-0.7724409320721127,0.6976041437418098,-2.7178300875915973,-0.7934944445508557,1
387,2024-09-24 12:21:43.260935936,0,016,-0.43721684327970745,0.7233787700027277,1.2320225394773088,-0.8281943420066298,-0.7549916306001612,0.7111638742239506,-2.6239933832664075,-0.7835419012212228,1
388,2024-09-24 12:21:43.333035776,0,016,-0.4599296539878453,0.7489742298232969,0.9853694810587137,-0.7806578543063685,-0.7352051695880695,0.723159479999267,-2.6018011910065253,-0.7606799918900534,1
389,2024-09-24 12:21:43.400618240,0,016,-0.4756362893151647,0.7726400651154831,0.7662248666401983,-0.7400431872257661,-0.7141195911118902,0.7334406841789715,-2.655226256238743,-0.7257980875440793,1
390,2024-09-24 12:21:44.333532928,0,016,-0.4847147071303721,0.7940629727337977,0.5840362032494957,-0.7079709678623738,-0.692632459823801,0.7418582275150363,-2.7825930185314047,-0.6805421364214078,1
391,2024-09-24 12:21:44.411191808,0,016,-0.4877436806691438,0.8129577556957045,0.4461722980984836,-0.6856644400700582,-0.6714696591788234,0.7482700557452108,-2.977118305425453,-0.6271257167890045,1
392,2024-09-24 12:21:44.476745984,0,016,-0.4854359266183891,0.8290820706355432,0.35749180284268617,-0.6739054420288967,-0.651217086363645,0.7525588155450015,-3.2281477638253793,-0.5680605101221805,1
393,2024-09-24 12:21:44.547525888,0,016,-0.47859216619615313,0.8422611793966065,0.32016791559717994,-0.6729978689504467,-0.6323158630428896,0.7546390110656778,-3.522811909929585,-0.5058626420268377,1
394,2024-09-24 12:21:44.603153152,0,016,-0.46805818907798835,0.8524105420077469,0.33373776522110743,-0.6827435533787635,-0.615015791564924,0.7544513245664112,-3.847589429873799,-0.44282091010135277,1
395,2024-09-24 12:21:44.683092992,0,016,-0.4546918464573513,0.8595452426699997,0.3952993085229768,-0.702439722998447,-0.5993780215732902,0.7519626482568891,-4.189344921066389,-0.38086043682678805,1
396,2024-09-24 12:21:44.741938176,0,016,-0.4393561427351006,0.863779243212792,0.49977315377492926,-0.7309071401216102,-0.5853413196138961,0.7471760003216055,-4.535860591879332,-0.3214646230583122,1
397,2024-09-24 12:21:45.694195968,0,016,-0.422922923258554,0.8653202311030348,0.6401245962131332,-0.766541731541778,-0.5727632367817994,0.7401334800713132,-4.876170296558756,-0.26562223159661075,1
398,2024-09-24 12:21:45.761153024,0,016,-0.40625532222204935,0.864455156309447,0.8075175088532396,-0.8073758961714124,-0.5613884846498928,0.730905051164022,-5.200844518049389,-0.21381854861101382,1
399,2024-09-24 12:21:45.823198976,0,016,-0.39017350914496085,0.861521868656593,0.9915325859140834,-0.8511552510382533,-0.5507915659138672,0.7195766924730034,-5.502084530003478,-0.1661011141916103,1
400,2024-09-24 12:21:45.885212928,0,016,-0.3754389980831095,0.8568786685704866,1.180630256789825,-0.8954573185029746,-0.5403592669807963,0.7062533356913089,-5.773400823139455,-0.12222978105619994,1
401,2024-09-24 12:21:45.965384960,0,016,-0.362757388046297,0.8508872910585827,1.3628926000530608,-0.9378654819009232,-0.5293325501497074,0.6910765943826647,-6.008916839099747,-0.081898226141064,1
402,2024-09-24 12:21:46.025771008,0,016,-0.35275683675243086,0.843905445271235,1.5268675187427354,-0.976159271387665,-0.5168895973325753,0.6742438936351555,-6.202801193250117,-0.044958814317948605,1
403,2024-09-24 12:21:46.087688960,0,016,-0.345933241062406,0.836274162300412,1.662288381943953,-1.008454773796776,-0.5022610984280806,0.6560199837816595,-6.349394099513825,-0.011542508968646495,1
404,2024-09-24 12:21:47.009063936,0,016,-0.3426090350518131,0.8283002119189772,1.7606039084175502,-1.0332768728460207,-0.48488999083533124,0.636745579860614,-6.443957719558568,0.01796016611494609,1
405,2024-09-24 12:21:47.087132928,0,016,-0.3429298260676828,0.8202446184458078,1.815386260165002,-1.0495943301312294,-0.4646164907408907,0.6168476466338579,-6.483363428576687,0.04296956407095989,1
406,2024-09-24 12:21:47.153806848,0,016,-0.3468652332763381,0.8123147317453484,1.8226185848220409,-1.0568315422752703,-0.4418021946576005,0.5968420249934363,-6.46623318874499,0.06274731833536373,1
407,2024-09-24 12:21:47.211591168,0,016,-0.35419626582111263,0.8046483910253689,1.7807708143773142,-1.0548517304929974,-0.4173105946636719,0.5773161226480154,-6.392668923475888,0.07639485390776768,1
408,2024-09-24 12:21:47.290508032,0,016,-0.364522624364385,0.7972942842373553,1.6906462366359174,-1.0439311070309665,-0.39236142681984115,0.5588937022312425,-6.263874741955632,0.08287433292430414,1
409,2024-09-24 12:21:47.350840064,0,016,-0.3773037192468053,0.7902054520402877,1.555076709710021,-1.0247418519654714,-0.36834151355590966,0.5421920889721671,-6.081861055754185,0.08108195475626286,1
410,2024-09-24 12:21:47.413616896,0,016,-0.3918977968529125,0.7832524867455606,1.3785168780164443,-0.9983107280658271,-0.34663035397960107,0.5277755798330537,-5.849521762915495,0.06999672335444464,1
411,2024-09-24 12:21:48.337714944,0,016,-0.40758085287827145,0.776247771973483,1.1665695419074325,-0.9659023026519434,-0.3284802973015773,0.5161077584399546,-5.571364505598892,0.04890987379388835,1
412,2024-09-24 12:21:48.411491072,0,016,-0.4235764812843568,0.7689721074882129,0.9255006698416546,-0.9288226114732424,-0.3149764198044585,0.5075130371804655,-5.254721288781189,0.017682383962495607,1
413,2024-09-24 12:21:48.476728064,0,016,-0.4391201856237783,0.7612039648401229,0.6617942748363268,-0.8882041065892714,-0.30703586739582395,0.5021564279282866,-4.910869878422079,-0.0230329303024424,1
414,2024-09-24 12:21:48.547070976,0,016,-0.4535256240065461,0.7527509951851699,0.3818419694395607,-0.8448663003885171,-0.30537068163173464,0.5000394923713831,-4.555521174916364,-0.07163943210676617,1
415,2024-09-24 12:21:48.614897920,0,016,-0.466201471562234,0.7434721115237934,0.09192250946946333,-0.7993116033504563,-0.31039123959709264,0.5010035172622809,-4.2082889630348435,-0.12557792618346142,1
416,2024-09-24 12:21:48.677552896,0,016,-0.4766219700013192,0.7332790560029496,-0.20151923253543527,-0.7518394617165528,-0.32209781581778596,0.5047359354864529,-3.89099427654051,-0.18152201079373664,1
417,2024-09-24 12:21:48.739572992,0,016,-0.4843102292779543,0.7221262861557374,-0.49154288294722587,-0.7027199258974695,-0.3400161746211139,0.5107853448592736,-3.6251750179685946,-0.23575999133294823,1
418,2024-09-24 12:21:49.686710016,0,016,-0.4888762272720841,0.7100090007847005,-0.7706113477026565,-0.6523725163050377,-0.3631866193025202,0.5185908370950315,-3.4295798906938733,-0.2846275930513103,1
419,2024-09-24 12:21:49.749197056,0,016,-0.4900973001133319,0.6969740359554546,-1.030771597792997,-0.6015110963602049,-0.39019494496188584,0.527524464211216,-3.318211737490812,-0.32490025740430856,1
420,2024-09-24 12:21:49.825959936,0,016,-0.48800791512630304,0.6831298742326685,-1.2639924189513079,-0.5512283668569284,-0.4192622260996545,0.5369415583637879,-3.299029446815712,-0.35412704680104723,1
421,2024-09-24 12:21:49.893058048,0,016,-0.48297138497449965,0.6686441680759699,-1.462549779364827,-0.5030036856428473,-0.44842219305748676,0.5462347267627204,-3.373288600716216,-0.37086523232653257,1
422,2024-09-24 12:21:49.950927872,0,016,-0.47570503870250247,0.6537330875236664,-1.6194254787879203,-0.458627437967395,-0.4757863456491765,0.5548901440992753,-3.5355411649545703,-0.37475684817932586,1
423,2024-09-24 12:21:50.031214848,0,016,-0.4672294921323728,0.6386525871168076,-1.7287024035453968,-0.4200521099877985,-0.49985310087925916,0.5625421700380343,-3.7742494352849865,-0.36643561539476394,1
424,2024-09-24 12:21:50.090426880,0,016,-0.458739382061533,0.6236910610176393,-1.78595251023043,-0.38919303440720443,-0.5197852432241692,0.5690170031296359,-4.0728895263713065,-0.3472993746922215,1
425,2024-09-24 12:21:51.037935104,0,016,-0.4514438005409085,0.6091567105677824,-1.7886696605316497,-0.3677037428228892,-0.5355999031022879,0.5743614655588222,-4.411422948435533,-0.31921046849560647,1
426,2024-09-24 12:21:51.100396032,0,016,-0.4464414124347503,0.5953620014565223,-1.7368041669813536,-0.35675890316809483,-0.5482608301827799,0.5788610530244778,-4.768027191272822,-0.28420281361329525,1
427,2024-09-24 12:21:51.162458112,0,016,-0.44464364234835213,0.5826134651561133,-1.633319310844627,-0.3568838850254348,-0.5596600020221904,0.5830432772774071,-5.12088103933095,-0.24426485453196253,1
428,2024-09-24 12:21:51.240132096,0,016,-0.4467085169088395,0.5712065457958971,-1.4845137189657338,-0.36786012146150115,-0.5724577207076641,0.5876501090297883,-5.449692049241577,-0.20123669993191962,1
429,2024-09-24 12:21:51.303097856,0,016,-0.4529660468152465,0.5614163146995998,-1.2998332414345926,-0.38872679819957556,-0.589792427843317,0.593568261093758,-5.7367234339666595,-0.15682606999698515,1
430,2024-09-24 12:21:51.380835072,0,016,-0.4633642049714705,0.553479992510483,-1.0911027240859283,-0.4178833207054647,-0.6149260517393428,0.601722749235651,-5.967291069153861,-0.11270223267941144,1
431,2024-09-24 12:21:51.443523072,0,016,-0.4774721263143681,0.5475806819879078,-0.8714053112342713,-0.45325843661587784,-0.6508694806315505,0.6129509564150621,-6.129895268390438,-0.0705801739060013,1
432,2024-09-24 12:21:52.392339968,0,016,-0.4945395684398694,0.5438440100456697,-0.6539707891103363,-0.4924933711922097,-0.6999742044487862,0.6278754241731039,-6.216185080700596,-0.03223109992713029,1
433,2024-09-24 12:21:52.460189184,0,016,-0.5135824333409704,0.5423448976970254,-0.4512981998280387,-0.5331136715107859,-0.7634916061320915,0.6467912089849239,-6.22092282078346,0.0005717337051218882,1
434,2024-09-24 12:21:52.527155968,0,016,-0.5334769943249508,0.5431112610269531,-0.2745321491363125,-0.5726927670095276,-0.8412011600715172,0.6695893916625402,-6.142196720674302,0.026156741826235935,1
435,2024-09-24 12:21:52.595709952,0,016,-0.5530624738058062,0.5461197940361464,-0.1330416547310144,-0.6090095875904844,-0.931265863937966,0.69574434987312,-5.98198308360463,0.04310305111719214,1
436,2024-09-24 12:21:52.661867008,0,016,-0.5712329084616715,0.5512907003419578,-0.03415061692257024,-0.6401980246431657,-1.0303828827744854,0.7243746866278615,-5.746629165883623,0.050368003179936574,1
437,2024-09-24 12:21:52.718777856,0,016,-0.5869832463113381,0.5584865421118307,0.01704039627460784,-0.6648828372893796,-1.1341494189920367,0.7543533973035105,-5.4466462865367085,0.04731332183345832,1
438,2024-09-24 12:21:52.799147008,0,016,-0.5994072616708737,0.5675140956968702,0.017782020570803914,-0.6822787419904275,-1.2375127683980496,0.7844277672850457,-5.0957134234234935,0.03365581792766695,1
439,2024-09-24 12:21:53.742394112,0,016,-0.6076880096813707,0.5781312194313194,-0.032238185074861106,-0.6922246908648935,-1.3352097536753864,0.8133234895183413,-4.709286562814101,0.009431587864839091,1
440,2024-09-24 12:21:53.810233856,0,016,-0.6111136036666063,0.5900661196774836,-0.13087177610087983,-0.6951502881799614,-1.422147337948178,0.8398310115344008,-4.303166661840771,-0.025000084672922713,1
441,2024-09-24 12:21:53.866223104,0,016,-0.6091050244907696,0.6030487031576052,-0.2736075470060423,-0.6919870606002393,-1.493719029190227,0.8628828248876885,-3.892117386441605,-0.06895348161354409,1
442,2024-09-24 12:21:53.942953984,0,016,-0.6012250224364275,0.6168385753366713,-0.4538586662551117,-0.6840346893553343,-1.546076196921842,0.8816209373755789,-3.488675946106181,-0.12142791957602567,1
443,2024-09-24 12:21:54.004988160,0,016,-0.5871713377581638,0.6312353642147521,-0.6634479438312726,-0.6728025563286504,-1.5763711662533992,0.8954445294766538,-3.102544788790295,-0.18110515818350556,1
444,2024-09-24 12:21:54.067491072,0,016,-0.566786224308086,0.6460767905820215,-0.893232366488582,-0.6598608935494058,-1.5829738114707705,0.9040353236318635,-2.740808672175652,-0.24633250429634926,1
445,2024-09-24 12:21:54.145598976,0,016,-0.5400912866586587,0.6612382878588996,-1.133766739598392,-0.6467201903749936,-1.5656354392825471,0.9073671510054331,-2.4088370048654166,-0.315122438714578,1
446,2024-09-24 12:21:55.088446976,0,016,-0.5073224000855954,0.6766312510543805,-1.375889432157688,-0.6347292132033572,-1.525564493574735,0.9057051876349295,-2.1115824897392876,-0.38517654627729897,1
447,2024-09-24 12:21:55.150481920,0,016,-0.4689403517067835,0.6921827276467112,-1.6111340760183086,-0.6249846925413426,-1.4654077239162258,0.8995961677583582,-1.8548296205384842,-0.4539337607564007,1
448,2024-09-24 12:21:55.228201984,0,016,-0.4256117488266625,0.7077918958484215,-1.831940338609368,-0.61826869781039,-1.3891227057631472,0.8898420239592064,-1.6457340472383721,-0.5186679538725145,1
449,2024-09-24 12:21:55.295985920,0,016,-0.3781613490890305,0.7232810134989984,-2.0317420360662872,-0.6150228633199295,-1.301675349993926,0.8774398680884792,-1.492285364780086,-0.5766650361129587,1
450,2024-09-24 12:21:55.351799040,0,016,-0.32749003715699315,0.7383586788544267,-2.2050658770243596,-0.6153423104304591,-1.2085353588171237,0.8634821878307022,-1.4019507381921337,-0.6254931032352209,1
451,2024-09-24 12:21:55.430045952,0,016,-0.2744572882062034,0.7525946698288281,-2.3476693035710987,-0.6189816775881081,-1.115086872040345,0.8490394101831781,-1.3800170798691793,-0.6633352253678919,1
452,2024-09-24 12:21:55.492076032,0,016,-0.2197559691896186,0.7654005836487094,-2.45660850730439,-0.6253917088642388,-1.0261371276240623,0.8350578276152254,-1.4281682451173527,-0.6892699893857419,1
453,2024-09-24 12:21:56.431730944,0,016,-0.16382316011397444,0.7760233805798097,-2.5301769969940997,-0.6337889550982331,-0.9456018022315692,0.8222854372392799,-1.5438864239116274,-0.7033576051781332,1
454,2024-09-24 12:21:56.509799168,0,016,-0.10680407525658947,0.783562921993363,-2.567799595815648,-0.6432277656851867,-0.8763079026652658,0.8112139801873073,-1.7209398001831355,-0.7064943268080943,1
455,2024-09-24 12:21:56.577163008,0,016,-0.04855982210136754,0.7870156869403301,-2.569995453316467,-0.6526535200295566,-0.8198577945660228,0.8020295285769121,-1.9505361612730547,-0.7001185479417769,1
456,2024-09-24 12:21:56.645904128,0,016,0.011279041826466944,0.7853470777429983,-2.538421577725262,-0.6609610905209642,-0.7766083271593064,0.7945901676929172,-2.22239582240803,-0.6858876155299406,1
457,2024-09-24 12:21:56.704705024,0,016,0.07320652154151792,0.7776028288130784,-2.4758782676293336,-0.6671045727431719,-0.7458278221029657,0.7884549019988984,-2.5253016378340503,-0.665427299337196,1
458,2024-09-24 12:21:56.781724160,0,016,0.1377077603279367,0.763062058411612,-2.386125919263313,-0.6702700239052927,-0.7259637447735663,0.782957663015255,-2.8472960672754444,-0.6401918605914547,1
459,2024-09-24 12:21:56.839360000,0,016,0.20513757134287278,0.7414113867720513,-2.273500301977857,-0.670058745067404,-0.7148946794098059,0.777298974765081,-3.1760521375480253,-0.611390085722862,1
460,2024-09-24 12:21:57.752889856,0,016,0.2756253182103999,0.7129050093734423,-2.1424877745194637,-0.6666041910561297,-0.7101230104676599,0.7706432458881608,-3.4996826109358414,-0.5799367180120434,1
461,2024-09-24 12:21:57.830131200,0,016,0.3490016614513368,0.678474931826902,-1.9974051988424182,-0.6606004769233771,-0.7089308429814305,0.7622226885836224,-3.8077411984351923,-0.5464612830390184,1
462,2024-09-24 12:21:57.904075008,0,016,0.4247402325261763,0.6397592450549836,-1.84216623229849,-0.6532856128628117,-0.7085149786139014,0.7514324230585039,-4.092057275056438,-0.5114028130124013,1
463,2024-09-24 12:21:57.968719872,0,016,0.5019081347837502,0.5990263346428231,-1.6800649014649425,-0.6464044691010336,-0.7061256440346813,0.737890035119075,-4.347297675353219,-0.475129808814868,1
464,2024-09-24 12:21:58.031328768,0,016,0.5791353344465554,0.5589943847082408,-1.513577973656871,-0.6421182493538975,-0.6992525087988782,0.721450882527094,-4.571207512834645,-0.4380004550577908,1
465,2024-09-24 12:21:58.107518720,0,016,0.6546284805514949,0.522572214786505,-1.34420676293959,-0.6428280857135525,-0.6858607103270713,0.7021915316817171,-4.76430824433984,-0.40036551834013806,1
466,2024-09-24 12:21:58.172000000,0,016,0.7262388701941113,0.4925688555829107,-1.172393807291592,-0.650921580331517,-0.6646180810706768,0.6803782309494067,-4.928931049403505,-0.362583954562951,1
467,2024-09-24 12:21:59.093980928,0,016,0.7915718126859055,0.4714275539414822,-0.9976501450194661,-0.6684718994804676,-0.6350459509299818,0.6564343743994234,-5.067848134632382,-0.3250824973651301,1
468,2024-09-24 12:21:59.155255040,0,016,0.8481327647493435,0.4610279535415182,-0.8190307032181393,-0.6969341982341337,-0.5975491732799497,0.6309114751571272,-5.182973327608705,-0.288425811807248,1
469,2024-09-24 12:21:59.217317120,0,016,0.8935236766010171,0.46256853860314373,-0.6358762670855115,-0.7369066018716793,-0.5533027075426593,0.6044510816639819,-5.274539999112062,-0.253365620107699,1
470,2024-09-24 12:21:59.297446144,0,016,0.9256863623846624,0.47651199339301337,-0.44856237930796955,-0.788013834485607,-0.504009050657425,0.5777215621266176,-5.340988910516726,-0.22086253277693355,1
471,2024-09-24 12:21:59.356492032,0,016,0.9431510736590025,0.5025737307023032,-0.2590787928488653,-0.8489232114376893,-0.4515849924680485,0.5513355859539462,-5.379541543998711,-0.19206433436625922,1
472,2024-09-24 12:21:59.418044160,0,016,0.9452431604348094,0.539749442644363,-0.0714005235278082,-0.9174640837469514,-0.3978567070450587,0.525775185855484,-5.387194950152767,-0.16823227355732803,1
473,2024-09-24 12:21:59.500770048,0,016,0.9322218416810129,0.5863841392524985,0.1084400786364594,-0.9908274085558506,-0.34434097065526675,0.5013470918376057,-5.361747099751868,-0.15065897422794822,1
474,2024-09-24 12:22:00.438790912,0,016,0.9053194638808463,0.6402825737861297,0.27273822944999104,-1.0658380020332263,-0.29216528744006026,0.4781740170809662,-5.302416522647639,-0.14063844283874752,1
475,2024-09-24 12:22:00.509093120,0,016,0.8666416938941979,0.698863270476812,0.4129553524093346,-1.1392682442690358,-0.24211443726198506,0.45621568046530303,-5.209794447089774,-0.13949892208791187,1
476,2024-09-24 12:22:00.573652992,0,016,0.8189393160966782,0.7593557026470475,0.5207969863899085,-1.2081309916849696,-0.19472940931925886,0.4353061731494906,-5.085350802061486,-0.14864242431930108,1
477,2024-09-24 12:22:00.647545088,0,016,0.7653287578776053,0.8190185090448633,0.5893051292010957,-1.2699102355066372,-0.15039647227540284,0.4151929826783429,-4.931086196414512,-0.16948783626467442,1
478,2024-09-24 12:22:00.713827840,0,016,0.709035082334833,0.8753365873687128,0.6138193504700308,-1.3227314830469892,-0.10941307292108234,0.3955714658041935,-4.749643390060137,-0.203248629177505,1
479,2024-09-24 12:22:00.775822080,0,016,0.6531742858274281,0.9261660670293945,0.5926665637021532,-1.365479619101626,-0.07202314720498942,0.37611855083926804,-4.544520865861534,-0.2506186106496749,1
480,2024-09-24 12:22:00.851011840,0,016,0.6005631908451895,0.9698271402147929,0.5274480597497269,-1.397846926793393,-0.038398334840596474,0.35653017146040306,-4.319882926460469,-0.3115354753113151,1
481,2024-09-24 12:22:01.780011008,0,016,0.5535594491354351,1.0051591228987207,0.4229113197810899,-1.420290587884947,-0.008554518960776936,0.3365583060795169,-4.080029154974483,-0.38510728160734137,1
482,2024-09-24 12:22:01.857211136,0,016,0.513938712171096,1.0315427617219597,0.28651253480330996,-1.4339110776628576,0.017768699306218688,0.316037692300751,-3.8290297064325998,-0.46964890617026755,1
483,2024-09-24 12:22:01.918821120,0,016,0.4827976222604052,1.0488870482714163,0.12773599374200373,-1.4402872253799228,0.041199080363691604,0.294900468070447,-3.5707697483416863,-0.5627632276520578,1
484,2024-09-24 12:22:01.997562880,0,016,0.460475843206349,1.0575844433018764,-0.04283944303900031,-1.4412976084133566,0.06272487126088287,0.27318664742110116,-3.309144949542812,-0.6614795945037354,1
485,2024-09-24 12:22:02.057101056,0,016,0.44652785047689675,1.058443742915169,-0.21464802833823637,-1.4389430011569055,0.08355893507329654,0.2510528009166383,-3.048164497459173,-0.7624770637229573,1
486,2024-09-24 12:22:02.133135872,0,016,0.4397870643147139,1.052603454951533,-0.378164483163345,-1.4351849916914292,0.10488869828800233,0.2287706958167655,-2.7920773447121703,-0.8623494882652597,1
487,2024-09-24 12:22:02.196564992,0,016,0.4385244435349699,1.0414243878637268,-0.525575802626616,-1.431826775880142,0.1275933713175096,0.20670491174061567,-2.545687953182024,-0.9578297486148263,1
488,2024-09-24 12:22:03.143819008,0,016,0.4406615307884224,1.0263708106808827,-0.6510517098943794,-1.4304427985274906,0.1520617024453924,0.18526520388614287,-2.31482444997833,-1.045924357655008,1
489,2024-09-24 12:22:03.206305792,0,016,0.4439904503842072,1.0089037388222108,-0.7508208652660617,-1.4323212833540393,0.17818732491581937,0.16484650895497596,-2.106764370156681,-1.123959957326478,1
490,2024-09-24 12:22:03.274872064,0,016,0.4463649694901693,0.9904062071788543,-0.8232531444936984,-1.4383907093611252,0.2054991574046732,0.14578166685609456,-1.930367523466233,-1.189580516104767,1
491,2024-09-24 12:22:03.347662848,0,016,0.44584483599123176,0.9721387021000637,-0.8689528501902543,-1.4491526350995798,0.2333300011484766,0.1283210960072758,-1.7958504587684443,-1.240745621603802,1
492,2024-09-24 12:22:03.408403968,0,016,0.44079171854509414,0.9552093834523597,-0.8907209472526758,-1.4646591073052355,0.26094849045345353,0.11263552390093348,-1.7143308984351493,-1.275756877442818,1
493,2024-09-24 12:22:03.471098880,0,016,0.4299222504734607,0.9405521588730418,-0.8932228735020854,-1.4845485509774685,0.28762229242624726,0.09883487201764617,-1.6971007882968117,-1.2933088542893996,1
494,2024-09-24 12:22:03.551067136,0,016,0.41233748766047623,0.9289157142441168,-0.8823099281427417,-1.50813102549671,0.31262445166342395,0.08699860962079412,-1.7545085309549298,-1.292530125435098,1
495,2024-09-24 12:22:04.482440960,0,016,0.3875539560500421,0.9208621940978792,-0.8641453531319135,-1.5344914155565703,0.3352157489363212,0.07720753715071836,-1.894742689632799,-1.2729562642037167,1
496,2024-09-24 12:22:04.554636032,0,016,0.3555257044431163,0.9167691317332609,-0.8444037303338375,-1.562567515407116,0.35461748918460917,0.06956616656379162,-2.1230711606692405,-1.234419538444862,1
497,2024-09-24 12:22:04.617372928,0,016,0.3166167982015559,0.9168336007193666,-0.8277363490086701,-1.5911861160354155,0.36997573456299365,0.06421475183739941,-2.4416906493197614,-1.1769287866004112,1
498,2024-09-24 12:22:04.695785216,0,016,0.2715165115884519,0.921084034682397,-0.8175587964279686,-1.6190767014876533,0.380332682113227,0.06133671114565334,-2.849795034552998,-1.1006289334981385,1
499,2024-09-24 12:22:04.765527040,0,016,0.22113612981770822,0.9294026387352691,-0.8161693246683852,-1.6448826486929045,0.38462028732755155,0.06116380601221712,-3.3434225927723866,-1.005864500647731,1
500,2024-09-24 12:22:04.818883072,0,016,0.16652476190014112,0.9415516783503003,-0.8251680271030446,-1.667168389231964,0.38168123924180475,0.06397217755574361,-3.9149909002472008,-0.8933313954379702,1
501,2024-09-24 12:22:04.901167104,0,016,0.1088071207776241,0.9571944292649903,-0.8459931235397339,-1.6844244478328425,0.3703463605501434,0.07005530929823217,-4.552700935911941,-0.7642944045642892,1
502,2024-09-24 12:22:05.844368896,0,016,0.04912706656148095,0.9759129137172128,-0.8802612525323171,-1.695095179094474,0.34960214925211014,0.07966893654497542,-5.240082834447121,-0.6208056006722577,1
503,2024-09-24 12:22:05.908498944,0,016,-0.011397149569862099,0.99722982666477,-0.9297159742766948,-1.697652613373879,0.3188134119854878,0.09296437389296973,-5.956052989927813,-0.46581336901745557,1
504,2024-09-24 12:22:05.970627840,0,016,-0.07167355848276992,1.0206295478969218,-0.9958671847793774,-1.690712008470326,0.2779005985727275,0.10993611446421629,-6.675903044758187,-0.30308055702391523,1
505,2024-09-24 12:22:06.037341184,0,016,-0.13059238977130327,1.0455661923389148,-1.0795516086657417,-1.6731688743484405,0.22738249400878854,0.13040118962094144,-7.373398504829031,-0.13691316269422324,1
506,2024-09-24 12:22:06.111630848,0,016,-0.18699601118585926,1.071459921031038,-1.1805490076918144,-1.6443502615279955,0.168265119902752,0.15401680636264978,-8.023668429160113,0.028239607389243443,1
507,2024-09-24 12:22:06.173186048,0,016,-0.2397115946392039,1.097696013957854,-1.2972342243488824,-1.6041856913618862,0.10184510203695218,0.18033171561072892,-8.606140554589786,0.1882300081220467,1
508,2024-09-24 12:22:06.235694848,0,016,-0.28762265389989655,1.1236359716676538,-1.4262493290746598,-1.5533818372326824,0.029529047826524046,0.20885165511561635,-9.10662609226828,0.3395820006264428,1
509,2024-09-24 12:22:07.179274240,0,016,-0.32972604367232594,1.148633578542044,-1.5622963436773751,-1.493546308855866,-0.04728646041506821,0.23909183786624788,-9.51791285958481,0.47965033228218296,1
510,2024-09-24 12:22:07.259475200,0,016,-0.3651590864373074,1.1720423853950612,-1.698218072705865,-1.4271915871143228,-0.12729173685760983,0.27060154589655067,-9.838906152293033,0.6065249943137028,1
511,2024-09-24 12:22:07.320003840,0,016,-0.39321530097566515,1.1932143711848051,-1.8255115984929684,-1.3575764124041965,-0.20931658903449918,0.3029656613120361,-10.07295983999181,0.7187835657267271,1
512,2024-09-24 12:22:07.382492160,0,016,-0.413358745440815,1.2115036025628092,-1.9352816561076724,-1.2883949815237286,-0.29235828530846464,0.3357960663309083,-10.226025765670537,0.8152292537572776,1
513,2024-09-24 12:22:07.460529152,0,016,-0.42522662710578607,1.2262815566921932,-2.019434065765625,-1.2233683940459557,-0.37557039387895913,0.3687211933403277,-10.304935608802172,0.8946863916501833,1
514,2024-09-24 12:22:07.525191168,0,016,-0.42861688266054326,1.236957151235424,-2.0718120268774904,-1.1658075477945202,-0.458188949810544,0.40137575851122176,-10.31609169345976,0.9558943457901727,1
515,2024-09-24 12:22:07.584877056,0,016,-0.4234849892718217,1.2429993259404515,-2.089020707046206,-1.1182282591324038,-0.5394026782628025,0.43339177436650383,-10.264901215768193,0.9975582300810873,1
516,2024-09-24 12:22:08.518563072,0,016,-0.4099769894571349,1.2439696961434494,-2.0707459466779534,-1.0821157820026401,-0.6182343977860946,0.4643952960040167,-10.156020465048915,1.0185917390279193,1
517,2024-09-24 12:22:08.582179840,0,016,-0.3884909833415474,1.239562937529801,-2.019481976842366,-1.0579066977387617,-0.6935143695813211,0.49401367270171564,-9.994096200270526,1.0184997746333595,1
518,2024-09-24 12:22:08.644184064,0,016,-0.3597300802412238,1.2296389125735974,-1.9398295583532763,-1.045163606902846,-0.7639770679476614,0.5218927955146039,-9.784605102547287,0.9977564885921156,1
519,2024-09-24 12:22:08.721314816,0,016,-0.3247125202275001,1.2142380041421408,-1.8377160824505914,-1.0428396022071464,-0.8284566375347953,0.547722062512223,-9.534527138643622,0.9580156930633942,1
520,2024-09-24 12:22:08.782993920,0,016,-0.2847188808465743,1.1935834257677456,-1.7197611440270741,-1.0495326932398579,-0.8861071087691403,0.5712665714675297,-9.252726275681855,0.9020777915966401,1
521,2024-09-24 12:22:08.857624064,0,016,-0.2411794910132038,1.1680706983111449,-1.5927695656630354,-1.0636766001274707,-0.9365378843476972,0.5923998653259059,-8.950022415751322,0.8336595621123275,1
522,2024-09-24 12:22:08.922952960,0,016,-0.19554857766665348,1.1382427818273997,-1.463354721498343,-1.0836464285381715,-0.9797924671235573,0.611123349837269,-8.639008173934853,0.757059558176927,1
523,2024-09-24 12:22:09.860281088,0,016,-0.1492279401160549,1.1047618806292432,-1.3378383253598516,-1.1077792287597732,-1.0162077188038612,0.6275664035681225,-8.333614969247709,0.6767862413213863,1
524,2024-09-24 12:22:09.936457984,0,016,-0.10354974591672958,1.0683911959153036,-1.2224626861366763,-1.13433814446926,-1.0462632780274916,0.6419746356339487,-8.048299076018465,0.5972063198950381,1
525,2024-09-24 12:22:10.000337920,0,016,-0.059768334153184,1.0299811002194834,-1.1236653198230122,-1.1614820276701976,-1.0704988000532083,0.6546940346881874,-7.79677468172252,0.5222793816494072,1
526,2024-09-24 12:22:10.072057088,0,016,-0.019022940537982407,0.9904427187371133,-1.0480960006237212,-1.1873068772812287,-1.0895056914454517,0.6661523009284956,-7.59050104575704,0.45539979993691765,1
527,2024-09-24 12:22:10.124434176,0,016,0.01771307699081487,0.9507057176029095,-1.002280654958949,-1.2099710844921683,-1.103962551296624,0.6768382555579898,-7.437229555579248,0.3992859052677409,1
528,2024-09-24 12:22:10.202540032,0,016,0.04966091674637,0.9116757389917167,-0.9920673195070608,-1.227847197942846,-1.1146608154109703,0.687278735155004,-7.339775923564674,0.3558329170800076,1
529,2024-09-24 12:22:10.264556032,0,016,0.07622949701993188,0.8742056587996987,-1.0220522726995682,-1.2396300818548434,-1.122457805563382,0.6980039156447785,-7.295172632169902,0.32590033747821234,1
530,2024-09-24 12:22:11.185468928,0,016,0.09698366040462095,0.8390782816202733,-1.095131369046439,-1.244375416771653,-1.1281492909888202,0.7094900259920869,-7.294542625644199,0.3091008763080576,1
531,2024-09-24 12:22:11.247569152,0,016,0.11160286162142632,0.8069907399201796,-1.2122232323429336,-1.2414906069268137,-1.1323401535571649,0.7220851431306913,-7.324071610830694,0.3037383790160573,1
532,2024-09-24 12:22:11.325678336,0,016,0.1198436666459955,0.7785405648094772,-1.3721663201862515,-1.2307074856658433,-1.1353980738009228,0.735945159236381,-7.3670983486581765,0.3070093284637296,1
533,2024-09-24 12:22:11.387324928,0,016,0.12152720909081703,0.7542194375530615,-1.5718378724717157,-1.2120354380194844,-1.1374757096219257,0.7510039175848152,-7.406846371393375,0.3154440978303581,1
534,2024-09-24 12:22:11.464808192,0,016,0.1165725251167688,0.734411174294561,-1.8064946783166076,-1.1856879983090036,-1.13850137978655,0.7669754083335002,-7.429084518417655,0.3254552318639146,1
535,2024-09-24 12:22:11.532638976,0,016,0.10505804055260475,0.7193855566544113,-2.0701669989910596,-1.1520193451569867,-1.1380945098141624,0.7833742844614823,-7.424078041652891,0.33384613299289295,1
536,2024-09-24 12:22:11.598355968,0,016,0.08725726134923313,0.7092912895173381,-2.355943721999091,-1.1115181517257762,-1.1355054159354319,0.799556809812401,-7.3874612271873525,0.3381798701553555,1
537,2024-09-24 12:22:12.531539968,0,016,0.06362510408183956,0.7041576932007882,-2.6561682592121922,-1.0648532937893833,-1.129706119255827,0.8147929212104361,-7.320033190655826,0.336973498620315,1
538,2024-09-24 12:22:12.611527936,0,016,0.034762110135221125,0.7039032008721952,-2.9625999891451285,-1.0129310301030223,-1.1196154402728757,0.8283607861092144,-7.226806174388983,0.32973912787824805,1
539,2024-09-24 12:22:12.673523968,0,016,0.0013732651630234795,0.7083408669981438,-3.266536529508836,-0.9569359368343504,-1.1043260858490653,0.8396378444603682,-7.115750638635489,0.3169156059047233,1
540,2024-09-24 12:22:12.747088896,0,016,-0.03579532279037532,0.7171807176894102,-3.5589754458325507,-0.8983390587315565,-1.0832563072016705,0.8481709034202884,-6.99659675393763,0.2997241568909227,1
541,2024-09-24 12:22:12.813465088,0,016,-0.07603903809517482,0.7300396097606097,-3.8309267747667892,-0.8388632169349146,-1.0562521460546241,0.8537224980696404,-6.879927037512078,0.2799637819507492,1
542,2024-09-24 12:22:12.875493120,0,016,-0.11875155215340569,0.7464636257743273,-4.073795394657516,-0.7804189063428002,-1.0236661749722116,0.8562902952591258,-6.776563200663094,0.25974727604056375,1
543,2024-09-24 12:22:12.937548032,0,016,-0.16342253099742768,0.7659529644042863,-4.279678592359882,-0.7250363119321108,-0.9863873545138584,0.8560906340814806,-6.6969320502301155,0.24117731260331804,1
544,2024-09-24 12:22:13.882283008,0,016,-0.20960032547978105,0.7879785534711357,-4.441633564403628,-0.674795001887153,-0.9457988514918363,0.8535055572111482,-6.650122729142752,0.22601201642589933,1
545,2024-09-24 12:22:13.960790016,0,016,-0.2568608840982507,0.811995552113914,-4.554065356199778,-0.6317309187309674,-0.9036698718389966,0.849011561879718,-6.642792902540806,0.21543443159096295,1
546,2024-09-24 12:22:14.022861056,0,016,-0.3047787982247732,0.8374636534572875,-4.613189056163237,-0.5977182803934649,-0.8619992989915722,0.8431142846894357,-6.678405241593149,0.2100255831324754,1
547,2024-09-24 12:22:14.097332992,0,016,-0.3528686952920766,0.8638682261352237,-4.617381171048579,-0.5743489579272173,-0.8228410379934362,0.8363003068063948,-6.75710248230488,0.20993670982136872,1
548,2024-09-24 12:22:14.162674688,0,016,-0.4004989769358343,0.8907276393048517,-4.567359642288382,-0.5628226005015525,-0.7881338438071546,0.8290018338483284,-6.8761029672178,0.21513917040481012,1
549,2024-09-24 12:22:14.224805120,0,016,-0.44682600997902955,0.917587882038549,-4.466271821465108,-0.5638419407278203,-0.7595216202495784,0.8215653785161234,-7.03033872507311,0.22559665518734584,1
550,2024-09-24 12:22:14.287291904,0,016,-0.49079892563541205,0.9440220185271141,-4.319706288462482,-0.5775131883881452,-0.7381575587553072,0.814226029845816,-7.21319348446173,0.2412888198035584,1
551,2024-09-24 12:22:15.237930240,0,016,-0.5312392696647212,0.9696428313746717,-4.135514430095743,-0.6032723832234027,-0.7245474075329064,0.8071022801084113,-7.417237481812187,0.2621292302290748,1
552,2024-09-24 12:22:15.299985920,0,016,-0.5669568018434613,0.9941180383572007,-3.9233797965249,-0.639866747284361,-0.7185043272341333,0.8002213721558888,-7.634779809471972,0.28785274777533165,1
553,2024-09-24 12:22:15.379523840,0,016,-0.5968712806019281,1.017179520320125,-3.694288821317057,-0.685403613641397,-0.7192202008423872,0.7935645245449041,-7.858131555716306,0.31791377070743976,1
554,2024-09-24 12:22:15.439238144,0,016,-0.6201413163449421,1.0386344303295278,-3.4600969600062874,-0.7374665869430359,-0.7253839357454663,0.7871078963139445,-8.07970342795748,0.3514322677648661,1
555,2024-09-24 12:22:15.501399808,0,016,-0.636292340633646,1.0583850442301486,-3.2331012254436136,-0.7933031444986696,-0.7352849026681608,0.7808419224895744,-8.292224846380527,0.3872422372261004,1
556,2024-09-24 12:22:15.576803072,0,016,-0.6453026744126664,1.0764434623670116,-3.025329607522325,-0.8500750943190809,-0.7469146004707755,0.7747705059584676,-8.489282477699952,0.4240537817138562,1
557,2024-09-24 12:22:15.639288832,0,016,-0.6476125693354639,1.0929212649456335,-2.8475073437354865,-0.9051271325684823,-0.7581196007716998,0.768902409341389,-8.66609596475167,0.4606583866900111,1
558,2024-09-24 12:22:16.593995008,0,016,-0.6440560154703542,1.1079968690147646,-2.7080524581070584,-0.9562134600366399,-0.7668226943646185,0.7632449828586055,-8.820207266506175,0.4960677152577476,1
559,2024-09-24 12:22:16.661860864,0,016,-0.6357320032241891,1.1218810912916957,-2.61245135075189,-1.0016502176997533,-0.7712844757279429,0.7578072391493922,-8.951706693359268,0.5295033687652372,1
560,2024-09-24 12:22:16.715220992,0,016,-0.6238371055090682,1.1347901495701254,-2.563026623222955,-1.0403949291205574,-0.770377094483619,0.7526178014994236,-9.062809131851681,0.5602524342393078,1
561,2024-09-24 12:22:16.792424704,0,016,-0.6094990303266324,1.1469211396369168,-2.5589545216979697,-1.0720523692063313,-0.7638466241535576,0.7477554265313024,-9.156934859826134,0.5875148223174232,1
562,2024-09-24 12:22:16.865190912,0,016,-0.5936663362294392,1.1584332597102658,-2.596528214801458,-1.0967971120363762,-0.7524940671692221,0.7433771713545626,-9.237632789878184,0.6103639061525915,1
563,2024-09-24 12:22:16.932110080,0,016,-0.5770853660405629,1.1694461552146664,-2.669711307556206,-1.1152277267654758,-0.7381565598473658,0.7397235986057187,-9.307619259334587,0.6278165398070684,1
564,2024-09-24 12:22:16.993613056,0,016,-0.5603375368188143,1.1800513602368612,-2.7708657425258694,-1.128199031544811,-0.7234366210835428,0.7370902348011059,-9.368122853151585,0.6389229730285829,1
565,2024-09-24 12:22:17.932176896,0,016,-0.5438846572063988,1.1903183149826315,-2.891452584409004,-1.1366733573810155,-0.7112845462330679,0.7357748706085733,-9.418659553590093,0.6428197309036476,1
566,2024-09-24 12:22:18.011956992,0,016,-0.5281009586617368,1.2002879316135275,-3.022615970746196,-1.1416022209381131,-0.7046023672969145,0.7360222923695988,-9.457208568705727,0.6387540772022012,1
567,2024-09-24 12:22:18.071476992,0,016,-0.5132941512918179,1.2099618634523746,-3.1556760467155187,-1.1438393342213262,-0.7059439246806741,0.7379809247849374,-9.480601408792731,0.6261164114635969,1
568,2024-09-24 12:22:18.133483776,0,016,-0.4997021886564678,1.2192895692207462,-3.2825658766477788,-1.1440945763357182,-0.717292080512012,0.7416731846699592,-9.484947906914453,0.6045095631652381,1
569,2024-09-24 12:22:18.211108864,0,016,-0.48745144808007274,1.2281467877139798,-3.396251893845947,-1.1429268774839936,-0.7399004373509873,0.7469793254706097,-9.466076965545197,0.5738428849543801,1
570,2024-09-24 12:22:18.283170048,0,016,-0.47650241521586234,1.236310668432134,-3.491160837679956,-1.1407514256917841,-0.7742172016842974,0.7536405783705159,-9.419957884783933,0.534388254675111,1
571,2024-09-24 12:22:18.335851008,0,016,-0.46663354492076287,1.2434499269056052,-3.5635119465070098,-1.1378452436875466,-0.8198952889211417,0.7612851847866774,-9.342910788849784,0.48674240995548157,1
572,2024-09-24 12:22:19.256176128,0,016,-0.4574836388768901,1.2491379182174427,-3.61139329987707,-1.1343534272389113,-0.8758584170850666,0.7694673099831341,-9.231552322265674,0.4317074604873079,1
573,2024-09-24 12:22:19.334428928,0,016,-0.44863666366828175,1.252876832352994,-3.6345704859050145,-1.1302959798731964,-0.9403933463620369,0.7777061094997623,-9.082791799579649,0.37016151766936156,1
574,2024-09-24 12:22:19.397357056,0,016,-0.4397344835998049,1.2541220860859383,-3.6341685318064236,-1.1255813581413687,-1.0112769194216524,0.7855274384711127,-8.89428472778876,0.30301629557315485,1
575,2024-09-24 12:22:19.459353088,0,016,-0.43060563870470553,1.252313198363366,-3.6123726151132716,-1.1200463406564811,-1.0859534419300265,0.7925170377314744,-8.665458479356882,0.23132943043231893,1
576,2024-09-24 12:22:19.539858176,0,016,-0.4213688305677756,1.2469201527879479,-3.572262287834551,-1.1135189891598785,-1.1617344227403106,0.7983787423987416,-8.398896908802394,0.15654368495818963,1
577,2024-09-24 12:22:19.604892160,0,016,-0.4124478699210013,1.2374967820272462,-3.517846250975453,-1.1058641189071996,-1.2359717074907597,0.8029773368244568,-8.101759194414088,0.0807361675391807,1
578,2024-09-24 12:22:19.675506176,0,016,-0.4044675950746428,1.2237249802916172,-3.454234051746659,-1.0969800005611237,-1.306188794700755,0.8063540915763902,-7.78685840785024,0.006746641723147813,1
579,2024-09-24 12:22:20.604573952,0,016,-0.3980690486852951,1.2054489941988051,-3.3877745653163327,-1.0867608562816804,-1.3701878383161092,0.8087202024892591,-7.472858434970013,-0.061913537587255194,1
580,2024-09-24 12:22:20.682270976,0,016,-0.39371926324468454,1.1827082409981446,-3.3260057918048456,-1.075062526940096,-1.4261419836139448,0.810434489146206,-7.183056702758914,-0.12141337367011536,1
581,2024-09-24 12:22:20.743795968,0,016,-0.3915678683832104,1.1557604465033917,-3.277307605825069,-1.06169461777008,-1.4726695213783434,0.8119637793531688,-6.942863999270819,-0.16812692042600086,1
582,2024-09-24 12:22:20.821009152,0,016,-0.39136787955871294,1.1250736072088132,-3.250209814350119,-1.0464447339598073,-1.5088875825166617,0.8138264167959031,-6.776974825875228,-0.19909779009974438,1
583,2024-09-24 12:22:20.890356992,0,016,-0.3924680082582435,1.0912811166064729,-3.252469451240253,-1.0291340449039303,-1.534422064568063,0.8165233599016525,-6.707125273096087,-0.21226408965170446,1
584,2024-09-24 12:22:20.958137856,0,016,-0.39387528443257097,1.0551159104197374,-3.29017174388199,-1.009691239352875,-1.5493260032795722,0.8204584346477247,-6.7502929565453265,-0.20649230743938504,1
585,2024-09-24 12:22:21.022283008,0,016,-0.3943719811911218,1.0173396141406699,-3.3670500259817993,-0.9882101231967926,-1.5539023980595408,0.8258531859933337,-6.916846749570195,-0.18154911001249766,1
586,2024-09-24 12:22:21.943897856,0,016,-0.3926735943491305,0.9786743882985887,-3.4840612677558394,-0.9649540773309242,-1.5485193933037398,0.8326775702375376,-7.208877479709481,-0.13803234916568113,1
587,2024-09-24 12:22:22.005101824,0,016,-0.38761769914854144,0.9397474061209661,-3.639171808730811,-0.9403056786487051,-1.5335269637693265,0.8406246227147506,-7.619299829551241,-0.07725404123078711,1
588,2024-09-24 12:22:22.067171072,0,016,-0.3783433373133971,0.9010597738015254,-3.827314254272969,-0.914700081482192,-1.5092876865414566,0.8491384176711733,-8.131839700562619,-0.001131115084194021,1
589,2024-09-24 12:22:22.145594112,0,016,-0.3643979550763853,0.8629794732152695,-4.040512171515698,-0.8885806004886352,-1.4762424519780732,0.8574769689661502,-8.72166345992612,0.0878740014493007,1
590,2024-09-24 12:22:22.215447040,0,016,-0.34575171124798026,0.8257464636224685,-4.268205002736215,-0.8623755699294535,-1.4349599494679748,0.8647840548754757,-9.35658837663141,0.1867741942913788,1
591,2024-09-24 12:22:22.269156864,0,016,-0.322762915785899,0.7894845454329592,-4.49781279456218,-0.8364677004835229,-1.3861849945563365,0.8701548571126313,-9.999079537659169,0.2920645843305046,1
592,2024-09-24 12:22:22.346846208,0,016,-0.29614005339304,0.7542242377309706,-4.715540378414873,-0.8111363643008591,-1.3308839847727925,0.8726895571715462,-10.609147991272593,0.3997435933127291,1
593,2024-09-24 12:22:23.294326784,0,016,-0.26689887578282845,0.7199344451753282,-4.907361137725062,-0.7864759035561395,-1.2702434156179576,0.8715343860055943,-11.147773634072283,0.5053653266577719,1
594,2024-09-24 12:22:23.359793920,0,016,-0.23629556395365714,0.6865513825170103,-5.060037334928512,-0.7623214880137856,-1.2056201098690993,0.8659185425608292,-11.580065921332144,0.6041331524542483,1
595,2024-09-24 12:22:23.429957888,0,016,-0.20574114798817478,0.6539995170212936,-5.161998403837062,-0.7382317532334788,-1.1385036315632049,0.8551980532752766,-11.877564216592205,0.6910806029005769,1
596,2024-09-24 12:22:23.497792000,0,016,-0.17670959393931723,0.6222086441624912,-5.204029039753742,-0.7135431275814649,-1.0705071581293557,0.8389023134445587,-12.019597710413734,0.7613861490747678,1
597,2024-09-24 12:22:23.554280960,0,016,-0.15063301716247268,0.5911266661330365,-5.179797690829782,-0.6874669285200503,-1.0033256532601296,0.8167656704434538,-11.993871753361027,0.8107771264262786,1
598,2024-09-24 12:22:23.633295872,0,016,-0.12878351830370965,0.5607203380825866,-5.086117719239626,-0.6592107542147815,-0.9386278248948241,0.7887391667566476,-11.796391341345707,0.8359029924631469,1
599,2024-09-24 12:22:23.701098752,0,016,-0.11216561075267008,0.5309626159441269,-4.922843709440264,-0.628116865614789,-0.8779194910418417,0.7549954543179258,-11.43084474238463,0.8346133628014896,1
600,2024-09-24 12:22:24.631554048,0,016,-0.1014353388940371,0.5018173219810241,-4.692591468782115,-0.593778511351806,-0.8224083862829562,0.7159313698763518,-10.907749770259432,0.8061875472394056,1
601,2024-09-24 12:22:24.709186048,0,016,-0.09683598686708472,0.4732306933917845,-4.400576664611797,-0.5560894838668503,-0.7728560936372895,0.6721532510203746,-10.243630334662859,0.7515466312969645,1
602,2024-09-24 12:22:24.777790976,0,016,-0.09814069969429232,0.44512477054495614,-4.05460803357381,-0.515234937269881,-0.7294181148741818,0.6244342771709483,-9.460117818727136,0.673355494700439,1
603,2024-09-24 12:22:24.833224192,0,016,-0.10461575363828293,0.41738249355993345,-3.6650020100608898,-0.4716687685418184,-0.6915338313563687,0.5736581325651212,-8.582711548113291,0.5758921242335103,1
604,2024-09-24 12:22:24.913406976,0,016,-0.11503576870143545,0.3898320997320699,-3.2441988278818834,-0.4260977804318899,-0.6579475921665849,0.520774556802999,-7.639230625328918,0.4646728865025484,1
605,2024-09-24 12:22:24.974294016,0,016,-0.1277786050497972,0.3622543242497114,-2.806063848219683,-0.37945141640499,-0.6268827512594476,0.46677334455869324,-6.658302761028429,0.3459495053542448,1
