,time,MARKER,pid,L_O_DSI,L_D_DSI,L_O_DSphi,L_D_DSphi,R_O_DSI,R_D_DSI,R_O_DSphi,R_D_DSphi,trial_id
0,2024-09-25 15:16:39.389875968,0,017,0.8071348486679003,0.14466834328041736,4.129534050770877,-0.11065837624347895,-0.5565797203691224,0.09018767632083546,-1.453637781831054,0.09367610521490967,1
1,2024-09-25 15:16:40.332003072,0,017,0.7930441826279879,0.14996641344407888,5.81326105276175,-0.5040468906535674,-0.610180937534561,0.1305070531162363,-1.8132115505360038,0.12412213272227111,1
2,2024-09-25 15:16:40.409691904,0,017,0.7823459882848751,0.15497853474240508,7.447324412109373,-0.8857987408665788,-0.6583641416614968,0.1694032229492177,-2.158792999275402,0.15288734678023505,1
3,2024-09-25 15:16:40.472068096,0,017,0.7777417387593504,0.1594167735362131,8.987045534702892,-1.2458296030069338,-0.6962031535090956,0.20555235102369035,-2.474465222218474,0.1782999153027767,1
4,2024-09-25 15:16:40.534063104,0,017,0.7814667472295125,0.16301223357829994,10.395200596022741,-1.5756786647506373,-0.7197269775916594,0.23780022732478112,-2.7460898116531043,0.19903506490261783,1
5,2024-09-25 15:16:40.611272960,0,017,0.7951812713608869,0.1655190749017935,11.644193431457925,-1.868947593274445,-0.72622851381833,0.26522799386884843,-2.9622655007436665,0.21421256523439847,1
6,2024-09-25 15:16:40.674521088,0,017,0.8198844678609224,0.16672440332648664,12.717060375852236,-2.121520448705556,-0.7144765594870129,0.28721348709606864,-3.1151909324892424,0.22344541850179928,1
7,2024-09-25 15:16:40.734915072,0,017,0.8558415655053926,0.16646893871528964,13.607448589651323,-2.331586171574351,-0.6848073267653154,0.30347998036776397,-3.2012442098835985,0.22683130192795342,1
8,2024-09-25 15:16:41.667535104,0,017,0.9025571330611941,0.16467318782161905,14.318818086782954,-2.499481741181018,-0.6390322607671189,0.3141119468367646,-3.2211138471114036,0.22487407460902817,1
9,2024-09-25 15:16:41.723865856,0,017,0.9588235027694155,0.16135901277924317,14.86310256630212,-2.627396914568148,-0.5801266701680687,0.3195226617682421,-3.1795457664144644,0.2183573636786922,1
10,2024-09-25 15:16:41.803201024,0,017,1.0228573270368153,0.15665596408346222,15.25895271240025,-2.7189908052458462,-0.5117617873275224,0.32037901835308347,-3.08483030328681,0.20820491489515797,1
11,2024-09-25 15:16:41.870976768,0,017,1.0925245496799743,0.15078652640557663,15.529679392104022,-2.7789657394995335,-0.43780729768737525,0.31750461819711445,-2.947996770853083,0.19534546660605803,1
12,2024-09-25 15:16:41.938752000,0,017,1.1656171836583216,0.14403482853464036,15.701091972127653,-2.812642020565189,-0.3618909831603427,0.3117790704091046,-2.7816371206009296,0.18058923172126212,1
13,2024-09-25 15:16:42.006561024,0,017,1.2401110557747814,0.13671026219356544,15.799484168992398,-2.825583990393012,-0.2870399287225077,0.3040426626754277,-2.598516599849071,0.16453480296506248,1
14,2024-09-25 15:16:42.064613888,0,017,1.3143461086574393,0.1291158198826448,15.849995302347313,-2.8233189730842048,-0.215427427836597,0.2950159427502204,-2.410407357776134,0.14753830933726325,1
15,2024-09-25 15:16:43.003923712,0,017,1.3871083410676082,0.12152514690735484,15.875419078725777,-2.8111376397999837,-0.14826453593420033,0.2852449512699346,-2.227476624383451,0.1297557112209497,1
16,2024-09-25 15:16:43.083566848,0,017,1.4576253486077215,0.11416624068339455,15.895389314454153,-2.7939195634076928,-0.08584530266131561,0.2750762061081626,-2.058134280153848,0.11123419257098438,1
17,2024-09-25 15:16:43.143480064,0,017,1.5255072329682058,0.10720741271289003,15.925853714940416,-2.775951300991786,-0.02770727200877241,0.2646584706730298,-1.909041083988281,0.09202277519776304,1
18,2024-09-25 15:16:43.220643072,0,017,1.5906532839678686,0.10074681834679075,15.978730929198647,-2.760744093539315,0.02714120380361929,0.2539680858346753,-1.7851568595202576,0.07228254158196411,1
19,2024-09-25 15:16:43.288841984,0,017,1.6531272533938453,0.09481138746160017,16.061638262008408,-2.7508633610714663,0.07995646375151415,0.24285505757247594,-1.6899052284705791,0.05238362041495066,1
20,2024-09-25 15:16:43.343781120,0,017,1.7130230033603062,0.08936408004400417,16.177678476245966,-2.74779026440805,0.13198760432216453,0.23110037861018953,-1.6255016831940412,0.03297862203091998,1
21,2024-09-25 15:16:43.424472064,0,017,1.7703650373623745,0.08431195937152199,16.32542068878346,-2.751866526584185,0.1842412511985468,0.21846867303453316,-1.593313239116986,0.01502435229527595,1
22,2024-09-25 15:16:44.368279040,0,017,1.8250665719418597,0.07951227404308205,16.499250633173347,-2.7623796643283813,0.2373148648980994,0.2047460289807293,-1.5939972640134445,-0.0002970221354608629,1
23,2024-09-25 15:16:44.436124928,0,017,1.876923565768168,0.07477978368888019,16.690090351168248,-2.7777912534359412,0.29129660205928287,0.18976629721915803,-1.6272505054588655,-0.011773987957999882,1
24,2024-09-25 15:16:44.503899136,0,017,1.9256181914984105,0.06989614511609614,16.886291355962108,-2.796041537479313,0.3457230510658708,0.17343356210597785,-1.691280630457885,-0.018418357079581886,1
25,2024-09-25 15:16:44.571716096,0,017,1.970739342061874,0.06461533379063672,17.07459110382842,-2.814848529163221,0.399611548306352,0.15573890102622276,-1.7824239332525218,-0.019664288616419532,1
26,2024-09-25 15:16:44.637058048,0,017,2.0118239264649893,0.058661340781348936,17.24118594944106,-2.831954354304994,0.45158656637686256,0.13676208566203363,-1.8953762659658726,-0.015426777972665964,1
27,2024-09-25 15:16:44.707341824,0,017,2.048380596151702,0.05172702831444398,17.372879131190764,-2.845309614815695,0.5000824421783628,0.11665657313661712,-2.0240776570309014,-0.006022263091550018,1
28,2024-09-25 15:16:44.761123840,0,017,2.079861546508646,0.04348769351244997,17.458123876154612,-2.8532081866504257,0.5435664388050403,0.09562918607423129,-2.1626938113030865,0.007958941282400765,1
29,2024-09-25 15:16:45.712406016,0,017,2.10559938282551,0.03363120217316104,17.487876799547077,-2.854387077380674,0.5807199298415157,0.07392718733078961,-2.306051987852749,0.02574337785942197,1
30,2024-09-25 15:16:45.774442752,0,017,2.124757237770761,0.0218920317432298,17.456277591847893,-2.84809033442055,0.6105469950499881,0.05183317548553858,-2.449441245742564,0.04641886399158659,1
31,2024-09-25 15:16:45.853051136,0,017,2.136330754772007,0.008074435097255188,17.36106052609146,-2.834082308440886,0.6324194413430907,0.029658268880925223,-2.588169976831248,0.06896648471738935,1
32,2024-09-25 15:16:45.914658816,0,017,2.139217337309779,-0.007940587656145984,17.203546266649184,-2.812608117843325,0.6460797978927585,0.007728606687878532,-2.7172828410471603,0.09231500347036829,1
33,2024-09-25 15:16:45.988666880,0,017,2.1323480124649565,-0.026200752849182926,16.9882669664785,-2.7843271043858433,0.6516122956042906,-0.013629155444370902,-2.8316874909872083,0.11545201594735588,1
34,2024-09-25 15:16:46.056804864,0,017,2.114853805045507,-0.04669304485298253,16.72246007636708,-2.750245214115508,0.6493891410027333,-0.034096812592260634,-2.926727748674025,0.13758233976613496,1
35,2024-09-25 15:16:46.124619008,0,017,2.0862173439523377,-0.06935163095128453,16.415576147894367,-2.711639529310951,0.6400198346551742,-0.053371320152412936,-2.9988740546220956,0.15823977364895234,1
36,2024-09-25 15:16:47.067863040,0,017,2.0463582656694594,-0.09405680967244973,16.078794281895128,-2.669956063363523,0.6243328373123856,-0.07117683468514183,-3.0460401386549005,0.1772628832226997,1
37,2024-09-25 15:16:47.123214080,0,017,1.9956215521210283,-0.12062179060037478,15.724540097432312,-2.6266909096349367,0.6033728564947781,-0.08728078388495111,-3.067338829732886,0.19466350442377747,1
38,2024-09-25 15:16:47.201248000,0,017,1.9346739019639743,-0.14877037010341362,15.366000808031892,-2.583285723116147,0.5783567398849554,-0.10150452340772448,-3.062524876938985,0.21049560760160307,1
39,2024-09-25 15:16:47.262120960,0,017,1.864353226593181,-0.1781172871793264,15.016574432956048,-2.541059706908501,0.5505502406181472,-0.11372203206975258,-3.031498759836443,0.22478387993874438,1
40,2024-09-25 15:16:47.339121152,0,017,1.7855372022303633,-0.2081667196923011,14.689275823668744,-2.5011911266312685,0.5210838853275689,-0.1238465901746028,-2.974015417075472,0.23747999658759503,1
41,2024-09-25 15:16:47.401769984,0,017,1.6990729835265608,-0.2383351960309069,14.396215462453384,-2.464743997200277,0.4907625198161932,-0.13180784698327683,-2.8895140702782722,0.24840000345207713,1
42,2024-09-25 15:16:47.465362944,0,017,1.605764321564421,-0.2679911343243788,14.148083392985201,-2.4326905310916414,0.4599215372442552,-0.1375240281660664,-2.7770752141203654,0.2571651740211068,1
43,2024-09-25 15:16:48.417987072,0,017,1.5063917423893836,-0.2965001938877901,13.953363552611963,-2.4058527161895613,0.42836215560646457,-0.14087982790353154,-2.6357404888911637,0.26321910836383366,1
44,2024-09-25 15:16:48.485838848,0,017,1.4017485868193098,-0.3232719438634196,13.817204945937707,-2.3847341575101053,0.3953752615029715,-0.14172177183878204,-2.4653391972271064,0.2659559382899641,1
45,2024-09-25 15:16:48.548428032,0,017,1.2926895533554559,-0.34780707917943765,13.740371328197183,-2.3693140796342256,0.35984184769402006,-0.13987372196423525,-2.2674836883354317,0.26490758824449934,1
46,2024-09-25 15:16:48.610529792,0,017,1.1801890305388385,-0.36974117403155843,13.718871646626859,-2.358922593077334,0.32037763046281986,-0.1351637376731115,-2.0461316414594446,0.2598977937341735,1
47,2024-09-25 15:16:48.689245952,0,017,1.0653868744495263,-0.388874291629416,13.744431426138451,-2.3522482986304385,0.2754894670712487,-0.12744986264338617,-1.8075315194478654,0.25112709248083226,1
48,2024-09-25 15:16:48.749402112,0,017,0.9495907604686825,-0.4051757694301352,13.805440151504179,-2.34743944923589,0.22374196282894496,-0.1166380648659514,-1.5599108083073974,0.23922673945969394,1
49,2024-09-25 15:16:48.812140800,0,017,0.8342288992549243,-0.418764247774835,13.888023219987872,-2.3422532512062104,0.1639541732316804,-0.10269577319923116,-1.3132060889859367,0.22530538543363104,1
50,2024-09-25 15:16:49.743005184,0,017,0.720775727809369,-0.4298733509778916,13.977261215369337,-2.3342525301784485,0.09542275412829263,-0.08567121966967602,-1.0787525760021712,0.2109583242662773,1
51,2024-09-25 15:16:49.809618944,0,017,0.6106752115425076,-0.4388133889998247,14.058719302040032,-2.321066064995343,0.01811935493869808,-0.06572317594311684,-0.8687382714223536,0.19820553833769142,1
52,2024-09-25 15:16:49.871650816,0,017,0.5052737166431621,-0.4459340894982694,14.12012183192967,-2.300688451110263,-0.06720748220412072,-0.04315024045352614,-0.6953556940764204,0.18934405653281397,1
53,2024-09-25 15:16:49.934191872,0,017,0.40576530156175805,-0.4515910462039212,14.152666927856787,-2.2717472127937057,-0.15905658549144996,-0.018400149125817642,-0.5696994018150451,0.1867049352557574,1
54,2024-09-25 15:16:50.011823104,0,017,0.3131391817048317,-0.4561175319880351,14.151690789339833,-2.2336935371775115,-0.2553050567948865,0.007952410806616622,-0.5005232115411308,0.19232670400781274,1
55,2024-09-25 15:16:50.073350144,0,017,0.22811728592972838,-0.45980230843951614,14.1168421713193,-2.1869308547653126,-0.3534131632263922,0.03525479201776722,-0.4931117850454796,0.20761830116458455,1
56,2024-09-25 15:16:50.149804288,0,017,0.15110003748212056,-0.462876302497057,14.05196378803952,-2.1328741280552417,-0.45067995402021716,0.06283760945074902,-0.5486796959258611,0.23313944481218626,1
57,2024-09-25 15:16:51.083927040,0,017,0.08215713589686671,-0.4655114168392477,13.964700879320343,-2.0738960671256765,-0.5445205783180079,0.0900739666380436,-0.6645177942884865,0.26858681723768624,1
58,2024-09-25 15:16:51.160339968,0,017,0.02107312276732438,-0.467829050528132,13.865856471871037,-2.013153794560101,-0.6327166138019897,0.11642705658754393,-0.8346308211083947,0.3129542447377704,1
59,2024-09-25 15:16:51.223612928,0,017,-0.03256769692245672,-0.4699131609725956,13.768481406240747,-1.9543194315478232,-0.7135871965927215,0.14148008782218358,-1.0505031861464307,0.3647701940147076,1
60,2024-09-25 15:16:51.285115904,0,017,-0.0792662103029516,-0.4718268476959064,13.686550879897377,-1.9012126439284458,-0.7860477101109479,0.16494413568650854,-1.3019317421192471,0.42234181323750064,1
61,2024-09-25 15:16:51.362761984,0,017,-0.119478604476808,-0.4736315035555763,13.633197825172834,-1.8573518479717923,-0.8495521285009274,0.18664336306677548,-1.5779227871393249,0.4839589288611896,1
62,2024-09-25 15:16:51.424905984,0,017,-0.1535213208478488,-0.4754006027921011,13.618907518604438,-1.8255271774285182,-0.9039554836561345,0.2064857533632375,-1.8674089696131921,0.5480176112549969,1
63,2024-09-25 15:16:51.499314944,0,017,-0.18156720937132817,-0.4772183265111753,13.650299305386897,-1.8075238689818949,-0.9493617850121121,0.22443293343749315,-2.159532133407659,0.6130503224269812,1
64,2024-09-25 15:16:52.414360064,0,017,-0.20373313614737376,-0.4791625280728219,13.72976439105771,-1.8040315757147098,-0.985996854315401,0.2404765643588729,-2.443505286285997,0.6776714952872018,1
65,2024-09-25 15:16:52.486114048,0,017,-0.22019424039751861,-0.4812833802559279,13.855715427738522,-1.8146768179046626,-1.0140995709845386,0.25461891253799424,-2.7082766010339245,0.7404561457259312,1
66,2024-09-25 15:16:52.552392192,0,017,-0.23125807451000407,-0.48359113112980984,14.02307971053092,-1.8381096488218622,-1.0338263206628515,0.26685336890176403,-2.942339215264663,0.7998089906422097,1
67,2024-09-25 15:16:52.613525760,0,017,-0.237380413048305,-0.48605705972396746,14.223860365493339,-1.8721244685820797,-1.04518715273326,0.27714525931325285,-3.1340421255450073,0.853916242955065,1
68,2024-09-25 15:16:52.689446144,0,017,-0.23914156553456473,-0.48862116206296385,14.447774548570594,-1.9138317077812521,-1.04803579858541,0.2854180072795173,-3.2724412340965,0.9008234128544476,1
69,2024-09-25 15:16:52.752756224,0,017,-0.2372092633331587,-0.49119820225556854,14.68302405734012,-1.959896403533562,-1.0421274680273687,0.2915514612839381,-3.348276201413228,0.938587729392062,1
70,2024-09-25 15:16:52.825114112,0,017,-0.23230975226994602,-0.4936805109854121,14.917192397988138,-2.006824769749346,-1.0272420360170285,0.2953964728213581,-3.3546138298289074,0.9654163544068689,1
71,2024-09-25 15:16:53.768280064,0,017,-0.2252190169175555,-0.4959419866818617,15.138214877659545,-2.0512515744725013,-1.003343088990388,0.29680330182110415,-3.2871160414525833,0.9797498834065732,1
72,2024-09-25 15:16:53.836113152,0,017,-0.21677100926432435,-0.49784645123163446,15.335363910876598,-2.0901926129460957,-0.9707194588499177,0.29565361348509256,-3.1442397873331176,0.9803273904521259,1
73,2024-09-25 15:16:53.902113024,0,017,-0.20787313544824285,-0.49925825414941505,15.500122061545497,-2.1212475522883154,-0.9300619050830748,0.2918846187184628,-2.927588742532012,0.9662942984575431,1
74,2024-09-25 15:16:53.964598784,0,017,-0.19951975846996203,-0.5000519084624067,15.626745753135921,-2.142737228199365,-0.8824648621418565,0.2855027318492014,-2.6423117860129732,0.9373637078866673,1
75,2024-09-25 15:16:54.026228992,0,017,-0.19278844287844532,-0.5001212172381276,15.712407359363416,-2.153753351459595,-0.8293799587195457,0.2765920027877175,-2.297306314234747,0.8939794724379785,1
76,2024-09-25 15:16:54.102979072,0,017,-0.18881159025326358,-0.4993870981837614,15.756962278477824,-2.1541102445427653,-0.7725619115553612,0.2653224526610754,-1.90515156543581,0.8374233932322479,1
77,2024-09-25 15:16:54.175111936,0,017,-0.18874091445634933,-0.49779787838669143,15.762464565369989,-2.1442180244665527,-0.7140259832853137,0.2519594879155195,-1.4818711970736071,0.769844200929144,1
78,2024-09-25 15:16:55.104101888,0,017,-0.19371932669123348,-0.49531823610883546,15.732531431257682,-2.1249259027016865,-0.6559920760423337,0.2368718524728734,-1.0465013879228569,0.6942007859570932,1
79,2024-09-25 15:16:55.180364032,0,017,-0.20484535962735956,-0.49191132636835005,15.671622974051788,-2.0973852472180803,-0.6007715670799969,0.22053315298895776,-0.6201579073556105,0.6140973933542173,1
80,2024-09-25 15:16:55.244928000,0,017,-0.2231084631891196,-0.4875227112813268,15.584312982770063,-2.062947459211818,-0.5505841360534315,0.20351230376279453,-0.2243331822865616,0.5334975134076096,1
81,2024-09-25 15:16:55.321705984,0,017,-0.24929673201897914,-0.4820728378004814,15.474637311471865,-2.023075613301064,-0.5073423855218174,0.18645289070262347,0.12134613160750854,0.45635388494452506,1
82,2024-09-25 15:16:55.382013952,0,017,-0.28390093528059673,-0.4754598259106894,15.345657546145008,-1.9792564716859202,-0.4724645701259623,0.1700460111642877,0.4012379987412266,0.3862306886706774,1
83,2024-09-25 15:16:55.444500992,0,017,-0.3270468441878463,-0.467568656259389,15.19945272568188,-1.9329348586588826,-0.4467676052481705,0.15500173633178393,0.6051348727653194,0.3259834260394823,1
84,2024-09-25 15:16:55.521637888,0,017,-0.3784809156692066,-0.4582806541562064,15.037614539513065,-1.8854906893227146,-0.4304674672355233,0.14202267989320952,0.7289307499567298,0.27752780795176146,1
85,2024-09-25 15:16:56.462516224,0,017,-0.4376059817700588,-0.4474821306601271,14.862031211770653,-1.8382456843833521,-0.42326381786021994,0.13177766864867013,0.7746342544004832,0.24170854426868887,1
86,2024-09-25 15:16:56.536303104,0,017,-0.5035265686192949,-0.4350779368062254,14.675674432919863,-1.7924835101970897,-0.42444452278656397,0.12486828764751869,0.7498437642296543,0.21827398285579622,1
87,2024-09-25 15:16:56.602752000,0,017,-0.5750561879466409,-0.4210155318396718,14.48320866880423,-1.7494799817816868,-0.4329660987358894,0.12178738261412382,0.666786673598201,0.20594905787461626,1
88,2024-09-25 15:16:56.664387072,0,017,-0.6506818217397624,-0.405317047379616,14.29124393456071,-1.7105248197603873,-0.4475213634378707,0.1228814735066474,0.5410208124602218,0.20259318213073552,1
89,2024-09-25 15:16:56.739729920,0,017,-0.7285279157259786,-0.38810855485568374,14.108067089955577,-1.6769051563515043,-0.4666284433136985,0.12833013685103564,0.3897844668012222,0.20545850041415314,1
90,2024-09-25 15:16:56.807570176,0,017,-0.8063564740201011,-0.3696356275334027,13.942905526731803,-1.6498478417229772,-0.4887550579229609,0.13814461977494927,0.23002366306309296,0.2115604697713428,1
91,2024-09-25 15:16:56.864619008,0,017,-0.8816163625284297,-0.35025840295351734,13.805038358224683,-1.6304501782037442,-0.5124649762496045,0.1521825065814927,0.07643501004046323,0.2181002297396712,1
92,2024-09-25 15:16:57.812238080,0,017,-0.9515601742501958,-0.3304221191230025,13.70309664294927,-1.619630367309698,-0.5365530104304583,0.1701747084319297,-0.0600497441848663,0.22284278581096387,1
93,2024-09-25 15:16:57.886395904,0,017,-1.0134442663619188,-0.3106067319330301,13.644640750863845,-1.6181005353398694,-0.5601288437898355,0.1917549453585873,-0.1731996973195722,0.2243974909552409,1
94,2024-09-25 15:16:57.950798080,0,017,-1.0647968182088574,-0.2912685333479749,13.63583874732435,-1.626337007042631,-0.5826348294817079,0.21648028790955268,-0.26188859921543095,0.22237415351143028,1
95,2024-09-25 15:16:58.022108160,0,017,-1.1037115807931954,-0.27278626292075087,13.681058117767526,-1.6445277690720448,-0.6038108663984746,0.24384148100750352,-0.32992776292052994,0.21737484331185503,1
96,2024-09-25 15:16:58.074885120,0,017,-1.1291099400671534,-0.25541885569591305,13.7823502204884,-1.6725074475531392,-0.6236216859417021,0.27327016558374484,-0.3852494179569688,0.21080069334673257,1
97,2024-09-25 15:16:58.152509952,0,017,-1.1409047754548642,-0.23928129084253982,13.938961006707823,-1.7097118599003784,-0.6421580555523331,0.30414953035506814,-0.4385507251068755,0.20453514240414122,1
98,2024-09-25 15:16:58.214518016,0,017,-1.1400147087341317,-0.2243451732597488,14.147043343404139,-1.7551848715688045,-0.6595279353921846,0.33583173340186573,-0.5017167133420193,0.20063258962892266,1
99,2024-09-25 15:16:59.167568896,0,017,-1.128229093118028,-0.21046346604598157,14.39964044068652,-1.8076479841483841,-0.6757559414012065,0.367663455341249,-0.5862664121789634,0.2010978201200686,1
100,2024-09-25 15:16:59.226231808,0,017,-1.107969948871352,-0.19740967297405906,14.686881321300948,-1.8656007359935978,-0.6907045031190401,0.3990175849298985,-0.7018529834126633,0.20774192267877234,1
101,2024-09-25 15:16:59.302882816,0,017,-1.081997255115486,-0.1849227346268836,14.996308061424749,-1.9273932574841244,-0.7040256161019277,0.42932372772693406,-0.8548981105420361,0.222076306612131,1
102,2024-09-25 15:16:59.371025152,0,017,-1.0530918838465102,-0.17275417882175184,15.313318973204309,-1.991243314109777,-0.7151493628442185,0.45808865422256495,-1.0476398158998117,0.24523757666749924,1
103,2024-09-25 15:16:59.430712832,0,017,-1.0237628885101917,-0.16071170110351723,15.621851344254665,-2.055237648406414,-0.7233071897706624,0.4849028918742633,-1.277816654407562,0.2779357127064698,1
104,2024-09-25 15:16:59.506605056,0,017,-0.9960381930940865,-0.14868842417950032,15.905496314816846,-2.117385780700378,-0.7275790512359251,0.5094366684063653,-1.5389667293635916,0.3204049086348547,1
105,2024-09-25 15:16:59.567334912,0,017,-0.9713640866159697,-0.13667120803586472,16.148980543418908,-2.1757446473196866,-0.726946578218587,0.5314299788450622,-1.821169300408039,0.3723465997316524,1
106,2024-09-25 15:17:00.485178880,0,017,-0.9505757852508379,-0.12473258585594009,16.339578197556403,-2.2285583365416395,-0.7203377318151788,0.5506780322511583,-2.1120246931671085,0.432871561824685,1
107,2024-09-25 15:17:00.560516096,0,017,-0.9338936178502079,-0.113014013342549,16.468050706409144,-2.2743495838496655,-0.7066812130755995,0.567016021903955,-2.397696755458904,0.5004555680816266,1
108,2024-09-25 15:17:00.623382016,0,017,-0.9209536977702083,-0.10170151038554114,16.529100836881522,-2.311959446840985,-0.6850080421064246,0.5803134617219053,-2.6639245279923993,0.5729255673379127,1
109,2024-09-25 15:17:00.685170944,0,017,-0.9108994769006393,-0.0909950241360394,16.52153995471077,-2.3405731214418446,-0.6545949114229705,0.5904820102885958,-2.8970155093505086,0.6475105761840481,1
110,2024-09-25 15:17:00.762337792,0,017,-0.902519362162693,-0.08108087747337124,16.448230308320582,-2.3597608989575707,-0.6151000028044711,0.5974888084974277,-3.084873191923025,0.7210033876847249,1
111,2024-09-25 15:17:00.824727040,0,017,-0.8943943925530701,-0.0721168963760909,16.31569784031121,-2.369537912332746,-0.5666467521115439,0.601366100252423,-3.2180076565087035,0.7900324587287229,1
112,2024-09-25 15:17:00.899540992,0,017,-0.8850466600340747,-0.06422903415523278,16.13340835354291,-2.3704252996817696,-0.509825677164403,0.6022124170178379,-3.2903370622348054,0.8513661818019831,1
113,2024-09-25 15:17:01.836414976,0,017,-0.8730985535949335,-0.05750996686896131,15.91291481998841,-2.3634792203467736,-0.44559954114776035,0.6001829932106357,-3.2995870209778735,0.9021504936158093,1
114,2024-09-25 15:17:01.898477056,0,017,-0.857432010813446,-0.0520142728387096,15.667064135294007,-2.3502474476294317,-0.375139966973432,0.595470428979067,-3.2471997350271598,0.94003143183764,1
115,2024-09-25 15:17:01.977719040,0,017,-0.837316723145644,-0.04775134779939853,15.409296694005697,-2.332638199324279,-0.29966955273007573,0.5882843565758475,-3.137780407778414,0.9631853204097095,1
116,2024-09-25 15:17:02.045531904,0,017,-0.8124891306087676,-0.044676162281363535,15.153092087127929,-2.312743294187827,-0.22036939953511617,0.5788424523658867,-2.9782344520317316,0.9703194703682815,1
117,2024-09-25 15:17:02.098906112,0,017,-0.7831775209063675,-0.04267916410233536,14.911648855738035,-2.2926845022574835,-0.13833823774820395,0.5673741304233207,-2.7768113213054484,0.9606897568429459,1
118,2024-09-25 15:17:02.176064000,0,017,-0.7500589267049803,-0.04158343231793336,14.697673102361632,-2.274500246436849,-0.05454585053670687,0.5541249635574881,-2.542207704216027,0.9341325025438231,1
119,2024-09-25 15:17:02.237620224,0,017,-0.7141386267299185,-0.04115591272179992,14.522945505725112,-2.26002471802155,0.030241054800654723,0.5393523595224908,-2.282837414979573,0.8910904203806869,1
120,2024-09-25 15:17:03.167695104,0,017,-0.6765843814201606,-0.04112790133898499,14.397559572086626,-2.2507342067802703,0.11552901448753389,0.5233149926624672,-2.006458332552973,0.8326450197812769,1
121,2024-09-25 15:17:03.235532032,0,017,-0.6385695911795723,-0.04121427750815368,14.32915614484819,-2.2476116113032596,0.20112675562782673,0.5062643372591763,-1.7203593607193457,0.7605900141580269,1
122,2024-09-25 15:17:03.302157056,0,017,-0.6011507972547699,-0.04112862107737021,14.322473337381753,-2.2510820266754945,0.28711584242563576,0.4884446259238754,-1.4320041931042975,0.6775285014170586,1
123,2024-09-25 15:17:03.364640768,0,017,-0.5651786926916774,-0.040597388358854826,14.379112099153962,-2.261004420598353,0.37374825343874635,0.4701044662504904,-1.1496214441980346,0.5868895452638578,1
124,2024-09-25 15:17:03.438906112,0,017,-0.5312399475842027,-0.03937437428577057,14.497264532105257,-2.2766881708026667,0.461274216879094,0.4515179599247756,-0.8822402017746178,0.4927622905256322,1
125,2024-09-25 15:17:03.503851776,0,017,-0.49962267990153997,-0.037257619736448935,14.671452770701704,-2.296950547564229,0.5497563802473306,0.4330036441019486,-0.6390927411721736,0.3995576809098459,1
126,2024-09-25 15:17:03.574513920,0,017,-0.4703068064431398,-0.03411002978600018,14.892551911391335,-2.320242703720909,0.638940382617293,0.4149277376158771,-0.428630756504332,0.31159130658085743,1
127,2024-09-25 15:17:04.509897984,0,017,-0.4429987376316112,-0.029876327179018954,15.14824879006783,-2.344831305145541,0.7282153771790002,0.397686872887813,-0.2574554337001249,0.2326685378843748,1
128,2024-09-25 15:17:04.571940864,0,017,-0.4172137857270006,-0.02458758315205621,15.42393153099187,-2.369000943189771,0.8166707726451469,0.3816727957195485,-0.12943996219925782,0.16572267462102067,1
129,2024-09-25 15:17:04.652008960,0,017,-0.39238379282164154,-0.018351876748201903,15.703958808123412,-2.391246035469918,0.9032246293406007,0.367227377189082,-0.045291031128886244,0.11256576422263692,1
130,2024-09-25 15:17:04.711503872,0,017,-0.3679671406196709,-0.011333982994993613,15.973173975707244,-2.410419966769443,0.9867602606355633,0.35460090650977294,-0.0026839565579108177,0.07381933098956636,1
131,2024-09-25 15:17:04.788224768,0,017,-0.3435315925940215,-0.0037309753957604644,16.218420396176047,-2.42581741559193,1.0662214557844765,0.34392121439415085,0.0031415602286833807,0.049031166433906884,1
132,2024-09-25 15:17:04.850712064,0,017,-0.31877513821102194,0.00424725129855629,16.42973893713552,-2.437181033006068,1.1406709109395856,0.33517264359907356,-0.02133868239402253,0.03689427542854289,1
133,2024-09-25 15:17:04.924724992,0,017,-0.29349418199289673,0.01239060014009881,16.600923839582144,-2.4446288148508244,1.2093364937273172,0.3281858145280317,-0.06857226820214013,0.03548533851820756,1
134,2024-09-25 15:17:05.867876864,0,017,-0.26756465002556223,0.020500857558715637,16.729307252314772,-2.4485144020990037,1.2716506727415569,0.3226458571108181,-0.13061806339186102,0.042514086261130596,1
135,2024-09-25 15:17:05.935744000,0,017,-0.24098969841374512,0.028408607969086182,16.814994388698018,-2.4492701119589855,1.327267682168743,0.3181250777969395,-0.20000156969027955,0.05559354949766599,1
136,2024-09-25 15:17:05.998697984,0,017,-0.21400269266132943,0.03599301389539336,16.860037395277406,-2.447314905052583,1.376024750449913,0.3141376314807743,-0.27055064305254256,0.07250122606995589,1
137,2024-09-25 15:17:06.071320064,0,017,-0.18716875749062917,0.04319703656165628,16.86800063170606,-2.4430896824283104,1.417819145053526,0.31020774398415685,-0.3379640698252576,0.09138422860399223,1
138,2024-09-25 15:17:06.137404160,0,017,-0.16141587622775558,0.05002968782945761,16.843969742944445,-2.4371922267904726,1.4524373835734687,0.3059382723179337,-0.4000555427003283,0.11087571344444207,1
139,2024-09-25 15:17:06.200279040,0,017,-0.1379455184077349,0.05655003526458618,16.79461862018237,-2.4305094796185784,1.4794287885462687,0.3010631024509029,-0.4567089664566694,0.13011371015463175,1
140,2024-09-25 15:17:06.260297216,0,017,-0.11804584746789905,0.06283752874603822,16.727955944497626,-2.424269456659675,1.4980821477134196,0.2954729803499804,-0.5095688582897273,0.14868369641162107,1
141,2024-09-25 15:17:07.217936896,0,017,-0.10290264718612993,0.06896248730387326,16.652772070070384,-2.4200019684543097,1.5075087755952832,0.28921448146605666,-0.5614769867110296,0.16651181714162125,1
142,2024-09-25 15:17:07.274348800,0,017,-0.0934850646315919,0.07496636448724488,16.57806822892347,-2.4194248012221595,1.5068221701603441,0.28246499570288025,-0.6156598058407742,0.1837081252060034,1
143,2024-09-25 15:17:07.351524096,0,017,-0.0905113055241038,0.0808522156777909,16.5125567215273,-2.4242590905774954,1.4953828851647277,0.275488436134786,-0.6747697800939576,0.2003623898899055,1
144,2024-09-25 15:17:07.414010112,0,017,-0.09445478731342319,0.08658295095179398,16.463979721465016,-2.4359618356803687,1.4730373285619873,0.26858258530108287,-0.7400581750070587,0.21634481979695624,1
145,2024-09-25 15:17:07.476058112,0,017,-0.1055417307235053,0.09208239794052994,16.438111459940867,-2.4554008774379925,1.440270897671765,0.26203327235391694,-0.8109657513963697,0.23118721292028055,1
146,2024-09-25 15:17:07.553675008,0,017,-0.12372082227967127,0.09723595648765856,16.437820290242197,-2.4825799592317668,1.3982233053660613,0.2560884546835221,-0.8852191145300182,0.24407949462675205,1
147,2024-09-25 15:17:07.615279104,0,017,-0.1486320608967205,0.1018968699950173,16.462709566965515,-2.516535825423447,1.3485689272578747,0.2509549548655623,-0.9592961825069328,0.25395298865493243,1
148,2024-09-25 15:17:08.568092928,0,017,-0.17960294283651365,0.10590402279598615,16.50944954505925,-2.555444832492001,1.2933321379549083,0.24680580446395886,-1.0290171552038456,0.25959629614465635,1
149,2024-09-25 15:17:08.624697088,0,017,-0.21567814326332832,0.10910798720456735,16.572560311815117,-2.596895642479771,1.2347236115346079,0.24378237013642584,-1.0900667997904616,0.2597755776961581,1
150,2024-09-25 15:17:08.703724032,0,017,-0.2556837750632848,0.11139801908234932,16.64534975454456,-2.6382461111457616,1.1750285887614356,0.24198663650357113,-1.1383621280768002,0.2533541916948292,1
151,2024-09-25 15:17:08.771522048,0,017,-0.29831895579138634,0.11272240820009033,16.720744757114513,-2.6769626038727,1.1165170871662853,0.24146999199131036,-1.1702200265782645,0.2393982173097233,1
152,2024-09-25 15:17:08.824803840,0,017,-0.3422644796814256,0.11309809576160837,16.791896883381916,-2.71087078257337,1.061329049689408,0.24222793359408026,-1.1822983801351579,0.21725116344305154,1
153,2024-09-25 15:17:08.907156992,0,017,-0.38629829253021714,0.11261201554661071,16.85264571173824,-2.7383181182711502,1.0113240625652378,0.2442053005628826,-1.171411833778277,0.18658685367312688,1
154,2024-09-25 15:17:08.974931968,0,017,-0.42939073600624467,0.1114161517150378,16.897916034502092,-2.758271029024588,0.9679496529180177,0.24730497633787385,-1.1344723825789518,0.14747168021206356,1
155,2024-09-25 15:17:09.912142080,0,017,-0.4707630531299656,0.10971571655844481,16.924011536891523,-2.770337379040569,0.9321956173776023,0.2513891253565501,-1.0687067985598648,0.1004380349207274,1
156,2024-09-25 15:17:09.986092032,0,017,-0.5099263963568779,0.1077532974076189,16.92877244440537,-2.7746949062511086,0.9046395747684897,0.25627379778384585,-0.9720375085330362,0.04651511561238578,1
157,2024-09-25 15:17:10.053889024,0,017,-0.5467070026904481,0.10579169573708927,16.91156380726066,-2.771936869597263,0.8855301751723887,0.26172584193891985,-0.8434974002114084,-0.01283088566897924,1
158,2024-09-25 15:17:10.121655040,0,017,-0.5812371622316946,0.10409337925280426,16.8730324002161,-2.7628761288595163,0.8748466511504586,0.2674657917859741,-0.6837365014701398,-0.07582146509785603,1
159,2024-09-25 15:17:10.174583040,0,017,-0.6139101572530328,0.1028973142499564,16.814691379028467,-2.7483523459657024,0.8723000179064614,0.2731776194574787,-0.4956009894869571,-0.14048310746546105,1
160,2024-09-25 15:17:10.252159232,0,017,-0.6453156888381071,0.10239933247109922,16.7385474301924,-2.7290742734803883,0.8772907154312672,0.27852859001608815,-0.28447446104873714,-0.20471955235928346,1
161,2024-09-25 15:17:10.314172160,0,017,-0.6761597540956364,0.10273942263034047,16.646924360891678,-2.7055183062932144,0.8888770884700155,0.28319776530925533,-0.05810197114909708,-0.2663564059163034,1
162,2024-09-25 15:17:11.263840768,0,017,-0.7071687704418862,0.103996691298829,16.54241584513271,-2.6778948234303024,0.9057956879993282,0.28690613354477923,0.17400437418498252,-0.3231846320279429,1
163,2024-09-25 15:17:11.336710912,0,017,-0.7389866870869888,0.1061936231761224,16.427772551143892,-2.6461801603247634,0.9265286474927374,0.28944442983075785,0.4013079504853648,-0.37302489437783815,1
164,2024-09-25 15:17:11.404523008,0,017,-0.7720825218709144,0.10930782407046252,16.30560585961918,-2.61019404142064,0.9493839542483528,0.29069761499696284,0.6130659734431201,-0.4138444477488902,1
165,2024-09-25 15:17:11.472305920,0,017,-0.806703819244689,0.11328658631476764,16.177926279639813,-2.5696792843896827,0.9725520278208162,0.29066344061493143,0.7992472373049869,-0.44393362520020246,1
166,2024-09-25 15:17:11.525476096,0,017,-0.8429133847796406,0.11806181972002816,16.045594123979285,-2.5243450825460183,0.9941205745696233,0.2894628095386759,0.9513743200788914,-0.4620924438776899,1
167,2024-09-25 15:17:11.607897856,0,017,-0.8807048923704572,0.12356350950721345,15.907826819741546,-2.473892856515561,1.0120637746455263,0.2873406840903394,1.0630428570686978,-0.46775936950753866,1
168,2024-09-25 15:17:11.665177088,0,017,-0.9201443372063677,0.12972935265205643,15.762013570460667,-2.4180850557134614,1.0242526832593286,0.2846554199698476,1.1301174366937274,-0.46104621845422195,1
169,2024-09-25 15:17:12.592829952,0,017,-0.9614705974505395,0.13650885014068387,15.604061664440048,-2.3568752520716827,1.0285340801105969,0.2818548556304173,1.150815539285078,-0.4426902209117382,1
170,2024-09-25 15:17:12.660429824,0,017,-1.0051140830972995,0.14386035070529438,15.42923682473543,-2.2905496883418075,1.022882595893236,0.27944158642450695,1.1257977593941777,-0.41396686347382483,1
171,2024-09-25 15:17:12.721934080,0,017,-1.0516402911548688,0.15174273901270136,15.23314614472139,-2.21981618871602,1.0055807125763419,0.27793312290066763,1.058146116093729,-0.37659967140416994,1
172,2024-09-25 15:17:12.796303872,0,017,-1.1016581504651002,0.16010784240605727,15.012461035866227,-2.145807857080368,0.9753767350651347,0.2778187431297284,0.953062935824611,-0.33266915433010075,1
173,2024-09-25 15:17:12.864087808,0,017,-1.1557273194942579,0.16889767723839996,14.765237573019522,-2.0700035239841394,0.9316024772718202,0.2795105934540095,0.8173115155435836,-0.28450117872005387,1
174,2024-09-25 15:17:12.921711872,0,017,-1.214264007089789,0.17804382607774663,14.490991759016696,-1.994094724224522,0.8742509382227294,0.28329250369675646,0.6585966552864758,-0.23451786997726287,1
175,2024-09-25 15:17:12.999720960,0,017,-1.2774188818641132,0.18746165637065237,14.190814751635493,-1.9198517570410358,0.8040087429544458,0.2892774916337539,0.48508824269862394,-0.1850595670075962,1
176,2024-09-25 15:17:13.903677952,0,017,-1.3449288228411087,0.1970365205207206,13.867728567940256,-1.8490393924984112,0.7222219666343828,0.29738325540486965,0.30514306470751723,-0.13821032403282313,1
177,2024-09-25 15:17:13.981786880,0,017,-1.4160007895183244,0.2066120188223152,13.527198472559437,-1.7833899101030817,0.6307717625014033,0.30733042131601856,0.127117733027566,-0.09565763531642509,1
178,2024-09-25 15:17:14.054085888,0,017,-1.4892866442445039,0.21599529926614128,13.177423995970457,-1.7245859331800284,0.5318794717440115,0.31866485769077996,-0.04085884592560409,-0.05860878274534932,1
179,2024-09-25 15:17:14.121820928,0,017,-1.5629583968638083,0.22498231758377377,12.829032481360139,-1.6741959058296632,0.4279104274760199,0.33079875291624605,-0.19124629743268007,-0.027777398867340083,1
180,2024-09-25 15:17:14.189642752,0,017,-1.6348691693191562,0.23339510811461628,12.494118887295203,-1.6335555010399028,0.3212230700595571,0.34306068816350666,-0.3176690561593096,-0.003423162805670848,1
181,2024-09-25 15:17:14.244086016,0,017,-1.7027688677979431,0.24112338224794555,12.184954333126115,-1.6036467783888306,0.21405141664494873,0.35474874786262217,-0.41566129362675075,0.014596146968883362,1
182,2024-09-25 15:17:14.321863680,0,017,-1.7644961725815524,0.24815959628356649,11.912848714541582,-1.5850396064918648,0.10841141552935071,0.3651838305626971,-0.4832772680511025,0.02677279463161787,1
183,2024-09-25 15:17:15.255151104,0,017,-1.8180723649073964,0.2546109456274674,11.687446019001516,-1.5779202115002193,0.006053609699035589,0.3737572134856388,-0.5211999252040246,0.03386300729231302,1
184,2024-09-25 15:17:15.332392704,0,017,-1.8617224136567032,0.2606830411315778,11.516340440717265,-1.582178590391803,-0.09154471038821158,0.3799688763410584,-0.5322580586752071,0.03673947749667207,1
185,2024-09-25 15:17:15.404220928,0,017,-1.8939127271381815,0.26665078349567634,11.404732202388072,-1.5975039193848217,-0.18319881323860177,0.38346186739631016,-0.5206064670579553,0.03621923737688605,1
186,2024-09-25 15:17:15.457297152,0,017,-1.9134335238739721,0.27283278639606734,11.3550187304466,-1.6234496170688288,-0.2680586170692656,0.3840538535532252,-0.49095365415421405,0.03294591246522568,1
187,2024-09-25 15:17:15.539802112,0,017,-1.9194785979730746,0.2795675115930962,11.366502187050802,-1.6594605139803593,-0.34561486428133775,0.38175253779818,-0.4481099838696687,0.027371541674760625,1
188,2024-09-25 15:17:15.596076800,0,017,-1.911694863252484,0.2871828464867927,11.435457245451257,-1.7048789906066393,-0.4156269065098983,0.3767449687892998,-0.39687461677780256,0.019820982118017187,1
189,2024-09-25 15:17:15.675457024,0,017,-1.8902234505660829,0.29596419352087355,11.555518473057703,-1.7589298271314424,-0.4779939567321967,0.36937098790237477,-0.34204020973129373,0.010598564684230488,1
190,2024-09-25 15:17:16.612551936,0,017,-1.855740295140128,0.306133790856002,11.718098394517787,-1.820656068282236,-0.5326000225760136,0.3600944289110562,-0.28822962332124846,9.363730761570877e-05,1
191,2024-09-25 15:17:16.675334912,0,017,-1.8094575193499618,0.317842074253158,11.912731548931937,-1.888811915210392,-0.5791495472869456,0.34946715272605333,-0.23944869680804992,-0.011163282469751649,1
192,2024-09-25 15:17:16.752529920,0,017,-1.7530412079369553,0.3311599070306158,12.127494052999191,-1.9617719785026664,-0.617038926968894,0.33807484434237584,-0.1985449316746462,-0.02251161906493703,1
193,2024-09-25 15:17:16.816082944,0,017,-1.688439415109003,0.34606629108008563,12.349582824430119,-2.0375126758972693,-0.6453194779064326,0.3264727645619877,-0.16690921922415755,-0.03321454027130199,1
194,2024-09-25 15:17:16.888765184,0,017,-1.6176518218280982,0.36243646089781156,12.566076114227599,-2.1136922773983513,-0.6627615574095702,0.31513509354212493,-0.14453811632944844,-0.04254338322083753,1
195,2024-09-25 15:17:16.955705856,0,017,-1.542498274103001,0.3800355266860607,12.764959710213146,-2.1878312035279115,-0.6679940398739244,0.3044318413282307,-0.1302895116718338,-0.04989884182059411,1
196,2024-09-25 15:17:17.017220864,0,017,-1.464464482993779,0.39852331668810986,12.93631708991682,-2.2575506933520786,-0.6596921803489452,0.29462836835993716,-0.1222047436292793,-0.05492887098784625,1
197,2024-09-25 15:17:17.959969024,0,017,-1.3846735401011963,0.4174775398495274,13.073252363992845,-2.320791848713463,-0.6367741071362918,0.28589493387957865,-0.1179080508887488,-0.05757748871878229,1
198,2024-09-25 15:17:18.021524992,0,017,-1.3039449116470472,0.43642983579167594,13.172197903995109,-2.37595841907267,-0.5985583558968317,0.2783169598715285,-0.11500817568316272,-0.058066025790192426,1
199,2024-09-25 15:17:18.100272896,0,017,-1.2228703877339626,0.4548968799507802,13.23273154241959,-2.421982532878017,-0.5448793848444687,0.2719040441382179,-0.11134811486384562,-0.056860530416917736,1
200,2024-09-25 15:17:18.171143936,0,017,-1.141890146711013,0.47239937034839147,13.257272533842025,-2.4583382817619333,-0.4761927286525653,0.2666014560086529,-0.10509304980314005,-0.05463758642167266,1
201,2024-09-25 15:17:18.238081024,0,017,-1.0613721920205497,0.48847559287650516,13.250812426088487,-2.485014798091973,-0.39364841885007834,0.26230360744517484,-0.09480849487685691,-0.052213874334599945,1
202,2024-09-25 15:17:18.306697984,0,017,-0.9816691906228756,0.5026916591301499,13.220533751047727,-2.502448056831359,-0.29905739336525544,0.25886042221378325,-0.07967084055539395,-0.050422864978791164,1
203,2024-09-25 15:17:18.374517760,0,017,-0.9031494387419996,0.5146482454651922,13.175111481735238,-2.511415374433814,-0.1947345558625257,0.2560731686548006,-0.059824787221810456,-0.04996580416709952,1
204,2024-09-25 15:17:19.317274112,0,017,-0.8262425063255309,0.5239928889190075,13.123712684331124,-2.5129097713597845,-0.08329403989334015,0.2536910529279899,-0.036753281970552935,-0.051284822774792044,1
205,2024-09-25 15:17:19.385698048,0,017,-0.7515081839430652,0.5304419467906211,13.074974746156357,-2.508024954669909,0.03253189822550516,0.2514185325570394,-0.013396604291800757,-0.054506509630320346,1
206,2024-09-25 15:17:19.440134144,0,017,-0.6796859431584223,0.5338003891696648,13.036242478159455,-2.4978824926277796,0.15003620980193252,0.2489293981398994,0.006205562773001674,-0.05948344616590639,1
207,2024-09-25 15:17:19.521295104,0,017,-0.6116961322358033,0.533970655886273,13.013130359890615,-2.483612443352744,0.26664645871955145,0.24588230502818745,0.017631173453402288,-0.06589286333574942,1
208,2024-09-25 15:17:19.579538176,0,017,-0.5485962408850249,0.5309555727291525,13.009320739458564,-2.4663642775157335,0.3800056853439694,0.24193980602432427,0.01671402820653521,-0.07329814878560874,1
209,2024-09-25 15:17:19.642945024,0,017,-0.4915062549347394,0.5248589552779277,13.026436618759172,-2.4472968038595804,0.4880438436096119,0.23679047758766475,-0.00013723472425575646,-0.08114201273412822,1
210,2024-09-25 15:17:19.724759040,0,017,-0.4415337569895801,0.5158813322633318,13.063883489751914,-2.4275165302016593,0.5890441153342945,0.2301699300434759,-0.035687164209062275,-0.08875290639380763,1
211,2024-09-25 15:17:20.657068800,0,017,-0.39972405901842994,0.5043117863862621,13.118811706162566,-2.4080036925770294,0.681680282096033,0.22188077986534074,-0.09132820384413264,-0.09545506338069876,1
212,2024-09-25 15:17:20.735622912,0,017,-0.3670153512271239,0.4905182829130963,13.186451514026913,-2.389591481871926,0.7650182805331215,0.21181124444718122,-0.16630721820019057,-0.10076533558164817,1
213,2024-09-25 15:17:20.803454208,0,017,-0.34417146480910443,0.4749353515844615,13.26080364125051,-2.3730053750049276,0.8385037838434585,0.19994671585679208,-0.25725774549570496,-0.10455909004087853,1
214,2024-09-25 15:17:20.858098944,0,017,-0.3317034641915991,0.45804909462877863,13.33541054872219,-2.3589078049562517,0.9019486309673115,0.1863715449013504,-0.35857614291185086,-0.10709607437642368,1
215,2024-09-25 15:17:20.935298816,0,017,-0.3297850914462379,0.44037858036986127,13.40395683725357,-2.3478900379294543,0.9555115502935974,0.17126376052292905,-0.4636646677395618,-0.10889754370430428,1
216,2024-09-25 15:17:20.996854016,0,017,-0.33813996411596337,0.42244839926040895,13.460651315884999,-2.34039757382096,0.99966049550413,0.15488415550653595,-0.5664474841699079,-0.11056143012577203,1
217,2024-09-25 15:17:21.074515200,0,017,-0.35592450155881633,0.4047544686779781,13.50052150072239,-2.336629182357298,1.035092602072426,0.1375607479961466,-0.6623983851338525,-0.11262123832868669,1
218,2024-09-25 15:17:22.017198080,0,017,-0.3816880378917219,0.38773761807104723,13.519729150307455,-2.3364667194050783,1.0625974979527972,0.11967424915218627,-0.7487607706382032,-0.11548939446317341,1
219,2024-09-25 15:17:22.085662208,0,017,-0.41345484136732663,0.37177414383709745,13.515886885286486,-2.339471088627564,1.0828896352588349,0.1016494221809339,-0.8242216240868964,-0.11944321820870024,1
220,2024-09-25 15:17:22.153455104,0,017,-0.448904780892072,0.3571762674155429,13.488299301218522,-2.3449467912951034,1.0964558265973856,0.08394940800086029,-0.8884972181740693,-0.1245928698536496,1
221,2024-09-25 15:17:22.214142208,0,017,-0.4856185105882605,0.34419394289039873,13.438016998251403,-2.3520411016326235,1.103441570411113,0.06706867140241089,-0.9420751529205623,-0.13082326029368133,1
222,2024-09-25 15:17:22.288977920,0,017,-0.5213580847886156,0.33302089430711246,13.367588685835072,-2.359826116102314,1.103577713217113,0.05152781583150609,-0.9860153996554755,-0.13776394214511287,1
223,2024-09-25 15:17:22.356760064,0,017,-0.5543292080127231,0.3238095868199186,13.280518331316161,-2.3673352793455407,1.0961658150850262,0.03787335157417233,-1.0215889495455532,-0.14483317920316105,1
224,2024-09-25 15:17:22.424554240,0,017,-0.5833505870945702,0.3166883662074299,13.18053266100128,-2.373559798936587,1.0801674686241074,0.02667131063188578,-1.04978663642878,-0.15132525244249664,1
225,2024-09-25 15:17:23.341396992,0,017,-0.607880949639698,0.31176785720934,13.07077098335658,-2.3774268086429258,1.0544131226680618,0.018478342630534002,-1.0710262704946376,-0.15646949767582,1
226,2024-09-25 15:17:23.411307008,0,017,-0.6279137023162472,0.3091326276864391,12.953142065288239,-2.3778009562249514,1.0178710573968475,0.013792525149665365,-1.0852933449053148,-0.1594361707183622,1
227,2024-09-25 15:17:23.465768960,0,017,-0.6437930064503041,0.3088249623829577,12.828243459713224,-2.373570081218318,0.9699005978595621,0.01300274386571776,-1.092566432409495,-0.1593288830005012,1
228,2024-09-25 15:17:23.543074048,0,017,-0.6560173147246438,0.3108284342382686,12.69600452145091,-2.36383870017656,0.9104654577949153,0.016347249065046417,-1.093188408351634,-0.15521744358203154,1
229,2024-09-25 15:17:23.605124096,0,017,-0.6650898899830514,0.3150555239341721,12.556710330861993,-2.3481592828114977,0.8402964017510709,0.02387973329942753,-1.0880254459444467,-0.14622987201946905,1
230,2024-09-25 15:17:23.682351104,0,017,-0.6714394268548916,0.3213427003401067,12.411798602258083,-2.326674238926644,0.7609625794597473,0.0354467147989487,-1.0784494099723283,-0.13168430073493848,1
231,2024-09-25 15:17:23.743915008,0,017,-0.6753809277759032,0.32945554893490064,12.264000810086694,-2.300090606691024,0.6748297113139888,0.050686782883830626,-1.0661802424656772,-0.11122395562893572,1
232,2024-09-25 15:17:24.662494976,0,017,-0.6770695750118384,0.3391012046592805,12.116861566402997,-2.2695207688681895,0.5849341459062856,0.06905313615437321,-1.0530503780178622,-0.08491034798308729,1
233,2024-09-25 15:17:24.735844096,0,017,-0.6764411574908022,0.34994006575688247,11.974059063936258,-2.2362916249607765,0.4947959634643617,0.08985145942419762,-1.040834652669756,-0.053240276324981003,1
234,2024-09-25 15:17:24.802827008,0,017,-0.6731925813817813,0.3615945409344833,11.838944383141222,-2.2018004489695606,0.4081554027085487,0.11229001023080909,-1.0312153246373754,-0.01708820417372428,1
235,2024-09-25 15:17:24.864852992,0,017,-0.6668508436066478,0.37366206390201195,11.714426796926649,-2.1674299578749676,0.3286370438811911,0.1355417762908032,-1.0257521040190527,0.022386897131409518,1
236,2024-09-25 15:17:24.939203072,0,017,-0.6568995755622166,0.3857344533074638,11.603115410043962,-2.134499149195257,0.2594034906668434,0.15880913003978817,-1.025661478110585,0.06381545403454757,1
237,2024-09-25 15:17:25.007073024,0,017,-0.6429003328416171,0.39741629304923703,11.507553525705356,-2.1042241111961895,0.20286720661788774,0.18137686453692864,-1.031400582229568,0.10564674172821295,1
238,2024-09-25 15:17:25.074814976,0,017,-0.6246011195889435,0.40834111198116513,11.430362835788275,-2.077671723898393,0.16049936271988408,0.2026484676988526,-1.04228634372421,0.1461693870700276,1
239,2024-09-25 15:17:26.018137088,0,017,-0.6020473682453163,0.4181915302452398,11.374209062659899,-2.055705152254123,0.1327566316678678,0.22216839105804972,-1.0563618114401603,0.1835695178177007,1
240,2024-09-25 15:17:26.084500992,0,017,-0.5756724890854966,0.42672184758142184,11.341640249238486,-2.038934340915055,0.11912123612334727,0.23963111484196317,-1.070527841732075,0.21602086212483662,1
241,2024-09-25 15:17:26.153803264,0,017,-0.5463470283069379,0.43377617201845026,11.334838156116062,-2.0276837539149875,0.11821256415591656,0.254875467396455,-1.0809013565787202,0.24177880957717246,1
242,2024-09-25 15:17:26.221597952,0,017,-0.5153959036437721,0.4393025704454113,11.355223848828107,-2.021975440867726,0.12792634890456558,0.2678678086057996,-1.0833818668810726,0.25927857902628965,1
243,2024-09-25 15:17:26.289384960,0,017,-0.4845654216270643,0.44336377155460327,11.402853848104275,-2.0215161665443975,0.14560448344878485,0.2786800416860075,-1.0742748162760292,0.26724166038634245,1
244,2024-09-25 15:17:26.348339200,0,017,-0.455890570250302,0.4461331533582804,11.475645721143994,-2.025684650291152,0.16827617100039824,0.2874615787655596,-1.0507301033779284,0.2647681591190566,1
245,2024-09-25 15:17:26.425070080,0,017,-0.43147175262786003,0.4478663849161483,11.568616314268615,-2.033524480010391,0.19296566239039092,0.29440472388066574,-1.0109243458677675,0.25138942807869075,1
246,2024-09-25 15:17:27.368200960,0,017,-0.4132410708201427,0.4488586610524283,11.673459802791596,-2.0437552407228683,0.21698165082821264,0.29971380403014136,-0.9541049267671102,0.22707732345549858,1
247,2024-09-25 15:17:27.425451008,0,017,-0.4027685180836628,0.44940615173013254,11.778841800678483,-2.054829739754475,0.23811647079919127,0.30358708783029814,-0.8806464850590677,0.19223118572686387,1
248,2024-09-25 15:17:27.502688000,0,017,-0.40109865893187613,0.44977837076834587,11.871569649350077,-2.065058141919745,0.2547636574723763,0.3062067002201616,-0.7922747072095405,0.14768422076046608,1
249,2024-09-25 15:17:27.564697088,0,017,-0.40862689206035396,0.45019882861542204,11.938344539562037,-2.072771473190722,0.2659731691400456,0.3077311586901143,-0.6925524744688317,0.09475591740449342,1
250,2024-09-25 15:17:27.639412992,0,017,-0.4250594681919795,0.4508343496474445,11.967521169222218,-2.076472245652216,0.271420929976555,0.30829715338984687,-0.5874229027877022,0.035312922348450126,1
251,2024-09-25 15:17:27.704835840,0,017,-0.4494702184835205,0.4517939179313065,11.950439763806003,-2.074951283180972,0.2712927253090345,0.30803424959518433,-0.48527786760947655,-0.0282445147148522,1
252,2024-09-25 15:17:27.766397952,0,017,-0.4804254970308434,0.4531319246912887,11.882160518755278,-2.067375635314413,0.266147728249736,0.3070781333229888,-0.3961669291636673,-0.09311692388748125,1
253,2024-09-25 15:17:28.718249984,0,017,-0.5161548075574194,0.4548513899524394,11.761573313779854,-2.053342699545697,0.2568248646109248,0.30556545469494034,-0.33033555827017,-0.15633246739481563,1
254,2024-09-25 15:17:28.774812928,0,017,-0.554750449932919,0.4569101033338364,11.5909666291236,-2.0328848920671776,0.24440147902653628,0.30361254903103474,-0.29663739563563063,-0.2150102481303576,1
255,2024-09-25 15:17:28.852464128,0,017,-0.5943514525598618,0.45923182265982876,11.375312764040642,-2.0064243058848708,0.23018648884552448,0.30129397058770485,-0.3012176335119472,-0.26662573912411675,1
256,2024-09-25 15:17:28.914520064,0,017,-0.6332641723261535,0.4617172855136754,11.121651106103318,-1.9747083630041689,0.21572457948547502,0.2986312616267402,-0.3465916175420903,-0.3092569428825681,1
257,2024-09-25 15:17:28.976126976,0,017,-0.6700231318117991,0.46425159675582445,10.838813741010531,-1.9387639609782088,0.20277273950737426,0.29559386697741535,-0.4311759994099308,-0.3417846024920686,1
258,2024-09-25 15:17:29.054693888,0,017,-0.7034210271020737,0.46671267358545737,10.537368165159481,-1.8998694202733681,0.19320580881878935,0.2921154500244001,-0.549362171465407,-0.3640128654640053,1
259,2024-09-25 15:17:29.116745216,0,017,-0.7324932549961364,0.46898275997524286,10.229405296699376,-1.8595109854216743,0.18884430817886996,0.28812823000402954,-0.6921321846865922,-0.37667103354221504,1
260,2024-09-25 15:17:30.060213248,0,017,-0.7564203322697333,0.4709546271972633,9.927946916693196,-1.8193123168849654,0.19125522719883664,0.2836040628933346,-0.8480520060004556,-0.38127574987278395,1
261,2024-09-25 15:17:30.132232960,0,017,-0.7743798747147063,0.4725262217069785,9.646106897882664,-1.7809603517391501,0.2015914014868352,0.2785801420692922,-1.0044519867875683,-0.37987232671296484,1
262,2024-09-25 15:17:30.204055808,0,017,-0.7854486379697454,0.4735918969347669,9.396260483656851,-1.7461384131496145,0.22049376479092075,0.27315840077645104,-1.1486790650565033,-0.3747033038609937,1
263,2024-09-25 15:17:30.262414080,0,017,-0.7886166284527737,0.47404269142319305,9.189276004589479,-1.716444206535052,0.24805103983320423,0.26748726996912586,-1.2692940150745908,-0.367876817656025,1
264,2024-09-25 15:17:30.339586048,0,017,-0.7828849023039628,0.4737763469878645,9.033750150386421,-1.6932725406324738,0.28382183007621453,0.26173709547346724,-1.3570789794289793,-0.3611083512233385,1
265,2024-09-25 15:17:30.402118912,0,017,-0.7673926409317533,0.472707850489487,8.93532453300342,-1.6776739982871813,0.32691994632630317,0.2560717877724,-1.405788172019876,-0.3555637085344639,1
266,2024-09-25 15:17:30.475218944,0,017,-0.7415453004629733,0.47077484788716945,8.896270170539077,-1.670223386838983,0.3761308904292068,0.25062085067183815,-1.4125929412160154,-0.35179163663211166,1
267,2024-09-25 15:17:31.403860992,0,017,-0.7051194934544753,0.46793989449252543,8.915416606271835,-1.670926672528394,0.43001903623683396,0.2454623483345633,-1.3781948612759714,-0.3497377085886128,1
268,2024-09-25 15:17:31.481041920,0,017,-0.6583160915430849,0.46419160996763303,8.98831100326554,-1.6791780844512365,0.48701535153109565,0.2406212793383093,-1.3066658344350264,-0.34883828413291496,1
269,2024-09-25 15:17:31.543822080,0,017,-0.6017657827058804,0.45954441335928,9.107508567116835,-1.6937862390470213,0.545495075358901,0.23607886158195301,-1.2050817531986784,-0.3481735112591415,1
270,2024-09-25 15:17:31.621053952,0,017,-0.5365240121932061,0.4540396686595144,9.263098469960086,-1.7131015573914588,0.6038391359649503,0.2317911290388308,-1.0829582525942767,-0.34662794387938894,1
271,2024-09-25 15:17:31.689639168,0,017,-0.4640694510374646,0.4477515461786479,9.443604102255646,-1.7352452275296029,0.660468621360905,0.22771753670102296,-0.9514923966492487,-0.3430063052560557,1
272,2024-09-25 15:17:31.757410048,0,017,-0.3862779035880363,0.44079294728879864,9.637230608082383,-1.7583903475045104,0.7138676229667621,0.22385161138061488,-0.8226385378632418,-0.33609175078262216,1
273,2024-09-25 15:17:31.823460864,0,017,-0.30535356638397493,0.43331541717152755,9.833280766457118,-1.7810288265191636,0.7626099412201822,0.22024220706888814,-0.7080901902820181,-0.32467575839638374,1
274,2024-09-25 15:17:32.759264000,0,017,-0.2237324346338941,0.42550606001537516,10.023430981756443,-1.8021603111021476,0.8053889525484704,0.21700118670667254,-0.6183081405521486,-0.3076020972982917,1
275,2024-09-25 15:17:32.835964928,0,017,-0.143960819539923,0.41758472273910585,10.202497346649752,-1.8213565649343377,0.8410738329671398,0.21429521860229406,-0.5617063765292843,-0.28385824133156984,1
276,2024-09-25 15:17:32.897530112,0,017,-0.06854280487079903,0.40979636766109895,10.368451648871902,-1.8386978291322236,0.8688131098030952,0.21231906527566535,-0.5439897093196134,-0.252718239052395,1
277,2024-09-25 15:17:32.960613888,0,017,0.00020660982599939644,0.4023963688236284,10.52171112835363,-1.8546189260155226,0.8881375269289895,0.21125813180796285,-0.5676501559718288,-0.21389967409146646,1
278,2024-09-25 15:17:33.037931776,0,017,0.06025548324196352,0.3956348394588073,10.663924350134375,-1.8697061510271449,0.8989993046210146,0.21125441962775424,-0.63175259820845,-0.16768028562105655,1
279,2024-09-25 15:17:33.099441152,0,017,0.10991476828140928,0.3897420951573798,10.796530326292,-1.884470157329299,0.9017528877286082,0.21238028628253483,-0.7321178913868457,-0.11493960920137668,1
280,2024-09-25 15:17:33.161928960,0,017,0.14791698387315905,0.38491110323798394,10.91943238473255,-1.8991358783994912,0.8971078646417109,0.2146188265245873,-0.8618743083451755,-0.057118265084773044,1
281,2024-09-25 15:17:34.092564992,0,017,0.17351236286065952,0.3812797066588489,11.030203084085976,-1.913519790721,0.886050574335189,0.21785883068282103,-1.012276643836489,0.00389288005016863,1
282,2024-09-25 15:17:34.148812032,0,017,0.18653676844240777,0.37892124548791695,11.12408862983537,-1.9270429433326854,0.8697271542383678,0.2219127395967186,-1.173621348020646,0.06590328388085584,1
283,2024-09-25 15:17:34.226083072,0,017,0.18743057728726986,0.37784341575252084,11.194725178638839,-1.9388629876730425,0.8493100118627942,0.22654894257868036,-1.336020814941901,0.12657834914736638,1
284,2024-09-25 15:17:34.288155904,0,017,0.17721166744476924,0.377988833646265,11.235222658175507,-1.9480592478188592,0.825878052320965,0.23152232417994845,-1.4899164697895697,0.18358755234638158,1
285,2024-09-25 15:17:34.358757120,0,017,0.15739376459321636,0.3792387450366504,11.239334448156162,-1.9538060493835976,0.8003327488473527,0.23659963434636871,-1.6264174883568883,0.23475651926126814,1
286,2024-09-25 15:17:34.429342976,0,017,0.12984346944227748,0.38142682803246586,11.202610542706093,-1.955503864919478,0.7733718928052536,0.24158352406055988,-1.73759693098728,0.2782233595398141,1
287,2024-09-25 15:17:34.499433216,0,017,0.09659489175261697,0.38436287788298723,11.1233673585052,-1.952854756464335,0.7455375121839554,0.24633021603558625,-1.8167604386800538,0.3125581473230363,1
288,2024-09-25 15:17:35.428518144,0,017,0.05965911186198601,0.3878589503507013,11.003196657433149,-1.9458704154430377,0.7173265015791744,0.2507513654514035,-1.8586758632112284,0.33679995549155956,1
289,2024-09-25 15:17:35.505399040,0,017,0.02087637203289239,0.39175039735625516,10.846919569351508,-1.9348243298163301,0.6893184124938486,0.25480111708547504,-1.8598884318784337,0.3504310589732156,1
290,2024-09-25 15:17:35.578374912,0,017,-0.018149211964601206,0.39590621419610317,10.662099556181188,-1.9201809865568804,0.6622626488701862,0.2584597197125739,-1.8191821772291141,0.3533442821576911,1
291,2024-09-25 15:17:35.644658176,0,017,-0.05604383707324253,0.40022793915621313,10.458268246536601,-1.9025344860351991,0.6370809810408508,0.2617241535242572,-1.7378980897077063,0.34580418338306085,1
292,2024-09-25 15:17:35.713915904,0,017,-0.09164405597012923,0.40464434780734415,10.246097715904577,-1.8825881838880958,0.6147745119590114,0.2646090447430415,-1.6197646658638654,0.32837040105459187,1
293,2024-09-25 15:17:35.769212928,0,017,-0.12398959697845033,0.40910923595710486,10.036718685770053,-1.861184050303832,0.5962752425756317,0.2671523200016789,-1.470290362283999,0.3018038276225664,1
294,2024-09-25 15:17:35.849554944,0,017,-0.15229700649763633,0.41359871266484366,9.841115641362961,-1.83933523403443,0.5823236264966336,0.26941257004819325,-1.2960222766023992,0.26700689029065755,1
295,2024-09-25 15:17:36.775884032,0,017,-0.17589553934042293,0.4180996019859636,9.669462427808462,-1.8182021394061432,0.5734354903926715,0.27144780091848425,-1.1038785753649283,0.22501206092311976,1
296,2024-09-25 15:17:36.837278976,0,017,-0.1941635812527217,0.422589330195626,9.530444752784355,-1.7990010391077071,0.5699531232499524,0.27327942093090146,-0.9005973501432268,0.17698799366553725,1
297,2024-09-25 15:17:36.915432960,0,017,-0.20649680211052407,0.42701417836343347,9.43064891564722,-1.7828711968699753,0.5721347285719985,0.27485693609095246,-0.6922757364270868,0.12421704821538262,1
298,2024-09-25 15:17:36.983249920,0,017,-0.21229192849680553,0.43126972860827817,9.374056885209944,-1.7707334987959007,0.5802429300249612,0.2760375027643087,-0.484031946128722,0.0680319851830808,1
299,2024-09-25 15:17:37.043116288,0,017,-0.21093990456667847,0.43518689377670217,9.361734556164405,-1.7631774934590545,0.5945916868135827,0.2765863668476273,-0.27988812575222327,0.009762782843533933,1
300,2024-09-25 15:17:37.118881792,0,017,-0.2018595743397499,0.4385308468674423,9.39172610818116,-1.7604003372104726,0.6155149615045001,0.2761984299800738,-0.08286740419677376,-0.049251316072336064,1
301,2024-09-25 15:17:37.186701056,0,017,-0.18458528623256346,0.4410163269367794,9.459046098494177,-1.76219446196773,0.6432695392942251,0.2745364767628702,0.10481926627300617,-0.10759560322685005,1
302,2024-09-25 15:17:38.140583936,0,017,-0.15887880937073828,0.44233332520219426,9.555789778251185,-1.7679823079207184,0.6779223692154497,0.2712759926365691,0.2815180222841473,-0.16371054644220134,1
303,2024-09-25 15:17:38.202242048,0,017,-0.1248328424856983,0.4421768646184663,9.671623573402725,-1.7769204872484838,0.7192495709366673,0.2661469387021101,0.4457015346875368,-0.21585271342076784,1
304,2024-09-25 15:17:38.279055104,0,017,-0.08294899137571986,0.44028197067659564,9.794880702966474,-1.7880819076084804,0.7666436303162493,0.2589698026263373,0.595389866989887,-0.262100109706798,1
305,2024-09-25 15:17:38.346779904,0,017,-0.03417151809216482,0.4364635644703669,9.91409148285812,-1.800652821352184,0.81904196289088,0.24968370561127243,0.7276824123708714,-0.3004155832472737,1
306,2024-09-25 15:17:38.414565120,0,017,0.02013223216755875,0.43065146908047,10.019423837988803,-1.814039790596847,0.8749149141700185,0.23835890519464578,0.8386807093556595,-0.3287848465417002,1
307,2024-09-25 15:17:38.482369024,0,017,0.07822091658448227,0.42291045026223384,10.103608818815976,-1.827851965866117,0.9323292205083952,0.2251900082212241,0.9238946999523922,-0.34543348382581357,1
308,2024-09-25 15:17:38.545715200,0,017,0.13803645115198912,0.41344279730118955,10.16227769858974,-1.841825378529233,0.9890705171525941,0.2104752535052842,0.978973441762406,-0.349084362340807,1
309,2024-09-25 15:17:39.467955968,0,017,0.19729650325912,0.40257173337680874,10.193823495540762,-1.8557584250614478,1.0428076177430008,0.19458814837065277,1.0004203675925243,-0.3391755635317787,1
310,2024-09-25 15:17:39.522559744,0,017,0.2536509897514124,0.39070532325989604,10.198933177084303,-1.8694624344794528,1.0912716379567302,0.1779469482389097,0.9860225657647745,-0.31597093082200844,1
311,2024-09-25 15:17:39.601062912,0,017,0.30487280089149776,0.3782909143585675,10.17995502914509,-1.8827111396313407,1.1324094319239173,0.16098883902519484,0.9349874043857173,-0.2805511207420826,1
312,2024-09-25 15:17:39.663075072,0,017,0.3490418590517289,0.3657723885813843,10.140249233631389,-1.8952058871839563,1.1645040221359846,0.14415051030761225,0.8479115854955364,-0.23471611957946423,1
313,2024-09-25 15:17:39.724647936,0,017,0.38471599782332055,0.3535523096846608,10.083622925310683,-1.906586355441303,1.1862813711823585,0.12785047321705553,0.7266687965136405,-0.18083436301119088,1
314,2024-09-25 15:17:39.802326784,0,017,0.4110650076699491,0.3419599061526973,10.01391849937459,-1.9164918351854132,1.1969937625018177,0.11247175373405377,0.5743381151418787,-0.12166874227558128,1
315,2024-09-25 15:17:39.874605056,0,017,0.42791022720250405,0.33123383054647326,9.934809769161133,-1.9246530057401523,1.1964611551515762,0.09834851988382969,0.39531430542397655,-0.06021070650658653,1
316,2024-09-25 15:17:40.812830720,0,017,0.4356447830218576,0.3215247409096751,9.849831856577557,-1.930983274064833,1.1850923352615879,0.08575716934137048,0.1955160598157027,0.0004694315493606444,1
317,2024-09-25 15:17:40.885917952,0,017,0.43506881108347384,0.3129106022952873,9.762642867444429,-1.9356499805093321,1.1639094692372896,0.07490890550197112,-0.01761961954871379,0.057385522525553255,1
318,2024-09-25 15:17:40.953711872,0,017,0.4272048198378237,0.30541495772739385,9.677511959315506,-1.9391334421908808,1.1345424400070596,0.06594433309076028,-0.23557596592319022,0.10784172637049165,1
319,2024-09-25 15:17:41.012672768,0,017,0.41317088724989093,0.2990215241362795,9.599899232750902,-1.9422714351458144,1.0991406553801761,0.05893288128758044,-0.44956261361176375,0.14966841973331474,1
320,2024-09-25 15:17:41.089271040,0,017,0.39416032888172614,0.2936791195038274,9.536711618989978,-1.9462346267959205,1.0602046425602638,0.053874574025990454,-0.6514219041297512,0.18142380611390288,1
321,2024-09-25 15:17:41.151423744,0,017,0.37148997250729604,0.2892961868337721,9.495808427266004,-1.9523768477843384,1.0203807045294142,0.0506993697005844,-0.8343579457457481,0.2024804180160711,1
322,2024-09-25 15:17:41.224902144,0,017,0.34663006331415,0.2857344332263159,9.4848165276508,-1.9619848649589353,0.9822517984756969,0.04926624837641033,-0.9933477738717184,0.21296151524934703,1
323,2024-09-25 15:17:42.160242944,0,017,0.32117869000277677,0.282812247958574,9.509796833033995,-1.976021581159348,0.9481540448579078,0.049367692933731507,-1.1252007304431866,0.21356097813044714,1
324,2024-09-25 15:17:42.235929856,0,017,0.2967965644709164,0.2803180537139597,9.574273867898714,-1.9949439666530024,0.9200523830232513,0.05073803919318808,-1.2282579913597762,0.20530939952560306,1
325,2024-09-25 15:17:42.297506048,0,017,0.2751010100719619,0.27802782113249375,9.678758380927329,-2.0186202320650692,0.8994794360129076,0.05306094458388958,-1.3018315707221852,0.18935310705183206,1
326,2024-09-25 15:17:42.367554816,0,017,0.2575052834743621,0.2757269597669782,9.82058789963102,-2.046326436075537,0.8875151460651802,0.05597990725948982,-1.3456626457748717,0.16680985425760567,1
327,2024-09-25 15:17:42.437778944,0,017,0.24504064668622244,0.2732391016978835,9.99385724743544,-2.076788605867402,0.8848023383152824,0.05911814944885745,-1.3596815232021535,0.1387225226309231,1
328,2024-09-25 15:17:42.499321088,0,017,0.23823645797866974,0.2704550985427463,10.189373407053273,-2.1082559835883554,0.8916022575250114,0.06210315856979341,-1.3441130841806666,0.10607594629434931,1
329,2024-09-25 15:17:42.561782016,0,017,0.23708185314707478,0.2673526910482785,10.3948426935073,-2.1386284753235025,0.9078554003054619,0.0645886210899685,-1.2997222590306963,0.06983460931256223,1
330,2024-09-25 15:17:43.518173952,0,017,0.24102866663135286,0.26400681163981177,10.595610049330647,-2.1656626497333717,0.9331992861379607,0.06627546240203869,-1.2279557055679944,0.030979825179023656,1
331,2024-09-25 15:17:43.586048000,0,017,0.2490176747211173,0.2605930775687966,10.776004682874134,-2.1872259520650776,0.9669519687733426,0.06693235056143866,-1.1309507020423624,-0.009468071548121983,1
332,2024-09-25 15:17:43.653852160,0,017,0.25955814465650434,0.25737953815742626,10.921028506284298,-2.2015418094230457,1.008109647762457,0.06640737115487974,-1.0116197902214512,-0.05044656933637527,1
333,2024-09-25 15:17:43.706861056,0,017,0.2708738944421369,0.254700799335796,11.018065845389923,-2.2073997112280637,1.055369068932374,0.06462735944617308,-0.8739354966097522,-0.0908528954122197,1
334,2024-09-25 15:17:43.784034048,0,017,0.28109631924019235,0.25291443677533143,11.058223241342002,-2.2042945371355533,1.107151369774246,0.06159317822468369,-0.7232122598080533,-0.12954453023025705,1
335,2024-09-25 15:17:43.857230080,0,017,0.2884895994063205,0.252342672746644,11.036848308393786,-2.192420317379349,1.1616332001380516,0.057377790907201374,-0.566074849889101,-0.1653545798695305,1
336,2024-09-25 15:17:43.924235008,0,017,0.2916838794373859,0.2532076590564683,10.953163092047705,-2.1725001691694406,1.2168104964932427,0.05212538680073687,-0.4100316428377075,-0.1971365814138892,1
337,2024-09-25 15:17:44.839275008,0,017,0.28986143570241374,0.25557760599327184,10.809524483635562,-2.1455490848193297,1.270582826878173,0.046049396774225274,-0.2627876998331981,-0.22384025830733742,1
338,2024-09-25 15:17:44.901761024,0,017,0.2828458136844633,0.2593406994376774,10.610910349222697,-2.1126938803842785,1.3208302900397701,0.03942704862217977,-0.131470122796463,-0.24461776226618853,1
339,2024-09-25 15:17:44.963823872,0,017,0.2710702718099339,0.26421346174746435,10.364799358520944,-2.075096245661459,1.3654929971427328,0.03258294518713485,-0.02199705034928827,-0.2589355646538305,1
340,2024-09-25 15:17:45.040539136,0,017,0.25543010048086756,0.2697798230836989,10.08117814793108,-2.0339376216690783,1.402674803059034,0.025859349828133753,0.06112471177503233,-0.2666266810671388,1
341,2024-09-25 15:17:45.114322944,0,017,0.23707711657608535,0.2755473518753662,9.772292826907885,-1.9903975829779814,1.4307598566010056,0.019585411795506765,0.11455178518710495,-0.267844435139621,1
342,2024-09-25 15:17:45.179724800,0,017,0.21724445401611425,0.281001222485532,9.451921473789714,-1.9455890148059887,1.4485182775311185,0.014058550602473501,0.1358097683210755,-0.2629658406139028,1
343,2024-09-25 15:17:45.249888000,0,017,0.19713341086309139,0.2856458706597338,9.13425615303073,-1.900473787375965,1.4551973609055127,0.00953573333154261,0.1234017819846361,-0.25252516762587396,1
344,2024-09-25 15:17:46.190668288,0,017,0.17782345242419645,0.28904072434094474,8.832793823418438,-1.8558260720153772,1.4506066849458221,0.0062217190759381955,0.07735934704948565,-0.23720642456409002,1
345,2024-09-25 15:17:46.252721920,0,017,0.16017850427184183,0.29083587244636466,8.559672846023277,-1.8122927143335255,1.4351885891158394,0.00424747302629452,-0.0001442867756662465,-0.21786668048926106,1
346,2024-09-25 15:17:46.314727936,0,017,0.14477281120076024,0.29079963853163593,8.325574821783562,-1.7705356264095262,1.410031059868091,0.003647496710779153,-0.1045668246740098,-0.19554680555317927,1
347,2024-09-25 15:17:46.392044032,0,017,0.13186674576335203,0.28882848531408917,8.139956080323163,-1.7313913243273382,1.3767723694841174,0.004353892392636359,-0.22938992036429678,-0.17142974634121208,1
348,2024-09-25 15:17:46.453558016,0,017,0.12144274181534129,0.28494077732276607,8.01126485289257,-1.6959770507942284,1.3374020807926421,0.006215294604263016,-0.3670784042543882,-0.14672422451758646,1
349,2024-09-25 15:17:46.531865088,0,017,0.11328803044577494,0.2792614277646664,7.9468838473763626,-1.6656950109205315,1.294037398384687,0.009028001749479665,-0.5102666363021738,-0.1225014982927541,1
350,2024-09-25 15:17:46.592781056,0,017,0.10708292966218194,0.2720029782346774,7.952655402076033,-1.6421188162170324,1.2487564119722327,0.012559574918961938,-0.6527395128506625,-0.09954919776893267,1
351,2024-09-25 15:17:47.538585088,0,017,0.10246615274238817,0.2634461556832576,8.031965614600473,-1.6267775734626493,1.2035006109262314,0.016559075438309697,-0.7899787842712555,-0.07828949140889446,1
352,2024-09-25 15:17:47.601069824,0,017,0.0991108332102589,0.25391732598400735,8.184557103045785,-1.620877097864785,1.1600216524146003,0.020760331900438248,-0.9192440716440847,-0.05878661133154771,1
353,2024-09-25 15:17:47.677814016,0,017,0.09685778507209448,0.2437561848886821,8.405490588050508,-1.6250236337094475,1.1198687463363377,0.02488164854563218,-1.0392192801646023,-0.040858111530502714,1
354,2024-09-25 15:17:47.746324992,0,017,0.09586897731423898,0.23327543174089777,8.684731420658453,-1.6390302358255038,1.0844090830891755,0.028621712556243243,-1.149392865903325,-0.024262652433946718,1
355,2024-09-25 15:17:47.801907968,0,017,0.09669724686842819,0.2227276206342985,9.007566248826409,-1.6618614510603904,1.0548357834450681,0.03165726867797637,-1.249493861627417,-0.008880994143693562,1
356,2024-09-25 15:17:47.879542016,0,017,0.10021566533149963,0.2122921778115584,9.355732538976167,-1.6917235498964467,1.0321276249276765,0.0336517044722007,-1.339249533091011,0.0051994150271035666,1
357,2024-09-25 15:17:47.941516032,0,017,0.1074397484481908,0.20207882854324588,9.708975876896954,-1.7262655043597583,1.0169817273863997,0.034275282267569325,-1.4185244350308275,0.017725681070554437,1
358,2024-09-25 15:17:48.893040896,0,017,0.11930001435196738,0.19213642048369506,10.046649015324949,-1.7628258282059863,1.0097604396452653,0.033229198648559784,-1.4876892346423758,0.02839858783407002,1
359,2024-09-25 15:17:48.949753856,0,017,0.1364061062194852,0.18246536861022233,10.34901452198502,-1.7986595023231087,1.0104690607060038,0.030268382960390642,-1.5479696191213195,0.036996488717411714,1
360,2024-09-25 15:17:49.026509056,0,017,0.15885882417923408,0.1730365756056576,10.598264316571974,-1.8311262687198917,1.0187766660912518,0.025220000898507535,-1.6016655223231258,0.04347515706487308,1
361,2024-09-25 15:17:49.088579840,0,017,0.18617479383598323,0.16381124950983178,10.779579061909695,-1.8578737093856004,1.0340917405850412,0.0179911644205413,-1.6523208097815931,0.04805791675283966,1
362,2024-09-25 15:17:49.164266240,0,017,0.2173274491598919,0.15475436199053166,10.882356220681663,-1.8770400631927269,1.0556544386493427,0.008567208839189143,-1.7048114372789915,0.05130307225102297,1
363,2024-09-25 15:17:49.232103936,0,017,0.2508474140016044,0.14584472258078376,10.901283605526809,-1.8874483342463553,1.0825716128952694,-0.0029847867863412457,-1.7650420883779736,0.05408079453968612,1
364,2024-09-25 15:17:49.289370112,0,017,0.28494734001938404,0.13708562035734445,10.836805554607684,-1.8887315432073413,1.1137722216385801,-0.01649906047897562,-1.8389971261164553,0.057408470323251935,1
365,2024-09-25 15:17:50.218537216,0,017,0.3176753720517689,0.1285103550708882,10.694789161999962,-1.8813395431791997,1.1479353013930904,-0.0316917083988533,-1.9313760089521679,0.06219638719713613,1
366,2024-09-25 15:17:50.286412032,0,017,0.34708184767734834,0.12017843576195616,10.48553293744038,-1.8664177269721154,1.1834572631797546,-0.04815476426830518,-2.0444499477260885,0.06903914445363162,1
367,2024-09-25 15:17:50.345946112,0,017,0.37135899196280453,0.11216819026911518,10.222435846589406,-1.8455995198969055,1.2184900841507906,-0.06537033524875643,-2.1776060178984484,0.07814187866823287,1
368,2024-09-25 15:17:50.422039040,0,017,0.38893803252695314,0.10457000321448627,9.92061434701482,-1.8207838025569665,1.251040593287489,-0.08274257648719353,-2.3274823056939513,0.08934058322371753,1
369,2024-09-25 15:17:50.485262080,0,017,0.39855654842853944,0.09747822236770386,9.595645612744025,-1.7939562232814463,1.2790980784393988,-0.09964057856562905,-2.488336906621855,0.10212954790327772,1
370,2024-09-25 15:17:50.557630976,0,017,0.3993117222267899,0.09098379298389056,9.262556006296878,-1.7670750264958401,1.3007627369598385,-0.11544169297164648,-2.6525603424951614,0.11568813029510722,1
371,2024-09-25 15:17:50.625452800,0,017,0.3907259829301995,0.08517149804531425,8.93511961621536,-1.7419942622499651,1.3143729346854907,-0.1295678877723701,-2.811455670697129,0.12895758367276802,1
372,2024-09-25 15:17:51.567037184,0,017,0.37284775508695206,0.08011680292771829,8.625408217146767,-1.7203646436644522,1.3186369910794673,-0.14151633942022168,-2.9561602400010085,0.14076754816173498,1
373,2024-09-25 15:17:51.627987968,0,017,0.3463481826164469,0.07587591739087998,8.343468055330039,-1.7034807979660043,1.3127474429675898,-0.150886194093146,-3.0783043054919337,0.14994953353058682,1
374,2024-09-25 15:17:51.702673920,0,017,0.31252437984401354,0.07247465648565665,8.097106179988957,-1.692120910763788,1.2964477156978234,-0.1573976877440357,-3.1701591082698446,0.15538837653046644,1
375,2024-09-25 15:17:51.766281984,0,017,0.27315912728251307,0.06990806226147575,7.891889650842653,-1.686465593162554,1.2700562906047592,-0.16090139594848546,-3.224431310940375,0.1560161693035767,1
376,2024-09-25 15:17:51.830306048,0,017,0.2302643830812328,0.06815566407825147,7.731456089648679,-1.6861512773680882,1.2344665390894292,-0.1613808675077161,-3.234155842947193,0.15080718137984683,1
377,2024-09-25 15:17:51.890721280,0,017,0.18578187721164924,0.06720639897923683,7.618076953438398,-1.6904382567930771,1.1911182493923032,-0.15895062751507782,-3.193079707459151,0.13884438368390065,1
378,2024-09-25 15:17:51.967408896,0,017,0.14132845009340617,0.06708025464101548,7.553111430730329,-1.6983986528408033,1.1419275655583132,-0.15384644755957774,-3.0964800224187665,0.11945847714938794,1
379,2024-09-25 15:17:52.910482944,0,017,0.09805699047242741,0.06783334801807858,7.536899386281525,-1.7090279151325591,1.0891655493197323,-0.1464036963864124,-2.9419842166271692,0.09237015607068716,1
380,2024-09-25 15:17:52.985035008,0,017,0.056651628783903264,0.0695404192920494,7.568066312847576,-1.7212673125318938,1.0352794504764982,-0.13702443675388634,-2.7300502964406244,0.05777867302082591,1
381,2024-09-25 15:17:53.044658944,0,017,0.017417019807431017,0.07226222863093602,7.642728952752256,-1.7339948076578717,0.9826661727187872,-0.12613909737274479,-2.464057460676195,0.016382154101492748,1
382,2024-09-25 15:17:53.120531968,0,017,-0.019601318253866802,0.07601627648033377,7.754163105574626,-1.7460414996312343,0.9334329740206936,-0.11416830795633227,-2.15011752833861,-0.030655688580752665,1
383,2024-09-25 15:17:53.188438016,0,017,-0.05449837539274721,0.08076345578757627,7.893149630296572,-1.7562592045022114,0.8892024622089472,-0.1014899466177794,-1.7967803350462959,-0.08174875203141245,1
384,2024-09-25 15:17:53.243689984,0,017,-0.08738694488518454,0.08640476366748831,8.048788797260864,-1.7636238807434204,0.8510127092330304,-0.08841931595583198,-1.4148161054799173,-0.13490192025067824,1
385,2024-09-25 15:17:53.324077824,0,017,-0.11827385514007405,0.09277680328190716,8.209403974366047,-1.7673237888234334,0.8193189180999342,-0.0752073125381571,-1.017116885732219,-0.18771132549136918,1
386,2024-09-25 15:17:54.262652160,0,017,-0.14696167516718744,0.09964804073224,8.363364934530283,-1.7668004358126788,0.7940703690783569,-0.06205299249452182,-0.6185248270750864,-0.23741471364339142,1
387,2024-09-25 15:17:54.335033856,0,017,-0.1729836529091874,0.10672378955979417,8.499927508351918,-1.761768819869586,0.7748500499311709,-0.04912668471194976,-0.2353491303019172,-0.28103838511102314,1
388,2024-09-25 15:17:54.401803008,0,017,-0.19556484458615467,0.11365984131229533,8.610082856066365,-1.7522473688139892,0.7610623631368829,-0.03660225273389913,0.11543142444129478,-0.3156241021985677,1
389,2024-09-25 15:17:54.470620160,0,017,-0.21364071501021153,0.12008320954711328,8.687099748177596,-1.7385711052005204,0.7521010023111238,-0.024688567618947603,0.4170673674590771,-0.3384660090513933,1
390,2024-09-25 15:17:54.524850176,0,017,-0.22597204585441102,0.1256221155134438,8.726500309668857,-1.7213409808859972,0.747419202944864,-0.013644133728281953,0.6539204938057663,-0.3473039845061921,1
391,2024-09-25 15:17:54.602032896,0,017,-0.2313222878719921,0.12994008287787495,8.725663931933976,-1.7013082640294261,0.7465097504286944,-0.003771217479291642,0.8124765492677972,-0.3404959202636173,1
392,2024-09-25 15:17:54.663610880,0,017,-0.22862226277978173,0.1327621227275647,8.683494103837116,-1.679236502553914,0.7488633480206826,0.004600700532604664,0.8825937740187456,-0.3172092545005941,1
393,2024-09-25 15:17:55.612590080,0,017,-0.21709254515286786,0.13388914552522496,8.60032997628652,-1.6557847457776662,0.753930480769439,0.011136694126551595,0.8586655513260071,-0.2775793916560382,1
394,2024-09-25 15:17:55.674817024,0,017,-0.19632884006654414,0.13320567956469326,8.477967125527101,-1.6314394347090087,0.7610692460150912,0.015523761519265426,0.7402083073187511,-0.22272233389110418,1
395,2024-09-25 15:17:55.753474816,0,017,-0.1663415579159446,0.13068171350649033,8.31962028038971,-1.6065029605423105,0.7694975712959072,0.017496400110057552,0.5317463228560574,-0.15457141934713964,1
396,2024-09-25 15:17:55.814132736,0,017,-0.1275483576052421,0.12636518853765705,8.12974618804194,-1.5811204077115022,0.77829523983695,0.016849209553854265,0.24218566682100873,-0.07562529798702489,1
397,2024-09-25 15:17:55.889091072,0,017,-0.0807542003908472,0.12036987949242267,7.9136940361684776,-1.5553170648452874,0.7864619049467174,0.013436756304888674,-0.11610236918863108,0.011283573968990972,1
398,2024-09-25 15:17:55.956877824,0,017,-0.027151481130665865,0.11286997705880135,7.677240161656354,-1.5290404039962737,0.7930022901157201,0.0071704556096950835,-0.5282507748129871,0.10314405206424875,1
399,2024-09-25 15:17:56.015431936,0,017,0.03166835846173501,0.10410364628845153,7.426131366162782,-1.5022104248803387,0.7970168548665219,-0.001980192962684134,-0.9776700191118312,0.19684225715666903,1
400,2024-09-25 15:17:56.942732288,0,017,0.09372759273555793,0.09437583527934719,7.16571863261263,-1.4747651577545853,0.7977886426028483,-0.013980042034855705,-1.4465078772802709,0.28917834767285605,1
401,2024-09-25 15:17:57.004844032,0,017,0.15673072222121215,0.08405069480469579,6.900744204949852,-1.4466888422848287,0.7948697360889173,-0.02871737180109803,-1.915881749252235,0.3768558621877732,1
402,2024-09-25 15:17:57.067362048,0,017,0.2182027855672851,0.07352944447040584,6.635344937638795,-1.418035008346438,0.788175232264775,-0.04599712566159426,-2.3661542566219715,0.4564937196405995,1
403,2024-09-25 15:17:57.146522880,0,017,0.27569215107982775,0.06321298242953928,6.3731776721334725,-1.3889509744540682,0.7780479681666778,-0.06554022326528344,-2.777548666424483,0.5247096616513158,1
404,2024-09-25 15:17:57.206057216,0,017,0.3270088761915911,0.053456101139713275,6.117454131924897,-1.3596822376885922,0.765220569640688,-0.08697891869077633,-3.1311413015471525,0.5782864746975691,1
405,2024-09-25 15:17:57.282162176,0,017,0.3704566901306944,0.04452762030122641,5.870893704806069,-1.3305538791725378,0.7506678404161379,-0.10984127210001011,-3.4099775580067866,0.6143972514864664,1
406,2024-09-25 15:17:57.350030080,0,017,0.40501800589723946,0.03658619728730928,5.6358731654468865,-1.3019710870352108,0.7354382020779403,-0.13353474263171058,-3.6000586395241916,0.6308554526109971,1
407,2024-09-25 15:17:58.282799104,0,017,0.43044449853085387,0.029673150963524877,5.414905477450062,-1.2744642259877281,0.7205484229679708,-0.1573469985865755,-3.691138688905247,0.6263453488116404,1
408,2024-09-25 15:17:58.361157888,0,017,0.4472126681889878,0.023722755296619904,5.211190564469986,-1.2487430226618192,0.7069565608029803,-0.18047579785749085,-3.677394681992425,0.6005764803881202,1
409,2024-09-25 15:17:58.421719040,0,017,0.45635910415939435,0.01858921823531653,5.0288901485499915,-1.2257149522060118,0.6955924728925794,-0.20208904305439,-3.5579872667849632,0.5543178294915104,1
410,2024-09-25 15:17:58.485714176,0,017,0.45926589055889705,0.014081427359718353,4.873001466369987,-1.2064578765775789,0.6874171280928559,-0.22140497924439353,-3.3373977759454636,0.48930880049248293,1
411,2024-09-25 15:17:58.560314880,0,017,0.45746263237959317,0.009992475082269352,4.748834008712186,-1.1921389381751721,0.6834613298497249,-0.23777264825910654,-3.025364583527425,0.4080921882056321,1
412,2024-09-25 15:17:58.632434944,0,017,0.45246936189498105,0.006120872041015242,4.661124773133515,-1.1838628473901465,0.684797120042797,-0.2507313636199741,-2.636310094740213,0.31383457662902997,1
413,2024-09-25 15:17:58.698674688,0,017,0.4456716625306162,0.00229152435729461,4.613022398445638,-1.1824774493953345,0.6924544887717414,-0.2600407245820574,-2.188284703131508,0.21017392677365804,1
414,2024-09-25 15:17:59.643086848,0,017,0.43821234655890545,-0.001620982107070487,4.605353204838378,-1.1884127499262396,0.7073354063008725,-0.26568776179391457,-1.7015917739028215,0.10108178077535487,1
415,2024-09-25 15:17:59.707748096,0,017,0.4309064834766688,-0.005676849204143543,4.636396118528916,-1.2016013391136873,0.7301332744519404,-0.267876867633274,-1.1973582507553395,-0.009300454266311304,1
416,2024-09-25 15:17:59.768837888,0,017,0.42421691355623875,-0.009872732457885593,4.702051317576219,-1.2214694224660714,0.7612305643615364,-0.2669998030594901,-0.6963000015619101,-0.11686453775087545,1
417,2024-09-25 15:17:59.846522880,0,017,0.41831511639511276,-0.014160311473577377,4.796278091306195,-1.246984994690692,0.8005958488458755,-0.26358888060002306,-0.21772380697522542,-0.21775749515791387,1
418,2024-09-25 15:17:59.908386048,0,017,0.41319604870805915,-0.0184761476145359,4.911855393753154,-1.27677337200193,0.8477437972214735,-0.2582685766966599,0.22141507783721928,-0.30861132488373094,1
419,2024-09-25 15:17:59.970988032,0,017,0.40878181460223295,-0.0227733979928812,5.041428162606365,-1.3092933696039248,0.9017799778664074,-0.2517159330631169,0.6075027888313689,-0.3867766499664422,1
420,2024-09-25 15:18:00.049594112,0,017,0.4049771324500672,-0.02704040685675282,5.1785589387325714,-1.343034276691535,0.9614912702940207,-0.2446232068661881,0.9311091110982814,-0.4505270096999394,1
421,2024-09-25 15:18:00.963483136,0,017,0.40169097862651915,-0.03129595030676345,5.318437301407142,-1.3766808833862676,1.0254451982661064,-0.23765455855092552,1.1873375600056855,-0.49916988213359254,1
422,2024-09-25 15:18:01.027118848,0,017,0.3988504635638028,-0.035567846858293166,5.458027056030583,-1.4091969071728216,1.0920942678520207,-0.2314027608968457,1.3754417193013442,-0.5330001528591113,1
423,2024-09-25 15:18:01.103822080,0,017,0.39640532082650726,-0.039870796603905176,5.595687291032107,-1.4398106625183638,1.1598695793829858,-0.2263541982505068,1.4977617727837729,-0.5530777543180521,1
424,2024-09-25 15:18:01.171611136,0,017,0.39431859463427116,-0.04419343357326049,5.730553521603084,-1.4679402071363021,1.227228400527539,-0.2228604359381431,1.5584169865297122,-0.5609003311498973,1
425,2024-09-25 15:18:01.226331904,0,017,0.3925686316732573,-0.04849897056079527,5.8619768078605885,-1.4931152072273572,1.2926583223415973,-0.22111700106561027,1.5623243315480753,-0.5581009358484686,1
426,2024-09-25 15:18:01.303517952,0,017,0.3911833674976731,-0.05274208995794503,5.989146021065718,-1.514936108133663,1.3546779446586994,-0.22115831402972008,1.5148386909485834,-0.5462734705251587,1
427,2024-09-25 15:18:01.365125888,0,017,0.39028443560439924,-0.056895506215856505,6.110952530038465,-1.5330923917104915,1.4118498695181083,-0.22287102368283615,1.4219228949558347,-0.5269563385374744,1
428,2024-09-25 15:18:02.312164096,0,017,0.39010159803348193,-0.06096848653527179,6.226165945241889,-1.547435329348597,1.4627955988182957,-0.22601736316606533,1.2905568586571643,-0.5017394754462832,1
429,2024-09-25 15:18:02.372087040,0,017,0.39094616073616906,-0.06500539847279313,6.333842765367335,-1.5580595426746366,1.5062165767763733,-0.2302630312871374,1.1291253493013642,-0.4724151315071155,1
430,2024-09-25 15:18:02.449486080,0,017,0.393152131177844,-0.0690701557604884,6.433737322335053,-1.5653388863696698,1.5409278577711452,-0.23521068290986738,0.9476302183072363,-0.4410817958659717,1
431,2024-09-25 15:18:02.522274816,0,017,0.39698002114995146,-0.07322751866903313,6.5265534944377785,-1.5699074231636945,1.5658906418805072,-0.24043776376294582,0.7575807347182391,-0.4101398932484979,1
432,2024-09-25 15:18:02.588236032,0,017,0.4024827149467704,-0.07752237477119733,6.6139868716235455,-1.5726125976272902,1.5802464886505851,-0.2455338496587396,0.5713931578950133,-0.38216070007093605,1
433,2024-09-25 15:18:02.657893888,0,017,0.40938059229752904,-0.08195582818951798,6.6985281581132785,-1.5744558461993892,1.5833916004111455,-0.25013540452741956,0.40124822996055093,-0.3596358194423279,1
434,2024-09-25 15:18:02.725704960,0,017,0.41700984119240797,-0.08646673048288808,6.783065458980226,-1.5765148235402395,1.5751048450444505,-0.25395777226919514,0.25758979335121135,-0.34464123920267464,1
435,2024-09-25 15:18:03.662454016,0,017,0.4243497848407032,-0.09092735784933527,6.870402811537294,-1.5798375167547984,1.5556705534116204,-0.256819886570773,0.1476671895715555,-0.33850038222670736,1
436,2024-09-25 15:18:03.724667904,0,017,0.43008610500445543,-0.09514868925778501,6.962820846967577,-1.5853116589279026,1.5259200337606718,-0.25865434298491735,0.07460974254578329,-0.3415596049149292,1
437,2024-09-25 15:18:03.803334912,0,017,0.4326968760013163,-0.09888934530383234,7.061801257472885,-1.593542046090925,1.487187024526571,-0.25950204304469326,0.03736844223499916,-0.3531514417102062,1
438,2024-09-25 15:18:03.864666112,0,017,0.43059030672277643,-0.10187561545769008,7.167932786786149,-1.6047747336256186,1.4412258250823342,-0.2594990570650958,0.03150301688055055,-0.3717464099453365,1
439,2024-09-25 15:18:03.927150848,0,017,0.42230189849718175,-0.10384024576024961,7.28082453815643,-1.6188703696853386,1.3901098313151485,-0.25886124457185583,0.050434668588910395,-0.395226559146081,1
440,2024-09-25 15:18:04.005259008,0,017,0.40671626291731955,-0.10456965930407618,7.3988786537522016,-1.6353053446751533,1.336105820476882,-0.257865092054671,0.08663786366135276,-0.421178002226221,1
441,2024-09-25 15:18:04.074528000,0,017,0.3832754249255798,-0.10394043201130743,7.519006282225479,-1.6531959927933615,1.2815644901060141,-0.25682606265653024,0.13246715836507814,-0.4471395957056643,1
442,2024-09-25 15:18:05.017792000,0,017,0.35214395769932216,-0.10193732005491804,7.636464920865582,-1.6713523559172034,1.2288805568793963,-0.25608343104568215,0.1807863507255519,-0.4708364808159122,1
443,2024-09-25 15:18:05.085640960,0,017,0.31428360197419597,-0.09865489573819333,7.744929171787344,-1.6883582697767168,1.180497510160105,-0.255994826928674,0.22573452667661859,-0.49043987448791865,1
444,2024-09-25 15:18:05.142705152,0,017,0.27138962890482304,-0.0942799356716581,7.836870394562386,-1.7026720486284985,1.1388685173233177,-0.25692806413761216,0.26353094170342906,-0.5047963590374994,1
445,2024-09-25 15:18:05.220018944,0,017,0.22570090201055185,-0.08905041965029627,7.904283369389703,-1.7127486633343698,1.1063288588092934,-0.2592358284953948,0.2927919101856815,-0.5135115637214019,1
446,2024-09-25 15:18:05.281642752,0,017,0.17975182229761183,-0.08320019539843128,7.939667134239333,-1.7171806439499566,1.0849238696829822,-0.26321623586654536,0.31409791813161786,-0.516850216214724,1
447,2024-09-25 15:18:05.344158976,0,017,0.1361171380142308,-0.07690773663739466,7.937010946998106,-1.7148404509429565,1.076256403453272,-0.26907643442570184,0.32917797228661994,-0.5155333941674377,1
448,2024-09-25 15:18:05.422379776,0,017,0.09716171879815995,-0.0702612137111234,7.892489962246479,-1.7049964643643405,1.0813706451373406,-0.27691100444596717,0.3402724081877655,-0.510554565161478,1
449,2024-09-25 15:18:06.368513280,0,017,0.06482220929165791,-0.06324518047626548,7.804726850645878,-1.6873837906940485,1.1006660832559172,-0.28669514693711495,0.34988343094136143,-0.5030781989236923,1
450,2024-09-25 15:18:06.423879936,0,017,0.04047285082956999,-0.055754584786304004,7.674732095140316,-1.6622364344604132,1.1338513362855598,-0.29828878379096246,0.3607478527180044,-0.4943950244903097,1
451,2024-09-25 15:18:06.504206848,0,017,0.024892167142733717,-0.04763532433563202,7.505716185597042,-1.6302912729966108,1.1799414894857319,-0.31144537719924825,0.37583047121418045,-0.48587821243122115,1
452,2024-09-25 15:18:06.563133952,0,017,0.018298909724101337,-0.0387362777933453,7.302814349320523,-1.5927463489096292,1.237281034251773,-0.32581596721417366,0.3982562115327894,-0.47891868245258595,1
453,2024-09-25 15:18:06.625618944,0,017,0.02042822477306293,-0.02895372087950355,7.072675577589487,-1.5511495766454382,1.3035843387807315,-0.3409452263336968,0.43112354604176784,-0.47484729948777576,1
454,2024-09-25 15:18:06.702394112,0,017,0.0306302961833118,-0.018257758236451493,6.822929580959466,-1.50722412329725,1.3760074842420296,-0.35626979662948466,0.4771995530853509,-0.4748563242022721,1
455,2024-09-25 15:18:06.774542848,0,017,0.04796801661835044,-0.006700156520631749,6.561560213921105,-1.4626591172103374,1.4512628579755678,-0.37113239864202974,0.5386408159970499,-0.4799226187513429,1
456,2024-09-25 15:18:07.687825920,0,017,0.07130463152905057,0.005590492090718779,6.2962286880158205,-1.418907489951319,1.525783170115862,-0.3848160494481597,0.6168472909226792,-0.4907177670219907,1
457,2024-09-25 15:18:07.750735104,0,017,0.09939470344551322,0.01841743864090825,6.033717192796262,-1.3770494499871921,1.595951202660251,-0.39659631234735904,0.7123188365415749,-0.5074944826083574,1
458,2024-09-25 15:18:07.827418880,0,017,0.13098138399922593,0.031523118560449044,5.779712473734134,-1.3377682090597744,1.658389455870517,-0.40580705884378465,0.8242959125885216,-0.5299685461347877,1
459,2024-09-25 15:18:07.889905920,0,017,0.16488020044722745,0.0445981999240396,5.538962485496657,-1.301433252812071,1.710247685602502,-0.41190730382883567,0.9501598807278514,-0.5572289292585305,1
460,2024-09-25 15:18:07.952390912,0,017,0.20003186679897125,0.05729922412723449,5.315571897356009,-1.2682313028722407,1.7494266814593429,-0.41453353991849173,1.0848186737467502,-0.5877003847577962,1
461,2024-09-25 15:18:08.032652032,0,017,0.23551086809944843,0.06927759154852842,5.113123786403404,-1.2382628835481477,1.7747351091314045,-0.4135336115713103,1.2204632456009576,-0.619193009694341,1
462,2024-09-25 15:18:08.100455936,0,017,0.2704693437837964,0.08021530488882729,4.934472677276039,-1.2115493617077242,1.785976879096576,-0.40898439284013366,1.3470870441965492,-0.6490859772375945,1
463,2024-09-25 15:18:09.036165888,0,017,0.30403233741726915,0.08985676228609832,4.7812808720896,-1.18795858851767,1.7839144467939365,-0.4011844241356377,1.4538291233157834,-0.6746445050990061,1
464,2024-09-25 15:18:09.097697024,0,017,0.3352289094728123,0.09802448091220307,4.653579125007633,-1.1671178297278002,1.7700683129160308,-0.3906078970982828,1.5306883818597972,-0.693391504828092,1
465,2024-09-25 15:18:09.178263808,0,017,0.36303379506752054,0.10461292273730834,4.5497028284538255,-1.1483946333039738,1.746398175108815,-0.3778232000198599,1.5700325110730704,-0.7034404846636039,1
466,2024-09-25 15:18:09.235542016,0,017,0.3864961376715159,0.1095662400154525,4.46673872936039,-1.130976716176474,1.7149630661132078,-0.36339891579321393,1.5676258839596937,-0.7037286955762434,1
467,2024-09-25 15:18:09.312329216,0,017,0.4048678605218372,0.11285479717397023,4.401325804126313,-1.114021159428976,1.677633674594271,-0.3478228361782855,1.5230988562198005,-0.6941086946848337,1
468,2024-09-25 15:18:09.381609984,0,017,0.4176751822486439,0.11446305699191979,4.350553000563247,-1.0968268974678212,1.6358858486043082,-0.33144963565603175,1.4397862836892135,-0.6752844487723008,1
469,2024-09-25 15:18:09.435947008,0,017,0.4247369784751451,0.11438909085760982,4.3126685336574,-1.0789943804800266,1.5906895068312,-0.3144834925692941,1.3239626977474501,-0.6486258369735589,1
470,2024-09-25 15:18:10.388566784,0,017,0.42615544476602457,0.1126482279212136,4.287287367120186,-1.0605294204569822,1.5424986291225113,-0.2969940892540272,1.1836552194295094,-0.6159106532938136,1
471,2024-09-25 15:18:10.460616192,0,017,0.42229565679545916,0.109278172204719,4.275006188192901,-1.0418552010521498,1.491335357396476,-0.2789560397137472,1.0272362713850827,-0.5790259450060017,1
472,2024-09-25 15:18:10.528076032,0,017,0.41376422751076525,0.10434708270024966,4.2767666937252695,-1.0237485010450236,1.4369659725288164,-0.2602992162795863,0.8619968909473882,-0.5396728915918562,1
473,2024-09-25 15:18:10.589618944,0,017,0.401396096114276,0.0979590050791001,4.293424805366801,-1.0072461271977622,1.3791510809237166,-0.2409606815842988,0.6930160154859526,-0.499158168158415,1
474,2024-09-25 15:18:10.664012032,0,017,0.38624464449505547,0.09024715124556956,4.325635120703384,-0.9935360457829288,1.3178898102304943,-0.22092885820835603,0.5226774707346731,-0.45833852096716565,1
475,2024-09-25 15:18:10.731798016,0,017,0.36954469078474184,0.08135791992167432,4.373794608883324,-0.9838204937149521,1.2535439627263645,-0.20026777227679518,0.3509289152148163,-0.4176924968238315,1
476,2024-09-25 15:18:10.799614976,0,017,0.35261575358928277,0.07144112763239534,4.437739931593952,-0.9791516069127041,1.1867920250733441,-0.17911411358100976,0.1760147698263911,-0.3774205162731138,1
477,2024-09-25 15:18:11.743422208,0,017,0.33671236162911716,0.060655287661954646,4.516163457967033,-0.9802627688561562,1.1184741445462159,-0.15765382450714793,-0.004701590888139776,-0.33750012408174296,1
478,2024-09-25 15:18:11.804219904,0,017,0.32286471871032396,0.049181046108212674,4.6060951640023164,-0.9874323926187075,1.0494344209177926,-0.13609490692699708,-0.1940712949868786,-0.29769305301483673,1
479,2024-09-25 15:18:11.878447104,0,017,0.31174422856471296,0.0372336164425857,4.702901560829382,-1.0004229036248362,0.9804234515865873,-0.11464961150780226,-0.39474174113527327,-0.25753441659723375,1
480,2024-09-25 15:18:11.943405056,0,017,0.3035636657575659,0.025074386018490793,4.800957990789458,-1.0185297717384052,0.9120743974110294,-0.09352912197810666,-0.6089779092066866,-0.21633715362908146,1
481,2024-09-25 15:18:12.009087232,0,017,0.29802520078141054,0.013022599253324968,4.894780995273487,-1.040737253666983,0.8449429446568058,-0.07294713798838462,-0.8385682185239984,-0.1732494796095919,1
482,2024-09-25 15:18:12.082508032,0,017,0.29433940346290927,0.0014594986444664301,4.980181294168279,-1.0659147496846963,0.7795751861561547,-0.05312487813947766,-1.084590331707517,-0.12739790337291837,1
483,2024-09-25 15:18:12.150300160,0,017,0.29131797979900714,-0.009182563891559251,5.054945879094134,-1.0929592840304103,0.7165544075446141,-0.034286976387286124,-1.3470246936908499,-0.07809957561140236,1
484,2024-09-25 15:18:13.067905024,0,017,0.2875212949192725,-0.018444321096046094,5.11879096155129,-1.1208371987645755,0.6565134843130831,-0.016642424718992407,-1.624443392600875,-0.02506549843508527,1
485,2024-09-25 15:18:13.135687936,0,017,0.2814477330023812,-0.02587308277679927,5.17271029838209,-1.1485436966013385,0.6001482496578507,-0.0003594753376920467,-1.913838895225891,0.031472787339559695,1
486,2024-09-25 15:18:13.203567104,0,017,0.27174548348355654,-0.031065302488616862,5.218012705225777,-1.175015180774544,0.5482570066662311,0.014449145281973415,-2.210380860718491,0.09070686400034794,1
487,2024-09-25 15:18:13.271213056,0,017,0.257396605945353,-0.033713314105261134,5.255325142711094,-1.1990234569884741,0.5017770621242937,0.027726142072079053,-2.507124178636301,0.15124356417130996,1
488,2024-09-25 15:18:13.339134976,0,017,0.23783091639916792,-0.03364261858451138,5.283884253586857,-1.2191009885548714,0.46177436817754425,0.039463774087919214,-2.79513488909782,0.21118163240819657,1
489,2024-09-25 15:18:13.406927104,0,017,0.21298498084035422,-0.030831131002600494,5.301422596791884,-1.2335665712640493,0.4293698009284732,0.04970034087079822,-3.0643523940567405,0.2683133594067569,1
490,2024-09-25 15:18:13.471812864,0,017,0.18334332898104852,-0.025414821955116778,5.304688163426521,-1.2406896655360458,0.4056027761049335,0.05851952516578394,-3.3049401954663464,0.32041708981063155,1
491,2024-09-25 15:18:14.413587200,0,017,0.14994294189371254,-0.017683707410836625,5.290348638036954,-1.2389626994394702,0.3912512041673498,0.0660491701178649,-3.5086344331024972,0.36556781622249884,1
492,2024-09-25 15:18:14.474960128,0,017,0.11428686006002794,-0.008064736847071806,5.255947572389982,-1.2273937992977175,0.3866645011973727,0.07245409895428388,-3.669696681807676,0.40240627888301445,1
493,2024-09-25 15:18:14.552007168,0,017,0.07817934177864598,0.0029046123174296746,5.200628379312686,-1.2057144565444096,0.39167954427828133,0.07791548639483833,-3.785191612868494,0.43030051170892536,1
494,2024-09-25 15:18:14.620784896,0,017,0.04356284400143044,0.014597751898093723,5.125447570585009,-1.1744268469372754,0.40564302829763815,0.08259419929415944,-3.8545440507555777,0.4493433064932961,1
495,2024-09-25 15:18:14.673630976,0,017,0.012394562272164967,0.026312179974200173,5.033237344761281,-1.1346865861265307,0.4274971628897606,0.08659124425053166,-3.8787389590870016,0.4602124443644212,1
496,2024-09-25 15:18:14.756419840,0,017,-0.013476169133222086,0.037291864604731814,4.928168891498956,-1.088100812042021,0.45587355584824557,0.08992750003065149,-3.859729123114995,0.46399796028487517,1
497,2024-09-25 15:18:14.824196096,0,017,-0.03245951404461832,0.04677439881296649,4.815326238418199,-1.0365589018867334,0.48919313540445164,0.09254869193969474,-3.8003413809183506,0.4620740356624799,1
498,2024-09-25 15:18:15.759943936,0,017,-0.043377994480635215,0.054055016733664536,4.7004603925897115,-0.9821465817323136,0.5258056296282695,0.09433833645448096,-3.704515863122768,0.45600232894737824,1
499,2024-09-25 15:18:15.822073088,0,017,-0.045582469984570724,0.05854626103668334,4.589757056174383,-0.9270875113205288,0.5641618933566492,0.09512394881799602,-3.5775222999282703,0.44740689734067046,1
500,2024-09-25 15:18:15.899969024,0,017,-0.03901249774978333,0.05981946493950694,4.489373863030578,-0.8736380224434712,0.6029574847231653,0.09468273863060163,-3.425899363571146,0.43779317225170006,1
501,2024-09-25 15:18:15.963208960,0,017,-0.024179841543990672,0.057623588216363604,4.404750923830203,-0.8239280037307938,0.6411965479802818,0.09275897674919857,-3.2570153265435375,0.428337337750926,1
502,2024-09-25 15:18:16.038757120,0,017,-0.0020685072458692185,0.051882729931516235,4.339962687442144,-0.7797996506848079,0.6781779193652558,0.08909318114916266,-3.0782914294362853,0.41969461233011635,1
503,2024-09-25 15:18:16.101869056,0,017,0.02600973136998589,0.042682533274403606,4.297432966034121,-0.7427044444634053,0.7134351446103108,0.08345589012934215,-2.8962955299900903,0.4118779713580515,1
504,2024-09-25 15:18:16.174372864,0,017,0.05855897104538652,0.03025810741869981,4.2781323095753585,-0.7136873688002131,0.7466621882012506,0.0756796514466626,-2.716021548265584,0.40425803773422975,1
505,2024-09-25 15:18:17.118129920,0,017,0.09402888249386747,0.014985192390717252,4.282062172367853,-0.693442069631663,0.7776451455711437,0.0656820458873217,-2.540625763450902,0.3957088958951803,1
506,2024-09-25 15:18:17.174408960,0,017,0.1309147575563827,-0.002630685442479331,4.3086489483602195,-0.6823858872299359,0.8061918876656118,0.05347726423079267,-2.3716494626290485,0.3848710851538231,1
507,2024-09-25 15:18:17.252945920,0,017,0.16779549996227047,-0.02196655842757334,4.356764787822027,-0.6806917981178968,0.8320351109724646,0.03918594150488689,-2.2094715907440476,0.37045412387128,1
508,2024-09-25 15:18:17.314003968,0,017,0.20331272401486072,-0.04229379814048765,4.424422337081552,-0.6882428327590996,0.8547361305289524,0.023049165814031845,-2.0537137799291543,0.35149466365797954,1
509,2024-09-25 15:18:17.386126080,0,017,0.23613658367483148,-0.0627955325125054,4.508506354700391,-0.7045431258312336,0.8736819585727691,0.005431752641888519,-1.9034903783111012,0.3275210123970072,1
510,2024-09-25 15:18:17.454159872,0,017,0.26494953114235,-0.08259666250126553,4.60489418499589,-0.7286720242097321,0.8882182707115848,-0.013200860274803964,-1.7574854684092098,0.2986039757453774,1
511,2024-09-25 15:18:17.516221952,0,017,0.2884572068879809,-0.10080406753906407,4.709000531371575,-0.7593449120214322,0.897840186585542,-0.032323352552567096,-1.6139601044918452,0.26529973452971595,1
512,2024-09-25 15:18:18.433378816,0,017,0.3054511673169782,-0.11655315934613433,4.816458659715598,-0.7950605478666817,0.90234546587021,-0.05139246705783786,-1.4709274618236556,0.22853312698477626,1
513,2024-09-25 15:18:18.511001856,0,017,0.3149393891588937,-0.12906312728884756,4.923533754243364,-0.8342489168076394,0.9019274358913183,-0.0698889516764295,-1.3265610549229778,0.18947737894526567,1
514,2024-09-25 15:18:18.578906112,0,017,0.3162998141949613,-0.1376979947706573,5.027059510319457,-0.8753550352879381,0.8971985222657026,-0.08735843389800683,-1.1796369829040703,0.14944692490418596,1
515,2024-09-25 15:18:18.635127808,0,017,0.3093917095696101,-0.14201856296655968,5.124049530628587,-0.9168675343118643,0.8891070792346307,-0.10343540708357438,-1.0298934026544089,0.10979895848187132,1
516,2024-09-25 15:18:18.714498048,0,017,0.29461205998398704,-0.14181365699643064,5.2112863854448115,-0.9573273450967503,0.8787474259143478,-0.11783942241978075,-0.8783999213126579,0.07184747975665462,1
517,2024-09-25 15:18:18.782309120,0,017,0.2729095991020744,-0.13711375073714765,5.2851013888760185,-0.9953284725146324,0.8671309364541409,-0.13035428717880831,-0.7279610854701479,0.036797977240518094,1
518,2024-09-25 15:18:18.849307136,0,017,0.24573209513929914,-0.12819236939185488,5.341489911655966,-1.0295180456446145,0.8549970446013114,-0.14080824879689255,-0.5833345757373828,0.005705866298819362,1
519,2024-09-25 15:18:19.792751104,0,017,0.2148721181643876,-0.11555000662072827,5.376638733167709,-1.0586142639165383,0.8427113003155097,-0.14906182110953511,-0.4510021487924182,-0.020544167136792905,1
520,2024-09-25 15:18:19.860601856,0,017,0.18223507310016046,-0.09987476403890336,5.387735138113235,-1.081457451167707,0.8302727030288677,-0.15500211590956914,-0.33846068457606754,-0.04124397193802425,1
521,2024-09-25 15:18:19.928142080,0,017,0.14960732285004485,-0.08198831881845857,5.373735218057137,-1.0971028686594737,0.8174284325006758,-0.1585459856523172,-0.2531779718426736,-0.0558677948151483,1
522,2024-09-25 15:18:19.996017920,0,017,0.11847971314928024,-0.06279111034640637,5.335753574941008,-1.1049425306596068,0.8038499577064572,-0.15965258294330234,-0.20139093542436812,-0.06409812192332845,1
523,2024-09-25 15:18:20.064064000,0,017,0.08992233165714852,-0.043207644979809334,5.2768627397511265,-1.104798660695561,0.7892911884128819,-0.15833382141543065,-0.18703624328121704,-0.0658693791080931,1
524,2024-09-25 15:18:20.131897088,0,017,0.06449747387585272,-0.024125499307338375,5.201327637094811,-1.0969304764162928,0.7736709132852292,-0.15464976228027577,-0.21116883161168898,-0.06140231929569492,1
525,2024-09-25 15:18:20.199693824,0,017,0.04222975118620801,-0.00633319461082435,5.113560426746991,-1.0819617361091316,0.7570725840889765,-0.1486917253614085,-0.27199451662101654,-0.05120736001056415,1
526,2024-09-25 15:18:21.142608896,0,017,0.022650861388647695,0.009528306085379174,5.017193668909251,-1.0607860878682112,0.7396863243689944,-0.14056617016810669,-0.3653511339758619,-0.03605071232465267,1
527,2024-09-25 15:18:21.210657024,0,017,0.004910152355797345,0.02299284187400446,4.914604284763496,-1.0344942436032032,0.7217382242483898,-0.13038747100271159,-0.48541934953161353,-0.016876770820770763,1
528,2024-09-25 15:18:21.278497024,0,017,-0.012059804158696676,0.033776386813949205,4.80703328288615,-1.0043320437699783,0.7034609831933589,-0.11828148991833115,-0.6255460264656574,0.0053154782019830425,1
529,2024-09-25 15:18:21.341825024,0,017,-0.02934043619395299,0.04176731797680992,4.695138492580583,-0.9716694880988423,0.6851209604699351,-0.10439976916533183,-0.7791471658270691,0.029612973642916617,1
530,2024-09-25 15:18:21.414128896,0,017,-0.04783590802768086,0.04700469577255418,4.579549985514869,-0.9379363154956855,0.6670618506415463,-0.0889411487319533,-0.9406442762335705,0.055290694689495185,1
531,2024-09-25 15:18:21.481307136,0,017,-0.06813459518969112,0.04965091956312412,4.461082395992263,-0.90449410978403,0.6497396765066673,-0.0721759267112499,-1.1062213610423,0.08183377021586008,1
532,2024-09-25 15:18:21.549767168,0,017,-0.09042386164768164,0.049961171828290386,4.340602085722118,-0.8724757444043104,0.6337736109839307,-0.05446857589456182,-1.274036798371786,0.10887248050148726,1
533,2024-09-25 15:18:22.493040128,0,017,-0.11445973394131531,0.048251429083953024,4.218741270164449,-0.8426545179750504,0.6200132446621056,-0.036291854653206876,-1.4437120338735925,0.13605285013777924,1
534,2024-09-25 15:18:22.560803840,0,017,-0.13961102126981312,0.0448699835862677,4.0956458163286085,-0.8153791565234896,0.6095620644512891,-0.01822067806856465,-1.6153604421022707,0.16289200394285022,1
535,2024-09-25 15:18:22.628644096,0,017,-0.16497233554907065,0.040175783386894266,3.970888993006443,-0.7905820039127589,0.6037152540019023,-0.0009003884720687181,-1.7886547407321332,0.18869185797703125,1
536,2024-09-25 15:18:22.693393152,0,017,-0.18950914993352783,0.03452194371176064,3.8435811657170817,-0.7678556496713712,0.6038335823891751,0.015002291065162635,-1.962267294593114,0.21257514093275032,1
537,2024-09-25 15:18:22.755024896,0,017,-0.21219915331270678,0.02824065824404521,3.7126438051266493,-0.7465833974788497,0.6111827349399539,0.028853716672548987,-2.1336557305771606,0.2336250908988143,1
538,2024-09-25 15:18:22.818999040,0,017,-0.23214610837784333,0.021629113715844205,3.5772667873995245,-0.7261064566344524,0.6267518521410933,0.04010791785405455,-2.298972053577582,0.2510247445555508,1
539,2024-09-25 15:18:22.894809088,0,017,-0.24865444527991795,0.01494073880306142,3.4375077609381,-0.7059030395240564,0.651093193490122,0.04835572734318567,-2.453017195034995,0.26412223770823534,1
540,2024-09-25 15:18:23.813299712,0,017,-0.261270746848383,0.008383522014434416,3.2947566686004968,-0.6857237995763734,0.684238819274026,0.05335612355689148,-2.589346740098719,0.2724463099464987,1
541,2024-09-25 15:18:23.875929088,0,017,-0.2698133237288455,0.002122030403543122,3.1517664821687683,-0.6656224350580625,0.7256984639281192,0.05504163187613559,-2.7006296926354154,0.2757285469622325,1
542,2024-09-25 15:18:23.954152960,0,017,-0.2744022877432073,-0.003718407892417539,3.012270085282185,-0.6458812288207084,0.7745039955107764,0.05350291823509373,-2.7793698865461676,0.2739535189910512,1
543,2024-09-25 15:18:24.021995008,0,017,-0.27546756994652705,-0.009046578726942754,2.8804083452874685,-0.6268902110105056,0.8292888096569995,0.04896234672811112,-2.819130906630469,0.26743032941366157,1
544,2024-09-25 15:18:24.089746176,0,017,-0.2736983881589134,-0.013806030968335931,2.76009184751879,-0.6090310765051611,0.8884008808772512,0.04174186501819011,-2.8161082657051653,0.25686601326678354,1
545,2024-09-25 15:18:24.157576192,0,017,-0.26993504254139594,-0.017985596702953986,2.654361041099786,-0.5925882634203413,0.95001824091797,0.032229802504576695,-2.77032147434422,0.24338097806463108,1
546,2024-09-25 15:18:24.225376000,0,017,-0.2650383930178635,-0.021633551484546754,2.56489885943887,-0.577700828846825,1.0122364614956136,0.020852872134410314,-2.6856474230581755,0.22838954872741285,1
547,2024-09-25 15:18:25.154676992,0,017,-0.259763673956168,-0.02486778773658096,2.491803891873933,-0.5643532340398287,1.0731388833433428,0.008055156500155751,-2.5687574285717782,0.21335530019005589,1
548,2024-09-25 15:18:25.232186112,0,017,-0.2546575529372189,-0.0278802163765572,2.4335654281537753,-0.5523812857954089,1.1308758663038345,-0.005721247427348478,-2.4277505070887195,0.19952025974923046,1
549,2024-09-25 15:18:25.303718144,0,017,-0.2500079257514182,-0.030932986283589457,2.3871778249212516,-0.5414789597608011,1.183756988473976,-0.020058361533562143,-2.2710023319167854,0.1876730658994961,1
550,2024-09-25 15:18:25.371532032,0,017,-0.24586169413752176,-0.034339789127969325,2.3484904705753897,-0.5312250314066378,1.2303422308676395,-0.03458343875766709,-2.1061521638451293,0.17796291313390106,1
551,2024-09-25 15:18:25.433014016,0,017,-0.242090763302292,-0.03843016852376755,2.3129155953724942,-0.521154831799249,1.2695154023299826,-0.048982125154568505,-1.9391466331764875,0.16979267424772476,1
552,2024-09-25 15:18:25.494120192,0,017,-0.2384782861934222,-0.043507285747230166,2.2763647731540706,-0.5108624758986082,1.3005148146631538,-0.06300168431725925,-1.7735830648791657,0.1618542532087726,1
553,2024-09-25 15:18:25.574992896,0,017,-0.23481072702001715,-0.049813767392258096,2.2360611654334104,-0.500085903996557,1.3228919671029173,-0.07644401661635766,-1.6106301840536013,0.15233117934371418,1
554,2024-09-25 15:18:26.511864064,0,017,-0.23095645794560804,-0.05751019468703453,2.1909839553754313,-0.4887525123486267,1.3363987538344104,-0.08914578216340982,-1.4495956338307163,0.13924115544738827,1
555,2024-09-25 15:18:26.574423040,0,017,-0.22690303467086828,-0.06666176585336807,2.141903553417872,-0.47699820238083296,1.340853269916313,-0.10094876629910474,-1.2890311326197577,0.12085759033758253,1
556,2024-09-25 15:18:26.652118016,0,017,-0.2227549788630074,-0.07723069231028656,2.0910135252650055,-0.4651642163637858,1.3360483818244153,-0.11167536980970946,-1.1280795362249696,0.0961154321285072,1
557,2024-09-25 15:18:26.713620224,0,017,-0.21873636303182142,-0.08907503285177643,2.0412515570223833,-0.45376906069692147,1.3217284341511204,-0.1211237301721923,-0.9675615914153561,0.06489271648051799,1
558,2024-09-25 15:18:26.788357888,0,017,-0.21523239966604601,-0.10195229143598085,1.9955539140475875,-0.44346636550754126,1.2976210586874393,-0.1290817668505241,-0.8103576911567156,0.028099160761159765,1
559,2024-09-25 15:18:26.856174080,0,017,-0.21283842648948884,-0.11552845517204581,1.9562982096912822,-0.4349957064842922,1.263509230628358,-0.1353482645585792,-0.6610970031860423,-0.012422187708621047,1
560,2024-09-25 15:18:26.915301888,0,017,-0.212345583454448,-0.1294012586975171,1.9251156667967375,-0.4291321201769963,1.2193275736853042,-0.13975407318427946,-0.5255805573181949,-0.054124150807399435,1
561,2024-09-25 15:18:27.853444096,0,017,-0.21464671146246106,-0.14314103006034679,1.9031186118489676,-0.4266478504280008,1.16524453718234,-0.14218397188288748,-0.41023488689999604,-0.09406616629650155,1
562,2024-09-25 15:18:27.931181824,0,017,-0.22062617250050015,-0.15633330129468032,1.8912862939735373,-0.4282670942753635,1.101688028445432,-0.14259259443435762,-0.3215179449001794,-0.129272934778917,1
563,2024-09-25 15:18:27.993668096,0,017,-0.23108863378153538,-0.16860399996859182,1.8905846934582728,-0.434560563158463,1.029316361941486,-0.1410006032594533,-0.2652189052320743,-0.1570768073256219,1
564,2024-09-25 15:18:28.055917056,0,017,-0.2467183138821071,-0.1796275423503649,1.9017127623594166,-0.4457772202219532,0.9489862542404262,-0.13747212983472626,-0.24587019458019604,-0.1753527420415867,1
565,2024-09-25 15:18:28.133670144,0,017,-0.2680521088329108,-0.18913045093869635,1.9248163740297637,-0.4616972401653572,0.8617538958996945,-0.13209208583616372,-0.2664530018366813,-0.1826041530025706,1
566,2024-09-25 15:18:28.194948864,0,017,-0.2954729272433921,-0.19689400781605076,1.959515183799419,-0.4815972315451612,0.7688886004313599,-0.12495582611666876,-0.3282710815315065,-0.177943216350004,1
567,2024-09-25 15:18:28.274769152,0,017,-0.3292094440135624,-0.20275125568870345,2.005260574786005,-0.5043479740215157,0.6718772689999319,-0.11617019371404584,-0.4307680789174346,-0.16103906330416218,1
568,2024-09-25 15:18:29.192829952,0,017,-0.3693148270719918,-0.20658042492658282,2.0618390857561333,-0.5286007587296926,0.5724404939192018,-0.10586486907863224,-0.5712780047456026,-0.13207226269156128,1
569,2024-09-25 15:18:29.248854016,0,017,-0.41563946060200596,-0.20830130359354557,2.1297793446787416,-0.5529930302435377,0.47257794134006276,-0.09421411208031609,-0.744912761416766,-0.09169408783391522,1
570,2024-09-25 15:18:29.328516096,0,017,-0.4678326964319356,-0.2078733819609243,2.2104419906501094,-0.5763134966183426,0.3746206150308483,-0.08146075634849119,-0.9447697299625039,-0.04097867401884389,1
571,2024-09-25 15:18:29.387211264,0,017,-0.5253568852490118,-0.20529187772116889,2.305752399332112,-0.5976072298077416,0.2812556142654336,-0.06793141941636975,-1.1624455300334147,0.018632802151819283,1
572,2024-09-25 15:18:29.464153088,0,017,-0.5874636191349847,-0.2005857137260918,2.4176744862862165,-0.6162335933701629,0.19549767371667395,-0.05404097617692916,-1.388641611436157,0.08537822543661149,1
573,2024-09-25 15:18:29.526140928,0,017,-0.6531311910999711,-0.1938226147970467,2.5474941043335892,-0.6318841086530652,0.12058241131399672,-0.04028724907887476,-1.6136196383707189,0.15719001656538453,1
574,2024-09-25 15:18:29.587798016,0,017,-0.7210164162420633,-0.18511705166927347,2.695070767285201,-0.6445557963400093,0.059772558892793544,-0.02723077997376283,-1.82747802299141,0.23168255870120108,1
575,2024-09-25 15:18:30.539446016,0,017,-0.7894567690895387,-0.17463372975008337,2.858386747801221,-0.6544843489538982,0.016107613199073802,-0.015458615493911672,-2.02041980615088,0.30613542122165155,1
576,2024-09-25 15:18:30.599544832,0,017,-0.8565172724548565,-0.16258685279716817,3.033575921898461,-0.6620503518468236,-0.007853509339768729,-0.005542807035032723,-2.183103493744658,0.3775021467246784,1
577,2024-09-25 15:18:30.677325056,0,017,-0.920077652893619,-0.14923768678621682,3.215278929877925,-0.6676717823208428,-0.010257311512860622,0.0019959225673131064,-2.307030176299704,0.4424882203696919,1
578,2024-09-25 15:18:30.746373120,0,017,-0.9779663381355365,-0.1348855168634372,3.397097259727718,-0.6717007434535881,0.009885773628931643,0.0067185357835427666,-2.3849651356600314,0.49774085434425114,1
579,2024-09-25 15:18:30.814183936,0,017,-1.0281157166963995,-0.11984703906838087,3.5720571451076593,-0.674346977549635,0.05264472368149562,0.008292117199471613,-2.4114084197565235,0.5401323503552002,1
580,2024-09-25 15:18:30.882045952,0,017,-1.068684135658521,-0.1044307931948882,3.7330918327682463,-0.6756531186574078,0.11722527829783443,0.006501052487364854,-2.3830095345733078,0.5670541795321947,1
581,2024-09-25 15:18:30.940167936,0,017,-1.0981330089151458,-0.08891579739752353,3.8736362190505003,-0.6755535112362208,0.20210132331259956,0.001239209620215409,-2.2987797599432294,0.576645329134433,1
582,2024-09-25 15:18:31.892985088,0,017,-1.1152995654197302,-0.07353258731161894,3.9884081303593764,-0.6740247999802181,0.3051509693706363,-0.007508949920061297,-2.160040540371529,0.5679185017553603,1
583,2024-09-25 15:18:31.945607936,0,017,-1.119467938412909,-0.05844342719813743,4.0742229168546364,-0.6712737715456308,0.42376249688343115,-0.01968361867383545,-1.9701952709714332,0.5407855357548567,1
584,2024-09-25 15:18:32.028691200,0,017,-1.1103851391030177,-0.0437305527979854,4.1305409564050155,-0.6678779194484028,0.554926176728903,-0.03515693855520772,-1.7345482737939488,0.49602518229106,1
585,2024-09-25 15:18:32.084576000,0,017,-1.088207868699014,-0.029402669989892626,4.1595316180286535,-0.66482169192154,0.6953175915505462,-0.05373638604329988,-1.4603309002132452,0.43524207713117613,1
586,2024-09-25 15:18:32.161319168,0,017,-1.0534246627422554,-0.015416299104879601,4.165560110697192,-0.6634054442190488,0.8413458304958332,-0.07516196127155869,-1.1568622084478304,0.36082744311032483,1
587,2024-09-25 15:18:32.224000000,0,017,-1.0067760617764265,-0.0017017213755145186,4.154116158526663,-0.6650307215544361,0.9891812411314269,-0.09909452234280941,-0.8355832315970856,0.2758963995108963,1
588,2024-09-25 15:18:32.284416000,0,017,-0.9491680971889543,0.011811552814639593,4.13045283510005,-0.6709143321741418,1.1348384846277915,-0.1251058960258151,-0.5096649365107245,0.18415785438353935,1
589,2024-09-25 15:18:33.243043072,0,017,-0.881603777413905,0.02517217626425826,4.098495380020037,-0.6818376266236613,1.2743602007076202,-0.1526844174986656,-0.19310832568474073,0.08969088738679012,1
590,2024-09-25 15:18:33.298836992,0,017,-0.8051677410462498,0.0383912465406909,4.060454540601251,-0.6980183607069333,1.4040788028404183,-0.18125877549851432,0.10041536470239505,-0.0033386965244806555,1
591,2024-09-25 15:18:33.375526912,0,017,-0.7210493024253346,0.05143299829020509,4.0170058872958645,-0.7190982194292787,1.5209206476432324,-0.21023761855044457,0.35868816772571466,-0.09096095811624812,1
592,2024-09-25 15:18:33.437606912,0,017,-0.6305520764903468,0.06420550014052959,3.9675868351022445,-0.7441900508275806,1.6227109300209033,-0.23905947432522257,0.5719126689626902,-0.16966018184924786,1
593,2024-09-25 15:18:33.506586880,0,017,-0.5350645847087327,0.07655081467721102,3.9106498244877788,-0.7719750566867599,1.7084024433007095,-0.26723862303082496,0.7334522421095836,-0.23660817099416323,1
594,2024-09-25 15:18:33.582082048,0,017,-0.4360031007765551,0.08824186665136462,3.8440509381920025,-0.8008750985510569,1.7781509797936217,-0.29439202486547555,0.8401909839230868,-0.2898361271271058,1
595,2024-09-25 15:18:33.639322112,0,017,-0.33474420525503906,0.09898736008899758,3.765696666664652,-0.8292839084493644,1.833207199521314,-0.3202459788376134,0.8923734670446266,-0.32828686170069066,1
596,2024-09-25 15:18:34.568092928,0,017,-0.2325797228515946,0.10844043006691402,3.6743001474874566,-0.8557971667064106,1.8756330612337113,-0.3446292828751869,0.8929893123034166,-0.3517436186606252,1
597,2024-09-25 15:18:34.635981824,0,017,-0.13074320765078426,0.11621549163607085,3.569910755339046,-0.8793811740894982,1.9078835053104883,-0.3674551313225577,0.8469841095411926,-0.36070134642584123,1
598,2024-09-25 15:18:34.691170048,0,017,-0.030504551594525663,0.12192189911299385,3.45392818855971,-0.8994384410892885,1.932349727199361,-0.38869314208722433,0.7605191427076894,-0.35623406427040955,1
599,2024-09-25 15:18:34.771597824,0,017,0.06674450470802071,0.12520947070350352,3.3286638794713426,-0.9157736777783586,1.9509913278416782,-0.40833967333979254,0.6402243873733696,-0.3398423249108342,1
600,2024-09-25 15:18:34.828224768,0,017,0.15947104108701882,0.12581042221393904,3.196851193510451,-0.9285155953719483,1.9651325200186145,-0.4263949190878594,0.4923016631703113,-0.31324868416812923,1
