,time,MARKER,pid,L_O_DSI,L_D_DSI,L_O_DSphi,L_D_DSphi,R_O_DSI,R_D_DSI,R_O_DSphi,R_D_DSphi,trial_id
0,2024-09-25 15:07:46.757924072,TASK_BEGIN,017,0.28710512526721665,0.4504229392928109,5.414337220247307,-0.6877101954606283,-0.8913079852046224,0.40874531000221714,2.0854872409041842,-0.5629807187999035,0
1,2024-09-25 15:07:46.834988037,0,017,0.3956120683231374,0.4371219156996835,5.5307499726225124,-0.7476179462787889,-0.7945993989853675,0.39285058185666105,1.928236491487587,-0.5381147515546312,0
2,2024-09-25 15:07:46.902986084,0,017,0.4988333357724643,0.42306423287407163,5.664549905470571,-0.809558643417496,-0.6973334624095631,0.37773456973226105,1.7821537113243406,-0.5147664195214142,0
3,2024-09-25 15:07:46.970827881,0,017,0.5946642039707296,0.4082907433807575,5.807987232208027,-0.8710559257974374,-0.5999111117089895,0.3633264278621604,1.647299073694589,-0.4927520540630069,0
4,2024-09-25 15:07:47.038573975,0,017,0.6817397487157447,0.39289814143336144,5.954463668510128,-0.9299048413257913,-0.5028620713713733,0.34958328370642205,1.5222739244965084,-0.4719803581905651,0
5,2024-09-25 15:07:47.098040039,0,017,0.7593774072679407,0.3770316980647478,6.098981336341483,-0.9842777874646095,-0.4069271330343354,0.3365012206362141,1.4050120705936544,-0.45256799991400665,0
6,2024-09-25 15:07:47.160047119,0,017,0.8274174431536777,0.36088182546217557,6.238015626367112,-1.0327308226424528,-0.31312923039900065,0.324121352561313,1.2934903338374903,-0.43489082486457625,0
7,2024-09-25 15:07:48.113688965,0,017,0.8860262954286962,0.34468424437940504,6.368978945078597,-1.07414574164526,-0.22280261751497427,0.3125331780686379,1.186201833132549,-0.41956859759312004,0
8,2024-09-25 15:07:48.185197998,0,017,0.9355283125918515,0.3287158350905704,6.489577271524947,-1.1076698103836775,-0.13755045721573766,0.30187076029148485,1.0823655675384802,-0.407386604199678,0
9,2024-09-25 15:07:48.252496094,0,017,0.9762777868564042,0.31328152333033477,6.597288878029445,-1.1326772189483347,-0.059124171720623654,0.2922977435718651,0.9819619428854852,-0.3991806279381063,0
10,2024-09-25 15:07:48.314310059,0,017,1.0085527974585968,0.2986971958925822,6.689082011984848,-1.1487423577312845,0.01074508743068213,0.2839863325377429,0.8856683174210133,-0.3957199029926103,0
11,2024-09-25 15:07:48.376380859,0,017,1.0324790996963715,0.2852748153948024,6.761383055809284,-1.155620310743,0.07051883005244033,0.27709739100502867,0.7947028048923942,-0.3976032902701999,0
12,2024-09-25 15:07:48.456420898,0,017,1.0480151615305806,0.2733069817760107,6.81024709618201,-1.153246103148813,0.1190054446045311,0.271760427353559,0.7106281970618228,-0.4051683850303939,0
13,2024-09-25 15:07:48.515604980,0,017,1.0550005241243372,0.2630455689079839,6.831691328714471,-1.141763550731677,0.15548402136023026,0.2680511137852531,0.6352155194309196,-0.41841697392251864,0
14,2024-09-25 15:07:49.457832031,0,017,1.0532314615267677,0.25467805022836343,6.8221299786248615,-1.1215730901032348,0.17976353652198038,0.2659747941915309,0.5703918624628517,-0.4369689939784117,0
15,2024-09-25 15:07:49.534610107,0,017,1.042534855768012,0.2483095504264613,6.778760836189302,-1.0933604551774503,0.1921497628126305,0.26546714125873866,0.5182229996858607,-0.46006019042339363,0
16,2024-09-25 15:07:49.600255127,0,017,1.0228433537732482,0.24395118179831848,6.699751173866422,-1.0580702215324513,0.1933503594573355,0.26640846107867316,0.48088136813703286,-0.4865940602073181,0
17,2024-09-25 15:07:49.671477051,0,017,0.9942807091509528,0.2415097547593285,6.584232097386286,-1.0168319184714592,0.18438160589732397,0.2686369435809275,0.46052832573928865,-0.5152433924577794,0
18,2024-09-25 15:07:49.735447998,0,017,0.9572445909179321,0.24077996761013956,6.432243169307854,-0.9708776892378363,0.16650465747912985,0.27195498309045063,0.4590359293269242,-0.5445763732617699,0
19,2024-09-25 15:07:49.807133057,0,017,0.9124648201265778,0.24144826695344326,6.244710422763302,-0.9214679406516809,0.141177169378134,0.2761357138943911,0.4775892951238876,-0.5731733456692342,0
20,2024-09-25 15:07:49.859548096,0,017,0.8610268842168814,0.2431145017851336,6.0234275038326,-0.869810375891663,0.1100110803295166,0.2809346141128218,0.5163402134873974,-0.5997186952131404,0
21,2024-09-25 15:07:50.817543945,0,017,0.8043569550455729,0.24532530861781407,5.77104098116244,-0.816973782686197,0.07474189304778459,0.28610177447803564,0.5742354680956033,-0.6230818112594925,0
22,2024-09-25 15:07:50.873637939,0,017,0.7441607133101119,0.24760768814634898,5.4911548879604135,-0.7638379854839725,0.03719610279516893,0.291391668563822,0.6489353375945188,-0.6423948678529695,0
23,2024-09-25 15:07:50.948344971,0,017,0.6823168200629257,0.2494977965766805,5.188638711013231,-0.7111243751992767,-0.0007707499489827646,0.29657524200232893,0.7366920119638888,-0.6571053577200716,0
24,2024-09-25 15:07:51.021014893,0,017,0.6207502353666682,0.2505652362744159,4.870019042392768,-0.6595045690651059,-0.03736513429236968,0.30145839006521674,0.8323207541992163,-0.6669901444043411,0
25,2024-09-25 15:07:51.088335938,0,017,0.5613154876075573,0.2504309613665749,4.5436920097524345,-0.6097311358315566,-0.07095081212007515,0.3059019906468497,0.9295551004172685,-0.6721476056585166,0
26,2024-09-25 15:07:51.156606934,0,017,0.5056859426457091,0.24877788602721712,4.219763623223057,-0.5627199686674638,-0.10014081808808731,0.3098347526254131,1.0218440774118036,-0.6729762502234629,0
27,2024-09-25 15:07:51.211922119,0,017,0.4552264607706905,0.24535932005044125,3.9095055613937246,-0.5195475499840878,-0.12389687989553147,0.3132546643138481,1.1033555845243468,-0.670127700378875,0
28,2024-09-25 15:07:52.167625977,0,017,0.4108734358652647,0.24000918477124858,3.624539669202921,-0.48137644277246283,-0.1416254630054209,0.31622051891024605,1.1699056204704876,-0.664436209613363,0
29,2024-09-25 15:07:52.225064941,0,017,0.3730929914978036,0.2326492119207668,3.3758860915382933,-0.44935022430935895,-0.15322649576951108,0.3188361252699455,1.2196031221703225,-0.6568445936011229,0
30,2024-09-25 15:07:52.303283936,0,017,0.3419484873141021,0.22328598879954265,3.1729972066196646,-0.4244916534436169,-0.1590572597800507,0.3212272519602696,1.2530293336048328,-0.6483302550653496,0
31,2024-09-25 15:07:52.364263916,0,017,0.3172289183076212,0.21199833068248408,3.0229101545097237,-0.40761256597840456,-0.15982346053217336,0.32351198881544013,1.2728544486182318,-0.6398133579197064,0
32,2024-09-25 15:07:52.426294922,0,017,0.29857347059883926,0.1989225925424736,2.9296425226329514,-0.3992320685644792,-0.15644740486746483,0.32577159917877657,1.2830089556571338,-0.6320357950307931,0
33,2024-09-25 15:07:52.504854004,0,017,0.2855699381425141,0.18424289155608867,2.893919953145681,-0.3995109969121203,-0.14994482218397331,0.3280310512824079,1.2877414565327907,-0.6254329712697357,0
34,2024-09-25 15:07:52.566906006,0,017,0.2778291579398995,0.16818724712084815,2.913287030307568,-0.40821951791061545,-0.1413053924340925,0.330251177043365,1.2909172577246837,-0.6200567814795473,0
35,2024-09-25 15:07:53.505639160,0,017,0.2750257224874983,0.15102588245830237,2.982532428286753,-0.4247375300210387,-0.13138274156752877,0.33233023508250137,1.2957250042697932,-0.6156067398224121,0
36,2024-09-25 15:07:53.580221924,0,017,0.2768879804864342,0.13306854593821826,3.094187863471423,-0.4480657884570461,-0.12083785197803622,0.3341184507661912,1.3047325729006656,-0.611572459116524,0
37,2024-09-25 15:07:53.653354004,0,017,0.28314015676265997,0.11466163277239613,3.2388780783780025,-0.4768373880794147,-0.11017046153840505,0.3354513545301514,1.3200996786822305,-0.6074260359430488,0
38,2024-09-25 15:07:53.721097900,0,017,0.2934278040656472,0.09618613529186369,3.4055494846985663,-0.5093529516222337,-0.09980732985516692,0.3361957757802082,1.3437342382104924,-0.6027829002002811,0
39,2024-09-25 15:07:53.780034912,0,017,0.30726619373738384,0.07805164327788722,3.581826339446146,-0.5436734822841287,-0.09017065072740697,0.33628831649902696,1.3772660857753822,-0.5974860780557925,0
40,2024-09-25 15:07:53.856722168,0,017,0.3240307585614931,0.060678623260821164,3.7546834642068094,-0.5777747891900691,-0.0816784377465841,0.3357483111838914,1.4218391647882873,-0.5916140088984765,0
41,2024-09-25 15:07:53.920249023,0,017,0.3429815291623103,0.044468623285694876,3.911328570746124,-0.6097198371555268,-0.07468988576240117,0.33466431378868455,1.4778071646931217,-0.5854281049878208,0
42,2024-09-25 15:07:54.837944092,0,017,0.3633097331883148,0.02977173013062261,4.040010169859563,-0.6377872968839483,-0.06943547798203689,0.33316771658154537,1.5444529986805866,-0.5792847385324338,0
43,2024-09-25 15:07:54.899798096,0,017,0.3842041157896703,0.016860580605845995,4.130597449896474,-0.6605301370442682,-0.06596285830487386,0.3314082851686387,1.6198459099559126,-0.5735467055124667,0
44,2024-09-25 15:07:54.978061035,0,017,0.4049242814580321,0.005913168463039588,4.174993455879317,-0.6767895726781518,-0.06412183589357506,0.3295379804316205,1.700898701831841,-0.568515410211765,0
45,2024-09-25 15:07:55.046173096,0,017,0.424850677793885,-0.0029960941237096674,4.167535584933748,-0.6857087067435281,-0.06360719749469014,0.32770121342236375,1.7836112577572023,-0.5643782021788448,0
46,2024-09-25 15:07:55.113977051,0,017,0.44349120999722785,-0.009893756558014099,4.105476319755568,-0.6867737440227696,-0.06405072276372935,0.32602668791393713,1.8633865536179812,-0.5611592732257565,0
47,2024-09-25 15:07:55.181817139,0,017,0.4604584714457136,-0.0148896168161807,3.9894266129300986,-0.6798766625705326,-0.0651114892860876,0.3246159475749367,1.9352783980520945,-0.5586792253265085,0
48,2024-09-25 15:07:55.249624023,0,017,0.47545221181521163,-0.01814961557563682,3.8234634822913303,-0.6653606409146405,-0.06650579115588698,0.32352473180895935,1.9942241724754521,-0.5565519256657904,0
49,2024-09-25 15:07:56.160680908,0,017,0.4882633345368622,-0.019872024303433572,3.614694732088315,-0.6440037882489106,-0.06796815567015067,0.3227386422019848,2.035516566423858,-0.5542484682511186,0
50,2024-09-25 15:07:56.222213135,0,017,0.49878401666442745,-0.020273932512006442,3.37237083982871,-0.6169289672805324,-0.06919082436074245,0.3221535056695374,2.0555789550520775,-0.5512159573521043,0
51,2024-09-25 15:07:56.299355957,0,017,0.5070093966786362,-0.019585782033026147,3.1068540054010727,-0.5854738430669212,-0.06978706813220208,0.32157282804522097,2.052718255160838,-0.5469988955912162,0
52,2024-09-25 15:07:56.371251952,0,017,0.5130358127030331,-0.0180499945396985,2.828752212139033,-0.5510738483261637,-0.06928172586922099,0.32072496738039397,2.027469581421002,-0.5413230602111299,0
53,2024-09-25 15:07:56.425998047,0,017,0.5170536103549236,-0.015921190671826495,2.548370907953555,-0.5151869512407078,-0.06711570462282158,0.31929155993116254,1.9824022008702498,-0.5341290705571554,0
54,2024-09-25 15:07:56.506875000,0,017,0.5193096456897108,-0.013462073441825104,2.2754385059870588,-0.4792508660596324,-0.06266894936977015,0.3169385937915643,1.92147860375221,-0.5255485849619489,0
55,2024-09-25 15:07:56.562220947,0,017,0.5200251271328787,-0.01092654388028409,2.01889986772685,-0.44464336547145156,-0.05531188526220354,0.3133490902827665,1.8491949335510358,-0.5158315161598953,0
56,2024-09-25 15:07:57.516877930,0,017,0.5193009388525459,-0.008531112954691613,1.7865729411291327,-0.41262438105233107,-0.044474328799177384,0.3082577288448293,1.7697912229892032,-0.5052578835742392,0
57,2024-09-25 15:07:57.584711914,0,017,0.5170648353836855,-0.006429075386755202,1.5846858319962278,-0.3842625308311043,-0.029707894893424007,0.3014812388454549,1.6866885103770424,-0.4940560431933586,0
58,2024-09-25 15:07:57.652494873,0,017,0.5130800724211254,-0.004699643692335812,1.417522072043176,-0.36036743582851505,-0.010730728776520827,0.2929374033675437,1.6021264024930917,-0.48232277494961623,0
59,2024-09-25 15:07:57.707070068,0,017,0.506994483982393,-0.0033497571417524055,1.2873441035278497,-0.3414528989477114,0.01253750097522141,0.2826536877812908,1.5169884935192866,-0.4699556272345569,0
60,2024-09-25 15:07:57.787643066,0,017,0.49841381821171776,-0.0023216319946929007,1.194549862276956,-0.3277433844154539,0.039939048713068435,0.2707706287599247,1.4308583401996584,-0.45662899160928033,0
61,2024-09-25 15:07:57.847671143,0,017,0.4870006318462848,-0.0015070749697619482,1.1379348727323184,-0.31921196935041285,0.07104478805720021,0.25753916149474126,1.3422543479541675,-0.4418299580131043,0
62,2024-09-25 15:07:57.923693848,0,017,0.4725831001180028,-0.0007721683406342167,1.1150207841700561,-0.3156282134426958,0.10514629084594747,0.24330623758571263,1.248945024409146,-0.42495079121075313,0
63,2024-09-25 15:07:58.864429932,0,017,0.45523549725663104,1.2649238029045522e-05,1.122440719370108,-0.31660739873547483,0.1412892633868467,0.22848853541833822,1.1483287224029493,-0.405421952704338,0
64,2024-09-25 15:07:58.928237793,0,017,0.43530986323795656,0.000947613504002431,1.1562539636674725,-0.32165375872239704,0.17834062220792052,0.21354204538315394,1.0378851890650782,-0.38284853983810097,0
65,2024-09-25 15:07:59.000154053,0,017,0.41343140823129065,0.0020878760115059214,1.2120369189909315,-0.3301783954273701,0.21507100371911375,0.1989334649952319,0.9156535891810089,-0.3571123192203681,0
66,2024-09-25 15:07:59.067945068,0,017,0.39046689305827015,0.0034331605996616044,1.2848043860372258,-0.3414870756196481,0.2502373842110965,0.18511177587041908,0.7806569955222339,-0.3284308932304143,0
67,2024-09-25 15:07:59.129447998,0,017,0.36744986862212725,0.004920962391026938,1.3690243959502695,-0.3547659673605113,0.28264810854029176,0.17247857597700278,0.6331694883599297,-0.2973829630261204,0
68,2024-09-25 15:07:59.191574219,0,017,0.3454555554343002,0.006427816123527609,1.458935313796082,-0.36909894289064127,0.31120354271399403,0.16136104360540118,0.4747365234357133,-0.2648930359516758,0
69,2024-09-25 15:07:59.269252930,0,017,0.32545773219628893,0.007782737715518917,1.549091638456966,-0.3835219631794458,0.33493695140940993,0.15199004677441202,0.3079361877624006,-0.23214926870932145,0
70,2024-09-25 15:08:00.212222168,0,017,0.30821165691674157,0.008789616879994473,1.6348688685494683,-0.3970966107472096,0.35308058710599294,0.14448183310086918,0.13593239168390728,-0.20043994846108157,0
71,2024-09-25 15:08:00.284943115,0,017,0.2941756929205937,0.009251816898424995,1.7127467921504975,-0.40898599085877674,0.3651376453607399,0.1388252282254858,-0.03807187836955101,-0.1709423156911645,0
72,2024-09-25 15:08:00.352168945,0,017,0.2834619282418397,0.00899659185916118,1.7803763172747722,-0.4185194875328953,0.3709208331352129,0.13488226043204096,-0.2112836216352622,-0.14454238762239377,0
73,2024-09-25 15:08:00.413256836,0,017,0.2758283575621407,0.0078977306714304,1.8365171880215847,-0.4252356644225202,0.37055538869473287,0.13240634315877003,-0.38145678325091686,-0.12175411652653705,0
74,2024-09-25 15:08:00.488308105,0,017,0.27074184835180193,0.00588793921134576,1.8809318721613035,-0.4289070054668007,0.36447516974162764,0.13107118454085412,-0.5466169824063984,-0.10274893878602132,0
75,2024-09-25 15:08:00.552750977,0,017,0.26749475146384627,0.002953708720920247,1.9142309824726518,-0.4295475807493508,0.35341708044762693,0.13050068756016403,-0.7044769617084529,-0.08745684247174682,0
76,2024-09-25 15:08:00.614312988,0,017,0.26530611073352955,-0.0008810782026464428,1.937579887859114,-0.42738746400962524,0.3383924130500036,0.13029739369554888,-0.8518335454312251,-0.07568894714198772,0
77,2024-09-25 15:08:01.567153809,0,017,0.2633683357435067,-0.005570537298904586,1.95229611039802,-0.422812936596726,0.32063244277492164,0.13007053279071953,-0.9842241662069886,-0.06725127997497117,0
78,2024-09-25 15:08:01.623243896,0,017,0.26087003560629224,-0.011057741312022714,1.9595306510633783,-0.41629653547243345,0.3015218153401955,0.12946102274620963,-1.0959748774520974,-0.062027912519496964,0
79,2024-09-25 15:08:01.700499023,0,017,0.25704005429817534,-0.017285619913649894,1.960140279900393,-0.40832879360908825,0.28250634633278476,0.12816095895466126,-1.1806910040537046,-0.059999521941927474,0
80,2024-09-25 15:08:01.770528076,0,017,0.25122092301682397,-0.02420932420253193,1.9546920301506754,-0.3993489755570064,0.26494766048298246,0.1259312690628111,-1.232104066438737,-0.06118546339492326,0
81,2024-09-25 15:08:01.824244873,0,017,0.2429536812816895,-0.0318052587631088,1.9435592790302532,-0.389690252690786,0.24994217999886645,0.12262168925944728,-1.2449798950881503,-0.06555139807127415,0
82,2024-09-25 15:08:01.902107910,0,017,0.2320560613787092,-0.040071873080083725,1.9271229747832908,-0.3795618770197836,0.2381735267036828,0.11818836551776377,-1.2158039772873404,-0.07293774645462485,0
83,2024-09-25 15:08:01.964665039,0,017,0.2186738193300186,-0.04902270837372195,1.9059881837349135,-0.3690565402570204,0.22985435945365157,0.11269905397396954,-1.143162522736864,-0.08303391453968229,0
84,2024-09-25 15:08:02.917239990,0,017,0.2032685611015428,-0.058673054527796795,1.8810174193646612,-0.358146066851214,0.22475158837080972,0.10632350545184473,-1.0278400800172518,-0.09540294234931027,0
85,2024-09-25 15:08:02.973180908,0,017,0.1865122008924099,-0.06901759012313588,1.853079313449987,-0.3466524353021824,0.22225281238991776,0.0993168446810226,-0.8726387997205404,-0.10955014633832198,0
86,2024-09-25 15:08:03.050334961,0,017,0.16911358599150617,-0.08000074522637544,1.8226264683941864,-0.3342172401363221,0.22145069926082683,0.09200160957859727,-0.6819489751363607,-0.12501026495208933,0
87,2024-09-25 15:08:03.111463135,0,017,0.15165120519989275,-0.09149291224510862,1.7893084217663249,-0.32030187809450306,0.2212476783060016,0.084744361764214,-0.4611778308847227,-0.1414255990467857,0
88,2024-09-25 15:08:03.188435059,0,017,0.13446373333251618,-0.10328450400761258,1.751742961680933,-0.30423437117326474,0.22047348700847524,0.07792278163322833,-0.2161891143367791,-0.15859966185849048,0
89,2024-09-25 15:08:03.250876953,0,017,0.11759606568114771,-0.11509503094014062,1.7074787907702824,-0.28529273914670883,0.21799106740174243,0.07188931603948984,0.04708998385994898,-0.17650265534542386,0
90,2024-09-25 15:08:03.319865967,0,017,0.10079198313491791,-0.12658850322500617,1.6531825250322907,-0.26280064202616893,0.21278025026344657,0.06694115995038827,0.32275144678250633,-0.19520056942276823,0
91,2024-09-25 15:08:04.253916992,0,017,0.08355058297551195,-0.13739608644761653,1.5850985182298694,-0.2362229688697314,0.20400877346438884,0.06330011577203606,0.6046065008614285,-0.21471711648374658,0
92,2024-09-25 15:08:04.332065185,0,017,0.0652496819817841,-0.14715229080190156,1.499798291640886,-0.20527486276801385,0.19109061459603968,0.061101767268155346,0.8856108684741784,-0.23488796236937576,0
93,2024-09-25 15:08:04.394968018,0,017,0.04529114809507836,-0.1555403995634094,1.3951407949325745,-0.17006133146047622,0.1737147466628639,0.06039438281048972,1.157341599486908,-0.25527880756104354,0
94,2024-09-25 15:08:04.470804932,0,017,0.023210390467390672,-0.16232971765168125,1.2712032260899337,-0.1312255410522575,0.15183609199355094,0.06114763093160894,1.4099067947896022,-0.2752002087722128,0
95,2024-09-25 15:08:04.538522949,0,017,-0.0012691888961546395,-0.16739030229947074,1.1308308355131016,-0.09003599933334468,0.12564208743083372,0.06326770639581179,1.6324694507045445,-0.2938000231733031,0
96,2024-09-25 15:08:04.606362061,0,017,-0.028218160905887104,-0.1706888568221474,0.979565655553969,-0.04834285317965359,0.09551292500996396,0.06661228432833757,1.814275205550384,-0.3101959584778418,0
97,2024-09-25 15:08:04.674127197,0,017,-0.05750364898974481,-0.1722798345327518,0.8250195671949244,-0.00839724211883206,0.061975648105723445,0.07100159403740927,1.9458931733216063,-0.32361536500204396,0
98,2024-09-25 15:08:05.590878906,0,017,-0.08882277103643764,-0.17229606603876169,0.6759869053010458,0.027395735603609347,0.025641926144040265,0.07622906197162606,2.0203637154539864,-0.33350626484063783,0
99,2024-09-25 15:08:05.660273193,0,017,-0.12177519570611892,-0.17093262572963813,0.5415585799009666,0.05670627168934355,-0.012860587077235662,0.08207503146553004,2.0339992483996023,-0.3395825023848307,0
100,2024-09-25 15:08:05.728085938,0,017,-0.1559449838072641,-0.16842454385923972,0.4303277128206409,0.07745943128543327,-0.05293688982227662,0.08831986195754349,1.9866254809217292,-0.34178240454638664,0
101,2024-09-25 15:08:05.791718994,0,017,-0.19094841031272586,-0.16502742600314366,0.349686759953267,0.0879778538769147,-0.09404977297299273,0.09475167388552648,1.881201470763939,-0.3401608980115073,0
102,2024-09-25 15:08:05.854204102,0,017,-0.2264392115298676,-0.16100225833572077,0.30522623323001424,0.08710649764282426,-0.13574410064436324,0.1011707039603047,1.72304682652537,-0.33478302031370694,0
103,2024-09-25 15:08:05.931466064,0,017,-0.2620860297643121,-0.15659726881452243,0.3002578064106406,0.07432739357417022,-0.17767388842741777,0.10739336489563757,1.5190569651740242,-0.325681145187557,0
104,2024-09-25 15:08:05.998085938,0,017,-0.29752951381297854,-0.15202598514424656,0.3355027642679356,0.04984874456358331,-0.21960270155458858,0.11325245866125466,1.2771550521355575,-0.31287172283986264,0
105,2024-09-25 15:08:06.933872070,0,017,-0.3323365457019754,-0.14744760420175987,0.4089965298116404,0.014638705818116365,-0.2613609791920907,0.11859053681473797,1.005986678407335,-0.2963821398509268,0
106,2024-09-25 15:08:06.996362061,0,017,-0.36598585024493346,-0.14295319186704106,0.5161779292036878,-0.029603564599210826,-0.3027845240294894,0.12325399793051088,0.7146948742407351,-0.27625176681844665,0
107,2024-09-25 15:08:07.075990967,0,017,-0.3978943615291348,-0.13855968866181398,0.6500574579666011,-0.080529186049637,-0.3436585331030536,0.12709747774011748,0.41260691436783536,-0.2525063504269703,0
108,2024-09-25 15:08:07.134875000,0,017,-0.4274521573175548,-0.13421769921823384,0.8014698983956519,-0.1352811014269807,-0.38365669624304677,0.12999561470566548,0.10880060973564104,-0.22513292306480048,0
109,2024-09-25 15:08:07.212045898,0,017,-0.4540340308739468,-0.12983793314877765,0.9595956556067168,-0.1907152978912667,-0.4222662381263037,0.13185062132557154,-0.18834874330521645,-0.1940890791750034,0
110,2024-09-25 15:08:07.274079102,0,017,-0.47699595524897276,-0.12532960585986538,1.1128928253665133,-0.24369381025919143,-0.4587307134802276,0.1325896306890129,-0.4714960355109141,-0.15936108162757107,0
111,2024-09-25 15:08:07.336564941,0,017,-0.49568408309561884,-0.12063451610192955,1.2503082934432754,-0.29139977780414644,-0.49204708621659365,0.13215555536519494,-0.7344367809769796,-0.12105383543852068,0
112,2024-09-25 15:08:08.267860107,0,017,-0.5094575759758923,-0.11574599680570968,1.3624268632219785,-0.3316012648569123,-0.5210079133235745,0.13049715667364756,-0.9720456273559841,-0.07946901340408849,0
113,2024-09-25 15:08:08.335333984,0,017,-0.5177122100455875,-0.11071470435382459,1.4422714565891317,-0.3628042364874228,-0.5442589095987368,0.12755911683435608,-1.1801923071517457,-0.035128144478164765,0
114,2024-09-25 15:08:08.396492920,0,017,-0.5199176882936857,-0.10564650696257565,1.4856946389156933,-0.3842858686245759,-0.5603733245878925,0.12327248614022013,-1.355749502361145,0.011264450497685709,0
115,2024-09-25 15:08:08.458019043,0,017,-0.5156874726816106,-0.1006917794533821,1.4914847260011053,-0.39604626980217605,-0.567966681006414,0.11755253452701461,-1.496699273976461,0.05888155588683694,0
116,2024-09-25 15:08:08.539045898,0,017,-0.5048626408668332,-0.09602464847965035,1.4613288495726717,-0.3987200368015029,-0.5658578863629101,0.1103116479172834,-1.602261967223339,0.10680942021323818,0
117,2024-09-25 15:08:08.606863037,0,017,-0.48757394834185863,-0.09181861226624369,1.3996944806350244,-0.3934727189146117,-0.5532531026526754,0.10148328969331939,-1.672926820672741,0.15403749927491694,0
118,2024-09-25 15:08:08.673051025,0,017,-0.46427471685769184,-0.08822799381621248,1.3136145595951143,-0.38190311774593666,-0.5299066308476764,0.09104353587120528,-1.7102989073318235,0.19941528220357072,0
119,2024-09-25 15:08:09.617657959,0,017,-0.4357552117985795,-0.08537680801702555,1.2122957928314815,-0.36596135378175065,-0.49621162637825744,0.07902252375061,-1.7168253736808572,0.24162028409657166,0
120,2024-09-25 15:08:09.685043213,0,017,-0.4031249076350451,-0.0833514031495689,1.106418627777328,-0.34786057974979184,-0.45319429236898373,0.06550853786905851,-1.695555185862071,0.2791798989629273,0
121,2024-09-25 15:08:09.746555176,0,017,-0.3677340626243324,-0.0821981216864366,1.0070702402108123,-0.329940660887161,-0.40240511520008704,0.05064518568039711,-1.6499752632837268,0.31055579191852223,0
122,2024-09-25 15:08:09.808578857,0,017,-0.3310461794762029,-0.08192843710536345,0.9244921901662837,-0.31447123093711277,-0.3457264927813027,0.03461664387277236,-1.5838613128989583,0.334271856000064,0
123,2024-09-25 15:08:09.888891846,0,017,-0.2945151669247316,-0.08252578039805539,0.8670120329728128,-0.3034384119771557,-0.2851544791770245,0.017624525137600218,-1.501188165693914,0.34907194446189055,0
124,2024-09-25 15:08:09.948023926,0,017,-0.2594962092401909,-0.08394624764882593,0.8404318272647842,-0.2983816101580598,-0.22261237319019775,-0.00013095520035551095,-1.4062316474850463,0.3541091148082184,0
125,2024-09-25 15:08:10.011256104,0,017,-0.2271694439727076,-0.08611536392346879,0.8478903902845463,-0.300314574146598,-0.15981265190532984,-0.01846010438622874,-1.3038136570761112,0.34915731511525844,0
126,2024-09-25 15:08:10.967700928,0,017,-0.19845968738383554,-0.08892975796443825,0.8900605264304386,-0.3097179081519267,-0.09817492052352948,-0.037186445585123726,-1.1994080179506637,0.3347959448244476,0
127,2024-09-25 15:08:11.024609131,0,017,-0.17397449883196386,-0.09226652038069545,0.9654952880241726,-0.32656496456959344,-0.03882405679721946,-0.056143108276942674,-1.098852447990495,0.31248635943979836,0
128,2024-09-25 15:08:11.103354004,0,017,-0.15398741064637866,-0.09599352814015218,1.0709421275880024,-0.3503534737148947,0.01733624037932694,-0.07516075787427214,-1.007636148177494,0.2844782271153654,0
129,2024-09-25 15:08:11.171140869,0,017,-0.13845759423903298,-0.0999742881730385,1.2015490832208355,-0.3801426502221816,0.06953025462258974,-0.09405162690029521,-0.9299153954238364,0.2535452381631704,0
130,2024-09-25 15:08:11.238928955,0,017,-0.12705441141178964,-0.10407017142760276,1.3509804469658837,-0.41459655185642996,0.11705411777324212,-0.11259970770932799,-0.8675217901252325,0.22261099734443607,0
131,2024-09-25 15:08:11.306699951,0,017,-0.11917397199125418,-0.10814730782170752,1.5114225030583366,-0.4520174378001928,0.15926807371861998,-0.13056181754671065,-0.8193049687597378,0.19435894003626866,0
132,2024-09-25 15:08:11.374519043,0,017,-0.11396019247593148,-0.11208916261720679,1.6734826275087455,-0.4903633371587669,0.19561590242410642,-0.14767419592014186,-0.7811107712695021,0.17092057540814662,0
133,2024-09-25 15:08:12.312794922,0,017,-0.11033687396138464,-0.1158104468923733,1.8261755833608093,-0.5272760189007297,0.22565930708390686,-0.16365988613462049,-0.7464920949859291,0.15370439604932612,0
134,2024-09-25 15:08:12.385795166,0,017,-0.10704451347602746,-0.11926982667863553,1.957307801545321,-0.5601614997688098,0.24913051368022102,-0.17824203214545353,-0.7079561068242148,0.14336990421377765,0
135,2024-09-25 15:08:12.451980225,0,017,-0.1026902292347691,-0.12247836560790194,2.054403141376301,-0.5863491382689816,0.2659903701142683,-0.1911680540964414,-0.6583616030419516,0.1398983735686872,0
136,2024-09-25 15:08:12.513582031,0,017,-0.09583294120555484,-0.12549564338971256,2.105975733589308,-0.6033152187483964,0.27645989225108486,-0.20223744871263805,-0.5921415914641244,0.1426985095383974,0
137,2024-09-25 15:08:12.575198975,0,017,-0.08510245294796272,-0.12840918605923113,2.102759415149404,-0.6089239863169622,0.2810145488922098,-0.21132206257652933,-0.5061759989863642,0.15070641003942323,0
138,2024-09-25 15:08:12.652885010,0,017,-0.06932239733933031,-0.1313071278271517,2.0385995834667066,-0.6016413686387467,0.2803654393793415,-0.21837750148165963,-0.40019523871916457,0.162468756642538,0
139,2024-09-25 15:08:12.724854004,0,017,-0.04761980777021822,-0.13426037368398414,1.9109393653386986,-0.5806970433801084,0.27544110033776,-0.22345095526815675,-0.27667639442483627,0.1762270464475753,0
140,2024-09-25 15:08:13.667920166,0,017,-0.019533900194254057,-0.13731906344649383,1.7209641726338378,-0.5461735646992305,0.2673440021008057,-0.22668582517326902,-0.14037862057781286,0.19004013710189158,0
141,2024-09-25 15:08:13.735793213,0,017,0.014875423563649333,-0.1405148405279615,1.4734688457525422,-0.4989982552509174,0.2572550852648388,-0.22831668784565312,0.002237472833768837,0.20196638114992896,0
142,2024-09-25 15:08:13.803543945,0,017,0.054965569748881817,-0.14386220204215464,1.1765102753387786,-0.44084201090497915,0.24630473495579397,-0.22864949926340575,0.14356430246217183,0.21027875925408943,0
143,2024-09-25 15:08:13.856981934,0,017,0.09954970070465521,-0.14736184286672172,0.840964503396021,-0.3739691484594153,0.2354610809417426,-0.2280313414482754,0.2753629586668453,0.2136612765091771,0
144,2024-09-25 15:08:13.934696045,0,017,0.14702777151327787,-0.15100881041043834,0.48006692671301016,-0.30107424023285523,0.22547264959123856,-0.22682079762380594,0.38924436626491016,0.21135782600598368,0
145,2024-09-25 15:08:14.006922852,0,017,0.19554228215555547,-0.15479907148115507,0.10883518897409163,-0.22509725763380004,0.216864655948125,-0.22536544953311144,0.4771366703252854,0.2032642903198521,0
146,2024-09-25 15:08:14.073414062,0,017,0.2431141895021531,-0.15872800346742283,-0.25677180433449215,-0.1490037049711702,0.2099655980255999,-0.2239847252932276,0.5318195264797543,0.18994243684897233,0
147,2024-09-25 15:08:15.006884033,0,017,0.28777585141836187,-0.1627864431945332,-0.6009139278706274,-0.0755602624775505,0.20494533719399965,-0.22295651198093913,0.5475631057413067,0.17253967390900726,0
148,2024-09-25 15:08:15.083034912,0,017,0.32770823721494,-0.16696330714023888,-0.9089746661207488,-0.007155005428088701,0.20185567060969287,-0.22251036536332286,0.5207767261945563,0.15263296700629803,0
149,2024-09-25 15:08:15.144539062,0,017,0.36133928487327693,-0.17125148762487577,-1.1686084428613654,0.05432258887650776,0.20066214878163094,-0.22282757527639424,0.450530205283304,0.13202536985149463,0
150,2024-09-25 15:08:15.206087158,0,017,0.3873787543767953,-0.17564601329819596,-1.3706450391869132,0.10755290960245886,0.20125992114620658,-0.2240415843695105,0.338873430254498,0.11251066538060234,0
151,2024-09-25 15:08:15.283853027,0,017,0.4048230907978203,-0.18013186604189163,-1.5096604772919406,0.15180532619988374,0.20348718357112086,-0.22623319333523054,0.1909235809864439,0.09562771768129445,0
152,2024-09-25 15:08:15.346340820,0,017,0.41296634744042243,-0.18466993484431266,-1.5840743759850298,0.1868939644093296,0.2071507455537522,-0.2294229321930221,0.014704129686240002,0.08244390028209146,0
153,2024-09-25 15:08:15.423791016,0,017,0.4114121036783243,-0.18918768667128769,-1.595855492272839,0.21308312023218914,0.21204409018604856,-0.23356489871888486,-0.1792492852180447,0.0734060823989226,0
154,2024-09-25 15:08:16.341226074,0,017,0.40006505915356455,-0.19357097443320478,-1.5500519333047762,0.23097665615406526,0.21792357274302124,-0.23854054501621888,-0.3785168170469761,0.06828623529491352,0
155,2024-09-25 15:08:16.409041016,0,017,0.3791071631640699,-0.19765389896858496,-1.4543546704383317,0.24142480459413365,0.22444835139765543,-0.2441502317843776,-0.5697152938578004,0.06624161413952956,0
156,2024-09-25 15:08:16.476855957,0,017,0.34898505472289243,-0.2012153094887001,-1.3187622127793182,0.24545822831822725,0.23112716745836986,-0.2501078690259152,-0.7397066052755593,0.06598663690573689,0
157,2024-09-25 15:08:16.544656006,0,017,0.3104099161728645,-0.20399211594777406,-1.1551661037822005,0.24422344599282386,0.237295359050319,-0.2560477300285885,-0.8769197332790536,0.06603159255819911,0
158,2024-09-25 15:08:16.599291992,0,017,0.26434137187135975,-0.20570740558571243,-0.9766005765929775,0.23888623088408104,0.24211730454819472,-0.2615474856519274,-0.9725295434048119,0.06491855265588362,0
159,2024-09-25 15:08:16.680214844,0,017,0.21195803721472006,-0.20610427123535005,-0.7961327034089385,0.23050253094133286,0.24462787110746953,-0.2661650197246582,-1.021268929820906,0.06140008395228715,0
160,2024-09-25 15:08:16.738933105,0,017,0.15465896174976493,-0.20497975714789143,-0.6256338075147851,0.21989207876952047,0.24384859386796243,-0.2694849417014193,-1.021763402158647,0.05454911589752436,0
161,2024-09-25 15:08:17.687943848,0,017,0.09410328064664802,-0.2022155078254509,-0.47473329243918466,0.20755981709028,0.2389815155390624,-0.2711713319076714,-0.9764056912274265,0.043814888672360504,0
162,2024-09-25 15:08:17.749986816,0,017,0.03222091241502469,-0.19779860596006318,-0.3501585515967513,0.19369099565878764,0.22961174570829035,-0.27101821870292714,-0.8907984201737359,0.02902310132366777,0
163,2024-09-25 15:08:17.813157959,0,017,-0.02887001229054063,-0.19182573347013096,-0.2555385020732104,0.17821625549958986,0.21582172708017994,-0.26898200168620523,-0.7727556611691359,0.0103041644338648,0
164,2024-09-25 15:08:17.894988037,0,017,-0.08702320871014924,-0.18449010998746668,-0.19164749716132354,0.1609311146941009,0.19818854239609654,-0.2651864582614661,-0.6309785740546547,-0.012035424503866845,0
165,2024-09-25 15:08:17.962786865,0,017,-0.14023698870105308,-0.17605766307747772,-0.1569586367901932,0.14164888413552157,0.1777159530612986,-0.25990774415243323,-0.47373845718592905,-0.03764524840730565,0
166,2024-09-25 15:08:18.029123047,0,017,-0.18680089251766396,-0.1668402163832066,-0.14827354258612227,0.12034267330522241,0.15574256393518235,-0.25355030176360577,-0.30796722120098174,-0.06621154832968675,0
167,2024-09-25 15:08:18.098346924,0,017,-0.22541272553987443,-0.15717010928732128,-0.16121413505810658,0.09722047852398118,0.13381987875832338,-0.24661354407592398,-0.13897709866348487,-0.0974601764638827,0
168,2024-09-25 15:08:19.013006836,0,017,-0.2552548093115927,-0.14737878814527336,-0.19053563549429922,0.07271853274417739,0.11355986199777006,-0.2396464662626286,0.02930358019123777,-0.13109692466805395,0
169,2024-09-25 15:08:19.074595947,0,017,-0.2760021317419819,-0.13778404628156235,-0.23043212583681025,0.04746282210311072,0.09648269431538373,-0.23319794522905632,0.1939468120064705,-0.16672866484304535,0
170,2024-09-25 15:08:19.152785889,0,017,-0.28776320177682707,-0.12868899135999565,-0.2750751030506525,0.022261748778439325,0.08389123272157344,-0.2277750504641948,0.35285199677760026,-0.20381254865231588,0
171,2024-09-25 15:08:19.213408936,0,017,-0.29099922536645406,-0.12038596531980546,-0.3194133779187609,-0.0018690266375404297,0.07677384040184913,-0.22381178230009569,0.5049295908283803,-0.24167397212938288,0
172,2024-09-25 15:08:19.288376953,0,017,-0.2864576969052601,-0.11315392242118293,-0.35993887623406046,-0.023713414238486746,0.07573350901117176,-0.22164196097236855,0.6504895531645163,-0.27960336124394763,0
173,2024-09-25 15:08:19.353149902,0,017,-0.27511317907816235,-0.10724725489122519,-0.3950692443546981,-0.04194629745913818,0.08095380856445948,-0.2214753109555751,0.791453462017114,-0.3169833874687035,0
174,2024-09-25 15:08:19.415635010,0,017,-0.2581083209292071,-0.10288256960010986,-0.42505669782422706,-0.05529529883736295,0.09221232544647008,-0.2233854686213217,0.9310786643563053,-0.35337896700547755,0
175,2024-09-25 15:08:20.360059082,0,017,-0.23671274130253736,-0.10022578841543409,-0.45156849116901787,-0.06271671006758527,0.10893523219396799,-0.22731647702580438,1.0731864914286704,-0.38855886821887686,0
176,2024-09-25 15:08:20.435111084,0,017,-0.21230243805736793,-0.09937668993125087,-0.4770953168724155,-0.0635457858047976,0.13026880582899136,-0.23310167410393134,1.2210988140932912,-0.42244161295662896,0
177,2024-09-25 15:08:20.500128906,0,017,-0.18633039724556016,-0.10035231125297138,-0.5042988266849736,-0.05760629659696874,0.15514297608136682,-0.2404830745169284,1.376528409286392,-0.4549676652735318,0
178,2024-09-25 15:08:20.570785156,0,017,-0.16026553484087952,-0.10307650759789438,-0.535481399650159,-0.045254344540126126,0.18231835157219067,-0.24912786595004302,1.538682091277205,-0.48593892354189094,0
179,2024-09-25 15:08:20.638465820,0,017,-0.13551581913015828,-0.10737839060637584,-0.5723660121042518,-0.027330938902089798,0.2104222449050053,-0.2586468403154682,1.7038345770352272,-0.5149004678024638,0
180,2024-09-25 15:08:20.706284912,0,017,-0.11336626935509432,-0.11299375702754379,-0.6161845867322324,-0.005037018792980202,0.23798538577021938,-0.2686161565379188,1.8655096586632764,-0.5411137312642831,0
181,2024-09-25 15:08:20.762836914,0,017,-0.09493100926506055,-0.11956796203673821,-0.6679407024728603,0.02023244536757918,0.26349948272489015,-0.2786004445431207,2.0151609281303284,-0.5636075890161917,0
182,2024-09-25 15:08:21.712662842,0,017,-0.08110061329864608,-0.12667005149775162,-0.728728850405586,0.04706712433642014,0.2855130015209497,-0.28817957331797955,2.1430628748777076,-0.5812608834617506,0
183,2024-09-25 15:08:21.785188965,0,017,-0.07249925199948574,-0.13382406597849134,-0.7999528036001797,0.07419430663240711,0.3027463545822829,-0.29697915279543935,2.239187385788479,-0.5928931005672978,0
184,2024-09-25 15:08:21.852091064,0,017,-0.06948382261427641,-0.14054726850077212,-0.883224482230093,0.10055498466979225,0.31417423800538147,-0.30469317324237266,2.2940598506079053,-0.597375343766393,0
185,2024-09-25 15:08:21.914216064,0,017,-0.07217736247775981,-0.14638122240999576,-0.9798670024556896,0.12528914090538884,0.3190529139798214,-0.3110873156154428,2.2996846937799456,-0.5937704166595658,0
186,2024-09-25 15:08:21.988562988,0,017,-0.08049546570393369,-0.15091502449489355,-1.0902417182881188,0.14767625682648472,0.31692934711789955,-0.3159880523703245,2.250493197779492,-0.5814747010598144,0
187,2024-09-25 15:08:22.053833008,0,017,-0.09414784337818327,-0.15380900846164675,-1.213272268007631,0.167096919850512,0.3076661312882027,-0.3192719710052813,2.14408974098346,-0.5603099751671329,0
188,2024-09-25 15:08:22.114974121,0,017,-0.11264015411380215,-0.15481874794151096,-1.3463977900663913,0.18305122243196165,0.291467666431387,-0.3208609519685714,1.9815866507845008,-0.5305322428695963,0
189,2024-09-25 15:08:23.067462891,0,017,-0.13530414644791663,-0.15380880089609106,-1.4858900722098978,0.1952196416288531,0.26888447661450515,-0.3207193033301379,1.7674744140152827,-0.49276515898879497,0
190,2024-09-25 15:08:23.122499023,0,017,-0.16134744682105198,-0.15075083223399321,-1.6272503640361824,0.2035142505307816,0.24079601474335288,-0.31885127732750984,1.5090772512948256,-0.44788006396010616,0
191,2024-09-25 15:08:23.203123047,0,017,-0.1898947030698928,-0.1457129041931751,-1.7654289311982514,0.2080713869957974,0.20837337848507442,-0.31530216231035646,1.2157005823667961,-0.39684137591425545,0
192,2024-09-25 15:08:23.270912109,0,017,-0.22001430959022722,-0.13884817643820596,-1.894853903052551,0.20918118562666288,0.17301325007067248,-0.31016229917809834,0.8976581558396292,-0.34055195598340327,0
193,2024-09-25 15:08:23.335781006,0,017,-0.25074893336932846,-0.1303827158860232,-2.0094643968583252,0.20719079716020058,0.13624240147142086,-0.3035664645459054,0.5653828781930048,-0.27975026233951505,0
194,2024-09-25 15:08:23.401403809,0,017,-0.28115863177468325,-0.12059865320977252,-2.1029273702888434,0.20242787346588098,0.09960762505969793,-0.29568347646782617,0.2287670870949451,-0.21499608170458884,0
195,2024-09-25 15:08:23.463406982,0,017,-0.31036730369002047,-0.1098149810165848,-2.169049773672717,0.195175728604744,0.06456109799165974,-0.2866995099532855,-0.10317084507318175,-0.1467442434971724,0
196,2024-09-25 15:08:24.410435059,0,017,-0.33761171577936155,-0.09837012659611741,-2.2022695886622667,0.18569641234696074,0.03232848972224542,-0.27679952818969394,-0.4222905605642838,-0.07547111199491048,0
197,2024-09-25 15:08:24.485468994,0,017,-0.3623011738852644,-0.08660325498635302,-2.19810636189611,0.17426184886700052,0.003755625108412786,-0.26614626917638107,-0.7211552018217028,-0.001803047808364551,0
198,2024-09-25 15:08:24.549992188,0,017,-0.38407040085714506,-0.07483051103045232,-2.153510519834336,0.1611546609416217,-0.02081923264139577,-0.2548586606517073,-0.9929121559814749,0.07339080415962897,0
199,2024-09-25 15:08:24.621061035,0,017,-0.4027898708485217,-0.06332228759270636,-2.0670918404542906,0.14663670536264625,-0.04160256716938114,-0.24299847331841334,-1.2313830786497206,0.14894709709967272,0
200,2024-09-25 15:08:24.688337891,0,017,-0.4185309067756648,-0.052290911332135474,-1.9392214549855096,0.13091095845674666,-0.05927892361370374,-0.23057241039324203,-1.4312887961910246,0.22338251461940345,0
201,2024-09-25 15:08:24.749995850,0,017,-0.4315201431973677,-0.04188817917746778,-1.7720390463663689,0.11410613796003392,-0.0748768180535134,-0.2175477043556185,-1.5883627574032626,0.29488576599526556,0
202,2024-09-25 15:08:24.812984863,0,017,-0.4420998662929719,-0.03220418070276787,-1.5694350581828531,0.09630240093935351,-0.08960396562228407,-0.2038729592176509,-1.6992587115763103,0.3613464516792017,0
203,2024-09-25 15:08:25.763153076,0,017,-0.45067223802799433,-0.023264205427268828,-1.337014304780967,0.077589286951067,-0.10467022335397157,-0.1894977388458906,-1.761474485857996,0.4204533708373228,0
204,2024-09-25 15:08:25.826039062,0,017,-0.45761263778421946,-0.015030558841225403,-1.0819494200822573,0.05812279590862857,-0.12110903554407158,-0.17439178091860025,-1.7735384565068535,0.46986945068869923,0
205,2024-09-25 15:08:25.888525879,0,017,-0.4631775152314291,-0.007415041558331544,-0.8126588503448344,0.03815424148122568,-0.1396143453974271,-0.15856784930397558,-1.7354392162846133,0.5074512029947473,0
206,2024-09-25 15:08:25.965748047,0,017,-0.46744688282505176,-0.00029576390777471867,-0.5383461679661087,0.01802571686231384,-0.16041839878676492,-0.1421064575903826,-1.649098112707919,0.5314710114851438,0
207,2024-09-25 15:08:26.038930908,0,017,-0.4703129881463799,0.006472076250208413,-0.26846854387948554,-0.0018585653348218666,-0.18322810452471244,-0.12517555883776277,-1.5186764541908646,0.5408111554040113,0
208,2024-09-25 15:08:26.104141113,0,017,-0.4714936675931049,0.013050190296073256,-0.01216099985378289,-0.02106866413171427,-0.20722564184534725,-0.10803969434818234,-1.3505708055258718,0.5351019202285159,0
209,2024-09-25 15:08:26.174560059,0,017,-0.4705553823132186,0.01960701081971793,0.22236586762099797,-0.03917503724222646,-0.23114179291987472,-0.0910550035167888,-1.1530655397952843,0.5147809316317739,0
210,2024-09-25 15:08:27.092065185,0,017,-0.46695413090725985,0.026302605444596224,0.4283675962709352,-0.05575460665992055,-0.2533986114874684,-0.07464841900102574,-0.9357101602271326,0.48106484201703725,0
211,2024-09-25 15:08:27.159902100,0,017,-0.4600902430216493,0.033275409780382806,0.600885066286942,-0.07037647169885865,-0.2722807235240715,-0.05928518562052015,-0.7085263564226352,0.4358403546041141,0
212,2024-09-25 15:08:27.222697998,0,017,-0.44934850386176656,0.04063173271048135,0.7367319362795213,-0.08257321135082961,-0.28609187483470905,-0.04543265342979709,-0.4812156484529099,0.38150444283079465,0
213,2024-09-25 15:08:27.285010986,0,017,-0.43411194816173715,0.04843403663467461,0.8342321913312689,-0.09181649353369148,-0.29330092336041774,-0.033525123840707424,-0.26261514390682694,0.3208072497934902,0
214,2024-09-25 15:08:27.362641113,0,017,-0.4137707584044164,0.056690806855907314,0.8929128133724571,-0.09752286515170866,-0.2927008111333163,-0.023931060583276417,-0.06054421594493974,0.2567306937006948,0
215,2024-09-25 15:08:27.424168213,0,017,-0.3877407063692367,0.06535538149197243,0.9132918288755439,-0.09909984463298618,-0.28355873215814753,-0.016925776873105324,0.1181338780765065,0.19236701503780534,0
216,2024-09-25 15:08:27.498931885,0,017,-0.3554798601427889,0.07433256793999393,0.8968112631720496,-0.09602614811312421,-0.26569334458907995,-0.01267555694750417,0.2675711116038304,0.1307429022223812,0
217,2024-09-25 15:08:28.438940918,0,017,-0.3165061365894698,0.08348458485291833,0.8459231081872982,-0.08795594141166437,-0.239441130093301,-0.011236865966026823,0.38317256950564715,0.0746137669462249,0
218,2024-09-25 15:08:28.510669922,0,017,-0.27044911593410664,0.09263466695588235,0.7642188432891481,-0.07481999255613321,-0.20554555431404498,-0.01256672891016623,0.46178786223504975,0.026303545320411705,0
219,2024-09-25 15:08:28.578485107,0,017,-0.21714952061734744,0.10157554512183345,0.6563976962704945,-0.056880822310643876,-0.16503576284634144,-0.01653500944729955,0.5017950217362832,-0.012394894433835506,0
220,2024-09-25 15:08:28.646240967,0,017,-0.15676945543329074,0.11008641474603516,0.528041019239414,-0.03473409257614424,-0.11912293281585978,-0.022933494126003522,0.5032484647192357,-0.04029745733967917,0
221,2024-09-25 15:08:28.701126953,0,017,-0.08986979801564364,0.11795350257778832,0.3854026360133358,-0.009296359617511131,-0.06910210537225593,-0.03148472926102717,0.4681428117181397,-0.056887628940815844,0
222,2024-09-25 15:08:28.778396973,0,017,-0.017442019721393844,0.12498932663064409,0.23530110340813631,0.018209415117584535,-0.01626151298322874,-0.04185331465918306,0.4006204817101541,-0.062319622839789396,0
223,2024-09-25 15:08:28.842536865,0,017,0.05910625667467113,0.13104995957657417,0.08487239498327999,0.046324404677901374,0.03817647504517405,-0.053656622094296925,0.30689387529724754,-0.057342424346877724,0
224,2024-09-25 15:08:29.762056152,0,017,0.1380204644183399,0.13604777294466375,-0.059027237439700724,0.07351737422224985,0.0930740475739433,-0.06647331533884035,0.19475335176367128,-0.043148104980124447,0
225,2024-09-25 15:08:29.835647949,0,017,0.21732464080448538,0.13995299537925474,-0.19060124086624816,0.09839362834361892,0.14736576246954974,-0.0798540825728878,0.07274548818344409,-0.021169387634650424,0
226,2024-09-25 15:08:29.903487061,0,017,0.29498305577950407,0.1427807984430788,-0.3057222185887017,0.11987097739912363,0.20001985432591177,-0.09333742088566942,-0.0506783368118833,0.007117656896095087,0
227,2024-09-25 15:08:29.963799072,0,017,0.36906653554382524,0.14456961534096952,-0.4022148078192406,0.13729219632954007,0.24998410881955713,-0.10646686201317589,-0.16768007108939811,0.040307684216758954,0
228,2024-09-25 15:08:30.039037109,0,017,0.43789833485875623,0.1453597510649381,-0.47987903252900316,0.1504803080088342,0.2961552168905292,-0.11880668756768005,-0.27107126568951767,0.0770538120596891,0
229,2024-09-25 15:08:30.103538086,0,017,0.5001568061468341,0.14517712612083689,-0.540317058435279,0.15973513467430808,0.3374087886911938,-0.1299591366873651,-0.3541195679320031,0.11597145395348202,0
230,2024-09-25 15:08:30.174658936,0,017,0.5549029817403581,0.14402565314648497,-0.586601081639831,0.16577590789036162,0.372678077469113,-0.13958486979575727,-0.41055084225391253,0.15555360766497453,0
231,2024-09-25 15:08:31.117630859,0,017,0.6015172807948188,0.14189400734648763,-0.6228924244601307,0.1696558065819936,0.40103150578722513,-0.14742020819112553,-0.4349318277508759,0.1941688696405794,0
232,2024-09-25 15:08:31.179058105,0,017,0.63958479906817,0.1387768458467402,-0.654076925424646,0.17265763995601893,0.42171951719446565,-0.15328347107597265,-0.4233014862553877,0.23015401775715263,0
233,2024-09-25 15:08:31.240199951,0,017,0.6687953667380906,0.13469968798903875,-0.6853229105224391,0.17615349661151244,0.43420008067426724,-0.15707102744343365,-0.3738212779856047,0.2619664925433893,0
234,2024-09-25 15:08:31.316895996,0,017,0.6888817522684256,0.12973571150251537,-0.7214743920470088,0.18142893872638038,0.43815269920588545,-0.1587482806642388,-0.2872602754982278,0.2883438992439195,0
235,2024-09-25 15:08:31.389141113,0,017,0.699581921342047,0.12401143088466215,-0.7663938016695693,0.18950953096200562,0.4334742740197305,-0.15833730175720112,-0.1671882118634133,0.30842373019463565,0
236,2024-09-25 15:08:31.456968994,0,017,0.7006352007905531,0.1177040523755485,-0.82250307900837,0.20103468329383614,0.4202582888350721,-0.15590043113549595,-0.019819153011399554,0.32179532482487605,0
237,2024-09-25 15:08:31.524770020,0,017,0.6918421561855372,0.11103145338984145,-0.8906697968364964,0.21619705544524334,0.3987744466160571,-0.15152271936918452,0.14648791733251768,0.32848018486414143,0
238,2024-09-25 15:08:32.453696045,0,017,0.6731806756859892,0.1042319903582564,-0.9703653571640564,0.23473761868936302,0.3694574640476026,-0.14529860807026476,0.3220430191356286,0.32885895659730807,0
239,2024-09-25 15:08:32.534832031,0,017,0.6449279737749547,0.09753368475079935,-1.0599212611017295,0.25598024180679946,0.3328878717408854,-0.13732188847748847,0.4968755307145151,0.3235717623673521,0
240,2024-09-25 15:08:32.592912109,0,017,0.6077415842262675,0.09112125026016558,-1.156803113560069,0.2789000007683769,0.28974346099542747,-0.12767035054816606,0.661829286503615,0.31341495955091614,0
241,2024-09-25 15:08:32.670438965,0,017,0.5626832445302294,0.08511421421529636,-1.2579626574255687,0.30223208351030034,0.24074118998333222,-0.11638411285409779,0.8094234574620435,0.2992583840713235,0
242,2024-09-25 15:08:32.738200928,0,017,0.5111902954350501,0.07956205784744508,-1.3603207538424176,0.32462162753651125,0.18662298262629673,-0.10345350248000482,0.9342402202553035,0.2820059906947335,0
243,2024-09-25 15:08:32.796854980,0,017,0.45499590422152975,0.07445264567764397,-1.4612906533396048,0.34478177589444803,0.1281990022490861,-0.08883192776358077,1.0327996041360747,0.2625977943400143,0
244,2024-09-25 15:08:32.871393799,0,017,0.395997727918114,0.06972962570659307,-1.5591585230684855,0.36160860848206466,0.06639688618587919,-0.07246834936532559,1.1031212825969667,0.24202027160979495,0
245,2024-09-25 15:08:33.817052002,0,017,0.33610757405892855,0.06531531630236641,-1.6531730853545414,0.3742300499855088,0.002271003348018027,-0.05434109028957129,1.1442330113790657,0.22129536371448963,0
246,2024-09-25 15:08:33.876012939,0,017,0.2771424838572221,0.06113076851821909,-1.743302611364931,0.38200824137391753,-0.06301496048130717,-0.03448353840238565,1.155755023630777,0.2014510507410295,0
247,2024-09-25 15:08:33.938056885,0,017,0.22077865819020911,0.05710481478654682,-1.8297456767332467,0.38452720143881824,-0.1282015582099779,-0.013003728483137444,1.1376002217552017,0.18349064682972807,0
248,2024-09-25 15:08:34.015364990,0,017,0.16853115062130153,0.05317360622014345,-1.9123774259051316,0.38158568335079157,-0.19194552231575182,0.009900902179046824,1.0898544054101418,0.16835399555375474,0
249,2024-09-25 15:08:34.077853027,0,017,0.12172950417576202,0.049278043178621146,-1.9903205105329438,0.3732012259570529,-0.25283574417284477,0.03393555045499847,1.0128751900434392,0.15685142548284262,0
250,2024-09-25 15:08:34.156018066,0,017,0.08150195488227237,0.04536129045941577,-2.0617423308221894,0.3596142067531625,-0.3093943145983946,0.05870723223417003,0.9075700250999738,0.14957647530917875,0
251,2024-09-25 15:08:34.223830078,0,017,0.048777792695307805,0.041363080014561945,-2.1238785022539393,0.3412702970308329,-0.36006846965617206,0.08373198780464033,0.7757978990356467,0.14682310946164623,0
252,2024-09-25 15:08:35.167145020,0,017,0.024278566793402657,0.037212468591724016,-2.1732681190249097,0.3187820902498333,-0.4032706517170617,0.10845472484218387,0.6207904819027021,0.14853625075752297,0
253,2024-09-25 15:08:35.235012939,0,017,0.00846310887833996,0.03282951766738642,-2.2062110344546646,0.29290291017951137,-0.43750230791542233,0.1322842503578247,0.4473789164711603,0.15432709098107203,0
254,2024-09-25 15:08:35.293387939,0,017,0.0014352369909122443,0.028143504042652392,-2.21942262894049,0.2645400788167279,-0.4615148104977269,0.15463648398116564,0.26184819884001903,0.163561532730635,0
255,2024-09-25 15:08:35.355873047,0,017,0.0028614264647983762,0.0231204898802326,-2.2107917095653415,0.23479820376000282,-0.47443017162087564,0.17497216776906116,0.07143003734598774,0.1754839374679337,0
256,2024-09-25 15:08:35.433548096,0,017,0.0119360656078026,0.017784727581833783,-2.1800679718104377,0.20500995771555058,-0.4757934249510527,0.19282025255084145,-0.11642057398311814,0.18932916213216847,0
257,2024-09-25 15:08:35.506131836,0,017,0.02740289330731868,0.012226039724362056,-2.129248115625544,0.17670467817151692,-0.465576650207839,0.20779031063725137,-0.2947998388536851,0.20441538756155603,0
258,2024-09-25 15:08:35.573918213,0,017,0.0476381360560565,0.006595795198337131,-2.0625201311389105,0.15150157362959146,-0.4441520535649448,0.21958399176192514,-0.4580421227309989,0.22023543495262646,0
259,2024-09-25 15:08:36.517215088,0,017,0.07080634845126264,0.0010945800805700395,-1.985838944012228,0.1309664161650746,-0.41223215177047756,0.22800916492990517,-0.6022095751450942,0.23653673885004378,0
260,2024-09-25 15:08:36.584280029,0,017,0.09506676314167814,-0.0040480622869577204,-1.9063170384481916,0.11647964737744151,-0.37078339534421756,0.23298972883683075,-0.7253038979002961,0.2533405979526016,0
261,2024-09-25 15:08:36.652826904,0,017,0.11875990738182561,-0.008597410530546284,-1.831578459653915,0.10913976534400521,-0.32094764592782604,0.2345646069096368,-0.827186343572428,0.27086007182316035,0
262,2024-09-25 15:08:36.720604004,0,017,0.140517138030424,-0.012332349697687803,-1.7691855527789206,0.10971331229712954,-0.2640052520767874,0.23287881197198448,-0.9092779667436718,0.2893331622231837,0
263,2024-09-25 15:08:36.788416016,0,017,0.15929996659750797,-0.015056063333022998,-1.7261762516137442,0.11862838257553716,-0.20136994391169202,0.22817165576862505,-0.9741406013814512,0.3088346076741213,0
264,2024-09-25 15:08:36.856197021,0,017,0.17440077674531826,-0.016603539432937766,-1.7086201617006087,0.13598354122978903,-0.1345738697894063,0.22076122224160422,-1.0250154636793138,0.32912504564090844,0
265,2024-09-25 15:08:36.924006104,0,017,0.1854130226690092,-0.016850709044454886,-1.7211109387162495,0.16154565917337876,-0.06522342824078171,0.2110234921112776,-1.065374585079564,0.3495656739296083,0
266,2024-09-25 15:08:37.826668945,0,017,0.19217829608045017,-0.01572482731730347,-1.7662609703035925,0.194730516936408,0.005055417009067031,0.19937090321764814,-1.0985086371064658,0.36910611315182146,0
267,2024-09-25 15:08:37.909533936,0,017,0.1947369852874502,-0.013213510400804174,-1.844315118646754,0.2345685571237893,0.07466370563488446,0.1862362954411689,-1.1271412662628142,0.38634363166245844,0
268,2024-09-25 15:08:37.973103027,0,017,0.1932987766937882,-0.009371436986546178,-1.9529544722220837,0.2796742793224617,0.1420706357399722,0.17206083868907818,-1.1530862426496955,0.3996498368266031,0
269,2024-09-25 15:08:38.045139893,0,017,0.18822443161858685,-0.00432380498722922,-2.0873157372360645,0.32825430793665183,0.2058516071641577,0.15728109209868957,-1.177019876456329,0.4073610115435461,0
270,2024-09-25 15:08:38.112955078,0,017,0.18000444870587018,0.0017378434175421022,-2.240207533711768,0.3781747576122979,0.2647115212305501,0.14231654891921908,-1.198454312421742,0.40801319908320155,0
271,2024-09-25 15:08:38.166752197,0,017,0.1692304269701582,0.008570886725744296,-2.4025324286956047,0.42708659818748923,0.3174896722987603,0.12756252475813185,-1.215969620346662,0.40057846693150345,0
272,2024-09-25 15:08:38.244432861,0,017,0.15656979537945018,0.015901869252109326,-2.5639320354418333,0.47258920048098235,0.3631698965326669,0.11338490808496446,-1.2276802653768824,0.38464766643317433,0
273,2024-09-25 15:08:39.192375977,0,017,0.14275398486914573,0.023441366086394865,-2.713523458706187,0.5123882241693493,0.40091905033632036,0.10010736945845934,-1.2317599812444082,0.3605135040851134,0
274,2024-09-25 15:08:39.245376221,0,017,0.12857133775702337,0.03089277811022615,-2.8405389216576054,0.5444145448657565,0.43013817417252165,0.0879921613075529,-1.2267602913980473,0.3291344975129153,0
275,2024-09-25 15:08:39.328068115,0,017,0.11485470622383405,0.03796199391313863,-2.934846340994428,0.5669157792369587,0.4504980282062741,0.07722631307451985,-1.211608011377261,0.2920043251620767,0
276,2024-09-25 15:08:39.383759033,0,017,0.10246671433105205,0.044369750574286125,-2.987417778694625,0.5785454202365593,0.4619625083312599,0.06791822122516754,-1.1854570972028537,0.2509847150792762,0
277,2024-09-25 15:08:39.462763184,0,017,0.09227530345157853,0.04986327343830567,-2.99074450698166,0.5784548086427442,0.4648132779078286,0.06009955081336126,-1.1476501148072948,0.20814911383317797,0
278,2024-09-25 15:08:39.531501953,0,017,0.08510011345007072,0.054226823843159785,-2.9391906646203503,0.5663830329841892,0.45966404816405576,0.05372946567545124,-1.0978420010644185,0.16564609313366518,0
279,2024-09-25 15:08:39.585814941,0,017,0.08163404268516901,0.057293150878331194,-2.829344323940517,0.5427342581961597,0.4474489811825017,0.048702658315501635,-1.036179041264347,0.12557068114503334,0
280,2024-09-25 15:08:40.518041992,0,017,0.08237154227187211,0.058953482343251463,-2.6603982698033257,0.5086191110422111,0.4293857063403774,0.0448601104894833,-0.9634539293731317,0.08983481003860863,0
281,2024-09-25 15:08:40.585884033,0,017,0.08755822647362604,0.05916128741427727,-2.434465933069982,0.46582785819620137,0.40690858762272625,0.04199977342917801,-0.8811994059453598,0.060036542885711815,0
282,2024-09-25 15:08:40.642002197,0,017,0.09714135606891373,0.05793147222551514,-2.1566589607001476,0.4167024883699119,0.38156181218491547,0.039888279840341566,-0.7916914340987231,0.03734433987357365,0
283,2024-09-25 15:08:40.721465088,0,017,0.11071130967648019,0.05534164242004602,-1.8348096119907928,0.3638964764647856,0.35486699139900024,0.0382770918878998,-0.6978690766460036,0.02243176534476261,0
284,2024-09-25 15:08:40.781656006,0,017,0.12746948384913095,0.05153557725489816,-1.478858918719748,0.31006145221376624,0.328203868874435,0.036923239158457265,-0.6031763885706966,0.015482894549618433,0
285,2024-09-25 15:08:40.857065918,0,017,0.14626386705830793,0.0467209733407256,-1.1000394808901937,0.25753853899430024,0.3027299059000517,0.035610577843139674,-0.511322612395879,0.016247836599439777,0
286,2024-09-25 15:08:40.920541992,0,017,0.16568992391604043,0.04115626161466944,-0.7100181549504287,0.20812917410809698,0.27933631900226685,0.03416628295911607,-0.4260468144196892,0.024117003864195966,0
287,2024-09-25 15:08:41.857756104,0,017,0.184229234480157,0.03512933577546012,-0.3201460499267806,0.16298987203364557,0.258633317722403,0.03246902035153446,-0.3510123825141378,0.03819894944183813,0
288,2024-09-25 15:08:41.934968018,0,017,0.20041458460138875,0.02893304762740316,0.059097618351810786,0.12265350472244617,0.2409747140956421,0.030447574867134015,-0.28980674790021277,0.05739578389506117,0
289,2024-09-25 15:08:41.997499023,0,017,0.21301178811593025,0.02283965608286592,0.4184740945175938,0.08714124016387532,0.22652949808529207,0.028070680952881854,-0.24587518958028085,0.08047798932467015,0
290,2024-09-25 15:08:42.060208984,0,017,0.2211723658707277,0.017077819204438932,0.750245015383681,0.05611054806278849,0.21537237616924668,0.025332093562856428,-0.22226102298290093,0.10616096541083157,0
291,2024-09-25 15:08:42.137511962,0,017,0.2244986330344226,0.01181974240882338,1.048397586196958,0.02898810380132719,0.20754499003816146,0.02223794518591492,-0.22118286496293227,0.13316621639850254,0
292,2024-09-25 15:08:42.199109131,0,017,0.22301303542663697,0.007182104309460741,1.308875441099551,0.005054978095214752,0.2030676086486484,0.018800509312647096,-0.24359488056415698,0.16024253551789763,0
293,2024-09-25 15:08:42.274364014,0,017,0.21707481689590785,0.0032346004900216554,1.529807481332575,-0.016517952785465313,0.20192049479455035,0.015034455742463253,-0.28886639464242075,0.1861490218230613,0
294,2024-09-25 15:08:43.216351074,0,017,0.20727142578105598,9.309829447889579e-06,1.711581067793889,-0.036644679138894194,0.20401589471175358,0.01094954885537784,-0.35461769037846796,0.20963181380335086,0
295,2024-09-25 15:08:43.285437988,0,017,0.19427699543146584,-0.002488313340717695,1.8565017691438663,-0.05624467781450102,0.20915977998390092,0.006542385350775373,-0.4366984857917945,0.22943147504936257,0
296,2024-09-25 15:08:43.343562988,0,017,0.17869778268842412,-0.004265859906133066,1.9679389692354428,-0.07607811256803247,0.21700310424895272,0.0017962763336922918,-0.5293633846043315,0.24434542424961414,0
297,2024-09-25 15:08:43.417691895,0,017,0.16097081247531378,-0.005334088082255853,2.049154800524779,-0.0965337955778283,0.22700416609335836,-0.0033084295267004783,-0.6257477401465207,0.25334879802735116,0
298,2024-09-25 15:08:43.480483154,0,017,0.14135301536510564,-0.0057077974437872835,2.102188809624371,-0.11745025138589466,0.23843039848801761,-0.008781393325692957,-0.7186778681718148,0.2557527212103265,0
299,2024-09-25 15:08:43.541524902,0,017,0.11996815533763837,-0.005416337650047529,2.127144865223846,-0.13804223950061364,0.2504059767530324,-0.014613516292767628,-0.8017179425622941,0.25136429026698687,0
300,2024-09-25 15:08:43.618252930,0,017,0.09686291853885602,-0.0045151514380428375,2.1220656359835393,-0.1569667901205254,0.2619834017243383,-0.020771041147875684,-0.8701935583139223,0.24060264042777457,0
301,2024-09-25 15:08:44.567753174,0,017,0.07205881201004034,-0.003090238976449607,2.083373139358028,-0.17251198188078654,0.2722184848310961,-0.02718945997542358,-0.9218395475831489,0.22451743654470516,0
302,2024-09-25 15:08:44.619999023,0,017,0.045610677227809315,-0.0012550489709630237,2.0066850748352536,-0.18284806213810761,0.280253574225744,-0.03377003160132352,-0.9568502443676906,0.20467834006882168,0
303,2024-09-25 15:08:44.698120117,0,017,0.017671797399339037,0.0008546304934073059,1.8877552701131821,-0.18627249362387727,0.28540795551978737,-0.040383506898140756,-0.9773846553663962,0.1829597411580172,0
304,2024-09-25 15:08:44.771190918,0,017,-0.011457251848418238,0.003084759014071829,1.723348649536332,-0.18141317834942544,0.2872303166708575,-0.04687791805659949,-0.9867791713865054,0.1612888141452844,0
305,2024-09-25 15:08:44.836885986,0,017,-0.04131432751585631,0.005268900558815646,1.5119659741831202,-0.16738678742867477,0.2854632207392615,-0.05308067032197478,-0.9887293104394512,0.1414227589093477,0
306,2024-09-25 15:08:44.906820068,0,017,-0.07128315334589869,0.00723891414684084,1.2543811148212085,-0.14390597856320725,0.2799366994615085,-0.05879144633563216,-0.9865757458757759,0.12478545548639462,0
307,2024-09-25 15:08:44.960556885,0,017,-0.10060335089596928,0.008839406906944817,0.9539386810121726,-0.11131257360626842,0.2704668022794904,-0.06377552260132702,-0.982762686009733,0.11236323954027526,0
308,2024-09-25 15:08:45.906097900,0,017,-0.12839922321658517,0.009943982008062081,0.6165322578251851,-0.07051918076254639,0.2568174988790561,-0.06776983785806515,-0.978599189262048,0.10466210292732171,0
309,2024-09-25 15:08:45.985616943,0,017,-0.15376468931977344,0.010475294271117855,0.2502186426768045,-0.02287258062376038,0.23873462527387468,-0.0705039419927029,-0.9744547809404348,0.10175061276665412,0
310,2024-09-25 15:08:46.053402832,0,017,-0.17590276247616413,0.010429379169489534,-0.13541666847147119,0.030011056925447765,0.21603882285453307,-0.07172970812028333,-0.9703044844158778,0.10340207367195245,0
311,2024-09-25 15:08:46.115470947,0,017,-0.19426227999255927,0.009893635620987285,-0.5298813392483883,0.08638257715890628,0.18875322239186773,-0.07125412303108919,-0.9662723730420737,0.10928674808386458,0
312,2024-09-25 15:08:46.183531982,0,017,-0.2086210656753001,0.00904420612524458,-0.9222248924780166,0.14445233782083247,0.15721607774257143,-0.06897011282978496,-0.962834329697009,0.11912114634895601,0
313,2024-09-25 15:08:46.244904053,0,017,-0.21911430090954195,0.008121725931059656,-1.301409889133278,0.20246965216946736,0.12212309857954076,-0.06487754623801283,-0.9606619673659804,0.13271825739640153,0
314,2024-09-25 15:08:46.323563965,0,017,-0.22621736274988874,0.007397021948921795,-1.6567623183785274,0.2588169497231574,0.084485169979813,-0.059086675506671356,-0.9603379614452972,0.14994685942743088,0
315,2024-09-25 15:08:47.267199951,0,017,-0.23067214982466527,0.007135882848912029,-1.978487391543679,0.31210345055633054,0.04553717768669348,-0.05180338493791866,-0.9620752504986193,0.1706306613226951,0
316,2024-09-25 15:08:47.335739990,0,017,-0.23336339313777252,0.007564832930076593,-2.2581205433348455,0.3612167554525541,0.006641218884296754,-0.04330523880451094,-0.9653805174207184,0.19441706710049814,0
317,2024-09-25 15:08:47.403502930,0,017,-0.23519463855389744,0.008842103175651402,-2.4888067863065273,0.4053065102763984,-0.030809412538161628,-0.03391861506264674,-0.9686891635350205,0.22066069271068361,0
318,2024-09-25 15:08:47.467327881,0,017,-0.2370134286024793,0.011043941341678118,-2.6653885351937197,0.44371526119155574,-0.06550590190996426,-0.023997377948289093,-0.9692388790843225,0.248384234016679,0
319,2024-09-25 15:08:47.539093018,0,017,-0.2395851223319367,0.014171467081438616,-2.7844251266585722,0.4759093944580937,-0.09635551583223383,-0.013897802645263215,-0.963397155760165,0.27635087027597177,0
320,2024-09-25 15:08:47.591373047,0,017,-0.24357401085935218,0.01816957591461479,-2.8443453132161514,0.5014659531475324,-0.12258973092085791,-0.003951553822343997,-0.9473027967957829,0.3032109469087411,0
321,2024-09-25 15:08:47.668031006,0,017,-0.24949963168136924,0.02294359442332479,-2.8457926236721884,0.5201297315461215,-0.14382113234338412,0.005556682225546524,-0.9174791181146359,0.3276442227655591,0
322,2024-09-25 15:08:48.592122070,0,017,-0.2576741199584778,0.02836749090792723,-2.7919744082096076,0.5319043409047451,-0.16005753789782357,0.014406233698924634,-0.871199121268084,0.348443073598297,0
323,2024-09-25 15:08:48.659969971,0,017,-0.26814106113694597,0.03428673816509473,-2.6887111431627804,0.5371178047581125,-0.17167942782306284,0.02245360308044941,-0.80658193050484,0.36453069198711485,0
324,2024-09-25 15:08:48.726406006,0,017,-0.2806244966810202,0.04051910848999003,-2.5439877869537253,0.536413151703448,-0.17935875855848965,0.029635315806501035,-0.7225241802404255,0.3749410464959407,0
325,2024-09-25 15:08:48.795617188,0,017,-0.2945057185121692,0.04685392582934064,-2.3670667559292506,0.5306545701328519,-0.18391393280189783,0.035951483177517875,-0.6186065537255891,0.37879240680085324,0
326,2024-09-25 15:08:48.863428955,0,017,-0.3088674098156375,0.053052555760330404,-2.167470247786248,0.5207895984690406,-0.18615464876995053,0.041433470438186494,-0.49503525777706997,0.37527459797505147,0
327,2024-09-25 15:08:48.927252930,0,017,-0.32261853059733253,0.05885598174647378,-1.9541488719616096,0.5077214907597627,-0.18678334614147785,0.04611161272104407,-0.35259111243318525,0.3636671227910928,0
328,2024-09-25 15:08:48.989553955,0,017,-0.3346498020008983,0.064000915130105,-1.734916705706843,0.4922163657636124,-0.18635865453112735,0.049994325045293254,-0.19258905090752756,0.34340579319679937,0
329,2024-09-25 15:08:49.931662109,0,017,-0.34395201141804915,0.06823682593306248,-1.5160517425562718,0.4748401608383189,-0.18527748917017672,0.05305711030561587,-0.016887909589672494,0.31419394069834006,0
330,2024-09-25 15:08:49.994146973,0,017,-0.3496842337693817,0.07133600858403069,-1.301996274844838,0.4559147410668867,-0.18375230089898198,0.0552372969561834,0.17205863072485406,0.276126194019285,0
331,2024-09-25 15:08:50.075527832,0,017,-0.35123135156574076,0.07310002804572485,-1.0951899657589932,0.4354933569161945,-0.18179420996913614,0.056435049919664346,0.37116775978298,0.2297875156742937,0
332,2024-09-25 15:08:50.133979980,0,017,-0.34826910556885915,0.07337180445731556,-0.8961200703361446,0.4133733205018567,-0.17921264934300482,0.056522236971621044,0.5767935550291751,0.17629218734661808,0
333,2024-09-25 15:08:50.212872070,0,017,-0.340799622284356,0.07205244295860641,-0.7037060844580096,0.3891723817692832,-0.1756326334845421,0.055358595012746675,0.7849848908128985,0.11722355615900358,0
334,2024-09-25 15:08:50.273482178,0,017,-0.32911996796815435,0.06910996165605708,-0.5160799775583101,0.3624791173693228,-0.17053902531234957,0.0528132843909545,0.9919063519206754,0.054461682273048005,0
335,2024-09-25 15:08:50.348517822,0,017,-0.31373633909451065,0.0645711528625291,-0.3316264079409725,0.3330550141330311,-0.16336144061091262,0.04878951078854468,1.194193136093507,-0.010044106258124037,0
336,2024-09-25 15:08:51.285770996,0,017,-0.29525896206186114,0.058502212080549544,-0.14997820648492327,0.3010329545668053,-0.15358095688094686,0.04324834926271858,1.3890069697328233,-0.07445731398475491,0
337,2024-09-25 15:08:51.348256104,0,017,-0.27429867123571017,0.05098996518681749,0.027328119369000762,0.26703716170346786,-0.14079983024425538,0.03622422661841347,1.5737922091998033,-0.1371357345355424,0
338,2024-09-25 15:08:51.426363037,0,017,-0.2513865880158864,0.042130442791771534,0.1966887094483371,0.2321710931881622,-0.12474182156603429,0.027824386146859312,1.745904006434531,-0.19663595450892865,0
339,2024-09-25 15:08:51.489073975,0,017,-0.2269482947574816,0.03202676599169279,0.35273631069511807,0.19788164485525542,-0.10522998326641218,0.018213694944013238,1.9022384120256082,-0.2516854784803784,0
340,2024-09-25 15:08:51.562899902,0,017,-0.20133957988790976,0.02079757249729832,0.48898750755349335,0.16575237918868008,-0.08221035862988006,0.00759641847024964,2.0389031448344546,-0.30114080759096973,0
341,2024-09-25 15:08:51.630742920,0,017,-0.17490636601704462,0.008594298404371505,0.5987322972037052,0.13727527316183213,-0.055824007753009205,-0.0037945947129385425,2.151001293872861,-0.3439438731732566,0
342,2024-09-25 15:08:51.694506835,0,017,-0.14802628058389986,-0.004379948593867224,0.6760762198963586,0.11363633025132701,-0.026476054097982843,-0.015701232814563672,2.2326997544646536,-0.37910517630459467,0
343,2024-09-25 15:08:52.641742920,0,017,-0.12113023248060001,-0.01785924555367843,0.7169304798803325,0.09555094910177407,0.005130273915332964,-0.027842570832516962,2.2777129392060327,-0.4057326231067578,0
344,2024-09-25 15:08:52.709521973,0,017,-0.09473012467557966,-0.03151601643217176,0.7196488990097581,0.08318638193247535,0.03798916973408474,-0.03992091626063429,2.280084616271775,-0.4230858394433766,0
345,2024-09-25 15:08:52.763625977,0,017,-0.06945775744773253,-0.04497218905053746,0.6851427343282364,0.07618689887725864,0.07081247456119605,-0.05163076247650253,2.234972014150776,-0.4306201084758916,0
346,2024-09-25 15:08:52.841810059,0,017,-0.04607758474581558,-0.057818754605827,0.6165872713227335,0.0737712804314599,0.1020932864714951,-0.06266947664606905,2.1393049836116593,-0.428024357649978,0
347,2024-09-25 15:08:52.912988037,0,017,-0.025424502779929137,-0.06964883703635001,0.5189466457322753,0.07485229525056519,0.1302294731660496,-0.0727516544609099,1.9924269565138089,-0.415293602393056,0
348,2024-09-25 15:08:52.979656982,0,017,-0.008267594252526036,-0.08010586629116648,0.3984123203574351,0.07816172431385586,0.15367922813527268,-0.08162705359694707,1.7966751980982483,-0.392831775947652,0
349,2024-09-25 15:08:53.048605957,0,017,0.004832216292030486,-0.0889327961085147,0.26176686240959035,0.08238865848308906,0.1710900671896261,-0.08909530967712398,1.5575989996747215,-0.36151364277603576,0
350,2024-09-25 15:08:53.982711182,0,017,0.013604879282371302,-0.09600192227679577,0.11578388963695076,0.08631009134925399,0.1813744228044606,-0.09501061737597956,1.2836466057113352,-0.3226542530467813,0
351,2024-09-25 15:08:54.044295166,0,017,0.01809183065159445,-0.10131748965232183,-0.033160934889818264,0.0888734747928694,0.1837502631643841,-0.09927750877154945,0.9854325582292701,-0.2779015026626393,0
352,2024-09-25 15:08:54.122404053,0,017,0.018632808170604774,-0.10499716407323291,-0.17919159569466905,0.08922331349691016,0.17776563528691244,-0.10184375265477356,0.6747534638978118,-0.2290896524534061,0
353,2024-09-25 15:08:54.185170898,0,017,0.015827751772370117,-0.10723996320055967,-0.31680222527316954,0.08669372263871591,0.16330723140992465,-0.10269386754703841,0.36353053452253337,-0.17808682728017503,0
354,2024-09-25 15:08:54.262363037,0,017,0.010474311897247835,-0.10828661727415562,-0.44064421143003624,0.0807834429710954,0.14059480186460255,-0.10184307993475823,0.06290404698262132,-0.12666600371277079,0
355,2024-09-25 15:08:54.330866211,0,017,0.0034965277795550643,-0.10838186129491481,-0.5454184049613925,0.07112304031406733,0.1101735157289761,-0.09933191030504852,-0.21741135067833842,-0.07640953987968858,0
356,2024-09-25 15:08:54.398739990,0,017,-0.004121001718686666,-0.10774935010066294,-0.6259778108077007,0.057445634031822186,0.07290826742440676,-0.09522305119861768,-0.4695918886201503,-0.028632455187789826,0
357,2024-09-25 15:08:55.317729004,0,017,-0.011398179947816734,-0.10658204586943182,-0.6775824531711668,0.039565930191145335,0.029964172461248273,-0.08960007339893325,-0.6880977427928131,0.01569143827968944,0
358,2024-09-25 15:08:55.371537842,0,017,-0.017431263582879445,-0.1050397993711179,-0.6961986302992924,0.01737452110493858,-0.017242069424288794,-0.08256472474833779,-0.8699746590779646,0.055987126174444436,0
359,2024-09-25 15:08:55.448718018,0,017,-0.0214610524201961,-0.10324339955961015,-0.6788575561276804,-0.00912370124499581,-0.06710980834794386,-0.07423268415301847,-1.0149351600129783,0.09208133906609452,0
360,2024-09-25 15:08:55.510737793,0,017,-0.022913948973777777,-0.10126435098023027,-0.6241766751641683,-0.03969963231088422,-0.11791766539678183,-0.06473329175732385,-1.1251364953822907,0.12414073415358926,0
361,2024-09-25 15:08:55.588845947,0,017,-0.021402204625124176,-0.09911885142946991,-0.5330108955162685,-0.07374447415498828,-0.1678761239850242,-0.05421638534004589,-1.2047216631834223,0.15258444485471323,0
362,2024-09-25 15:08:55.650918945,0,017,-0.01669389917530824,-0.09677043069160494,-0.4089397537010055,-0.11015707379442949,-0.21517882329515153,-0.04286063308268973,-1.259223244713616,0.17800051311499782,0
363,2024-09-25 15:08:55.724610107,0,017,-0.008673748190729509,-0.09413758436294456,-0.2582086019950593,-0.1473693585386237,-0.25805515973221255,-0.030876283233918857,-1.2948329877696363,0.20104802765143998,0
364,2024-09-25 15:08:56.667396973,0,017,0.002698471820255672,-0.09110502871251508,-0.0890040822761723,-0.18353620059523387,-0.2948174618088412,-0.018503004786324714,-1.3175247673963102,0.22232246604271144,0
365,2024-09-25 15:08:56.735232178,0,017,0.01743599967159874,-0.08754365087390804,0.0896569594770361,-0.21682118661863478,-0.3238995827667613,-0.00600824343636839,-1.3321301034355946,0.24219822714387063,0
366,2024-09-25 15:08:56.800951904,0,017,0.035570085920813205,-0.08333971201730735,0.26900570548980457,-0.24566865543616756,-0.3438979005454902,0.0063139629322150025,-1.3415833352427438,0.2606908785363338,0
367,2024-09-25 15:08:56.870801025,0,017,0.0571703415267003,-0.0784230703621896,0.4413341302937647,-0.268986969805533,-0.3536296098432283,0.018150942789973593,-1.3465871250529537,0.27738913267659276,0
368,2024-09-25 15:08:56.925081055,0,017,0.08233280960405949,-0.0727840917554245,0.6005204207077341,-0.2862215302189226,-0.35219333314667034,0.029187560434304663,-1.345817483050005,0.29148612295578036,0
369,2024-09-25 15:08:57.006445801,0,017,0.111142981487999,-0.0664785586565681,0.7422510274102295,-0.2973206069298368,-0.33899191988495525,0.0391190208852315,-1.3365459731022777,0.3018978021864604,0
370,2024-09-25 15:08:57.065489014,0,017,0.14361372257205743,-0.059623352026171535,0.8638655580609064,-0.30261650264293494,-0.31371266968541434,0.04765182535422489,-1.3154347566624753,0.30743288243151656,0
371,2024-09-25 15:08:58.010312988,0,017,0.1795975382081433,-0.05238189671342842,0.9638738549810513,-0.3026814564149774,-0.27630955787254485,0.05450209098626979,-1.2793282797573278,0.3069851355866426,0
372,2024-09-25 15:08:58.071864990,0,017,0.21870286038302245,-0.044941246204185506,1.0414051448044477,-0.298225777053891,-0.2270199702721676,0.05940584724988509,-1.2259380454521878,0.29972128440045126,0
373,2024-09-25 15:08:58.149577881,0,017,0.26026144643004523,-0.037491673461665806,1.0958640562864004,-0.2900567417399867,-0.1664049811178062,0.06214223110100433,-1.1542905304500335,0.2852208014192515,0
374,2024-09-25 15:08:58.220917969,0,017,0.30335619915575046,-0.03021809472162099,1.1268646270589262,-0.27906339794956164,-0.09538972763142829,0.06255731902867603,-1.064850474753917,0.26352763916881167,0
375,2024-09-25 15:08:58.288734863,0,017,0.346875640008754,-0.023299375711867618,1.1343100531689125,-0.2661788544587698,-0.01529039289607829,0.06057748629263004,-0.9594246111930215,0.23512517056018917,0
376,2024-09-25 15:08:58.355565918,0,017,0.3895774213782605,-0.016905793914860287,1.1184445228664337,-0.2522946094507477,0.07218732151787956,0.05621016810320154,-0.8410302877783329,0.20088529094609042,0
377,2024-09-25 15:08:58.412982910,0,017,0.4301788451725006,-0.011193173656621837,1.0797955820383391,-0.23814647808213987,0.1649997204343831,0.04953453919435112,-0.7137752859448857,0.16202177845545082,0
378,2024-09-25 15:08:59.342541992,0,017,0.4674753193828993,-0.006298279226145711,1.0190426044313687,-0.22422170366223632,0.2608683577748688,0.040686432012212996,-0.5827151034041436,0.12004543570348034,0
379,2024-09-25 15:08:59.401561035,0,017,0.5004482954310833,-0.0023355889937824665,0.9369351032131847,-0.2107250081912522,0.35740154418347764,0.02984625227292076,-0.4537010405004643,0.07671517260780213,0
380,2024-09-25 15:08:59.471165039,0,017,0.5283345178337031,0.0006082050645822443,0.8343899261993621,-0.19761432889597694,0.4522022181639348,0.01723744795676738,-0.33322097947414847,0.03398025612611414,0
381,2024-09-25 15:08:59.541356934,0,017,0.5506660628816448,0.0024820430527142494,0.7127953596104767,-0.1846971008641803,0.5429663542466994,0.003132316479915137,-0.22817500095773224,-0.006096477488118603,0
382,2024-09-25 15:08:59.603395020,0,017,0.5672895220613177,0.0032773979361198765,0.5744131694413681,-0.1717578661279646,0.6275808155643756,-0.01214404978998421,-0.14553074828878673,-0.04144078680807324,0
383,2024-09-25 15:08:59.681606934,0,017,0.5783458254996376,0.003032777328734287,0.42267052192740373,-0.15867595438877474,0.7041955821447161,-0.0282148368046664,-0.09185032404049583,-0.07009224807181795,0
384,2024-09-25 15:08:59.740349121,0,017,0.5841983276560905,0.0018359734203257968,0.2621810466718386,-0.14550181421943909,0.771243516201968,-0.044655289040434795,-0.07270060554243797,-0.09035175126188268,0
385,2024-09-25 15:09:00.692616943,0,017,0.5853328801313223,-0.00017834296430546836,0.09852789471445544,-0.13247635174512407,0.827427817952153,-0.06100062090382744,-0.09195188114898437,-0.10095438154932242,0
386,2024-09-25 15:09:00.760464111,0,017,0.5822619268844735,-0.0028392949047434716,-0.06207184496321599,-0.11998834230059681,0.8717166898800656,-0.07676251628424065,-0.15102524676070783,-0.1012515359462431,0
387,2024-09-25 15:09:00.828284912,0,017,0.5754383356626009,-0.005957095925330932,-0.21318580893628467,-0.1084870564425039,0.9033472713791018,-0.0914528324880114,-0.24826583740446154,-0.09134837291185516,0
388,2024-09-25 15:09:00.896069092,0,017,0.5651801435839362,-0.009339308818252672,-0.3486871783838691,-0.09838340241879065,0.9218226822031943,-0.10460859891555126,-0.3786469840705315,-0.07213526848990395,0
389,2024-09-25 15:09:00.952537109,0,017,0.5516343411474947,-0.012801243485196243,-0.46339147724694657,-0.0899529615722966,0.9269167322438422,-0.11581690531263959,-0.533903467672233,-0.04519552917681693,0
390,2024-09-25 15:09:01.028791016,0,017,0.5348074450356698,-0.01617480848346518,-0.5537529966703623,-0.08324042732069052,0.9187064332452266,-0.1247411951397575,-0.7030496374070009,-0.012625723025711794,0
391,2024-09-25 15:09:01.099456055,0,017,0.514641496666221,-0.01932099769253414,-0.6183762488627272,-0.07799572182747473,0.8976095754339142,-0.1311446650227257,-0.8731567766695131,0.02317403682999034,0
392,2024-09-25 15:09:02.042729980,0,017,0.4910793563811222,-0.022141235892043372,-0.6580363422279796,-0.07369167211580058,0.8643842490012577,-0.13490195086167325,-1.0302984746538093,0.05970528785536722,0
393,2024-09-25 15:09:02.109639893,0,017,0.4640950410265677,-0.02457932859111991,-0.6751963082919186,-0.06962802155200455,0.8200808549069846,-0.13599577230661636,-1.160625489311741,0.09457156748597285,0
394,2024-09-25 15:09:02.170710938,0,017,0.4337102207938424,-0.02661525019287467,-0.673349434251541,-0.06506127343437654,0.7659727472019526,-0.13450387057248242,-1.2514333710340688,0.12566507747011288,0
395,2024-09-25 15:09:02.232778076,0,017,0.4000070503955735,-0.028257768536870047,-0.6565038674277514,-0.059291824388252944,0.7034902313655161,-0.13058308210443445,-1.291982904227414,0.1512926321672249,0
396,2024-09-25 15:09:02.310058105,0,017,0.36312361170511664,-0.02953734752495342,-0.6288714024115007,-0.05169516858522927,0.6341681865891944,-0.12445325744957601,-1.274006913282934,0.17020367251339963,0
397,2024-09-25 15:09:02.372062012,0,017,0.32324306635908445,-0.030496259994244785,-0.594629625120991,-0.04173778334860427,0.5596118718570688,-0.1163812345298956,-1.192106190095064,0.18154454914447193,0
398,2024-09-25 15:09:02.434042969,0,017,0.28061026527661964,-0.031174990964588256,-0.5576309098381608,-0.02901463048567246,0.481480447007124,-0.10666588264581983,-1.0442189155781862,0.18479693685311596,0
399,2024-09-25 15:09:03.392796875,0,017,0.23557191713245285,-0.031596611328149046,-0.5211152142402118,-0.013295567004483217,0.4014817106819556,-0.09562637351561498,-0.8321202304217017,0.1797409488762689,0
400,2024-09-25 15:09:03.451596924,0,017,0.18859144684725204,-0.03175115509399225,-0.487624581875206,0.005464622656114781,0.321361800831129,-0.08359327402369746,-0.5617834339525349,0.1664570011760083,0
401,2024-09-25 15:09:03.513625977,0,017,0.14021058085595958,-0.03158203716974115,-0.45916315667960356,0.02717010747855479,0.2428586426969177,-0.0708959991943226,-0.24344009086380397,0.1453585701430953,0
402,2024-09-25 15:09:03.591281982,0,017,0.09099509148622453,-0.03097864082240609,-0.4373537400904713,0.05163927228039368,0.1675943444721111,-0.057839385064594184,0.10877046036548943,0.11723053182770678,0
403,2024-09-25 15:09:03.654718994,0,017,0.04152646870214533,-0.029781835651252534,-0.42332229944694266,0.07860779847210676,0.09692363485776938,-0.04467246427009537,0.47754908175389954,0.08324864327763622,0
404,2024-09-25 15:09:03.730817139,0,017,-0.007553708950959496,-0.027804413956424415,-0.417323369416506,0.10765908268167074,0.03178750255954302,-0.03156265889573374,0.8434710927167862,0.04496500116422758,0
405,2024-09-25 15:09:03.799572998,0,017,-0.055507563236239954,-0.024856410873345013,-0.4183174465854261,0.13811296829993544,-0.027396289617713128,-0.01858400010392137,1.1862370072935267,0.004251279527778448,0
406,2024-09-25 15:09:04.738818848,0,017,-0.10152430740366677,-0.020761080651067392,-0.423638537980912,0.16891361106993574,-0.08079679248249365,-0.005716537643684525,1.486099529235137,-0.03679291089677592,0
407,2024-09-25 15:09:04.810725830,0,017,-0.14478469899736873,-0.01535812207622836,-0.42879104342405444,0.19855197168463287,-0.12915712880172717,0.007145216131315235,1.7253349102735738,-0.07594918609407329,0
408,2024-09-25 15:09:04.878349121,0,017,-0.1845161911088259,-0.008503058141394576,-0.42751066521642245,0.22507570320205364,-0.17365917481185048,0.020168239266995184,1.889560447046805,-0.11100124489669033,0
409,2024-09-25 15:09:04.940385986,0,017,-0.22002466340409632,-7.15173156950729e-05,-0.4123080686404575,0.24624363874550959,-0.21567657233408288,0.03353913613314396,1.9687010480484546,-0.1398660392829813,0
410,2024-09-25 15:09:05.014059082,0,017,-0.25072398676366164,0.010032588496283943,-0.37552476977716176,0.2598251812281213,-0.25651061128937425,0.047418893436045204,1.9574296755503804,-0.16071826947763246,0
411,2024-09-25 15:09:05.078864990,0,017,-0.27617158751883225,0.021871925697712725,-0.3106738219826227,0.2639713329155004,-0.2972095156614598,0.06191377614784174,1.8550632165953271,-0.1720919484842394,0
412,2024-09-25 15:09:05.141789062,0,017,-0.29608750522906974,0.03547455076085025,-0.2137877122556912,0.257562830612071,-0.33849794262893335,0.0770676747715432,1.6651321391427616,-0.1729645601673652,0
413,2024-09-25 15:09:06.056960205,0,017,-0.31033862660996586,0.050828267509571604,-0.08448995764945982,0.24045607053233753,-0.380783626876337,0.09286638622147363,1.3948708073130796,-0.162832683804547,0
414,2024-09-25 15:09:06.134739014,0,017,-0.31890885340673286,0.0678649273679064,0.07355508695408623,0.21357032815275281,-0.42420950968251236,0.10924410126206696,1.054707140544235,-0.14177170046360024,0
415,2024-09-25 15:09:06.197127197,0,017,-0.32189072937027585,0.08644055634279837,0.25299531515674717,0.17880626554295959,-0.4687350890747234,0.1260897757621271,0.6577235879091539,-0.11046608013617841,0
416,2024-09-25 15:09:06.258714844,0,017,-0.31950224205356176,0.10632010928346908,0.4437478530332529,0.1388381974306809,-0.5142126221305043,0.14325212932729875,0.2190721273531504,-0.07020417652623527,0
417,2024-09-25 15:09:06.335910156,0,017,-0.3121128901069728,0.12716996315620335,0.6342130994226646,0.096832537542848,-0.5604175880216409,0.16053948966599357,-0.24464701764122607,-0.02283508215190817,0
418,2024-09-25 15:09:06.406949951,0,017,-0.300283180624835,0.14856025689179658,0.8125570849795667,0.05612249237054344,-0.6070415143386564,0.1777154063380721,-0.7160277355394676,0.029323028108319805,0
419,2024-09-25 15:09:06.460040039,0,017,-0.28482681179901465,0.1699813267896052,0.9679781584854715,0.019859708783139047,-0.6536870623088171,0.19449805653031313,-1.1775067364959158,0.08363759427966322,0
420,2024-09-25 15:09:07.417375000,0,017,-0.26687156850858357,0.190873929037052,1.0918211646201328,-0.009324034282984502,-0.6998709683437416,0.210570282141834,-1.6120429458520922,0.13737853301890512,0
421,2024-09-25 15:09:07.485465088,0,017,-0.24787515022310316,0.21066518957316405,1.1783670392172458,-0.02959636834676427,-0.745013058019266,0.2256000613263103,-2.003914586740591,0.18797285523074794,0
422,2024-09-25 15:09:07.553250000,0,017,-0.2295734449550967,0.22880098009600386,1.225191884936254,-0.04009446715329157,-0.7884213750158542,0.23926648944477943,-2.3396550086493,0.23325715638596636,0
423,2024-09-25 15:09:07.620292969,0,017,-0.2138697311508907,0.24477209009717346,1.2330791022167815,-0.04094888721743961,-0.8293208133285397,0.25128636550792166,-2.6089677056720313,0.2716873978906565,0
424,2024-09-25 15:09:07.680355957,0,017,-0.20268740278679506,0.2581384526402669,1.2055194923834864,-0.03315469461841395,-0.866949132414366,0.2614374109104494,-2.805413129809552,0.30247726899627314,0
425,2024-09-25 15:09:07.741493896,0,017,-0.1978096508978088,0.26855358067460794,1.1479086083443102,-0.01833648866581271,-0.9006830371084945,0.26957256027564347,-2.926755872593388,0.3256419674473706,0
426,2024-09-25 15:09:07.819125977,0,017,-0.20073132586233997,0.2757835742838032,1.0666342019343598,0.0015081218330726418,-0.9301360712030164,0.275619430104351,-2.97489683534309,0.3419215020215437,0
427,2024-09-25 15:09:08.764906982,0,017,-0.21254900597534782,0.27971416830147916,0.9682490265204174,0.02422331922630032,-0.955202644751652,0.2795650765678816,-2.9553401035001463,0.35257977504342897,0
428,2024-09-25 15:09:08.827056885,0,017,-0.2338926024583663,0.28034508371009054,0.8588761297411884,0.047653722283031434,-0.9760552157414168,0.28143413655684324,-2.8762966690746565,0.3591221107543706,0
429,2024-09-25 15:09:08.902123047,0,017,-0.2648740695917825,0.27777387430667905,0.7439133277262789,0.06976241737892963,-0.9931092501659589,0.28126965870855747,-2.7476852917619032,0.36300124581583376,0
430,2024-09-25 15:09:08.969912109,0,017,-0.30504940721868756,0.27217275240944855,0.6279531687534115,0.08873465755381965,-1.0069712927312315,0.2791218564993011,-2.5802721191141664,0.3653739803730299,0
431,2024-09-25 15:09:09.027870117,0,017,-0.3534280582262597,0.26376476029385243,0.5147315514891442,0.10308576250641707,-1.0183870823028218,0.2750476255130157,-2.3850022788459464,0.36693836387942297,0
432,2024-09-25 15:09:09.105500977,0,017,-0.40853634725471977,0.25280311916023085,0.40701392117015867,0.11176557870266465,-1.028194068186745,0.2691203291956695,-2.1724295047305113,0.3678510655686951,0
433,2024-09-25 15:09:09.173286865,0,017,-0.4684864839583449,0.23955018119062851,0.3064908773492738,0.11423523078309188,-1.0372627683152131,0.26144224014167244,-1.9522212147151494,0.3677291624738647,0
434,2024-09-25 15:09:10.086718994,0,017,-0.5310275110449493,0.22425441296127202,0.2137544650243786,0.11050250225617378,-1.0464175913258238,0.252150670654692,-1.732846738573193,0.36575775092871754,0
435,2024-09-25 15:09:10.160010010,0,017,-0.5936294306429855,0.2071359366014725,0.1283696714579318,0.10111171405477545,-1.0563519446933576,0.24141680535351925,-1.5215079582619842,0.3609003243248587,0
436,2024-09-25 15:09:10.225524902,0,017,-0.653653304560505,0.18839381170805297,0.049144970942709136,0.08706953637459668,-1.0675499178707617,0.22944041132315057,-1.324216981702507,0.35215146785176676,0
437,2024-09-25 15:09:10.295577148,0,017,-0.70858321532312,0.1682332056528951,-0.02524775460543512,0.06968767970360486,-1.0802112125114685,0.21644038912062025,-1.1458397420792412,0.33874655693693345,0
438,2024-09-25 15:09:10.363392090,0,017,-0.7562398060547632,0.14689523282769976,-0.09540235836334844,0.05036985564215708,-1.0941910940232358,0.20264322304332075,-0.989951081944596,0.3202779111175789,0
439,2024-09-25 15:09:10.431187988,0,017,-0.7949108997277008,0.12467475447672663,-0.16047909256840698,0.03041607972162354,-1.1089824650214184,0.18827732805626973,-0.8584863502586976,0.29671936524549214,0
440,2024-09-25 15:09:10.487467041,0,017,-0.8233983535654613,0.10192578538014314,-0.21808701533285782,0.010907055515356184,-1.1237457405522306,0.1735768331063964,-0.7513752328785682,0.268390860492959,0
441,2024-09-25 15:09:11.440717041,0,017,-0.8410292667022762,0.07905969057959751,-0.264806403821304,-0.0073153219401979695,-1.1373756846067973,0.15878726656501455,-0.6664313342078675,0.23590050873855767,0
442,2024-09-25 15:09:11.503588867,0,017,-0.8476658455666222,0.056534967470456214,-0.2970807998521775,-0.023596323941893975,-1.1486038388961544,0.14416413924344357,-0.5996124576499269,0.2000877389952981,0
443,2024-09-25 15:09:11.564717041,0,017,-0.8437036209610184,0.034836065331150405,-0.31212138107427917,-0.037396139810970494,-1.1561311461986403,0.12996448727328855,-0.5455167381384018,0.1619674372718862,0
444,2024-09-25 15:09:11.641933838,0,017,-0.8300327164300039,0.014445337825491227,-0.3085281850749862,-0.04825223435735404,-1.158763898473603,0.11643684533200822,-0.4979288635409545,0.12267093000184544,0
445,2024-09-25 15:09:11.713586182,0,017,-0.8079528782651527,-0.004187364345166037,-0.28644994122452744,-0.05580463573497121,-1.1555199923653214,0.10380968966705445,-0.45035854961451754,0.08339374242520305,0
446,2024-09-25 15:09:11.781097900,0,017,-0.7790540906780281,-0.020677261614995925,-0.2473221846106532,-0.05986369081356615,-1.1456919584052292,0.09227323258093009,-0.3965933324589096,0.045359640991651094,0
447,2024-09-25 15:09:11.843144043,0,017,-0.7450860613801855,-0.03473549148255258,-0.193439555757758,-0.060463057182519146,-1.1288803351925223,0.08195651195079369,-0.33128548782193656,0.009798242036136369,0
448,2024-09-25 15:09:12.786340088,0,017,-0.7078328223318796,-0.04618769258777272,-0.12759199827792586,-0.05785359006485873,-1.1050132804459323,0.07291177422457962,-0.25054672389885874,-0.02207377455114201,0
449,2024-09-25 15:09:12.860218018,0,017,-0.6689937553807425,-0.054973994238476424,-0.0528081391197761,-0.05244726570252593,-1.074343243470677,0.06511489879711574,-0.15242483472148202,-0.049088869485868,0
450,2024-09-25 15:09:12.928002197,0,017,-0.6300701464521435,-0.06113662750122056,0.02779993234828021,-0.04475015983124257,-1.0374015476672254,0.05847747862445129,-0.03706855712011735,-0.07021400468171438,0
451,2024-09-25 15:09:12.995808105,0,017,-0.5922729718723397,-0.06480547906825039,0.111069521834187,-0.03530763105977637,-0.9949160546274238,0.05285979282594609,0.09353685109757937,-0.08469949510387609,0
452,2024-09-25 15:09:13.049405029,0,017,-0.5564819762222235,-0.066183022875999,0.19378204296019277,-0.02466979741695086,-0.9477229875252572,0.04808052873101771,0.2361763956528121,-0.09225842343814063,0
453,2024-09-25 15:09:13.130709961,0,017,-0.5232617590622336,-0.06552541830049917,0.27279020549195065,-0.013386398833007384,-0.8966996191198416,0.04392743968592912,0.3871056291492156,-0.09321026528532321,0
454,2024-09-25 15:09:13.188218018,0,017,-0.4928975178293905,-0.06312351600549962,0.34533940809541,-0.0020311777499737657,-0.8427180867268048,0.04017108780109072,0.5425973537182056,-0.08853421254255937,0
455,2024-09-25 15:09:14.142486084,0,017,-0.4654193760917434,-0.05928997102566221,0.40947714264149043,0.008762427549302376,-0.7866059572998785,0.03657751917029874,0.6991963430148247,-0.07981469193636802,0
456,2024-09-25 15:09:14.210336914,0,017,-0.4406286858280393,-0.05435080771039721,0.46439245783104394,0.018277551590420604,-0.7291071131349871,0.03291691835783345,0.8537092433438033,-0.06910024571932553,0
457,2024-09-25 15:09:14.278177002,0,017,-0.4181452181712106,-0.048636181940491574,0.5106065091839478,0.02570946150022574,-0.6708424397723862,0.028970023220380545,1.0031136695408693,-0.05872505928517113,0
458,2024-09-25 15:09:14.345892822,0,017,-0.39746018278553596,-0.04247141388734142,0.5500116189778375,0.030170689160501012,-0.6122664866581685,0.024533526018075832,1.1445575867861366,-0.05113361994083473,0
459,2024-09-25 15:09:14.413803223,0,017,-0.3779740801066473,-0.03617405821130366,0.5857141650042536,0.030702632983457694,-0.5536274160131366,0.019423401756840555,1.2754477153711279,-0.048710280735259466,0
460,2024-09-25 15:09:14.468958008,0,017,-0.3590278897873014,-0.03005813650059395,0.6216233506886446,0.026308891464174037,-0.4949603516273454,0.013477812505838084,1.3935237269628244,-0.053601619092306235,0
461,2024-09-25 15:09:14.546614990,0,017,-0.3399452081418244,-0.024438923110204465,0.6618919044521742,0.016025929921477063,-0.4361361009394656,0.006564305204583708,1.496894574857276,-0.06754594416882101,0
462,2024-09-25 15:09:15.481298096,0,017,-0.3200796160447482,-0.019630177173981793,0.7104204059911059,-0.000967917569703867,-0.3769405254976379,-0.0014084412205153205,1.5841312318298728,-0.09174620479672743,0
463,2024-09-25 15:09:15.558711914,0,017,-0.29885143354041754,-0.01593138891945044,0.7704746280664692,-0.025216456244402222,-0.3171395684361168,-0.010481265759290594,1.6544774081011866,-0.12680507105408598,0
464,2024-09-25 15:09:15.621545898,0,017,-0.27578118189149675,-0.013607377703809178,0.8442678729014026,-0.056842045564356465,-0.25652547134304204,-0.020643628807529926,1.7080692115855969,-0.17270063795542964,0
465,2024-09-25 15:09:15.695937012,0,017,-0.2505426131832894,-0.012862158341071373,0.9324153195758027,-0.09541960282296043,-0.19497223596797933,-0.031839153394426056,1.7459660779977957,-0.2287641360566483,0
466,2024-09-25 15:09:15.763711914,0,017,-0.22303058544086407,-0.013810472567040861,1.033428746516475,-0.13990398027707335,-0.13249821787111726,-0.043971699815818055,1.7699098643910653,-0.29364773758664353,0
467,2024-09-25 15:09:15.821428955,0,017,-0.1934022577141876,-0.016456624623344865,1.1435832966137423,-0.18865608641065723,-0.06929160860374678,-0.05691152595849746,1.7819095151921038,-0.3653153724119862,0
468,2024-09-25 15:09:15.884302002,0,017,-0.162053642074256,-0.020691619855528053,1.2573130040132483,-0.2395884377631656,-0.005664674192023768,-0.070507238824031,1.7838319628955126,-0.44110759792647014,0
469,2024-09-25 15:09:16.829421143,0,017,-0.1295310904281057,-0.026310395180205472,1.3679335774236951,-0.29038855950522896,0.05804696102515276,-0.08460534733755552,1.7771307819627158,-0.5179013581539469,0
470,2024-09-25 15:09:16.907604980,0,017,-0.09640952157701872,-0.03304007312164237,1.4683638680638853,-0.33873882802367933,0.12158653224097599,-0.09906824859454127,1.7627327821241905,-0.5923443826634699,0
471,2024-09-25 15:09:16.969609131,0,017,-0.06317307928031607,-0.040569997940423964,1.5517419700447541,-0.3824825345252443,0.18483292172087112,-0.11377828331302142,1.741057898903158,-0.6611352369309539,0
472,2024-09-25 15:09:17.046605225,0,017,-0.030120685967611967,-0.048582531586554456,1.612045409273972,-0.41974540308970465,0.2478001970558586,-0.1286260866576655,1.71216601025125,-0.7213158546407916,0
473,2024-09-25 15:09:17.114417969,0,017,0.0026859907186763624,-0.05678488278303815,1.644719968333472,-0.4490344579043267,0.31059190412498267,-0.14349203885119147,1.675973786023937,-0.7705171552797925,0
474,2024-09-25 15:09:17.171459961,0,017,0.035415900097239196,-0.06493410343262526,1.6471202959815072,-0.46931184859364594,0.37332609974330777,-0.1582287061310659,1.6324150205289352,-0.8070998208726294,0
475,2024-09-25 15:09:17.249732910,0,017,0.06840866899556915,-0.07284679404766503,1.6185963222043565,-0.4800329906419297,0.43605868471950177,-0.17264872643289833,1.5814849006122875,-0.83018727160788,0
476,2024-09-25 15:09:18.167709229,0,017,0.10209360962832038,-0.08039734882603355,1.5602144807710476,-0.48113797611268866,0.49874113280126764,-0.18652410544577883,1.523245803365237,-0.8396395352659725,0
477,2024-09-25 15:09:18.235528076,0,017,0.13691213953382067,-0.08751530018413156,1.474195737177268,-0.4729821972364258,0.5612186925977614,-0.19960030385235955,1.4579039103741296,-0.8360212528440095,0
478,2024-09-25 15:09:18.303365967,0,017,0.17323160064138401,-0.0941828486427612,1.363271515339341,-0.4562206525214042,0.6232353432859928,-0.21161866681501554,1.3859732860809282,-0.8205828368335962,0
479,2024-09-25 15:09:18.368190918,0,017,0.21122644041077593,-0.10042304083795259,1.2302576902491236,-0.4317001893661277,0.6844185747112732,-0.22233528321928672,1.3084624262892013,-0.7952291807424994,0
480,2024-09-25 15:09:18.426111816,0,017,0.2507435500940675,-0.10627427843390042,1.078010345692505,-0.4004023554965508,0.7442592647842148,-0.2315301955069072,1.2270333716900517,-0.7624301065617832,0
481,2024-09-25 15:09:18.503303955,0,017,0.2912142720130623,-0.11176158180292882,0.9096417181359502,-0.3634274395229928,0.8021174902407551,-0.2390112361817874,1.1441113015837612,-0.7250418146978891,0
482,2024-09-25 15:09:18.569086914,0,017,0.3316564960612133,-0.1168788808752736,0.7287298878304108,-0.3219810963766784,0.8572510828343276,-0.24462022511416023,1.062913699059057,-0.6860452767697202,0
483,2024-09-25 15:09:19.517205078,0,017,0.37074156898901334,-0.12158457667022712,0.5393593514305717,-0.27734672377698366,0.9088336004035765,-0.24824237686307743,0.9873916791853844,-0.6482529548331327,0
484,2024-09-25 15:09:19.573198975,0,017,0.406870459212332,-0.12580144365390547,0.34603148545692325,-0.23086335454512788,0.9559481546256868,-0.24981128596649466,0.9220996944623627,-0.614056421699586,0
485,2024-09-25 15:09:19.650707031,0,017,0.43825080101998737,-0.12941634282693235,0.15352602956240183,-0.18392211887822496,0.9975817577127106,-0.2493043860546576,0.8719517959022504,-0.5852519567467044,0
486,2024-09-25 15:09:19.720707031,0,017,0.46302201320931546,-0.13228767235303568,-0.03332854518754579,-0.13795327560165632,1.0326554342977576,-0.24673650198416658,0.8417649800182646,-0.5629286831719533,0
487,2024-09-25 15:09:19.773696777,0,017,0.47945288399186164,-0.13426790278281775,-0.20999885182288297,-0.09437090163128722,1.060100858109378,-0.24216215097475172,0.8355540688583735,-0.5473997895182361,0
488,2024-09-25 15:09:19.851669922,0,017,0.4861624830127695,-0.13523257437936512,-0.372512738235466,-0.05448789239425181,1.0789542197895803,-0.2356823965042731,0.8557079369544613,-0.5381926643488275,0
489,2024-09-25 15:09:19.913238037,0,017,0.48229335657707,-0.13509914938297804,-0.5174108278108352,-0.019444943011128386,1.088420285777387,-0.22744197618709094,0.9023321512956807,-0.5341335278268452,0
490,2024-09-25 15:09:20.838176025,0,017,0.4676110791260012,-0.13383080803659894,-0.6414080517305866,0.00982347166373078,1.0878856670380221,-0.21761315762072814,0.9730277377125778,-0.5335350880185595,0
491,2024-09-25 15:09:20.910166992,0,017,0.44253867707125516,-0.1314339475197999,-0.7410450577072765,0.03260309506016936,1.076898662985899,-0.20637696213816728,1.0631478260271996,-0.5344423059405762,0
492,2024-09-25 15:09:20.977956055,0,017,0.40812646532419417,-0.12795690890218364,-0.8125957163227282,0.048427389159773813,1.055140899483543,-0.19390954894446136,1.1663879741815801,-0.534876630463767,0
493,2024-09-25 15:09:21.038039062,0,017,0.3659542008398032,-0.12348814014135039,-0.8522846626412467,0.05713055803366529,1.0224075416102691,-0.18036942192959002,1.2755730945883152,-0.5330535547617521,0
494,2024-09-25 15:09:21.099602051,0,017,0.31798848205815106,-0.11814999687343498,-0.8567033597677708,0.058901746332572995,0.9786232152482005,-0.16588059788832818,1.3835059846787956,-0.5275632284990113,0
495,2024-09-25 15:09:21.181437012,0,017,0.26643604030650414,-0.11209100487398839,-0.8232998024159595,0.0543043974379916,0.9239241668352056,-0.1505186237351569,1.483673132826019,-0.5174846156101499,0
496,2024-09-25 15:09:21.249244873,0,017,0.2136108916289042,-0.10548226809384374,-0.7508606887284455,0.04424275908014316,0.8587940570127556,-0.13431145226452365,1.5706377731133065,-0.5024044213943686,0
497,2024-09-25 15:09:22.189326904,0,017,0.16179930450470306,-0.09851672539609654,-0.6399460780849733,0.02987901733310233,0.7841862070736576,-0.11725661493345602,1.6401224334022948,-0.48234778715526483,0
498,2024-09-25 15:09:22.251958008,0,017,0.11311038021230985,-0.09140334382141926,-0.4932398674536388,0.012514422873719308,0.7015635165377284,-0.09934283942101878,1.6889353979131594,-0.4576686236597173,0
499,2024-09-25 15:09:22.314445068,0,017,0.06933304272804305,-0.0843514920062252,-0.31572446129303555,-0.006544857669821295,0.612843727358598,-0.08056551176604534,1.7148972542527283,-0.42896136746359587,0
500,2024-09-25 15:09:22.395837891,0,017,0.03182814522510421,-0.0775484660390166,-0.11460940455816193,-0.02610089567332732,0.5202924835993468,-0.06093843090127542,1.7168325465656242,-0.39702489467377233,0
501,2024-09-25 15:09:22.454199951,0,017,0.0014558519246781353,-0.07113646282341168,0.10093477175319247,-0.04511874297239111,0.4263982223744552,-0.04050854382934514,1.6946410437402426,-0.362857049313222,0
502,2024-09-25 15:09:22.531136963,0,017,-0.021482053492081803,-0.06519229167758359,0.32017992099040804,-0.06272305717114304,0.3337121151798656,-0.0193692277059051,1.6494442414527275,-0.32763911167959014,0
503,2024-09-25 15:09:22.593204102,0,017,-0.037286721643099534,-0.05970934883881288,0.5314533197256605,-0.07817664882892313,0.24463221573229366,0.002339732996632962,1.583739269434513,-0.2926932540077397,0
504,2024-09-25 15:09:23.542827881,0,017,-0.04685608521382834,-0.05458493202057652,0.723051144211956,-0.09087490997160452,0.1611763840289299,0.024446317969389536,1.501419423979365,-0.2594126184869762,0
505,2024-09-25 15:09:23.598701904,0,017,-0.051578058204642625,-0.04962428201484511,0.8843697112332619,-0.10035644624859447,0.0848376888084336,0.04675881934589431,1.4075288100161478,-0.22915330041054827,0
506,2024-09-25 15:09:23.678139893,0,017,-0.053117185689853824,-0.04457161752764933,1.00698944213179,-0.10631009671240067,0.016577348510930835,0.06906181788164319,1.307701924734552,-0.20308060444079887,0
507,2024-09-25 15:09:23.738037109,0,017,-0.05315643346727207,-0.039162899566689315,1.085422025580351,-0.1085658865026288,-0.04308029425787195,0.09110006860901947,1.2073259419215714,-0.18199153322244677,0
508,2024-09-25 15:09:23.800077881,0,017,-0.05317927878920568,-0.03317913721770765,1.1173890274944227,-0.10708541424178024,-0.09393287513129966,0.11256923470724407,1.1105818935927132,-0.1661567174956362,0
509,2024-09-25 15:09:23.877229004,0,017,-0.054336866120811136,-0.02647991413615082,1.103711409611556,-0.10197803249132543,-0.1360111223663457,0.1331246266588631,1.0197113474818487,-0.15523060057417118,0
510,2024-09-25 15:09:23.938760986,0,017,-0.05739439446453046,-0.019013415559821688,1.0479691524504693,-0.09353552541518638,-0.16951428108501654,0.15240233745025822,0.934880897286577,-0.1482726687039866,0
511,2024-09-25 15:09:24.891576172,0,017,-0.06273967034999896,-0.010812253639867415,0.9560240630035887,-0.08224344067701628,-0.1947776913941854,0.1700442544365601,0.8546486590163482,-0.14387860346350118,0
512,2024-09-25 15:09:24.959424072,0,017,-0.07043789904059376,-0.0019838242601426955,0.8354153593673843,-0.06873998622436442,-0.21229336142900038,0.1857252520250496,0.7766392360687011,-0.1403612985153989,0
513,2024-09-25 15:09:25.027316162,0,017,-0.08029678018435428,0.0073004255661882535,0.6946226114261586,-0.053734362438097864,-0.22275672885439965,0.1991802417045071,0.6981017783750915,-0.13592467703046082,0
514,2024-09-25 15:09:25.095107178,0,017,-0.09190873160539931,0.016814050635542848,0.5422579212544953,-0.03792254552102852,-0.227065775588991,0.21022331958117105,0.616348124737644,-0.1288285843862873,0
515,2024-09-25 15:09:25.147944092,0,017,-0.10468547731508043,0.026282564155000687,0.38634248053196046,-0.02193106702614617,-0.2262317343080402,0.21875208671025445,0.5291565842966958,-0.11755837722750845,0
516,2024-09-25 15:09:25.225228027,0,017,-0.11792297904149053,0.03539142361717483,0.2338393261106792,-0.006293734140104857,-0.22124040499088718,0.22473815205003733,0.4351372183647871,-0.10098526748467458,0
517,2024-09-25 15:09:25.286315918,0,017,-0.1308955951350371,0.0437998200502757,0.09049629691206151,0.00855182713208992,-0.21293854648057592,0.22821307084790876,0.33404775362750694,-0.07849975319756755,0
518,2024-09-25 15:09:26.241697998,0,017,-0.14293814499361795,0.05116233610284212,-0.03914544204011794,0.02227138109447541,-0.20198160135252888,0.22925821787209671,0.22701646158381047,-0.05009976585448215,0
519,2024-09-25 15:09:26.309478027,0,017,-0.15348303193137705,0.05715437377736923,-0.15181670973806066,0.034666767552373384,-0.18882991212181877,0.22799776971952654,0.11650685691847718,-0.016393434649805534,0
520,2024-09-25 15:09:26.377085938,0,017,-0.1620594827097277,0.061494159492835064,-0.24575116023250074,0.04572589608796702,-0.1737810516337882,0.22458921472169566,0.005884964114362863,0.0215073516500128,0
521,2024-09-25 15:09:26.438697998,0,017,-0.1682871119624192,0.06395824287876792,-0.32092541156701243,0.05565016640658053,-0.15704223692296673,0.21921096847575355,-0.10135164959739587,0.062171074436039045,0
522,2024-09-25 15:09:26.512924805,0,017,-0.1718862423479958,0.06439371290963604,-0.3790698691371914,0.06482499873816161,-0.13882259138974554,0.21205252503560462,-0.20243028206692543,0.10404707264807109,0
523,2024-09-25 15:09:26.580761963,0,017,-0.17270786272587613,0.06273104387877458,-0.42335209942958063,0.07373799660729488,-0.11939316312365095,0.20331055954705465,-0.29589733968848747,0.1456286574408632,0
524,2024-09-25 15:09:26.641141846,0,017,-0.17077924033193717,0.058995935846424236,-0.45782854045405263,0.08288499209947876,-0.09908671932366889,0.19318754719367726,-0.38172683591585954,0.18554795968326085,0
525,2024-09-25 15:09:27.591756104,0,017,-0.16635922017110333,0.05331539695679894,-0.4868670271934694,0.09270623049675099,-0.07827091640361514,0.1818898852398931,-0.46102781314896685,0.2226052209799629,0
526,2024-09-25 15:09:27.645967041,0,017,-0.1599873622742951,0.04591706474380074,-0.5147379562863205,0.1035698528249187,-0.05734953046638226,0.1696308156632818,-0.5355905175828812,0.25576947884219275,0
527,2024-09-25 15:09:27.722696045,0,017,-0.15249424735923434,0.03712278082139497,-0.5454404806965869,0.11579163801662881,-0.03679498388481705,0.15664178727779557,-0.6073629716896213,0.28418402189597675,0
528,2024-09-25 15:09:27.795258056,0,017,-0.14494245531647137,0.02733312524620934,-0.5826670006692171,0.12966340988203554,-0.017160648117936866,0.14318189244551965,-0.6778097707549108,0.30716742209043946,0
529,2024-09-25 15:09:27.863073975,0,017,-0.13851045626945035,0.01699896012866748,-0.6297763630095923,0.145464473334476,0.0009566808341012793,0.12953202323099958,-0.7472397928168615,0.3241880759000447,0
530,2024-09-25 15:09:27.930895020,0,017,-0.1343786756883298,0.006585515085490228,-0.6897164794908897,0.16344081837679897,0.016973378438560362,0.11597603170937709,-0.8143699424586017,0.3348240672812487,0
531,2024-09-25 15:09:27.998756104,0,017,-0.13367001149687585,-0.0034567767072932482,-0.7648988233590822,0.1837474506851266,0.03035164167647122,0.1027844301498234,-0.8763269800605079,0.3387387166617634,0
532,2024-09-25 15:09:28.904159180,0,017,-0.13743934261240337,-0.012707087314262911,-0.8570395383382662,0.20636646968289477,0.040597664383888024,0.0902116513026488,-0.9290845801101315,0.3356888740065296,0
533,2024-09-25 15:09:28.982121826,0,017,-0.14666026572465019,-0.02078352900449627,-0.9669694456200466,0.23102908065304578,0.04723831523979279,0.07850347719321736,-0.9681643493917099,0.3255633655193949,0
534,2024-09-25 15:09:29.044557129,0,017,-0.16216371520142286,-0.027361614611367054,-1.094421266683865,0.2571665825573916,0.04979039577513407,0.06790355801036396,-0.9893622729542455,0.3084320629223286,0
535,2024-09-25 15:09:29.120821045,0,017,-0.1845203401295092,-0.0322052053695393,-1.2378072315236541,0.28389743436003934,0.047737846778059555,0.05865242353461201,-0.9893348852409859,0.28458439150866904,0
536,2024-09-25 15:09:29.184181885,0,017,-0.21389223867350007,-0.03519888020834721,-1.3940155871814732,0.31004590605075943,0.04054387588703938,0.050979045837883076,-0.9659770993424136,0.25454482074525897,0
537,2024-09-25 15:09:29.256444092,0,017,-0.24990321821349706,-0.03636691479560075,-1.558311543899238,0.33419229965147207,0.027723074118730807,0.04508570606682166,-0.9185625155064817,0.21905282043587523,0
538,2024-09-25 15:09:29.323000977,0,017,-0.29158298695540263,-0.035872500081476855,-1.724435972492989,0.35476204937770833,0.008962522220054297,0.04112691043972313,-0.8476798298761306,0.1790048321939857,0
539,2024-09-25 15:09:30.251462891,0,017,-0.3374179513705329,-0.033999808594741554,-1.8849028951246527,0.3701554945459972,-0.015761412710484948,0.03918732105868321,-0.7550685678168544,0.1353880133361008,0
540,2024-09-25 15:09:30.334692871,0,017,-0.38549267813180466,-0.031122953679465052,-2.031435372913952,0.37890444907821047,-0.04611886137355418,0.03926593094363597,-0.6434770431504926,0.08925214971749187,0
541,2024-09-25 15:09:30.391283936,0,017,-0.4336604910171411,-0.027666627913264415,-2.1555258625743265,0.3798343346868996,-0.08141306200374245,0.041269543965408655,-0.5166382740082888,0.0417412029344967,0
542,2024-09-25 15:09:30.470275879,0,017,-0.47969162517854375,-0.024065494752290723,-2.2491151351881373,0.37221493040413295,-0.1205958834497776,0.045015114951933,-0.3793452125059824,-0.005840585864142383,0
543,2024-09-25 15:09:30.530471191,0,017,-0.5214086770517505,-0.020726466150297655,-2.3052731881803905,0.35588025388685596,-0.16232675803829577,0.050242266049121555,-0.23748085221420925,-0.05198631788428143,0
544,2024-09-25 15:09:30.605915039,0,017,-0.5568440171960912,-0.01799350716579526,-2.3187172282942967,0.3312912485780885,-0.2051015896733912,0.056636729758350934,-0.0978691340734479,-0.09502058563801707,0
545,2024-09-25 15:09:30.670222900,0,017,-0.5844109162560558,-0.016116099089772472,-2.2860968656375333,0.2995217247096796,-0.24742162196069165,0.06385863955538572,0.03210015040231678,-0.133219003607033,0
546,2024-09-25 15:09:31.587758057,0,017,-0.6030382456074936,-0.015227201545065567,-2.2060304096342347,0.26215646847488505,-0.2879219449371254,0.07156461403457816,0.1450446717954365,-0.1649737301711516,0
547,2024-09-25 15:09:31.650597168,0,017,-0.6122270792639778,-0.015338397698717712,-2.078863139884086,0.22109727566480947,-0.325406133644848,0.0794159281478366,0.23422942071877625,-0.18895182966980523,0
548,2024-09-25 15:09:31.727634033,0,017,-0.6120304799682317,-0.016355016973976105,-1.9062403755122985,0.17831007874139793,-0.35881115935216135,0.08707503503758296,0.2940711093139959,-0.20421506159613168,0
549,2024-09-25 15:09:31.795914795,0,017,-0.6029872311431617,-0.01810450503191314,-1.6907577548291897,0.1355927560073778,-0.38717287699228603,0.0942020903966652,0.32040220254065405,-0.2102945805607211,0
550,2024-09-25 15:09:31.863750977,0,017,-0.5860255953301559,-0.020367271205868245,-1.4358715546877963,0.09443083712735996,-0.4096310469828903,0.10046205267159493,0.3105604581122967,-0.20721761356060944,0
551,2024-09-25 15:09:31.928937012,0,017,-0.5623298816537298,-0.02290502485691978,-1.1460047390459247,0.05594906530001742,-0.42545049533169754,0.10554103992915453,0.26340676704803057,-0.19547307704466518,0
552,2024-09-25 15:09:31.990935059,0,017,-0.5331838367746932,-0.02548698896727423,-0.8266685742150862,0.020925190324457325,-0.4340203411506107,0.1091620052060945,0.1793018300472932,-0.17591049327490987,0
553,2024-09-25 15:09:32.931689941,0,017,-0.4998445171441705,-0.027911570968608905,-0.48447349579774135,-0.010176013691229167,-0.4348335774640952,0.11109357672382894,0.06005353341128388,-0.14960185971709933,0
554,2024-09-25 15:09:33.008444092,0,017,-0.46348011041264486,-0.030019223840629,-0.1270078686790105,-0.03717961205944108,-0.4274812633979261,0.11115343383783795,-0.09112393570975054,-0.11771924880432869,0
555,2024-09-25 15:09:33.078283936,0,017,-0.4251337911469142,-0.03169853556822462,0.23736065038555174,-0.06019590433120909,-0.41168011045559416,0.10920828967760196,-0.26962203928956985,-0.08146089115931565,0
556,2024-09-25 15:09:33.146065918,0,017,-0.3856608888985001,-0.03289127211416036,0.5997079766077714,-0.07961516010741893,-0.3873225732842783,0.10516974080815163,-0.46947559708070924,-0.04202290107985202,0
557,2024-09-25 15:09:33.207688965,0,017,-0.34565716824364234,-0.03359524187032808,0.9508087641070765,-0.09606968391641402,-0.3545326952944971,0.09898732510176014,-0.6835166059855969,-0.0005952022830800922,0
558,2024-09-25 15:09:33.281688965,0,017,-0.3054407957446062,-0.03385669071213689,1.2814827217625138,-0.11034843408173489,-0.31371355672516954,0.09064491955859516,-0.9036902992615694,0.041642603476384925,0
559,2024-09-25 15:09:33.349528076,0,017,-0.26510355453176193,-0.03374797252767678,1.583075184864028,-0.12328345688905594,-0.265564786710761,0.08016545457034693,-1.121499102969066,0.08354224487569287,0
560,2024-09-25 15:09:34.283591064,0,017,-0.22458920921190703,-0.033337770126077575,1.8480210290696548,-0.1356440488956743,-0.2110525477995317,0.06762223210618928,-1.3284843727415354,0.12402379640870437,0
561,2024-09-25 15:09:34.345092041,0,017,-0.18376738642483434,-0.032666747323610225,2.070358555614336,-0.14806519237223784,-0.15134327310931206,0.053151071818070925,-1.516679461114352,0.1621194036251795,0
562,2024-09-25 15:09:34.428306152,0,017,-0.14250983721262853,-0.03173506024542256,2.2460994366180085,-0.16101713383452587,-0.08773632281786249,0.036959213323721464,-1.6790859186196183,0.19703256522469248,0
563,2024-09-25 15:09:34.496120850,0,017,-0.10077168651390933,-0.030499229344778295,2.3734414067952536,-0.17480462539859418,-0.021618201288351825,0.01933062895529344,-1.8102774443131506,0.22823111427001372,0
564,2024-09-25 15:09:34.560308105,0,017,-0.058642616662645995,-0.028876076911448268,2.4527738409917026,-0.18957052850111927,0.04557433881578661,0.0006276637014629787,-1.9070815813428716,0.2555575609724162,0
565,2024-09-25 15:09:34.621869141,0,017,-0.016331366611182615,-0.026756243549013375,2.4863597892030005,-0.20527774521233377,0.11241289659135885,-0.018715802788636906,-1.9691021789498335,0.2793035704890991,0
566,2024-09-25 15:09:34.699554932,0,017,0.025895881629219093,-0.02402655758293486,2.4776774954015477,-0.22166932400413317,0.1775698943337017,-0.038216356044189444,-1.9988282886591842,0.30020272209208476,0
567,2024-09-25 15:09:35.642746094,0,017,0.06775915737366187,-0.02059170791022461,2.430594099362943,-0.23823995093532457,0.23992266213193134,-0.057376883637643705,-2.001182754010431,0.3193250573404368,0
568,2024-09-25 15:09:35.703413086,0,017,0.10896199004034197,-0.016387162181709877,2.348618434005882,-0.2542513438363717,0.2986328947069948,-0.07572603936232362,-1.9825579403210452,0.3378804848390723,0
569,2024-09-25 15:09:35.765465088,0,017,0.14917626758021077,-0.011387462462702117,2.2344222747975957,-0.26879309670345186,0.35317649454642924,-0.09285256019435191,-1.9496137354735592,0.3569666147809438,0
570,2024-09-25 15:09:35.846213135,0,017,0.18804854360902687,-0.005616824081290981,2.089704858319547,-0.2808688771331621,0.4033101083430762,-0.1084308493904908,-1.9081674066263878,0.3773268483860574,0
571,2024-09-25 15:09:35.904719971,0,017,0.22522132276616216,0.0008424073394920426,1.9153769833465517,-0.28948911845979247,0.4489776828589468,-0.12223420045677275,-1.862396469662639,0.399188262764918,0
572,2024-09-25 15:09:35.966311035,0,017,0.26036184235687976,0.007852901485971599,1.7120245138529995,-0.2937621611378913,0.49020036496269653,-0.13413274345492515,-1.8144884244711925,0.42221781626232174,0
573,2024-09-25 15:09:36.043462891,0,017,0.293215100594542,0.015237055382126078,1.4806051857151967,-0.2929869454781637,0.527009736915996,-0.1440795165638304,-1.764706492754993,0.4455821058858727,0
574,2024-09-25 15:09:36.992816895,0,017,0.3236775200654142,0.02279498719356034,1.2232418195876964,-0.2867544347805018,0.5594309664499261,-0.15209199713567503,-1.7116080750546336,0.4680530346542139,0
575,2024-09-25 15:09:37.053306152,0,017,0.35183909720685236,0.030320890265615994,0.9438665234291491,-0.27504740112343146,0.5874608497847866,-0.15823312493197816,-1.6522335517556597,0.4881179780498696,0
576,2024-09-25 15:09:37.128462158,0,017,0.37794637941844883,0.03762017374993694,0.6484741759426056,-0.25830062841753987,0.6110059510421155,-0.16259212330046316,-1.5824291767089271,0.5041091972964181,0
577,2024-09-25 15:09:37.196239990,0,017,0.4023083846513277,0.044528862836791916,0.3449150521206132,-0.23739215305346348,0.629820686871845,-0.16526702418860417,-1.4975332755185373,0.5143781717412704,0
578,2024-09-25 15:09:37.264033936,0,017,0.4252174621289652,0.05092780925663856,0.04237989023045228,-0.2135815897806334,0.6435118547356693,-0.16635425909371662,-1.3933319041286159,0.517489718075099,0
579,2024-09-25 15:09:37.331870117,0,017,0.44692090118110445,0.05674247401775526,-0.2492228621318088,-0.18842660713529977,0.6516250132393681,-0.16594993195303845,-1.266903444153614,0.5123699178298821,0
580,2024-09-25 15:09:37.392297119,0,017,0.46761264564237154,0.061930451790712625,-0.5199423329439636,-0.16367407771940296,0.6537687177042134,-0.16416177997472894,-1.1170051589285923,0.49836023207876873,0
581,2024-09-25 15:09:38.327511962,0,017,0.48741043122344385,0.06646859017217581,-0.7605515738290527,-0.14110432699414105,0.6497306716770989,-0.16112512917468746,-0.9439183784952029,0.47518480456176587,0
582,2024-09-25 15:09:38.410747070,0,017,0.506323315023742,0.07034742320921883,-0.9633619660540124,-0.12233631314453941,0.6395766361564138,-0.15701574175884297,-0.7489596953627602,0.4428837040610563,0
583,2024-09-25 15:09:38.478591064,0,017,0.5242243537109231,0.07356970054040599,-1.1228972113168778,-0.10863856339924512,0.6237296971475712,-0.1520560956934365,-0.534024017526129,0.4017734740407068,0
584,2024-09-25 15:09:38.546365967,0,017,0.5408283777752494,0.07614604048427286,-1.23621117042989,-0.10080062138700759,0.6029931226285603,-0.14651219379523103,-0.30144555119991107,0.3524604305884626,0
585,2024-09-25 15:09:38.614181152,0,017,0.5556747138609355,0.07808844277447831,-1.3028134196884722,-0.09909170562790309,0.5784768945145028,-0.14067678680556306,-0.05421892914353576,0.29588703981578296,0
586,2024-09-25 15:09:38.681513184,0,017,0.5681224665247254,0.07940983558949279,-1.324366061025195,-0.1032903042942354,0.551449336420341,-0.13484031119833118,0.20359236203109848,0.2333756945061173,0
587,2024-09-25 15:09:38.749819092,0,017,0.5773681562411317,0.08013198535819238,-1.3043059924727187,-0.11275731925474104,0.5231865896782587,-0.12925961061295518,0.46651428881092805,0.16663549489990914,0
588,2024-09-25 15:09:39.656724854,0,017,0.5824926809149811,0.08029295333071633,-1.2474804870375105,-0.12653155784755363,0.4948679169440355,-0.12413564660946283,0.7275568174406922,0.09771146879300217,0
589,2024-09-25 15:09:39.735332031,0,017,0.5825290894743332,0.07994649688494042,-1.1599121968437724,-0.14341534332268788,0.467503327399176,-0.11960311548035538,0.9783473822682098,0.02888969685987709,0
590,2024-09-25 15:09:39.802912109,0,017,0.5765288944816448,0.07915672041286756,-1.0487177629617999,-0.16202656121808273,0.44185945304357016,-0.1157256239364939,1.2094529997100385,-0.03741373067300716,0
591,2024-09-25 15:09:39.871411133,0,017,0.5636234386654692,0.07799409095363068,-0.9219659944578507,-0.1808385586241822,0.4183845553513436,-0.1124910671479343,1.4109131323084803,-0.0987737601625921,0
