,time,MARKER,pid,L_O_DSI,L_D_DSI,L_O_DSphi,L_D_DSphi,R_O_DSI,R_D_DSI,R_O_DSphi,R_D_DSphi,trial_id
0,2024-09-25 15:07:47.160047104,0,017,-0.3067973257349505,0.3630801086781686,0.25306887694096186,0.15928322075529905,-0.47906367610234646,-0.027999862434763073,8.313535203774537,-0.8546794489385615,0
1,2024-09-25 15:07:48.113689088,0,017,-0.18985825876298953,0.31351191333787076,0.12047432325144583,0.12099250520982828,-0.2220760287290285,-0.08931225877981366,8.404846390322554,-0.8787827690114428,0
2,2024-09-25 15:07:48.185198080,0,017,-0.0774809708719501,0.26535981646009454,-0.005074601615776049,0.08499793981085986,0.02637943997923524,-0.14881065714952402,8.498436045112575,-0.9039023923404759,0
3,2024-09-25 15:07:48.252496128,0,017,0.027695197850612863,0.219782121663355,-0.1190354760078655,0.052762729923249777,0.2592201574238398,-0.20474349101273867,8.589909348253112,-0.9307204831145746,0
4,2024-09-25 15:07:48.314310144,0,017,0.12330977894281918,0.17777815923573065,-0.21899363045528952,0.02561396262958438,0.47039048519750115,-0.2556199906200894,8.675683730504716,-0.9598199531334816,0
5,2024-09-25 15:07:48.376380928,0,017,0.20728866400904705,0.14015049034893573,-0.3049134113450676,0.0047111747525766705,0.655176801034762,-0.30028262032777037,8.753244731072416,-0.9916350239385838,0
6,2024-09-25 15:07:48.456420864,0,017,0.27787087404236893,0.10748710187224003,-0.37896212925126005,-0.008998296700507067,0.8103918283988675,-0.33794381463230583,8.82119083526166,-1.0263904894843527,0
7,2024-09-25 15:07:48.515604992,0,017,0.33366874562673887,0.0801508757767997,-0.44500507022440033,-0.014851761329057984,0.934443164196361,-0.36819929250406497,8.879227918463444,-1.0640374197464906,0
8,2024-09-25 15:07:49.457831936,0,017,0.37372591427314195,0.058275964242064875,-0.5078892257803671,-0.012558837127535328,1.0272683143130106,-0.3910151316770959,8.928173822121398,-1.1042044443959382,0
9,2024-09-25 15:07:49.534610176,0,017,0.3975463608778593,0.04177715127792644,-0.572741918922555,-0.0022561965431985185,1.0901226583329233,-0.40668109014144527,8.969934346960027,-1.1461878387902973,0
10,2024-09-25 15:07:49.600255232,0,017,0.4051091765235103,0.030369176936256858,-0.6445078261017338,0.015515961924988851,1.1252782067205145,-0.4157406418222034,9.007409416122412,-1.1889978817319502,0
11,2024-09-25 15:07:49.671476992,0,017,0.3968901685819823,0.023586563379134878,-0.7277319592948206,0.03990423340581671,1.1357298683067627,-0.4189216414640073,9.044255580697047,-1.2314593013265558,0
12,2024-09-25 15:07:49.735448064,0,017,0.3738816698393665,0.020803112450473577,-0.8264181188855124,0.06984715316539408,1.1249554599475062,-0.41707881171384087,9.084420704154395,-1.2723371792940144,0
13,2024-09-25 15:07:49.807133184,0,017,0.33758816382692136,0.02126158657782369,-0.9438653146719554,0.10417323247216227,1.0967175035432848,-0.41114116202487705,9.131512984985592,-1.3104479210802664,0
14,2024-09-25 15:07:49.859548160,0,017,0.2899892634547739,0.024120788438132493,-1.0825289236142037,0.1417109613098388,1.054898887996547,-0.402059580001133,9.188232119287541,-1.3447385422470055,0
15,2024-09-25 15:07:50.817543936,0,017,0.2334681054724812,0.028511942912847848,-1.243907540350089,0.18140898771309177,1.0033814189461958,-0.39076120227981237,9.256025890655593,-1.3743555816586501,0
16,2024-09-25 15:07:50.873637888,0,017,0.17069618197001812,0.03358964497020178,-1.4283019647212156,0.22241198211648866,0.9459497830494372,-0.37811486788504683,9.334861181072997,-1.3987161281184368,0
17,2024-09-25 15:07:50.948345088,0,017,0.1044750838334005,0.038571610718160586,-1.634328414529359,0.2640331630283018,0.8861830768810339,-0.3649009295729775,9.422937483388447,-1.4175536059861604,0
18,2024-09-25 15:07:51.021014784,0,017,0.03756621363078037,0.04276854118521831,-1.8583318789948802,0.3056250111894202,0.8273310531651744,-0.3517792521819436,9.516516559391592,-1.4309218661664445,0
19,2024-09-25 15:07:51.088335872,0,017,-0.027454944683138187,0.04560258377100587,-2.0940319715749895,0.34641924545002256,0.7722034095125249,-0.33926060678867154,9.61025215779928,-1.4391795768235613,0
20,2024-09-25 15:07:51.156606976,0,017,-0.08832865101108195,0.046614109639467376,-2.332644135130975,0.3854258768279332,0.7230769357958283,-0.3276916449066277,9.698101922392464,-1.442965469033431,0
21,2024-09-25 15:07:51.211922176,0,017,-0.14325828260495005,0.045464392832755544,-2.5634880430999036,0.42143781025940236,0.6816010356418228,-0.317257725522755,9.774523283550078,-1.4431475046983946,0
22,2024-09-25 15:07:52.167625984,0,017,-0.19104747624780516,0.041940171861727514,-2.7749370382093503,0.45312312578957625,0.6487105571566094,-0.30800057238691136,9.835600190838749,-1.440747354379393,0
23,2024-09-25 15:07:52.225064960,0,017,-0.23113719609972372,0.03595449270459795,-2.9555402003447417,0.47915193326336575,0.6245989940444474,-0.2998465052317332,9.879838619003483,-1.4368645220662308,0
24,2024-09-25 15:07:52.303283968,0,017,-0.26350362098911534,0.027535016430505557,-3.095169355086348,0.49831530769516047,0.608797925383935,-0.29264462652585876,9.90840149559523,-1.4326029787902548,0
25,2024-09-25 15:07:52.364263936,0,017,-0.2884806530606583,0.016800776932990907,-3.1860306965957172,0.5096273552609014,0.6003451795546294,-0.28621377686969807,9.924655153385158,-1.4289746138665365,0
26,2024-09-25 15:07:52.426295040,0,017,-0.3065910238504057,0.003937538756420339,-3.2233903224663156,0.5124171052141138,0.597975984670327,-0.28038888829475134,9.933172132850624,-1.42676224723872,0
27,2024-09-25 15:07:52.504854016,0,017,-0.31841371663200835,-0.010819056749559328,-3.205906480966027,0.5064017534587234,0.6002966175551911,-0.2750546916295149,9.938609944850532,-1.42636861043079,0
28,2024-09-25 15:07:52.566906112,0,017,-0.32448343846727784,-0.027191226917419268,-3.1355050569567173,0.491720708589762,0.6059485656917238,-0.2701642452186033,9.944913267351058,-1.4277257733340223,0
29,2024-09-25 15:07:53.505639168,0,017,-0.3252339683032335,-0.04486257399378154,-3.0168871868455134,0.4689320362084562,0.6137573498975974,-0.2657451500911239,9.955044961806786,-1.430338770492969,0
30,2024-09-25 15:07:53.580221952,0,017,-0.3210073669543568,-0.06348150404603582,-2.8569791346233884,0.439000988104072,0.6228097359399883,-0.26188855459740557,9.971161033135509,-1.4334683661720509,0
31,2024-09-25 15:07:53.653353984,0,017,-0.3121257470104205,-0.082663511072978,-2.6646103651952737,0.40329458697951104,0.632414617840173,-0.2587128940182061,9.994975295199398,-1.4363747264656328,0
32,2024-09-25 15:07:53.721097984,0,017,-0.2989856449147466,-0.10199100807709086,-2.450378044845054,0.3635515967936322,0.6419881731527447,-0.25630982516821577,10.028036117253437,-1.4385183845696743,0
33,2024-09-25 15:07:53.780034816,0,017,-0.28212420536543864,-0.12101707913022486,-2.2263663507403657,0.3217826489346306,0.6509632075331515,-0.2546981810511176,10.071751324753137,-1.4396624150040114,0
34,2024-09-25 15:07:53.856722176,0,017,-0.2622329824311392,-0.13928358636167998,-2.005465837603958,0.28009383547236494,0.658785340893342,-0.25380908012762826,10.127162561707317,-1.4398779538601172,0
35,2024-09-25 15:07:53.920249088,0,017,-0.24013021240314147,-0.1563545036842972,-1.8004233476310605,0.24048870400015457,0.6649792034190488,-0.2535033403350218,10.194577806953275,-1.4394748387973568,0
36,2024-09-25 15:07:54.837944064,0,017,-0.21670667625481857,-0.17185279423713015,-1.6229829700052114,0.20472709699045863,0.6692335624808742,-0.25360364130422897,10.273215738400031,-1.438889107208871,0
37,2024-09-25 15:07:54.899798016,0,017,-0.1928473709649028,-0.1854892407908987,-1.4833074030217945,0.174273075871238,0.6714662097759753,-0.2539225938730436,10.361007458474477,-1.438572033454352,0
38,2024-09-25 15:07:54.978061056,0,017,-0.16934437297527147,-0.19708084428339895,-1.3895891292900868,0.15029745564874564,0.6718392331366145,-0.25427897241899894,10.454636094427249,-1.4389070673694848,0
39,2024-09-25 15:07:55.046173184,0,017,-0.14683953410767664,-0.20655990186715145,-1.3476413203090765,0.13367618097582554,0.6707006772539679,-0.2545050732760729,10.549797917289073,-1.440145948243121,0
40,2024-09-25 15:07:55.113977088,0,017,-0.12582242547682604,-0.2139696110417515,-1.3603391509155982,0.12494751375762493,0.6684634768947151,-0.2544519771783415,10.64154016030286,-1.4423475827409968,0
41,2024-09-25 15:07:55.181817088,0,017,-0.10666487015685369,-0.21944149622867784,-1.427058736754056,0.12423537048746619,0.6654874885108895,-0.25399949541075845,10.724496471954,-1.4453254337826447,0
42,2024-09-25 15:07:55.249624064,0,017,-0.08964672491917955,-0.22316185746571318,-1.5435006039289374,0.13118877950409247,0.6620407241266175,-0.2530763225511524,10.793096221041317,-1.4486404396563828,0
43,2024-09-25 15:07:56.160680960,0,017,-0.07495174149839566,-0.2253434884990883,-1.7021702259984521,0.1449953474218968,0.6583507285903613,-0.25168890275977934,10.842089075281546,-1.451678836653689,0
44,2024-09-25 15:07:56.222213120,0,017,-0.06265386153987354,-0.22621145808389767,-1.8934057591893243,0.16448518417283173,0.6546844831414703,-0.24994585410920897,10.867480482478637,-1.45379991777493,0
45,2024-09-25 15:07:56.299355904,0,017,-0.0527130603864596,-0.22599970917853907,-2.106560967027323,0.18828188902222376,0.6513982732075253,-0.24806201733804434,10.867462582037337,-1.4544870367262117,0
46,2024-09-25 15:07:56.371251968,0,017,-0.04497418496865648,-0.224953145319618,-2.3309567101818374,0.2149334206767025,0.6489539854824524,-0.24633873985999846,10.842845630008718,-1.4534512186927337,0
47,2024-09-25 15:07:56.425998080,0,017,-0.03917152162326237,-0.2233318805668862,-2.55641601563908,0.24298686861940746,0.647919732154404,-0.24513125940307604,10.79682403895859,-1.4506720977119771,0
48,2024-09-25 15:07:56.506874880,0,017,-0.034972235799538155,-0.22140982980667048,-2.7734507375779502,0.2710208548834779,0.648948851369292,-0.24481398036505017,10.734193976140185,-1.446367427211587,0
49,2024-09-25 15:07:56.562221056,0,017,-0.0320785206287224,-0.21945641282607756,-2.9733762976954203,0.29767503701506765,0.6527236330926571,-0.24574435132842035,10.660310569680744,-1.4409016505756576,0
50,2024-09-25 15:07:57.516877824,0,017,-0.030347658854169002,-0.21770244962251858,-3.14862802946084,0.32170547393665777,0.6598772833754005,-0.24822418368998742,10.580147793783736,-1.4346763791429389,0
51,2024-09-25 15:07:57.584711936,0,017,-0.029859990532728063,-0.21630881940220767,-3.293261414205199,0.34206328264765806,0.6709243965393088,-0.2524658186620845,10.497651637264127,-1.428029583674788,0
52,2024-09-25 15:07:57.652494848,0,017,-0.03090996400069967,-0.2153535144594508,-3.403342368805043,0.3579695566559728,0.6862133552192397,-0.25857192535952195,10.415339022946567,-1.421135690940249,0
53,2024-09-25 15:07:57.707069952,0,017,-0.03394780792939659,-0.21483386466867863,-3.4770079616418323,0.3689544936991024,0.7058891207616286,-0.2665271361011131,10.334117505045525,-1.4139185797463492,0
54,2024-09-25 15:07:57.787643136,0,017,-0.03949213392745972,-0.21467482151301967,-3.5142570098598633,0.3748447808506247,0.7298505969638965,-0.2761944838070628,10.253377975287325,-1.406017643385787,0
55,2024-09-25 15:07:57.847671040,0,017,-0.048010103885638866,-0.2147448397543164,-3.5166345238528676,0.3757145306048213,0.7577080156472757,-0.2873176023577894,10.171292700493863,-1.396827618357815,0
56,2024-09-25 15:07:57.923693824,0,017,-0.05978366981978141,-0.21488445868020897,-3.486854905360596,0.3718273166770482,0.7887687691979597,-0.2995361669591027,10.085192840405725,-1.38560873643228,0
57,2024-09-25 15:07:58.864429824,0,017,-0.07481009185380712,-0.2149415387509572,-3.428368781163058,0.36357948303678816,0.8220724856612972,-0.31241508871852885,9.992010836482526,-1.371647875189479,0
58,2024-09-25 15:07:58.928237824,0,017,-0.0927620274592821,-0.21479989883297695,-3.3450334762828335,0.3514533729476227,0.8564656457095142,-0.32547766990117893,9.888805247035295,-1.3544243929340867,0
59,2024-09-25 15:07:59.000154112,0,017,-0.11298979293213973,-0.21439647029892095,-3.2410828313822377,0.3360050725978378,0.8906928668192046,-0.3382354638467583,9.773317538416267,-1.3337335068641523,0
60,2024-09-25 15:07:59.067944960,0,017,-0.13455355887424997,-0.21373233615327222,-3.12132291935369,0.31789265481316964,0.9234861284587469,-0.3502175622479319,9.644465092255796,-1.3097582277852349,0
61,2024-09-25 15:07:59.129447936,0,017,-0.1563073862285546,-0.21288036021361567,-2.9912072462292376,0.2979080738727445,0.9536300865649411,-0.36100176880415036,9.502642083452013,-1.283103035603323,0
62,2024-09-25 15:07:59.191574272,0,017,-0.17704615704138346,-0.21198356314290764,-2.8565154827596295,0.27696857668511665,0.9799957317319741,-0.3702431320330494,9.349715891632417,-1.2547811032132092,0
63,2024-09-25 15:07:59.269252864,0,017,-0.19567513247754822,-0.2112387894069385,-2.722727332311655,0.25606007287500093,1.0015757028937635,-0.3776970642053027,9.188703508874898,-1.2261200104161598,0
64,2024-09-25 15:08:00.212222208,0,017,-0.2113468381370728,-0.21086964869517127,-2.594438042580349,0.23615519338398416,1.017555111387391,-0.3832395690045619,9.023191062268634,-1.1985651231454433,0
65,2024-09-25 15:08:00.284943104,0,017,-0.2235509370454763,-0.2110971889443927,-2.475045283034589,0.2181268619883115,1.0273936116112743,-0.3868824073246361,8.85663090388636,-1.1734219110770638,0
66,2024-09-25 15:08:00.352168960,0,017,-0.23217157233682592,-0.21211095077426625,-2.366695956287082,0.20267384695715132,1.030868257323588,-0.38877299300968665,8.691767234796046,-1.151636983578374,0
67,2024-09-25 15:08:00.413256960,0,017,-0.23749656794609222,-0.21404200250795452,-2.27037722301366,0.1902712931131437,1.0280751025988233,-0.3891735451737462,8.530465634627252,-1.1337046114323106,0
68,2024-09-25 15:08:00.488308224,0,017,-0.24013996509084054,-0.21694872522098882,-2.1860414254096767,0.18114063492119112,1.0194275224680918,-0.3884281703025054,8.374077250864973,-1.1197117718944314,0
69,2024-09-25 15:08:00.552751104,0,017,-0.24089924789624267,-0.22082469874494176,-2.1127744736518395,0.17523713108730316,1.0056582041911986,-0.3869301726861303,8.224208323330007,-1.1094709835564516,0
70,2024-09-25 15:08:00.614312960,0,017,-0.24063618166556808,-0.2256205375571037,-2.049131620213274,0.17227646491764295,0.9877964079588313,-0.38509222684138833,8.083523644968752,-1.1026769588749608,0
71,2024-09-25 15:08:01.567153920,0,017,-0.24023091814399164,-0.23126380204504032,-1.9936085946605462,0.17180242407999072,0.9671164544085357,-0.383317433164079,7.956229825965995,-1.0990496148623061,0
72,2024-09-25 15:08:01.623243776,0,017,-0.2405677350803779,-0.23767279041910086,-1.9450017721817765,0.17326527099177802,0.9450743043858337,-0.38197421026290174,7.848072225642259,-1.0984370231075016,0
73,2024-09-25 15:08:01.700498944,0,017,-0.24249229933418187,-0.24477024459024715,-1.9025231254626083,0.176096782871945,0.9232132164775466,-0.38137778261995753,7.765778092446579,-1.1008352232062986,0
74,2024-09-25 15:08:01.770528000,0,017,-0.24672865498246618,-0.2524992272178598,-1.8657510236281978,0.1797871487857433,0.9030001549854276,-0.38177301765527405,7.716051119536646,-1.1063096146724491,0
75,2024-09-25 15:08:01.824244992,0,017,-0.2537783101792776,-0.26083508555216817,-1.8344710500858392,0.18394490947856645,0.8856131788669066,-0.3833127687165305,7.704491267737219,-1.1148724446988292,0
76,2024-09-25 15:08:01.902107904,0,017,-0.2638235342241503,-0.26978719158027614,-1.8083872835263057,0.18831139007846967,0.8717675326448125,-0.38603754780042027,7.734797498148259,-1.126387673815433,0
77,2024-09-25 15:08:01.964665088,0,017,-0.2766600736075216,-0.2793911180190385,-1.7868190087667335,0.1927457678982167,0.8616515929880748,-0.38986945237258724,7.808347519913108,-1.1405347812701774,0
78,2024-09-25 15:08:02.917240064,0,017,-0.29170683468827074,-0.28969287416773987,-1.7686412630667585,0.1972294930488946,0.8549635232729464,-0.3946234529122501,7.924119270425747,-1.1568371347165942,0
79,2024-09-25 15:08:02.973180928,0,017,-0.30813244209275087,-0.30072141368468747,-1.7526028052587792,0.20190741753857405,0.8509934483656802,-0.4000259186002352,8.07894527993971,-1.1747469115611984,0
80,2024-09-25 15:08:03.050334976,0,017,-0.32506722410512123,-0.31245121044643387,-1.737875964970565,0.20713564712674556,0.8487217886120607,-0.40573323774020464,8.268064087274169,-1.1937542221993096,0
81,2024-09-25 15:08:03.111463168,0,017,-0.34180656207670534,-0.32477161093878304,-1.7245743441249386,0.21349396531494808,0.8469387006264342,-0.4113563198670825,8.485835372540306,-1.2134857770842193,0
82,2024-09-25 15:08:03.188434944,0,017,-0.35794074452888996,-0.337478301118437,-1.7140828731907882,0.22174164346596092,0.844376967290215,-0.4164968688412674,8.72642776549379,-1.2337741426434463,0
83,2024-09-25 15:08:03.250876928,0,017,-0.373416847338187,-0.35028297487343135,-1.7091606664233963,0.23272882863378025,0.8398283616554127,-0.4207880663778873,8.984282488610848,-1.2546672535029892,0
84,2024-09-25 15:08:03.319865856,0,017,-0.38854560574555486,-0.36282984380202904,-1.7137729571747007,0.2472936648238262,0.8322316848482274,-0.4239274539681052,9.254169950586103,-1.2763408494136328,0
85,2024-09-25 15:08:04.253916928,0,017,-0.4039308449476445,-0.3747204997828547,-1.7325830244910592,0.266159175170499,0.8207467893676601,-0.4256979161573461,9.530743744223068,-1.2989244248135607,0
86,2024-09-25 15:08:04.332065280,0,017,-0.4203161141772192,-0.38555588096165305,-1.7700711683416903,0.28980973451846637,0.8048159339488112,-0.42597789035283923,9.807726362362345,-1.3223163785673195,0
87,2024-09-25 15:08:04.394968064,0,017,-0.4384056053523423,-0.3949903841511989,-1.8293681406444278,0.3183218207337454,0.7841911837921755,-0.4247404347010598,10.077144545983758,-1.3460798938895895,0
88,2024-09-25 15:08:04.470804992,0,017,-0.4587328001575238,-0.40277599340043874,-1.911099774009387,0.35117478200974583,0.7589173890485832,-0.4220410186661437,10.329105940159552,-1.3694612385624076,0
89,2024-09-25 15:08:04.538522880,0,017,-0.4815999663477371,-0.40877820582584246,-2.0126875290719055,0.38713057938066453,0.7292880980726792,-0.41799830776521063,10.552353025686672,-1.3915053607140861,0
90,2024-09-25 15:08:04.606362112,0,017,-0.507062705776571,-0.4129689171535322,-2.1284101576976586,0.424272749198809,0.6957973948152099,-0.4127762919922571,10.735457513356085,-1.4112209230999295,0
91,2024-09-25 15:08:04.674127104,0,017,-0.5349382340831526,-0.4154147579844888,-2.25014052733346,0.460213277991896,0.6590868474928261,-0.4065723123133528,10.868290081594747,-1.4277539135076072,0
92,2024-09-25 15:08:05.590878976,0,017,-0.5648509725764812,-0.41626639064110516,-2.368379353354451,0.4923775988739368,0.6198729342434144,-0.39960615527189214,10.943384746372463,-1.4405249637051472,0
93,2024-09-25 15:08:05.660273152,0,017,-0.5963270248416189,-0.41574024193811865,-2.473257268036593,0.5182613498483336,0.5788665778340667,-0.3921053281694347,10.956884663695666,-1.4492834400815555,0
94,2024-09-25 15:08:05.728086016,0,017,-0.6288995145790109,-0.41409312711105606,-2.5554045303936346,0.5356214448214301,0.5367181896752419,-0.38429111111082914,10.90880391988282,-1.4540518393127575,0
95,2024-09-25 15:08:05.791718912,0,017,-0.6621691055394622,-0.41160128481199315,-2.6067052094553986,0.5426221533760319,0.49399174687738423,-0.37637138034071743,10.802528384083441,-1.454985899197745,0
96,2024-09-25 15:08:05.854204160,0,017,-0.6958092860762128,-0.4085451068167133,-2.6209375844077543,0.5379643089531192,0.4511374028718471,-0.36853745726691267,10.643849811331377,-1.4522379619479693,0
97,2024-09-25 15:08:05.931465984,0,017,-0.7295359663862813,-0.40518981101807294,-2.5942838022623746,0.5210109334634371,0.4084573382842736,-0.36096082647562727,10.440021459926754,-1.4459037267948762,0
98,2024-09-25 15:08:05.998085888,0,017,-0.7630506551502034,-0.4017605516833651,-2.5256653055207425,0.4918911158589589,0.3661034263965417,-0.35379437828483923,10.19914846621502,-1.4360458290181803,0
99,2024-09-25 15:08:06.933872128,0,017,-0.7959792869424822,-0.39841962024319383,-2.416844214271551,0.4515449395376042,0.3241285964252949,-0.34718220079160644,9.929910400010995,-1.4227291265481166,0
100,2024-09-25 15:08:06.996361984,0,017,-0.8278509084414032,-0.3952500122005898,-2.2723349601111784,0.40170055785967723,0.2825609601600001,-0.341268073061886,9.64139581405043,-1.406020636213155,0
101,2024-09-25 15:08:07.075991040,0,017,-0.8581281410427298,-0.3922477234766581,-2.099265015536445,0.3447967777709296,0.24147002829471903,-0.33619020032442515,9.342822410872406,-1.3859530057681142,0
102,2024-09-25 15:08:07.134874880,0,017,-0.8862471755798683,-0.3893306070924332,-1.9071747882457646,0.2838391458059393,0.20104038370881866,-0.3320660288299478,9.043095167145736,-1.3624869820004342,0
103,2024-09-25 15:08:07.212045824,0,017,-0.9116255835461667,-0.386370444016873,-1.7075079339928907,0.22216107472643953,0.16166651224403358,-0.32898227690617743,8.750329094457975,-1.3355172345299442,0
104,2024-09-25 15:08:07.274078976,0,017,-0.9336489467521797,-0.383239975394238,-1.5125936544721952,0.1630960037793796,0.12402860850566245,-0.3269980738395703,8.47152067771974,-1.3049410057247988,0
105,2024-09-25 15:08:07.336564992,0,017,-0.9516726827325952,-0.37985419828912237,-1.3342760979059676,0.10962044259809084,0.08910253648596904,-0.32615638034282257,8.21248472506549,-1.2707685309604997,0
106,2024-09-25 15:08:08.267860224,0,017,-0.9650408714008888,-0.37619238680317096,-1.182617032261588,0.06405845143100704,0.05811645401371417,-0.32649639833221483,7.977996307632103,-1.2332194740354776,0
107,2024-09-25 15:08:08.335333888,0,017,-0.9731052336198401,-0.3723038791048365,-1.0650275832844476,0.02792104977052673,0.03249281227787082,-0.3280661789653282,7.771943211532595,-1.192750109198333,0
108,2024-09-25 15:08:08.396492800,0,017,-0.975261864294323,-0.3683047510162787,-0.9858912705299355,0.0018891141490813333,0.01377283126918245,-0.33093518544064227,7.597340787436137,-1.150005251898888,0
109,2024-09-25 15:08:08.458019072,0,017,-0.9710314421267637,-0.3643644442085547,-0.9465067771967066,-0.014111274477908501,0.003490869084802569,-0.3351977392404154,7.456201620913434,-1.1057438634638286,0
110,2024-09-25 15:08:08.539045888,0,017,-0.9601599839453324,-0.3606802182622262,-0.9451594565573592,-0.02079482697204188,0.0029884144678997793,-0.34095730598946317,7.349359607453079,-1.0607987557985707,0
111,2024-09-25 15:08:08.606863104,0,017,-0.9426946156263545,-0.3574475058147328,-0.9772405529234786,-0.019395733466470715,0.013195623992537512,-0.34829663278587614,7.276406359048063,-1.0161004637856725,0
112,2024-09-25 15:08:08.673051136,0,017,-0.9190260486831874,-0.3548381823440087,-1.035435842306854,-0.011564612984364531,0.03443709201197219,-0.35725109735954896,7.2358527246542526,-0.9727476135300871,0
113,2024-09-25 15:08:09.617657856,0,017,-0.8899127438950775,-0.3529884493513163,-1.1100942035963168,0.0007051061943376866,0.06632088791766876,-0.3677949531897175,7.225435378962662,-0.9320665354252833,0
114,2024-09-25 15:08:09.685043200,0,017,-0.8564692581121588,-0.3519912700255105,-1.1899578670883975,0.015152267323718575,0.10774375413526466,-0.37983661272198216,7.242369889442902,-0.8956044173488293,0
115,2024-09-25 15:08:09.746555136,0,017,-0.8200807809361752,-0.35189483535696786,-1.2633461244382085,0.029381408604967994,0.15702097680745472,-0.3932222613721825,7.283498063676357,-0.8650441237088676,0
116,2024-09-25 15:08:09.808578816,0,017,-0.7822577406905948,-0.35271024462813555,-1.3195738708351756,0.041073886977131255,0.2121174289824993,-0.4077544715712613,7.345413994828419,-0.8420640370101301,0
117,2024-09-25 15:08:09.888891904,0,017,-0.7444992200164057,-0.35442082956516685,-1.3501419158514165,0.04822202675239999,0.27090721262212497,-0.42322138552218075,7.424511875409942,-0.8281584492187928,0
118,2024-09-25 15:08:09.948023808,0,017,-0.7082011620487283,-0.3569829102668577,-1.3493597437279339,0.04930267197272104,0.33138983020493246,-0.439420119020496,7.516781932458121,-0.8244128153390846,0
119,2024-09-25 15:08:10.011256064,0,017,-0.6745799692595337,-0.360320857613937,-1.3143909288006916,0.0433481374381892,0.3918446858767742,-0.4561675643997928,7.617415582583859,-0.8312417954451288,0
120,2024-09-25 15:08:10.967700992,0,017,-0.6445878064028454,-0.36432809551079043,-1.244907664254017,0.02993301988780169,0.4509163670695919,-0.473303055223979,7.7205878366209335,-0.8481511294961559,0
121,2024-09-25 15:08:11.024609024,0,017,-0.6188474821750778,-0.3688777306387153,-1.1425964991273037,0.009127320519345668,0.5076001209311678,-0.49068305009934443,7.8197512191413825,-0.8736264649490572,0
122,2024-09-25 15:08:11.103354112,0,017,-0.5976411284938693,-0.3738340991214546,-1.0107481339610898,-0.018548124575580065,0.5611335925624086,-0.5081648312010215,7.908487096982808,-0.9052295900014511,0
123,2024-09-25 15:08:11.171140864,0,017,-0.5809407395979388,-0.3790568984337681,-0.8540256820056275,-0.05216421447741685,0.6108667674282915,-0.5255849289097296,7.981727166527291,-0.9399045732720803,0
124,2024-09-25 15:08:11.238928896,0,017,-0.5684391489834428,-0.3844017931768961,-0.6783847833490524,-0.09042589172875624,0.6561829200435192,-0.5427451795878729,8.037014953443222,-0.9744187203798742,0
125,2024-09-25 15:08:11.306700032,0,017,-0.5595648004153033,-0.3897271527735652,-0.49116982877558063,-0.13169346583320743,0.6964841138611312,-0.55941237640929,8.075375192113109,-1.00582187620722,0
126,2024-09-25 15:08:11.374519040,0,017,-0.5534970542007581,-0.39490840621570156,-0.30138294419086165,-0.17397582107898954,0.7312127311137336,-0.5753244049775554,8.101405953798265,-1.0318073384673865,0
127,2024-09-25 15:08:12.312794880,0,017,-0.549190932121479,-0.3998545144988224,-0.11987252588541018,-0.2149303357001989,0.7598930920097938,-0.5901966643367863,8.122464740101709,-1.0508983275531378,0
128,2024-09-25 15:08:12.385795072,0,017,-0.5454034748377619,-0.4045234884752395,0.04096845614830431,-0.25192563220620273,0.7821980370832102,-0.6037356778903306,8.147192913435704,-1.062457639983331,0
129,2024-09-25 15:08:12.451980288,0,017,-0.5407333906368924,-0.4089331555380569,0.16819108786325151,-0.28220306543041224,0.7980246661981502,-0.6156667140624583,8.183862863150619,-1.0665849971559969,0
130,2024-09-25 15:08:12.513582080,0,017,-0.5337041653172987,-0.41315668476677087,0.249726976575435,-0.3031213592603791,0.8075380130576026,-0.625766308875248,8.238947979425676,-1.0639823714962382,0
131,2024-09-25 15:08:12.575198976,0,017,-0.5228904572351346,-0.4172970150930052,0.2757813440278948,-0.3124265556799947,0.8111691923369888,-0.6338855136010778,8.316120798692967,-1.0558387080264742,0
132,2024-09-25 15:08:12.652884992,0,017,-0.5070503701795559,-0.421452891326038,0.2398183560678733,-0.308492833743929,0.8095999736154845,-0.6399625374641235,8.415818072348884,-1.0437464707854194,0
133,2024-09-25 15:08:12.724854016,0,017,-0.48524324697891225,-0.4256974786567609,0.1390667510222167,-0.29050624382835155,0.8037517220985817,-0.6440320390218842,8.535414099931632,-1.0296245507798787,0
134,2024-09-25 15:08:13.667920128,0,017,-0.456951854481749,-0.4300755494211318,-0.02535937997596771,-0.2585664034068692,0.7947441855524452,-0.6462317801918452,8.669809712786027,-1.0155962862153831,0
135,2024-09-25 15:08:13.735793152,0,017,-0.4222118721111516,-0.4346079381300083,-0.24863644896509732,-0.21367574031578568,0.7837881669985489,-0.6467982284059343,8.812122037975186,-1.0037917271476342,0
136,2024-09-25 15:08:13.803544064,0,017,-0.3816897878411075,-0.4392944310692502,-0.522622885615839,-0.1576215258989651,0.7720346771733827,-0.6460443086388138,8.954298590308554,-0.9961054094882467,0
137,2024-09-25 15:08:13.856982016,0,017,-0.3366391396703948,-0.44411899210531197,-0.8363152956411618,-0.09280696140028549,0.7604454709126788,-0.6443246432725968,9.08765021385302,-0.9939735319573053,0
138,2024-09-25 15:08:13.934695936,0,017,-0.28874481368727456,-0.4490611410453049,-1.1762734695771617,-0.022075773356770894,0.749731885280344,-0.6420023780101923,9.203319346747241,-0.9982045065651785,0
139,2024-09-25 15:08:14.006922752,0,017,-0.23994264459673165,-0.45410520305471114,-1.527155575644408,0.051484502203064934,0.7403600732999418,-0.6394256268532961,9.292721193981833,-1.0088720008363534,0
140,2024-09-25 15:08:14.073414144,0,017,-0.19227023311118774,-0.4592389924327444,-1.8725682552373986,0.12478190584057172,0.732591878680917,-0.6369107752540941,9.348074614210175,-1.0252969934842273,0
141,2024-09-25 15:08:15.006884096,0,017,-0.1477240496232465,-0.4644493613436686,-2.1961884387937243,0.19496612337403488,0.7265371835776734,-0.6347302323079117,9.363084292545786,-1.0461397538755626,0
142,2024-09-25 15:08:15.083034880,0,017,-0.10811074526082465,-0.46972645854546646,-2.4829468761025564,0.2596207363033378,0.7222067635980923,-0.6331081409444819,9.333662142034562,-1.069579356846349,0
143,2024-09-25 15:08:15.144539136,0,017,-0.0749471708454679,-0.47507237962576027,-2.72015955043518,0.3168849744910192,0.7195517118013192,-0.6322242765092551,9.25852077439981,-1.0935465172530177,0
144,2024-09-25 15:08:15.206087168,0,017,-0.04943998729712796,-0.4804997360538126,-2.8985143106480744,0.36552177117539725,0.7184805960131148,-0.6322175483346923,9.13955183224389,-1.115993682963124,0
145,2024-09-25 15:08:15.283853056,0,017,-0.03250009883778312,-0.48601662180385463,-3.0126779116183298,0.40492868528865,0.7188726456246095,-0.6331817524566627,8.981955907270944,-1.1351789056197767,0
146,2024-09-25 15:08:15.346340864,0,017,-0.024744395839179735,-0.49160890796956613,-3.061348834402513,0.43507688421161794,0.7206064120025625,-0.6351566200187264,8.794105335208922,-1.1499166898790363,0
147,2024-09-25 15:08:15.423791104,0,017,-0.026491554365246316,-0.4972282358259502,-3.046864979441091,0.4563940261857699,0.7235783641507096,-0.6381196789136118,8.58715692876444,-1.1597495476053716,0
148,2024-09-25 15:08:16.341225984,0,017,-0.037780083086066535,-0.5027807276201259,-2.9746457192425306,0.46963412315065595,0.7276661988596683,-0.6419767648350956,8.374405890632076,-1.1650076409495185,0
149,2024-09-25 15:08:16.409040896,0,017,-0.05840252488085162,-0.50811211553197,-2.852733961539801,0.47577594277366236,0.73264362094192,-0.6465481348225529,8.170289978528222,-1.1667312813759974,0
150,2024-09-25 15:08:16.476856064,0,017,-0.08792096135151642,-0.5130003932356867,-2.691518482048683,0.4759607163242511,0.73810225005892,-0.6515570113373722,7.989032286834968,-1.1664588374689744,0
151,2024-09-25 15:08:16.544656128,0,017,-0.125662625689341,-0.5171693413736504,-2.5033906634769902,0.47143324816253956,0.7434103472095003,-0.6566324359658836,7.843128001720944,-1.1659358114510834,0
152,2024-09-25 15:08:16.599291904,0,017,-0.17073308800280854,-0.5203205146350887,-2.3019873827304935,0.4634407051701256,0.7477014024038895,-0.6613318981647276,7.741988102400769,-1.1668321952177492,0
153,2024-09-25 15:08:16.680214784,0,017,-0.22204373301112626,-0.5221722192117283,-2.1009734511876257,0.45308638553296193,0.7499105127183612,-0.6651809631364928,7.691011799423303,-1.1705351200294318,0
154,2024-09-25 15:08:16.738932992,0,017,-0.2782953461792446,-0.5224987679960872,-1.9126597879678133,0.4411823316787127,0.7489066468312932,-0.6677252400320598,7.691218417482853,-1.178028428974585,0
155,2024-09-25 15:08:17.687943936,0,017,-0.3379077937544337,-0.5211661985469589,-1.7468312273615876,0.4281579855533264,0.7437270849326221,-0.6685910606365315,7.739409491217803,-1.1898370942576475,0
156,2024-09-25 15:08:17.749986816,0,017,-0.39898350569769386,-0.518156478690474,-1.6100328722358022,0.41405767048948994,0.7338268608863544,-0.6675447112020312,7.828827708844517,-1.2060378034038093,0
157,2024-09-25 15:08:17.813157888,0,017,-0.459389272944655,-0.5135715644555395,-1.5054052185303968,0.3986222041942704,0.7192190968826366,-0.6645303784424865,7.95033769314058,-1.2263570552228207,0
158,2024-09-25 15:08:17.894988032,0,017,-0.5169367893634906,-0.507616702221426,-1.4330346732127506,0.38143571916860564,0.7004707636527977,-0.6596751020100375,8.093998207178927,-1.250338465283332,0
159,2024-09-25 15:08:17.962786816,0,017,-0.5695791145204618,-0.5005712815996936,-1.3906527508193212,0.3621128191865659,0.678622331722438,-0.6532706588362851,8.250613404115754,-1.2775114873256341,0
160,2024-09-25 15:08:18.029123072,0,017,-0.6155748980429162,-0.492757092491604,-1.3743887643778478,0.34047099707422085,0.6550848007462592,-0.6457465286060213,8.412762192954686,-1.3074914744051283,0
161,2024-09-25 15:08:18.098347008,0,017,-0.6536184556950038,-0.4845093216692537,-1.3793068215797817,0.3166175772959068,0.6315040587021788,-0.6376332841641684,8.57503192889251,-1.3399784497592269,0
162,2024-09-25 15:08:19.013006848,0,017,-0.6829230014580336,-0.47615318078243285,-1.3996848220867055,0.29093354837130664,0.609589631363031,-0.6295119673914933,8.73361258576537,-1.3746746485892454,0
163,2024-09-25 15:08:19.074595840,0,017,-0.7032222008001064,-0.46799197348355026,-1.4292699743941066,0.26402057587561684,0.5909453576665162,-0.6219588017220258,8.885734084558056,-1.4111772073322304,0
164,2024-09-25 15:08:19.152785920,0,017,-0.7146910669310482,-0.46031047637639094,-1.4618364109863082,0.236694073694312,0.5769339908659432,-0.6155005448442521,9.02941298522001,-1.4489069932681047,0
165,2024-09-25 15:08:19.213409024,0,017,-0.7178451913255676,-0.4533847122131661,-1.4920943562925573,0.2100238091048439,0.568575385268938,-0.610582843172887,9.16369743585225,-1.487126453344561,0
166,2024-09-25 15:08:19.288376832,0,017,-0.7134643144043659,-0.4474830479977409,-1.5165769139857115,0.18533824284845524,0.5664735525039301,-0.6075426654203424,9.289212272219094,-1.5250601804622446,0
167,2024-09-25 15:08:19.353149952,0,017,-0.7025292798247695,-0.442855960422269,-1.5340585315498378,0.16412256586745455,0.5707850955356806,-0.6065830238117518,9.408506526208285,-1.5620561308674312,0
168,2024-09-25 15:08:19.415634944,0,017,-0.6861620035125257,-0.43972289213320015,-1.5453931394299685,0.14782739149131172,0.5812424442311538,-0.6077610751859848,9.525793590383444,-1.5977005225225127,0
169,2024-09-25 15:08:20.360059136,0,017,-0.6655906900235693,-0.4382591012012529,-1.5529621645546885,0.13765911432506664,0.5972237639657324,-0.6109980776365747,9.646065808412306,-1.6318468869095881,0
170,2024-09-25 15:08:20.435111168,0,017,-0.6421431573510198,-0.43857844443948485,-1.5599301152756218,0.13440090830602816,0.617838649642936,-0.6161033086758546,9.773835708084153,-1.6645498578743245,0
171,2024-09-25 15:08:20.500129024,0,017,-0.617229282653906,-0.4407136590694828,-1.5694420704161172,0.1382811555575447,0.6419980733192815,-0.6227966196988307,9.911804515968015,-1.6959049869085348,0
172,2024-09-25 15:08:20.570785280,0,017,-0.5922819913340203,-0.4446034489236098,-1.5839913124485134,0.14892001668480007,0.6684585245569932,-0.6307255809691777,10.05977553235586,-1.7258459558241865,0
173,2024-09-25 15:08:20.638465792,0,017,-0.5686768236788318,-0.4500897377587521,-1.6051941693454417,0.16538687952803782,0.6958485407373171,-0.6394839536591138,10.214133211091085,-1.7539947700946414,0
174,2024-09-25 15:08:20.706284800,0,017,-0.5476694519720132,-0.45691723024454994,-1.6339648651251122,0.18635144982752566,0.7226937380534737,-0.6486337231231132,10.3680581380087,-1.7796272628854464,0
175,2024-09-25 15:08:20.762836992,0,017,-0.530349122265435,-0.4647332199120216,-1.6709143055828792,0.21028249056388756,0.7474676621202618,-0.6577285014102356,10.512337659894662,-1.8017351938374921,0
176,2024-09-25 15:08:21.712662784,0,017,-0.5175825320332255,-0.47310063952378456,-1.7168219838982441,0.23566029219985055,0.7686925015351825,-0.666341829655518,10.636402522509048,-1.819124218884247,0
177,2024-09-25 15:08:21.785188864,0,017,-0.509966562317453,-0.48153241417233406,-1.7729789723350888,0.2611555536500491,0.785066622327637,-0.6741009919610489,10.729309565041543,-1.8305183757009458,0
178,2024-09-25 15:08:21.852091136,0,017,-0.5078318491829358,-0.4895341430956048,-1.8411169002554253,0.28570996954977873,0.7955520052507012,-0.6807115785477784,10.7806805991821,-1.8346888134784074,0
179,2024-09-25 15:08:21.914216192,0,017,-0.5112872186930763,-0.49663721614362955,-1.9228194866810089,0.30850155302068016,0.7993937767512111,-0.6859580342588132,10.781733999577979,-1.8306205244379636,0
180,2024-09-25 15:08:21.988562944,0,017,-0.5202512359085785,-0.5024220292656189,-2.0186968055407166,0.3288551380167279,0.796121121391955,-0.6896869698287973,10.726365945174413,-1.8176836506720448,0
181,2024-09-25 15:08:22.053832960,0,017,-0.5344479157446305,-0.5065427273475804,-2.127801465030812,0.3461838325209572,0.7855745676505382,-0.6917920381010173,10.612004977119417,-1.795743516999672,0
182,2024-09-25 15:08:22.114974208,0,017,-0.5533999650663847,-0.5087536862453564,-2.247583460929888,0.36000767606448275,0.7679408256068071,-0.69220753273515,10.439978113261189,-1.7651675695054305,0
183,2024-09-25 15:08:23.067462912,0,017,-0.5764567380627947,-0.5089242108207653,-2.3742956721272597,0.37003074607183284,0.7437650556020777,-0.6909053776993093,10.215325499113947,-1.7267393200653502,0
184,2024-09-25 15:08:23.122499072,0,017,-0.6028460486306055,-0.5070345948158955,-2.5034795486492443,0.37620876381913665,0.7139410453915547,-0.6878932932638183,9.946127704017659,-1.6815069631722679,0
185,2024-09-25 15:08:23.203122944,0,017,-0.6317133807308293,-0.5031624553626245,-2.630198317135542,0.3787433903544954,0.679680765034266,-0.6832182476567968,9.642476097557097,-1.6305889503851565,0
186,2024-09-25 15:08:23.270912000,0,017,-0.6621416244134043,-0.4974700026723412,-2.749003529249623,0.377996805313208,0.6424509776083853,-0.6769742963493406,9.31531803619452,-1.5749791521657952,0
187,2024-09-25 15:08:23.335781120,0,017,-0.6931758946113803,-0.490191598234484,-2.8538926591433476,0.37437368826082856,0.6038746191674872,-0.6693048384408193,8.975427817044016,-1.5154170762702992,0
188,2024-09-25 15:08:23.401403904,0,017,-0.7238655744418032,-0.48161636330774926,-2.9384950217641554,0.3682301138890422,0.5656145958705112,-0.6603924259777735,8.632679183933114,-1.4523698880064997,0
189,2024-09-25 15:08:23.463407104,0,017,-0.7533120893101924,-0.472068530357996,-2.996504987978496,0.35984925323852796,0.5292509334078827,-0.6504404911462797,8.29573551639468,-1.3861254347927823,0
190,2024-09-25 15:08:24.410435072,0,017,-0.7807222320767816,-0.46189062320540375,-3.022216252433795,0.34947833234218595,0.49613209493961574,-0.6396524512843524,7.9721566071828915,-1.3169515907960334,0
191,2024-09-25 15:08:24.485468928,0,017,-0.8054785957417391,-0.4514250989975805,-3.011008746317996,0.33737457914283453,0.46719220154035546,-0.6282070507621432,7.668724413663605,-1.2452577622910257,0
192,2024-09-25 15:08:24.549992192,0,017,-0.8272051338429256,-0.440989077792619,-2.9597167739422967,0.3238100392074711,0.4427933018093129,-0.616231979709182,7.391684093897097,-1.1717119214039602,0
193,2024-09-25 15:08:24.621061120,0,017,-0.84578149698774,-0.4308497600299399,-2.86685942705646,0.30903273066382086,0.42267602484773437,-0.6037869908800135,7.146701123860184,-1.0973081110748892,0
194,2024-09-25 15:08:24.688337920,0,017,-0.8613026619361762,-0.4212125305355679,-2.7327305599038003,0.2932175192116802,0.4060356154077767,-0.590865786667952,6.938633155259483,-1.0234068582396725,0
195,2024-09-25 15:08:24.749995776,0,017,-0.8740287912794923,-0.4122207870204334,-2.5593925569390494,0.27644494755410665,0.3916766328497121,-0.577414202876255,6.771439801111023,-0.9517600118908469,0
196,2024-09-25 15:08:24.812984832,0,017,-0.8843461017506014,-0.4039561507912531,-2.3506668584232524,0.2587321326479104,0.37820068723552497,-0.5633541285125284,6.648354366637655,-0.8844953803246802,0
197,2024-09-25 15:08:25.763153152,0,017,-0.8927086854144511,-0.39643484063577755,-2.1121299609159814,0.24010475857340388,0.3642065046894332,-0.5486050537745029,6.572026951708155,-0.8240178857985302,0
198,2024-09-25 15:08:25.826039040,0,017,-0.899540459264478,-0.38960921419967837,-1.850993780012878,0.22066774300194503,0.3484919529351586,-0.533104888015197,6.544314841289236,-0.7728160297676939,0
199,2024-09-25 15:08:25.888525824,0,017,-0.905128930058457,-0.38338216227457106,-1.5757819084567837,0.2006397554612333,0.3302395164162796,-0.5168358357318612,6.565742316195414,-0.7332127505684984,0
200,2024-09-25 15:08:25.965747968,0,017,-0.9095618506608655,-0.3776262663082299,-1.2958448887323617,0.1803455546473176,0.30915517708783224,-0.49985354909591867,6.63488579726112,-0.7071114375280252,0
201,2024-09-25 15:08:26.038930944,0,017,-0.9127207320278654,-0.37219435939868756,-1.0207959607067745,0.16017850283270998,0.28554005402331,-0.48231101630269535,6.747949315248781,-0.6957736787237495,0
202,2024-09-25 15:08:26.104141056,0,017,-0.9143024119417724,-0.3669233953960647,-0.7598928082433608,0.1405545418091194,0.26028875118414163,-0.46447038857713757,6.898716764492977,-0.6996612552027753,0
203,2024-09-25 15:08:26.174560000,0,017,-0.9138489973837026,-0.36164361096105496,-0.5213781359125252,0.12188085236581174,0.23480330161550075,-0.4466982523721362,7.078920340711068,-0.7183696414515295,0
204,2024-09-25 15:08:27.092065280,0,017,-0.9107973949401992,-0.3561941325647972,-0.31188320715552803,0.10455175798072601,0.21082575321049796,-0.42944209752756857,7.278941242125461,-0.7506633179759755,0
205,2024-09-25 15:08:27.159902208,0,017,-0.9045438830250251,-0.35043644249656664,-0.1360987269126577,0.08897223761786399,0.19024035275666512,-0.4131930912242894,7.4887146572238725,-0.7946039782492456,0
206,2024-09-25 15:08:27.222697984,0,017,-0.8944869745549229,-0.3442647040048615,0.003147723758178655,0.07560155032943906,0.17489921468503136,-0.3984450623795268,7.698627271711622,-0.8477340672512867,0
207,2024-09-25 15:08:27.285010944,0,017,-0.8800338693406905,-0.33761843678258546,0.10451474048507797,0.06499282667675556,0.16646268172579348,-0.3856553188122325,7.9000940011258685,-0.9072478349668555,0
208,2024-09-25 15:08:27.362641152,0,017,-0.8605990574087276,-0.33049404318847597,0.16773563839547326,0.05779488129911986,0.1662202108595549,-0.375208345765137,8.085634126482054,-0.9701090761477742,0
209,2024-09-25 15:08:27.424168192,0,017,-0.8356142875014623,-0.32294562129937243,0.19335110037022124,0.05470268239172133,0.17491733207666937,-0.3673858584620524,8.2486809035138,-1.0331650002663846,0
210,2024-09-25 15:08:27.498931968,0,017,-0.8045352971853919,-0.3150766251663482,0.18264672889750233,0.05636360181175392,0.1926704940218588,-0.36235055633307023,8.38356578795981,-1.0933302729095205,0
211,2024-09-25 15:08:28.438940928,0,017,-0.7668490288601078,-0.307033417266764,0.1378047727247268,0.06325104657122406,0.21901839250922897,-0.360148108263235,8.485753747562864,-1.1478119249472036,0
212,2024-09-25 15:08:28.510669824,0,017,-0.722125912080058,-0.2990027784713205,0.062127164070490834,0.07553907765058362,0.2530659952163392,-0.36072218198726264,8.552035285676002,-1.1942792070066894,0
213,2024-09-25 15:08:28.578484992,0,017,-0.6701360476406691,-0.2912037483116009,-0.03993803045039318,0.09303256129609784,0.29363529838895513,-0.3639304752634632,8.58059748814736,-1.230961326856479,0
214,2024-09-25 15:08:28.646241024,0,017,-0.6109825760098562,-0.2838688360147272,-0.16300989775108676,0.11516185229204,0.33938815918686005,-0.36955526195416794,8.571202452139211,-1.2567259705229328,0
215,2024-09-25 15:08:28.701126912,0,017,-0.5451968913903081,-0.2772207255507643,-0.30095381575701,0.14098876965488424,0.3889394814897018,-0.37731253329689085,8.525544651690481,-1.2711438004169315,0
216,2024-09-25 15:08:28.778396928,0,017,-0.47378059449133814,-0.2714505501815263,-0.4469161104975831,0.1692089653510262,0.4409601016650736,-0.3868634772471272,8.447565324400172,-1.2744911728552295,0
217,2024-09-25 15:08:28.842536960,0,017,-0.3981940776241128,-0.2666982660805361,-0.5935350774558474,0.19822215652233813,0.4942392538401843,-0.39782448733149484,8.34342559010373,-1.2676598502585994,0
218,2024-09-25 15:08:29.762056192,0,017,-0.32028037128545706,-0.26303812747427935,-0.7336107590657007,0.22632047054979956,0.5476961373231314,-0.40977373407890305,8.220967277018806,-1.251976412442659,0
219,2024-09-25 15:08:29.835648000,0,017,-0.2421209410588737,-0.26047784801567725,-0.8610239369293616,0.25193555253700006,0.6003533201645019,-0.42226026147948104,8.088764368238621,-1.2289611830942506,0
220,2024-09-25 15:08:29.903486976,0,017,-0.16584788255140268,-0.2589757939010547,-0.9714520043818174,0.27384496887169635,0.6512772746253289,-0.4348195279331154,7.955146610185219,-1.200096428230328,0
221,2024-09-25 15:08:29.963799040,0,017,-0.0934509689532913,-0.25846895419657406,-1.0626870365050523,0.29130121789144614,0.6994995951847351,-0.4469908706764396,7.8276596042281925,-1.1667031941105708,0
222,2024-09-25 15:08:30.039037184,0,017,-0.026609683196928014,-0.2589001752116876,-1.13464996379233,0.30409411937798736,0.7439689424324616,-0.45833326771566313,7.7131489207891635,-1.12998167228784,0
223,2024-09-25 15:08:30.103538176,0,017,0.03342234807265892,-0.26023871424259126,-1.189184001981824,0.3125457157154748,0.7835819270963054,-0.46844361468854234,7.618135535747727,-1.091159475170407,0
224,2024-09-25 15:08:30.174658816,0,017,0.08584009645578619,-0.26248983115372565,-1.2296731656482158,0.31744397626533066,0.8172773788580622,-0.47698012052029976,7.548925144841409,-1.0516239824100495,0
225,2024-09-25 15:08:31.117630976,0,017,0.1301963573856863,-0.26568595534458533,-1.26062424084884,0.31994834547410994,0.844129225319293,-0.4836825798493905,7.511207972140694,-1.012946608505853,0
226,2024-09-25 15:08:31.179058176,0,017,0.16624799868652199,-0.26985920925446516,-1.2872901589181616,0.32147752405075736,0.8634002358055374,-0.48837962581172006,7.509316778546406,-0.9767838054889065,0
227,2024-09-25 15:08:31.240199936,0,017,0.1938240970207105,-0.27500911159331826,-1.3152030216258008,0.32355452128297363,0.8745696281908893,-0.4909838189497549,7.545434952557305,-0.944699215818324,0
228,2024-09-25 15:08:31.316896000,0,017,0.21274452349942316,-0.28108046772056094,-1.3494919804465397,0.3276067479558063,0.877347821334064,-0.4914813040805594,7.618985459732097,-0.9179742318989975,0
229,2024-09-25 15:08:31.389140992,0,017,0.22276880567311455,-0.28795508937528796,-1.3941247864546764,0.3347674153882973,0.8716695819029863,-0.4899180304476631,7.726358901166273,-0.8974659998553164,0
230,2024-09-25 15:08:31.456968960,0,017,0.22358735470817467,-0.2954535020978353,-1.4513889490749283,0.3457340640814213,0.8576672214629425,-0.48638129504927635,7.861052620267283,-0.8835477814220369,0
231,2024-09-25 15:08:31.524770048,0,017,0.2148943540358798,-0.3033454158253421,-1.5217975178129952,0.3607056525752161,0.8356459421528029,-0.4809799923005817,8.014215618575264,-0.8761360424799975,0
232,2024-09-25 15:08:32.453696000,0,017,0.1965336382523267,-0.3113728444325023,-1.6043210801996375,0.3793837488916403,0.806072344247689,-0.4738302886605936,8.175571406427704,-0.8747806859603053,0
233,2024-09-25 15:08:32.534832128,0,017,0.16865353671186123,-0.31928687008008677,-1.6967195687874779,0.4010162895889159,0.7695531426219114,-0.4650451206575994,8.334631697042843,-0.8787848048509999,0
234,2024-09-25 15:08:32.592912128,0,017,0.13181130683788403,-0.32688747663336487,-1.7958734590508119,0.4244768775952462,0.7267754729825638,-0.4547159081753592,8.481968160233443,-0.8873255785975807,0
235,2024-09-25 15:08:32.670438912,0,017,0.08700781110290089,-0.3340495857055529,-1.8982003656970525,0.44839006870815207,0.678434117418893,-0.44288481142314995,8.610194664970242,-0.8995466382962228,0
236,2024-09-25 15:08:32.738200832,0,017,0.0356593904622184,-0.3407279007563752,-2.000234773799819,0.4713052968067468,0.6252153444962422,-0.4295280869165856,8.71436028095038,-0.9145932406067566,0
237,2024-09-25 15:08:32.796855040,0,017,-0.02049154404081938,-0.34694559138525566,-2.099261167815417,0.4918791951701116,0.5678552968479216,-0.4145707524920946,8.791707211291937,-0.9315937146995399,0
238,2024-09-25 15:08:32.871393792,0,017,-0.07952895177942723,-0.35277235593272344,-2.1937691758778413,0.5090015849858752,0.5072059638639315,-0.3979257337934612,8.841053903424378,-0.9496304143091288,0
239,2024-09-25 15:08:33.817051904,0,017,-0.13953784500584016,-0.3582961129715979,-2.2835423198093556,0.5218371469407801,0.4442493332534213,-0.3795340647225798,8.862136405951304,-0.9677392314433012,0
240,2024-09-25 15:08:33.876013056,0,017,-0.19872393608491573,-0.3635988493767052,-2.369326499223481,0.5298095138665815,0.38007793166345816,-0.35939442204139915,8.855067457777837,-0.9849336848439083,0
241,2024-09-25 15:08:33.938056960,0,017,-0.2554517440521691,-0.36874705200405894,-2.452186873029716,0.5325698906500009,0.31588223924180814,-0.33758525095022446,8.819956140916458,-1.0002311853599817,0
242,2024-09-25 15:08:34.015364864,0,017,-0.30825079057796695,-0.3737945550207789,-2.532782763529839,0.5299762369058095,0.2529421824566947,-0.3142817041140836,8.756765877585126,-1.0126908152560024,0
243,2024-09-25 15:08:34.077852928,0,017,-0.35582941908581417,-0.378788022318632,-2.610798675505139,0.5220907752216679,0.19261543253852995,-0.2897652082081854,8.665458737668017,-1.0214884277801206,0
244,2024-09-25 15:08:34.156018176,0,017,-0.3970797283788509,-0.3837722278379732,-2.684656348116314,0.5091810996816467,0.1363477356446997,-0.2644254637512499,8.546375342839449,-1.026022163255951,0
245,2024-09-25 15:08:34.223830016,0,017,-0.4310610052647918,-0.38879955722280346,-2.7515030318707194,0.49169643000146485,0.0856979350145561,-0.23875385100680035,8.400782757374799,-1.0260158488791873,0
246,2024-09-25 15:08:35.167144960,0,017,-0.4570002151221375,-0.39394164798578557,-2.8074571391367593,0.47021976375047814,0.04230251771921192,-0.21332208855937954,8.231460982199119,-1.021583571565152,0
247,2024-09-25 15:08:35.235012864,0,017,-0.47435597171848476,-0.3992894671586468,-2.8481297340353113,0.44543896042498,0.007732044270879943,-0.18874245700587225,8.04305434108874,-1.0132145690856749,0
248,2024-09-25 15:08:35.293388032,0,017,-0.4829353527294062,-0.40493171872465383,-2.8693992607054506,0.4181725152808784,-0.01670113494042402,-0.16561822844259688,7.841957474829097,-1.0016668639791562,0
249,2024-09-25 15:08:35.355873024,0,017,-0.48300291790190164,-0.41092068411239424,-2.8683288914508283,0.389438046444051,-0.030084653900675475,-0.14450160130530748,7.635748102645923,-0.9878177127190401,0
250,2024-09-25 15:08:35.433548032,0,017,-0.47533393772252314,-0.41724545438750255,-2.84401342892491,0.36050838650253825,-0.03196251007768419,-0.12587010730958437,7.432349069909289,-0.9725304377409995,0
251,2024-09-25 15:08:35.506131712,0,017,-0.46120131309031165,-0.42382249213674583,-2.7980655288313856,0.3328904744854286,-0.02233346690419624,-0.11011663925708237,7.239124199489758,-0.9565452220827856,0
252,2024-09-25 15:08:35.573918208,0,017,-0.44228862176633854,-0.43049987770674075,-2.734564521402217,0.3082092084788195,-0.001614564616677537,-0.09753964282153349,7.0620761415832805,-0.9403685840791141,0
253,2024-09-25 15:08:36.517214976,0,017,-0.4205132228917505,-0.43707119701228964,-2.6595647394697366,0.2880457856011276,0.029433382451921158,-0.08832846017403022,6.905278182288512,-0.9241727961468756,0
254,2024-09-25 15:08:36.584280064,0,017,-0.39778580613870923,-0.44329880471930905,-2.5803986943421764,0.27379124586461623,0.0698110744494714,-0.08255285340225521,6.770637281288481,-0.9077691677410938,0
255,2024-09-25 15:08:36.652826880,0,017,-0.3757953341748832,-0.448941019083073,-2.5049598706543574,0.26654429246560973,0.11837289776181699,-0.08016510660474523,6.658003245844922,-0.8907088714782929,0
256,2024-09-25 15:08:36.720603904,0,017,-0.35589168545337857,-0.4537724500897627,-2.4410973040613655,0.2670665350157709,0.17386273769950505,-0.08101091658926848,6.565531274206912,-0.8724913602531371,0
257,2024-09-25 15:08:36.788416000,0,017,-0.33905492003707416,-0.4575937301042954,-2.396160723373935,0.27579015044791316,0.23490686515727285,-0.084842532687867,6.490172000553491,-0.8528004274339083,0
258,2024-09-25 15:08:36.856197120,0,017,-0.32590881604341,-0.4602373445495301,-2.3765656295996402,0.2928406678741857,0.3000188263783398,-0.0913355321091186,6.428196816297832,-0.8316944698627415,0
259,2024-09-25 15:08:36.924006144,0,017,-0.31676823151346295,-0.461576082761929,-2.38726008758813,0.3180399716637614,0.367641867771688,-0.10011164637302816,6.375695770676363,-0.8097172467566324,0
260,2024-09-25 15:08:37.826669056,0,017,-0.31171138294074957,-0.4615337745875067,-2.4311699868475745,0.3508812449922932,0.4362046588019039,-0.11076168375495898,6.329026865659502,-0.7879210603888619,0
261,2024-09-25 15:08:37.909533952,0,017,-0.31064298632603826,-0.4600951030524554,-2.5087665108725754,0.3904784408986678,0.5041663402718672,-0.12286104881912217,6.285238929742184,-0.7678053236032811,0
262,2024-09-25 15:08:37.973103104,0,017,-0.313327945409485,-0.4573133732262935,-2.6178411859472765,0.43551382928021587,0.5700549825590893,-0.1359799633143159,6.242454885344683,-0.7511746378759657,0
263,2024-09-25 15:08:38.045139968,0,017,-0.3194076475646952,-0.45331518370480606,-2.7535176511663155,0.48422908448367763,0.6325029004479862,-0.14969496627610177,6.200126840841328,-0.7399189157707747,0
264,2024-09-25 15:08:38.112955136,0,017,-0.3284183373754006,-0.4482962847608453,-2.9084748744036784,0.5344870843320723,0.6902637877235522,-0.16360006881661404,6.1590544461828305,-0.7357366239758724,0
265,2024-09-25 15:08:38.166752256,0,017,-0.33981753348447813,-0.44250398425774007,-3.0733969545907716,0.5839037919396706,0.7422069091536256,-0.1773112894931823,6.121090250981545,-0.7398538670468293,0
266,2024-09-25 15:08:38.244432896,0,017,-0.3530048910735326,-0.4362139013086066,-3.23768003723039,0.6300262820864273,0.7873194245247384,-0.19046922142821937,6.088559237711206,-0.7528066508024561,0
267,2024-09-25 15:08:39.192376064,0,017,-0.3673245701502651,-0.4297143951777277,-3.3902341464929866,0.6705019880842359,0.8247473045618904,-0.20275208557107316,6.0636152869996085,-0.7743434783986451,0
268,2024-09-25 15:08:39.245376256,0,017,-0.38206070427386896,-0.4232993146977096,-3.520144867079447,0.7031980924619806,0.8538547165178758,-0.21389794547390217,6.047873512351015,-0.8034720580899334,0
269,2024-09-25 15:08:39.328068096,0,017,-0.3964392160379867,-0.4172597492945461,-3.6171773667858322,0.7262885764385523,0.8742653268960219,-0.22372077710845248,6.042462986131363,-0.8386182106608452,0
270,2024-09-25 15:08:39.383759104,0,017,-0.4096320883810687,-0.4118722021172186,-3.672220785852905,0.7383437119015582,0.8858908329380929,-0.23211399381696765,6.0482671678202085,-0.8778225071074465,0
271,2024-09-25 15:08:39.462763264,0,017,-0.4207739546999895,-0.407387499884087,-3.6776797352746593,0.7384305784695586,0.8889648601141552,-0.2390481684266472,6.066016599311775,-0.9189153569725246,0
272,2024-09-25 15:08:39.531502080,0,017,-0.42901705775448,-0.4040207319984902,-3.6278096749947517,0.7262198666681539,0.8840674989073625,-0.24456681940208888,6.09616429383762,-0.9596617155754829,0
273,2024-09-25 15:08:39.585815040,0,017,-0.43361977252838435,-0.4019393974918448,-3.5190802422394403,0.7020868122850086,0.8721203604098154,-0.24877820026649408,6.138682306389158,-0.9978936647702562,0
274,2024-09-25 15:08:40.518042112,0,017,-0.4340284218235554,-0.40125268530227437,-3.350615595834871,0.6671768335726478,0.8543527433045149,-0.2518443293829926,6.192879875411232,-1.031644989108365,0
275,2024-09-25 15:08:40.585884160,0,017,-0.429934471905997,-0.40200801648191936,-3.124593741687736,0.6233939490279872,0.8322325999057988,-0.2539707607803484,6.257288962143817,-1.0592906848098835,0
276,2024-09-25 15:08:40.642002176,0,017,-0.42133514085910134,-0.4041925903760376,-2.8463811545395368,0.5732678309434821,0.8073473800108403,-0.25539542049572367,6.3296531239770095,-1.0796724105097664,0
277,2024-09-25 15:08:40.721465088,0,017,-0.40861149321770157,-0.40773118197122526,-2.5242493270313315,0.5196819478471257,0.7812522738005667,-0.256371791490874,6.407009671086684,-1.092165259795947,0
278,2024-09-25 15:08:40.781656064,0,017,-0.3925783240496997,-0.4124799744543091,-2.1686950398015226,0.4655097046993038,0.7553345041368473,-0.25714595195303136,6.485859289605555,-1.0966602511620416,0
279,2024-09-25 15:08:40.857065984,0,017,-0.3744519294889072,-0.4182268585504894,-1.7915223047459996,0.4132550163309346,0.7307256357252189,-0.25793247616619636,6.562430951010006,-1.0934895462296945,0
280,2024-09-25 15:08:40.920541952,0,017,-0.35573819033782095,-0.42470510754621765,-1.4048880936740704,0.364789979032259,0.7082573692270914,-0.25889581973542247,6.632932798359021,-1.0833346812260334,0
281,2024-09-25 15:08:41.857756160,0,017,-0.33807539928651814,-0.4316169228499458,-1.0204898036823298,0.32124383826749675,0.6884506564924012,-0.2601416215228754,6.693627718031412,-1.0671363272107368,0
282,2024-09-25 15:08:41.934968064,0,017,-0.3230439927828117,-0.4386608362429883,-0.6489943808850868,0.28304464125840895,0.6715516257204102,-0.2617194496020598,6.740768306983815,-1.0460119128638907,0
283,2024-09-25 15:08:41.997499136,0,017,-0.3119527251828593,-0.4455605478315509,-0.29969049329158626,0.25006677974684627,0.6576251874211855,-0.2636361123901692,6.770617754429032,-1.0211772194221587,0
284,2024-09-25 15:08:42.060208896,0,017,-0.30565834962134575,-0.45209093923757726,0.01974683161838041,0.2218147690065536,0.6466710195841816,-0.2658744823033735,6.77972712909884,-0.9938674426477732,0
285,2024-09-25 15:08:42.137511936,0,017,-0.3044931396105408,-0.45809162021016214,0.3034804512626762,0.1975789292318163,0.6387001352207862,-0.26840889400030515,6.765434043588021,-0.9652789397796833,0
286,2024-09-25 15:08:42.199109120,0,017,-0.3083098709688452,-0.4634634370268595,0.5477803488293674,0.1765229107031755,0.6337467240205273,-0.271211997022524,6.726398626612067,-0.9365632332114868,0
287,2024-09-25 15:08:42.274363904,0,017,-0.3165880720158877,-0.4681560302251427,0.7513301766238628,0.15770245777340838,0.631841018447196,-0.27425843375270514,6.663005711506723,-0.9088706557876426,0
288,2024-09-25 15:08:43.216350976,0,017,-0.32856719089784475,-0.47215521518807296,0.915370113476695,0.14006904327445158,0.6329705475994469,-0.2775334742317802,6.5775914223093235,-0.8834020550686431,0
289,2024-09-25 15:08:43.285437952,0,017,-0.3434192604398825,-0.47546889105212337,1.043333893784951,0.12254412042439104,0.6370280024819059,-0.28104335739603875,6.474515665466009,-0.86142041131253,0
290,2024-09-25 15:08:43.343563008,0,017,-0.3604378406875637,-0.47810994801391893,1.1398372474038967,0.10420746376143218,0.6437444980204493,-0.2848154792765512,6.360009278191792,-0.8441901640234506,0
291,2024-09-25 15:08:43.417691904,0,017,-0.37915889081823023,-0.4800841934931912,1.2092590784861297,0.08455275420894555,0.6526356333207864,-0.2888853936905552,6.241655395267156,-0.8328386614733074,0
292,2024-09-25 15:08:43.480483072,0,017,-0.3993663940740347,-0.4813924130281466,1.2543819370470684,0.06370868862419016,0.6629968430575116,-0.29328073611546235,6.127450290969635,-0.8281652026508391,0
293,2024-09-25 15:08:43.541524992,0,017,-0.42102624760920754,-0.4820451060772049,1.2755256071702405,0.042533708131508204,0.6739562978297482,-0.29801079017953525,6.024556153931171,-0.830441732384474,0
294,2024-09-25 15:08:43.618253056,0,017,-0.44421174537515706,-0.48207874306854925,1.2704031419230393,0.022540870660873548,0.6845571735074992,-0.30305973788871515,5.938068207682131,-0.8392623176878091,0
295,2024-09-25 15:08:44.567753216,0,017,-0.46903704649649797,-0.48156306465990834,1.2346676786282835,0.005673693683235786,0.6938432770207341,-0.30837936453072917,5.870241399470525,-0.8535100284762333,0
296,2024-09-25 15:08:44.619998976,0,017,-0.49558309251678095,-0.48059888504039283,1.1629072898104662,-0.005991076114358222,0.7009557167680913,-0.31388474236600084,5.820456892546863,-0.8714824323788597,0
297,2024-09-25 15:08:44.698120192,0,017,-0.5238145938891843,-0.47931373661508336,1.0497722206666946,-0.010528542838107514,0.7052406690663919,-0.3194588424470205,5.785858108389398,-0.8911457868280378,0
298,2024-09-25 15:08:44.771191040,0,017,-0.5535167666158568,-0.47785927604881406,0.8910040813991016,-0.00639650769220374,0.706310168854731,-0.32496192500826493,5.762332523795138,-0.9104322188744612,0
299,2024-09-25 15:08:44.836886016,0,017,-0.5842748433091594,-0.4764066953664517,0.6842743526692133,0.007387606484231114,0.7039905459649204,-0.3302328863547552,5.745509812921511,-0.9274978080928532,0
300,2024-09-25 15:08:44.906820096,0,017,-0.6154788478815174,-0.47513597915351313,0.4297996253005602,0.031128536148195836,0.6981802300733235,-0.3350779256846376,5.731614630442032,-0.9409059999775243,0
301,2024-09-25 15:08:44.960556800,0,017,-0.6463283409555225,-0.4742202158580313,0.13067753600134027,0.06442163304355983,0.6887149323568366,-0.33925903344516584,5.718099039173804,-0.9497398934989555,0
302,2024-09-25 15:08:45.906097920,0,017,-0.6758586125700975,-0.4738072720134574,-0.20715399470768625,0.10623035761251327,0.6753152864112327,-0.3424984456465467,5.703893190725116,-0.9536422475039128,0
303,2024-09-25 15:08:45.985616896,0,017,-0.7030383456942833,-0.47399582701862986,-0.5753917085420116,0.15505628507776809,0.6576276111812686,-0.34450196823597534,5.689105445265264,-0.9527516502698107,0
304,2024-09-25 15:08:46.053402880,0,017,-0.7269383624058118,-0.47480472930585604,-0.9641296502896003,0.20913810631712304,0.6353412308601778,-0.34499348042087,5.6742801975730215,-0.9475157610655208,0
305,2024-09-25 15:08:46.115470848,0,017,-0.7468985388503558,-0.47614921270910365,-1.362574816978009,0.2666081217329952,0.6083522364638745,-0.34375368863082467,5.659666382708326,-0.9384434769694849,0
306,2024-09-25 15:08:46.183532032,0,017,-0.7626285144595264,-0.4778424541460691,-1.7595144964377407,0.32558842135182825,0.576910521428401,-0.34065712330738257,5.644934291576273,-0.9259148444469502,0
307,2024-09-25 15:08:46.244903936,0,017,-0.7742423633554254,-0.47962387356688285,-2.143669470573303,0.38426940304177776,0.5416794173667397,-0.3356976115340813,5.629360220553643,-0.9101197016212997,0
308,2024-09-25 15:08:46.323564032,0,017,-0.7822401409624942,-0.4811993384848389,-2.5041466146870586,0.44100891141931203,0.503689990522986,-0.3289924149902849,5.612177357209203,-0.8911131114767773,0
309,2024-09-25 15:08:47.267200000,0,017,-0.7874214917007711,-0.4822818986640907,-2.830980490272815,0.4944336835125028,0.46423651900369584,-0.3207642715721519,5.592923461451648,-0.868947693258582,0
310,2024-09-25 15:08:47.335739904,0,017,-0.7907384532212549,-0.48263120993989583,-3.1156009791928496,0.5434898202096806,0.42476865729406205,-0.31131293825519096,5.5718700645867,-0.8438455655037178,0
311,2024-09-25 15:08:47.403502848,0,017,-0.7931507021487024,-0.4820867936246098,-3.3510936918613816,0.5874089575220989,0.3867868455281412,-0.30098935824039075,5.550504286877946,-0.8163530344449896,0
312,2024-09-25 15:08:47.467328000,0,017,-0.7955462556645636,-0.48058229838378996,-3.532231567613421,0.6256095904201118,0.35171202549720854,-0.29017258810846047,5.531717583372933,-0.787397815136271,0
313,2024-09-25 15:08:47.539092992,0,017,-0.7987253619691013,-0.47813414647908853,-3.655441662767892,0.6576018930420177,0.32073229710258644,-0.27924206136828217,5.519419361996954,-0.7582046389775301,0
314,2024-09-25 15:08:47.591373056,0,017,-0.8033923392160647,-0.474815655774809,-3.71897316512388,0.6829682177848009,0.29467601445066804,-0.26854707490560137,5.5177542756408,-0.7301173846147389,0
315,2024-09-25 15:08:47.668030976,0,017,-0.8101124996906248,-0.47073515996310644,-3.7233484833083375,0.7014378462098376,0.27394590295798577,-0.25838170242610486,5.5303633525656775,-0.704429230066644,0
316,2024-09-25 15:08:48.592122112,0,017,-0.8192409785710544,-0.4660259788250812,-3.671853795947786,0.7130089333733709,0.25850192575074593,-0.24896560824947395,5.559967538669507,-0.6822905307896862,0
317,2024-09-25 15:08:48.659970048,0,017,-0.8308492453306607,-0.46084397415563866,-3.5706744981594163,0.7180406984717557,0.24788467099625752,-0.24042853183777138,5.608294039225934,-0.6647009721610629,0
318,2024-09-25 15:08:48.726405888,0,017,-0.8446594714540792,-0.45536830284445,-3.42841418453506,0.7172515313482355,0.24130886434670504,-0.23280674539677892,5.676206825725534,-0.6525505731066913,0
319,2024-09-25 15:08:48.795617280,0,017,-0.8600090265899107,-0.4498046762348501,-3.255066812549221,0.7116102289499482,0.23783574437238106,-0.22606337012636726,5.76385777956239,-0.6466682059196198,0
320,2024-09-25 15:08:48.863428864,0,017,-0.8758969621665292,-0.44438749023310964,-3.0608312219407545,0.7021719160053798,0.23655635365376582,-0.2201284775053761,5.870781861348856,-0.6478517968172273,0
321,2024-09-25 15:08:48.927252992,0,017,-0.8911311160014842,-0.43937311311982963,-2.85516692597623,0.6899274251611359,0.23670081138456792,-0.21493862282200046,5.99597418976998,-0.6568580345507109,0
322,2024-09-25 15:08:48.989553920,0,017,-0.9045120454811265,-0.43502230229434385,-2.64618077763591,0.6756960924674184,0.23766859371243185,-0.2104615388871045,6.137946800600704,-0.6743280456013833,0
323,2024-09-25 15:08:49.931662080,0,017,-0.9149672889992342,-0.43158154009707606,-2.440200188261129,0.6600535475766597,0.23903807972944016,-0.20670847198882197,6.294713421933546,-0.700652967258832,0
324,2024-09-25 15:08:49.994147072,0,017,-0.9216212931342006,-0.4292734242537385,-2.2414393908668626,0.6432792525234269,0.24058692815757277,-0.2037399645653684,6.463714250172475,-0.7358195178525948,0
325,2024-09-25 15:08:50.075527936,0,017,-0.9238544881886119,-0.4282915302768136,-2.051797590422528,0.625323351191855,0.24230963537868022,-0.20166452293786236,6.641756050578705,-0.7792823431305851,0
326,2024-09-25 15:08:50.133979904,0,017,-0.9213767669304229,-0.42878741213978294,-1.8708992901869848,0.6058162431120823,0.2444186135867456,-0.20062809024086728,6.82507720262708,-0.8299077205197528,0
327,2024-09-25 15:08:50.212872192,0,017,-0.9142675992172874,-0.4308507216039665,-1.696535229663212,0.5841565092096975,0.24732734238026116,-0.20079489683519935,7.009659641883402,-0.886039519197908,0
328,2024-09-25 15:08:50.273482240,0,017,-0.9029338708487432,-0.43449914187551175,-1.5255951512335684,0.5596927699045321,0.25160282646927057,-0.2023218901552785,7.191753921203257,-0.9457054724544497,0
329,2024-09-25 15:08:50.348517888,0,017,-0.8880013976563363,-0.43968958846970707,-1.355331434904353,0.5319734152061666,0.25786835853985834,-0.2053293624415724,7.368321886522861,-1.0068916311325349,0
330,2024-09-25 15:08:51.285771008,0,017,-0.8701846776062812,-0.44634341300756436,-1.1845741131939902,0.500995565057057,0.26667969169090033,-0.20987236499147438,7.5370946258116405,-1.0677564852575876,0
331,2024-09-25 15:08:51.348256000,0,017,-0.8501604013900501,-0.4543703662641703,-1.0145291461826516,0.4673585012161957,0.2784501364987859,-0.21592237339323778,7.696244201529872,-1.1267149967350851,0
332,2024-09-25 15:08:51.426363136,0,017,-0.8284709102229141,-0.46368277560942234,-0.8489742273330554,0.43225349110836403,0.29346590543611134,-0.2233690092290482,7.843889915247608,-1.182425204408597,0
333,2024-09-25 15:08:51.489073920,0,017,-0.8054975054939428,-0.47419755782001266,-0.693888752148667,0.39730099649222916,0.31192956140325784,-0.23203999204325823,7.9776015894600665,-1.2337360816951053,0
334,2024-09-25 15:08:51.562899968,0,017,-0.7815125076023486,-0.4858244548759551,-0.5566770030421185,0.3643023200767701,0.3339412852866384,-0.24172421114461606,8.0939418470054,-1.2796199203253182,0
335,2024-09-25 15:08:51.630743040,0,017,-0.7567614369636341,-0.49844250635390897,-0.44510501195659496,0.3349669360448227,0.3594140989456194,-0.25218443029625653,8.188134767125272,-1.3191043824676085,0
336,2024-09-25 15:08:51.694506752,0,017,-0.7315204112012003,-0.5118739636021663,-0.36605138196684756,0.3106575153326337,0.3879892524296474,-0.2631596892937589,8.254082624910144,-1.3512404638435742,0
337,2024-09-25 15:08:52.641742848,0,017,-0.7061276327511127,-0.5258675345638472,-0.32432072538401513,0.2921956186294869,0.4189925135100529,-0.2743661892985918,8.284904042353828,-1.3751308192377243,0
338,2024-09-25 15:08:52.709521920,0,017,-0.681024188381276,-0.5400967274576098,-0.3218970096199634,0.27977393359127134,0.4514232330086156,-0.2855025694257056,8.273848055436517,-1.3899920210308874,0
339,2024-09-25 15:08:52.763625984,0,017,-0.6568116192909085,-0.5541702036918356,-0.357846283843355,0.27299397803825476,0.4839694147943176,-0.29625873365410305,8.215208631794738,-1.3952042183449183,0
340,2024-09-25 15:08:52.841810176,0,017,-0.6342778387500659,-0.5676522130117434,-0.42871458353158964,0.2709894425805308,0.5150736985682357,-0.3063268027951843,8.105087746407502,-1.3903548313830956,0
341,2024-09-25 15:08:52.912988160,0,017,-0.6143272126128912,-0.5801002300930236,-0.5291262475702816,0.27257042194330083,0.5430732002320785,-0.31541690982433,7.942162417556302,-1.375330478956072,0
342,2024-09-25 15:08:52.979656960,0,017,-0.5978148663400806,-0.5911225484414532,-0.6524649909346039,0.27636910939645826,0.5663786679005354,-0.3232779573675145,7.728413420500504,-1.350453252206936,0
343,2024-09-25 15:08:53.048605952,0,017,-0.5853724249458805,-0.6004381899685741,-0.7916326890061258,0.28099962522511224,0.5836184000546359,-0.32971465182388615,7.46942970029026,-1.3165691555977725,0
344,2024-09-25 15:08:53.982711296,0,017,-0.5773092697335314,-0.6079130647667533,-0.9397510114835561,0.2852069342962638,0.5937138681605604,-0.33459203403222654,7.174069945363687,-1.2750218817487504,0
345,2024-09-25 15:08:54.044295168,0,017,-0.5735909098935199,-0.6135626336665073,-1.0905855264085356,0.2879540300528477,0.5959128088263398,-0.33782904020302645,6.8536235126674425,-1.2275320128408347,0
346,2024-09-25 15:08:54.122404096,0,017,-0.5738565772407076,-0.6175291427198869,-1.2385979847532658,0.2884384529464878,0.5898054771646049,-0.3393889189297886,6.520678717963371,-1.17602966939053,0
347,2024-09-25 15:08:54.185170944,0,017,-0.5774645459526034,-0.6200430702033463,-1.378701716116288,0.2860675520711425,0.5753245736088967,-0.3392709258649094,6.187914961771576,-1.122481441436832,0
348,2024-09-25 15:08:54.262363136,0,017,-0.5835652274277547,-0.6213759991712795,-1.505911622079035,0.28041401339125194,0.5527313496968564,-0.3375028920888941,5.867095571510713,-1.068747682065283,0
349,2024-09-25 15:08:54.330866176,0,017,-0.59118267110557,-0.6217966461148587,-1.6151324522587773,0.2711638742421009,0.5226037586569429,-0.33413474523062514,5.56838761181941,-1.0164810013291552,0
350,2024-09-25 15:08:54.398739968,0,017,-0.5992869011845636,-0.6215433947386029,-1.7012213692916482,0.25807124828220734,0.48583181014558663,-0.32923504743649434,5.299888502902555,-0.9670446333908984,0
351,2024-09-25 15:08:55.317729024,0,017,-0.6068645881937377,-0.620816572768034,-1.7592487260070706,0.24092539952970046,0.4435992514502564,-0.3228898584329691,5.067208876463525,-0.9214282986596702,0
352,2024-09-25 15:08:55.371537920,0,017,-0.6129992594140329,-0.619779310129434,-1.7848188857767486,0.219538909705495,0.39733105781570904,-0.31519961612279457,4.873130153517523,-0.8801780765550432,0
353,2024-09-25 15:08:55.448718080,0,017,-0.6169485362630562,-0.6185527359176848,-1.7744765803022893,0.19379500554242773,0.348619373233773,-0.3062738130819879,4.717502536549808,-0.8433901725563057,0
354,2024-09-25 15:08:55.510737920,0,017,-0.6181885589669983,-0.6172044209733631,-1.7263426302348124,0.16379113148669824,0.29915778760919987,-0.2962307189815012,4.597492723116015,-0.8107822433662981,0
355,2024-09-25 15:08:55.588845824,0,017,-0.6164081283267958,-0.6157410853263662,-1.6409464324149745,0.13004680684547248,0.25069123871227894,-0.28520633202660667,4.508099589237065,-0.7817921193162196,0
356,2024-09-25 15:08:55.650918912,0,017,-0.6114663037280008,-0.6141113756291231,-1.5218798161781448,0.09366211922784302,0.20496852637646298,-0.2733653371014357,4.442816778456059,-0.7556670319943176,0
357,2024-09-25 15:08:55.724610048,0,017,-0.6033405269678819,-0.6122139487287219,-1.37577730675641,0.056303211910163346,0.1636933981687327,-0.2609049465826303,4.3944520175991775,-0.7315694850612608,0
358,2024-09-25 15:08:56.667396864,0,017,-0.5920732316948673,-0.6099092391944195,-1.2114636511741927,0.019979507913308017,0.12848252863961154,-0.24805265538966864,4.356135849883441,-0.7087319052962575,0
359,2024-09-25 15:08:56.735232256,0,017,-0.5777104346887749,-0.6070419004628089,-1.0386237184160925,-0.013300460819048496,0.10083410205555886,-0.23506513432775403,4.32240762980734,-0.6866446454564765,0
360,2024-09-25 15:08:56.800951808,0,017,-0.5602438370153854,-0.6034751129623556,-0.866527651730954,-0.041855331245511565,0.08209215957718982,-0.22222824948157976,4.2901112060470625,-0.6652245594065002,0
361,2024-09-25 15:08:56.870801152,0,017,-0.5395839350324617,-0.5991238624358455,-0.7030977867722297,-0.06454551439407762,0.0733866410567663,-0.20984870847395787,4.258784362104807,-0.6449009786720298,0
362,2024-09-25 15:08:56.925081088,0,017,-0.5155737566603945,-0.5939741369502989,-0.5543306245081278,-0.08085136324970506,0.07556816261913753,-0.19823536530737146,4.230390919180939,-0.6265814447590583,0
363,2024-09-25 15:08:57.006445824,0,017,-0.4880339077250844,-0.5880875137038087,-0.424085517460676,-0.09082036207265812,0.08918975505496908,-0.18768526344170466,4.2085524110581645,-0.6115126549110581,0
364,2024-09-25 15:08:57.065488896,0,017,-0.4568397860895268,-0.5815949362293203,-0.3143345948578211,-0.09491229213828563,0.11454168976499625,-0.17848547116632119,4.197588617998696,-0.6010811570393202,0
365,2024-09-25 15:08:58.010312960,0,017,-0.42203309445282566,-0.5746782779075691,-0.2258133979413227,-0.09381840518217963,0.15168101217207816,-0.1709185790152255,4.201582100798116,-0.5965887084668247,0
366,2024-09-25 15:08:58.071865088,0,017,-0.38393031599248345,-0.5675418885730631,-0.15873987083539645,-0.08834080981220077,0.20041323821874799,-0.1652526292962936,4.223585520943349,-0.5990334889604425,0
367,2024-09-25 15:08:58.149577984,0,017,-0.3431677159875359,-0.5603880419087954,-0.11325096326348781,-0.0793543842557857,0.2602403851544166,-0.16171410573850015,4.265127465106426,-0.6089507757473376,0
368,2024-09-25 15:08:58.220918016,0,017,-0.3006713860568668,-0.5534082121838823,-0.08947120428895895,-0.06780414913861017,0.3303054343123673,-0.1604597784227203,4.326121493216211,-0.6263627415211863,0
369,2024-09-25 15:08:58.288734976,0,017,-0.25759660677270013,-0.5467847807201115,-0.08739074346274281,-0.05467367313956253,0.40935004536761255,-0.16156164640660495,4.405034651759747,-0.6508210071198733,0
370,2024-09-25 15:08:58.355565824,0,017,-0.21525886761389906,-0.5406902910444347,-0.10678183363035568,-0.040890051011322696,0.4957046866364653,-0.16500753160629006,4.4990712716101875,-0.6814746623653729,0
371,2024-09-25 15:08:58.412982784,0,017,-0.1750315981408266,-0.5352822422508382,-0.14726106122739932,-0.02718962073144545,0.5873392858577835,-0.17071397910541158,4.604311594075223,-0.7171246104932162,0
372,2024-09-25 15:08:59.342542080,0,017,-0.13820763937530908,-0.5306993722000032,-0.20845151987536087,-0.01400777833265347,0.6819773150948191,-0.17854592378135903,4.715850693266841,-0.756268130350898,0
373,2024-09-25 15:08:59.401561088,0,017,-0.10587302512810617,-0.5270595030754154,-0.29008361152683354,-0.0014410792118842888,0.7772306925352421,-0.1883318114214015,4.827921637903299,-0.7971419941130112,0
374,2024-09-25 15:08:59.471164928,0,017,-0.07882824090021326,-0.5244540500263635,-0.3918647713301696,0.010704671600411475,0.8707152752391352,-0.19986437550075958,4.934002535558913,-0.8377711902877636,0
375,2024-09-25 15:08:59.541357056,0,017,-0.057543110341268806,-0.5229389909861938,-0.5130781161017717,0.02279148834290656,0.96015414984526,-0.21289129179228347,5.0269867242553765,-0.8760377179673996,0
376,2024-09-25 15:08:59.603395072,0,017,-0.0421335521054449,-0.5225264948425673,-0.6520468282539349,0.03518789306450919,1.043481985428005,-0.22710768793132435,5.099493503502075,-0.9097792499880931,0
377,2024-09-25 15:08:59.681606912,0,017,-0.032384434870773665,-0.5231789950573565,-0.805730076231347,0.04812097425555056,1.1189187408386838,-0.24215451655024567,5.144337712133418,-0.9369165891286457,0
378,2024-09-25 15:08:59.740349184,0,017,-0.027835469737663886,-0.5248054267405396,-0.9696559032407446,0.061580787689336655,1.1849781653619536,-0.257619660237379,5.155152973348111,-0.9556114049983558,0
379,2024-09-25 15:09:00.692616960,0,017,-0.027900373237323788,-0.5272627684202082,-1.1381459888864338,0.07529609313463975,1.240437670915245,-0.2730436341740415,5.127175516228784,-0.9644614152958206,0
380,2024-09-25 15:09:00.760464128,0,017,-0.03197911090204311,-0.5303677235685039,-1.30467775399151,0.08878748688462251,1.284321164775615,-0.287935852239099,5.05812467729657,-0.9627152614824768,0
381,2024-09-25 15:09:00.828284928,0,017,-0.039557769033898384,-0.533916596085708,-1.4623428095867708,0.10147611997452524,1.3158970804526877,-0.3017998749905657,4.948963198091881,-0.9504396048740354,0
382,2024-09-25 15:09:00.896069120,0,017,-0.050296382992337,-0.5377035850873662,-1.6044349679377063,0.11280579322680905,1.3346700015961301,-0.31416022484077516,4.80428096840575,-0.9285602574027121,0
383,2024-09-25 15:09:00.952537088,0,017,-0.06406913665792748,-0.5415314581169921,-1.7251963868410165,0.12236288093486751,1.3403848773922122,-0.32458935120741905,4.632180620613772,-0.8987546671462481,0
384,2024-09-25 15:09:01.028791040,0,017,-0.0809210029376045,-0.545220531603516,-1.8206601179639363,0.12999688676513738,1.3330704675282568,-0.3327372022581707,4.443722962434179,-0.8632421536681371,0
385,2024-09-25 15:09:01.099456000,0,017,-0.10096847602023994,-0.5486229992847804,-1.889279577325638,0.13590371945933588,1.3130925933792479,-0.33835820552977647,4.2520898819992965,-0.8245442581829467,0
386,2024-09-25 15:09:02.042729984,0,017,-0.12431708472441268,-0.5516365425137102,-1.9319503154901376,0.14060718022097174,1.2811609996851325,-0.34132442925482476,4.071571323855069,-0.7852568465522698,0
387,2024-09-25 15:09:02.109639936,0,017,-0.15102638275070476,-0.5542065242171357,-1.9514086160346185,0.1448321513270062,1.238277484933555,-0.34162073214183236,3.916409423761946,-0.7478304020166046,0
388,2024-09-25 15:09:02.170711040,0,017,-0.18109377164581636,-0.5563184252180349,-1.9514310506932195,0.14934755871499578,1.1856591642517325,-0.33932887384359073,3.799659872282315,-0.7143663306948609,0
389,2024-09-25 15:09:02.232777984,0,017,-0.21444325858269161,-0.5579896342855496,-1.9362412341339579,0.15486725614595998,1.1246684756647458,-0.33460936279732656,3.73236695224173,-0.6864879436856167,0
390,2024-09-25 15:09:02.310057984,0,017,-0.2509369376645301,-0.5592623195129057,-1.9101950377768746,0.16202461216424394,1.056762528156547,-0.32768429861270104,3.7231238138481704,-0.6653330549869815,0
391,2024-09-25 15:09:02.372061952,0,017,-0.2903944812908205,-0.5601931404050243,-1.8775646843600013,0.17136645991837512,0.9834671501129546,-0.3188211628958221,3.7777393422124463,-0.6516358675541044,0
392,2024-09-25 15:09:02.434042880,0,017,-0.33257607281419954,-0.5608383394884345,-1.8422493754535851,0.18331720651170616,0.9063747314502697,-0.3083185890653943,3.898759155937201,-0.6458227765731481,0
393,2024-09-25 15:09:03.392796928,0,017,-0.37713344992366066,-0.5612361116646705,-1.8074817612802812,0.198129096888778,0.8271573349572645,-0.29649667852178824,4.08488767618936,-0.6480698894885871,0
394,2024-09-25 15:09:03.451596800,0,017,-0.42359274206263237,-0.561388571318253,-1.7757861659653404,0.21587751234859492,0.747573850835103,-0.2836911118403794,4.330522825424444,-0.6583045832638589,0
395,2024-09-25 15:09:03.513625856,0,017,-0.471405629756583,-0.5612456401980088,-1.7492446816084548,0.2365241622172155,0.6694300284364193,-0.2702423504695425,4.625609734310565,-0.6761615332956146,0
396,2024-09-25 15:09:03.591281920,0,017,-0.520019899624426,-0.5606959890934993,-1.729744833123383,0.2599926115580705,0.5944579117135406,-0.25647012008549197,4.955955338823304,-0.7009260269201456,0
397,2024-09-25 15:09:03.654718976,0,017,-0.568888578244013,-0.5595737769609612,-1.7188564424397612,0.2861729587380099,0.5241353316865699,-0.2426368038851291,5.303991735081319,-0.7314960213592404,0
398,2024-09-25 15:09:03.730817024,0,017,-0.6174086480781313,-0.5576838834426777,-1.7173522517064084,0.3148283940790397,0.45950758381193235,-0.22891662124297923,5.649854418351179,-0.7663824453505362,0
399,2024-09-25 15:09:03.799572992,0,017,-0.6648687523112323,-0.5548327308362359,-1.724643760790897,0.3454429629434214,0.401050336340787,-0.215381485053625,5.972702152669475,-0.8037586628428797,0
400,2024-09-25 15:09:04.738818816,0,017,-0.710473000222228,-0.5508463461056403,-1.7383062781107288,0.37706204553154943,0.34858356526449824,-0.2019995731810077,6.252248822005663,-0.8415502743289757,0
401,2024-09-25 15:09:04.810725888,0,017,-0.7534166076332944,-0.5455714432078902,-1.753738175660548,0.40817003997334567,0.30127555903441816,-0.18864378254114017,6.47035998681093,-0.8775438688439888,0
402,2024-09-25 15:09:04.878349056,0,017,-0.7929478547551975,-0.538871340057182,-1.7641285784941434,0.43667337588280264,0.25779851968072315,-0.17511896544072975,6.612480115042678,-0.9095089403841538,0
403,2024-09-25 15:09:04.940386048,0,017,-0.8283986360035911,-0.5306282418785138,-1.761024573465246,0.4600647419871921,0.21662416042619456,-0.1612114063741482,6.668654972803437,-0.9353333176551604,0
404,2024-09-25 15:09:05.014059008,0,017,-0.8592122304974182,-0.5207506257007704,-1.7355487465002013,0.4757721756881846,0.1763393064589607,-0.14674232713505947,6.633935578648132,-0.9531520271069812,0
405,2024-09-25 15:09:05.078864896,0,017,-0.8849795928676771,-0.5091767011592551,-1.6799886181985315,0.48160237662826644,0.1358538989293343,-0.13160054757623396,6.508146981966065,-0.9614503712964598,0
406,2024-09-25 15:09:05.141789184,0,017,-0.905455042196933,-0.49587284577771845,-1.589419141889494,0.4761609886452463,0.0944696075841929,-0.11574789354278624,6.295307616448901,-0.9591503904558766,0
407,2024-09-25 15:09:06.056960256,0,017,-0.9205274819035888,-0.48083817065937984,-1.4630117379813263,0.4591522854934656,0.05185418355847448,-0.09921011892854074,6.003016418393664,-0.9456939893158591,0
408,2024-09-25 15:09:06.134738944,0,017,-0.9301743348969036,-0.4641227697391834,-1.3045955052345146,0.4314887787511985,0.007963192662806125,-0.08206613402003761,5.641901185395017,-0.9211143639266863,0
409,2024-09-25 15:09:06.197127168,0,017,-0.9344446957445803,-0.44585222605263486,-1.1222407619144368,0.3951994749354823,-0.03707057281925479,-0.06443848421605847,5.225080957372997,-0.8860789828221675,0
410,2024-09-25 15:09:06.258714880,0,017,-0.9334766166525719,-0.42624718708416975,-0.9271212779736043,0.3531914223711586,-0.0830363657703431,-0.04648661253953425,4.767609367453135,-0.841896638528357,0
411,2024-09-25 15:09:06.335910144,0,017,-0.9275280583996202,-0.4056342647905842,-0.7320945217005688,0.308929691459461,-0.12968146479218207,-0.028407809457148225,4.285901185946792,-0.7904851858372628,0
412,2024-09-25 15:09:06.406949888,0,017,-0.9170278525374586,-0.3844456934995668,-0.5502245365042255,0.26606977095874723,-0.17669537910529814,-0.010444634765635995,3.7971512878175226,-0.7342850797628219,0
413,2024-09-25 15:09:06.460039936,0,017,-0.9026600818017118,-0.36320214803282036,-0.3933319470454682,0.22806303132391922,-0.22369507699083788,0.007111707907921717,3.318754566283255,-0.6760976174266127,0
414,2024-09-25 15:09:07.417374976,0,017,-0.8854518115556167,-0.34247886908628955,-0.27072585391930554,0.197771796828275,-0.2702186772323591,0.023931071728538617,2.8676837669995283,-0.6188459052176561,0
415,2024-09-25 15:09:07.485465088,0,017,-0.8668078752611375,-0.3228652193321692,-0.18832224985907928,0.17715146126826828,-0.31569895152709,0.03966707363453566,2.45969878862015,-0.5652864671387692,0
416,2024-09-25 15:09:07.553250048,0,017,-0.8484636561826582,-0.30492932077227963,-0.1482729317072353,0.16706086041790585,-0.3594297996137448,0.05398669207072206,2.108345866390186,-0.5177191536979301,0
417,2024-09-25 15:09:07.620292864,0,017,-0.8323663647980258,-0.28919067134189186,-0.1491195175540811,0.16724619348421949,-0.4005881871870708,0.06660077596910294,1.8239411277982425,-0.47774403277112615,0
418,2024-09-25 15:09:07.680355840,0,017,-0.820512723010549,-0.27609465305188624,-0.1864286657297342,0.1765065424497526,-0.43834381430490293,0.07729072391064915,1.6127965730278429,-0.446099177077348,0
419,2024-09-25 15:09:07.741494016,0,017,-0.8147712652137571,-0.26598566482136005,-0.25377485684787426,0.19298204933193439,-0.4720091780296568,0.08592441730667431,1.4768239924518247,-0.42260745867986466,0
420,2024-09-25 15:09:07.819126016,0,017,-0.8167195040629148,-0.25908592544980846,-0.34383283680628635,0.21445781480667825,-0.5011556028871277,0.09245386057378388,1.4136113267940247,-0.4062660935444527,0
421,2024-09-25 15:09:08.764907008,0,017,-0.8275274552128591,-0.25548828084838265,-0.4493408862561503,0.2386052045746327,-0.5256633220268865,0.09689462046710723,1.4170409608898704,-0.39548589526253086,0
422,2024-09-25 15:09:08.827056896,0,017,-0.847889704723121,-0.2551639243451864,-0.5637578878014526,0.26314600909699704,-0.5457158384199783,0.09929741750471449,1.4783269025448813,-0.3884283730241242,0
423,2024-09-25 15:09:08.902123008,0,017,-0.8779722587275687,-0.257982318637591,-0.681538606984238,0.2859633815909857,-0.5617578716238354,0.09972369434386877,1.587145535768206,-0.38335429421577405,0
424,2024-09-25 15:09:08.969912064,0,017,-0.917367995497811,-0.26373910358696456,-0.7981441603390227,0.30519681544633687,-0.5744364482876224,0.09823165675959572,1.7325609596376137,-0.37890787767370215,0
425,2024-09-25 15:09:09.027870208,0,017,-0.9651049386929956,-0.2721840885991744,-0.9100363789056749,0.31934782654938615,-0.5845464470187427,0.09487629449196074,1.9036918699723697,-0.3743024423451416,0
426,2024-09-25 15:09:09.105500928,0,017,-1.0197161700635324,-0.28304477720114196,-1.0147771460885762,0.3273884083151604,-0.5929852462229407,0.08972270763216324,2.090257212921956,-0.36941157169601857,0
427,2024-09-25 15:09:09.173286912,0,017,-1.0793083310373992,-0.29605058454399935,-1.1111391966386461,0.32884220736598885,-0.6006948435174698,0.0828628719344572,2.283040936852508,-0.36476201561826077,0
428,2024-09-25 15:09:10.086718976,0,017,-1.1415986435559917,-0.31096024168220865,-1.199135169977815,0.3238217958392589,-0.60857775135201,0.0744242548983696,2.474141837901899,-0.36139995626769006,0
429,2024-09-25 15:09:10.160009984,0,017,-1.2039890460082026,-0.3275788849109299,-1.2799449696885403,0.3130171492582673,-0.6174045660846804,0.06456913717875111,2.656934543424111,-0.3606323302873648,0
430,2024-09-25 15:09:10.225524992,0,017,-1.263748781083584,-0.34574761034597606,-1.3556012154558004,0.2976103876618569,-0.6277276331466719,0.053488864399565406,2.8258671689069415,-0.3637186205396971,0
431,2024-09-25 15:09:10.295577088,0,017,-1.318276766362624,-0.36530769866796575,-1.4282269391093831,0.2790898717152538,-0.6397947011051367,0.04139292889968799,2.9763315675536544,-0.3716204763877689,0
432,2024-09-25 15:09:10.363392000,0,017,-1.3653420267784078,-0.38606162100751945,-1.4989417622408217,0.2589965147129584,-0.6534765177337184,0.02849547608912533,3.1048075931369854,-0.38487134661044403,0
433,2024-09-25 15:09:10.431187968,0,017,-1.4032209792393249,-0.4077495449157423,-1.5669765941747005,0.23869451343884138,-0.6682429264778853,0.01500965237425098,3.209302309407341,-0.40356072302924634,0
434,2024-09-25 15:09:10.487467008,0,017,-1.430732895028258,-0.43004130426774706,-1.6295245099642883,0.2192454385787512,-0.6831945600686301,0.001154437802779228,3.289843948271552,-0.42739025544952997,0
435,2024-09-25 15:09:11.440717056,0,017,-1.4472379449841908,-0.45253672458174476,-1.682402039183461,0.2014045392780726,-0.6971363703029426,-0.012835852860197906,3.348674889937059,-0.45575250880083407,0
436,2024-09-25 15:09:11.503588864,0,017,-1.4526432376443688,-0.4747758024068957,-1.7211737429070795,0.18570588293099077,-0.7086925472422264,-0.026711125762008573,3.389992807544147,-0.4878019487716249,0
437,2024-09-25 15:09:11.564717056,0,017,-1.4474032268155486,-0.4962621981830312,-1.7422858452582974,0.17257066137010452,-0.7164577974141466,-0.040213998636739315,3.419412338090135,-0.522519118919057,0
438,2024-09-25 15:09:11.641933824,0,017,-1.4324808188599822,-0.5164949493984449,-1.7438369946654513,0.16236726814011376,-0.7191521654457919,-0.05309010094371463,3.4433824514411286,-0.5587743732619196,0
439,2024-09-25 15:09:11.713586176,0,017,-1.4092559782238188,-0.5350029230461082,-1.7257636521475832,0.15538663935354685,-0.7157385166487318,-0.06510028705892384,3.4686246501209133,-0.5953790126591056,0
440,2024-09-25 15:09:11.781097984,0,017,-1.3793956635783406,-0.5513822926094517,-1.6894965140252391,0.15175961547092445,-0.7054869621275629,-0.07604173407222017,3.5015518339788843,-0.6311121523118666,0
441,2024-09-25 15:09:11.843143936,0,017,-1.3447134373267862,-0.5653325103416496,-1.6374218029922012,0.15139084464275823,-0.6880054736550545,-0.08577569878964389,3.547630606507177,-0.6647275575315735,0
442,2024-09-25 15:09:12.786340096,0,017,-1.3070376005574706,-0.5766774166997414,-1.5724431122229838,0.15396696341796526,-0.6632583808513408,-0.09424651056383819,3.610710410535804,-0.6949540605681677,0
443,2024-09-25 15:09:12.860218112,0,017,-1.2680871035081491,-0.585363457913082,-1.497693998722444,0.15902718707018484,-0.6315609729309567,-0.1014805382075331,3.6924745361385622,-0.7205178086843503,0
444,2024-09-25 15:09:12.928002304,0,017,-1.2293517491513868,-0.5914432200367865,-1.416388686958901,0.1660458778226996,-0.5935247418502293,-0.10757092775475613,3.79226055402077,-0.7402292084779206,0
445,2024-09-25 15:09:12.995808000,0,017,-1.1919953382899269,-0.5950576795165774,-1.3318356132712206,0.17449781965990066,-0.5499591175446122,-0.11266211857288896,3.9074033389705267,-0.7531554855521093,0
446,2024-09-25 15:09:13.049404928,0,017,-1.1568198820825797,-0.5964187831376836,-1.2475017453540895,0.18389653797836128,-0.5017690684423511,-0.11693937333992631,4.0339922702673725,-0.758838604032748,0
447,2024-09-25 15:09:13.130710016,0,017,-1.1242978838707904,-0.5957878243020288,-1.1669019366276832,0.1937941848623464,-0.44988204288976674,-0.12061761150797652,4.1677269271766875,-0.7574747349472808,0
448,2024-09-25 15:09:13.188218112,0,017,-1.0946238881525523,-0.5934542194396539,-1.0932288366383494,0.2037427006714401,-0.39520318093465134,-0.12392652103988598,4.304559786413905,-0.7499864175919794,0
449,2024-09-25 15:09:14.142486016,0,017,-1.0677452144009807,-0.5897225551340465,-1.028857012131471,0.21323957235868615,-0.3385788112929968,-0.12709720671252517,4.440954900397698,-0.7379656744355242,0
450,2024-09-25 15:09:14.210337024,0,017,-1.04339037917858,-0.5849055216525121,-0.9749215742940333,0.22168795386238202,-0.2807589301645844,-0.13035407500360183,4.573804366691708,-0.7235152738919224,0
451,2024-09-25 15:09:14.278177024,0,017,-1.0211210343092691,-0.5793156894543795,-0.9310685437483948,0.22838005041468765,-0.22235721323408447,-0.13390947890625612,4.70024624700065,-0.7090507272557646,0
452,2024-09-25 15:09:14.345892864,0,017,-1.0003886787718452,-0.573257451943344,-0.8953762172233937,0.2324905196617802,-0.16380275011383733,-0.13795943082813406,4.817608559642824,-0.697113148924952,0
453,2024-09-25 15:09:14.413803264,0,017,-0.9805696168189302,-0.5670266803551876,-0.8645057483686096,0.23307563007883061,-0.10529237635753359,-0.1426817386560111,4.923477501086646,-0.6901918985231029,0
454,2024-09-25 15:09:14.468957952,0,017,-0.9609903033119644,-0.5609196198792437,-0.8341608927503196,0.22909840701422196,-0.04678272934321663,-0.14823437945313084,5.015754731945092,-0.69053759875076,0
455,2024-09-25 15:09:14.546615040,0,017,-0.9409670747766782,-0.5552424671849109,-0.7997252297805826,0.21950096101874136,0.011948917368171174,-0.1547478708160655,5.092673392604818,-0.6999809410570066,0
456,2024-09-25 15:09:15.481298176,0,017,-0.9198535542058184,-0.5503110915956906,-0.7568085523404496,0.20332671851457873,0.0712066428500212,-0.16231121174729918,5.152897655418919,-0.7198017633729586,0
457,2024-09-25 15:09:15.558711808,0,017,-0.8970756673768333,-0.5464377068295576,-0.7016477078379351,0.1798798029888548,0.13129849146357697,-0.17096039649058312,5.1957884103421685,-0.750670598006103,0
458,2024-09-25 15:09:15.621545984,0,017,-0.8721645891303164,-0.5439073931994026,-0.6315661676843908,0.14889878804104884,0.192484201367637,-0.18067736993345657,5.221694278353427,-0.7926327605117676,0
459,2024-09-25 15:09:15.695937024,0,017,-0.8448183846272564,-0.5429466417672603,-0.5456245392067587,0.11071460544852932,0.2549099218144998,-0.19139677693040752,5.232010012496818,-0.8450832659019997,0
460,2024-09-25 15:09:15.763712000,0,017,-0.8149869706407197,-0.5436879190994692,-0.4452510312011043,0.06634804342801914,0.3185315641882434,-0.20301283565908626,5.2288920725221635,-0.9067162036367031,0
461,2024-09-25 15:09:15.821428992,0,017,-0.7829265896460751,-0.5461424513725507,-0.3344239147282517,0.017488514267006528,0.3830840810279699,-0.21538588673667433,5.21475448168867,-0.9754912927326883,0
462,2024-09-25 15:09:15.884302080,0,017,-0.7491741286189293,-0.5501953664007518,-0.21920180280016155,-0.03367358421085994,0.4481413950968145,-0.2283563031066336,5.191774739620384,-1.0486847906210381,0
463,2024-09-25 15:09:16.829421056,0,017,-0.7144399480071939,-0.5556255127603631,-0.10686065066101674,-0.08470864223753506,0.513246483603908,-0.24176839815719964,5.16157480023788,-1.1230534772337946,0
464,2024-09-25 15:09:16.907604992,0,017,-0.6794591955809512,-0.5621383139588558,-0.005057728055663268,-0.1332003749301938,0.5780431036786134,-0.2554925862519583,5.125097818590169,-1.195088030094344,0
465,2024-09-25 15:09:16.969609216,0,017,-0.6448460580174509,-0.5694000061053966,0.07885429583833972,-0.17692694248743848,0.6423493191879798,-0.26942977509985044,5.0826455225270095,-1.2613220933999154,0
466,2024-09-25 15:09:17.046605312,0,017,-0.6109779937381186,-0.5770725130375864,0.13852036961021752,-0.2139860386675149,0.7061585161548734,-0.2834956850337675,5.0340682298678985,-1.3186587661760687,0
467,2024-09-25 15:09:17.114417920,0,017,-0.5779310196656304,-0.5848499340200324,0.1693015993576432,-0.24289516524347146,0.7695839223528507,-0.29759645492295483,4.979035527221015,-1.3646417951819036,0
468,2024-09-25 15:09:17.171459840,0,017,-0.5454864121731977,-0.5924868595515479,0.16877132386828042,-0.26266570540182455,0.8327669536896857,-0.3116055353054944,4.917225111984384,-1.3975997437897505,0
469,2024-09-25 15:09:17.249732864,0,017,-0.5132018588013749,-0.5998077952433055,0.13677764626773292,-0.27283798168653817,0.8957843907752805,-0.3253473385677328,4.84835499668342,-1.4166619894710464,0
470,2024-09-25 15:09:18.167709184,0,017,-0.48050571535699016,-0.6067029105392677,0.07505908351688095,-0.2734632350571023,0.9586006107156858,-0.33859522804078335,4.772163530181732,-1.4217115412162933,0
471,2024-09-25 15:09:18.235528192,0,017,-0.4467838423464183,-0.6131239885309251,-0.013484478746539416,-0.26501354053241677,1.0210720437693304,-0.35108824549488205,4.6884829621977895,-1.4133444742197478,0
472,2024-09-25 15:09:18.303365888,0,017,-0.4114767692326827,-0.6190818900813679,-0.12561151088107173,-0.24823721580798444,1.0829591532663407,-0.36255827845122873,4.597431225401213,-1.3928603770805024,0
473,2024-09-25 15:09:18.368190976,0,017,-0.3742210801840302,-0.6246327867951892,-0.25826566111325383,-0.22402903096404772,1.1439103194350226,-0.37275231687792226,4.499640404363757,-1.3622494479643434,0
474,2024-09-25 15:09:18.426111744,0,017,-0.3350155875379787,-0.6298471312571727,-0.4086019579331921,-0.1933694359432779,1.203437398267459,-0.3814421013296887,4.396460766532264,-1.3241148882697698,0
475,2024-09-25 15:09:18.503303936,0,017,-0.29433269636860715,-0.6347745613114555,-0.5736740337724372,-0.15731921030935056,1.2609231816409612,-0.38842697569093815,4.290115394270421,-1.2814880107137814,0
476,2024-09-25 15:09:18.569086976,0,017,-0.25311965027747557,-0.6394229679670791,-0.7501300258628746,-0.11701824970889291,1.315656458748067,-0.3935402293777185,4.183767614709644,-1.2375401969809479,0
477,2024-09-25 15:09:19.517204992,0,017,-0.21272336219089216,-0.6437542761717815,-0.9341275603824589,-0.07366614302620886,1.3668509281855257,-0.3966601573569756,4.0814926750203515,-1.1952542888988502,0
478,2024-09-25 15:09:19.573198848,0,017,-0.17481121507635225,-0.6476849886324008,-1.1214142718530815,-0.028510399180124074,1.413630132564071,-0.3977159139641633,3.988174338835868,-1.1571454208796101,0
479,2024-09-25 15:09:19.650706944,0,017,-0.14129752508114357,-0.6510854698459596,-1.307467002581935,0.017140532803133324,1.4550106506225027,-0.39668149457751267,3.909268562037007,-1.1250752083550317,0
480,2024-09-25 15:09:19.720707072,0,017,-0.11421173190989237,-0.653788443931048,-1.4877467606492822,0.06191622041475052,1.4899297904092728,-0.3935678232475384,3.850297541087004,-1.1001353768988964,0
481,2024-09-25 15:09:19.773696768,0,017,-0.09547349708606731,-0.6556165870681278,-1.65810302899651,0.10443862872840448,1.5173323632277773,-0.3884269061685744,3.8160174063012122,-1.082572933374938,0
482,2024-09-25 15:09:19.851670016,0,017,-0.08663564049795361,-0.6564182861660944,-1.8150788976981853,0.1434159555382298,1.5362790866323055,-0.38136253823018,3.809416375972848,-1.071776612802362,0
483,2024-09-25 15:09:19.913238016,0,017,-0.08868430126597959,-0.6560902122077708,-1.9558072238714932,0.177719538057498,1.5460160580193858,-0.37252880187568727,3.8309030881096433,-1.0663717337277305,0
484,2024-09-25 15:09:20.838176000,0,017,-0.10192695247361695,-0.6545806318843425,-2.0775277520384083,0.20641452480602787,1.5459786420625985,-0.3621116003057544,3.8780279100827038,-1.0644367702778768,0
485,2024-09-25 15:09:20.910167040,0,017,-0.12595481909355147,-0.6518851641748817,-2.1770871671219103,0.22876721566030797,1.535752854677961,-0.35030696636239234,3.945787378805238,-1.0637863640247696,0
486,2024-09-25 15:09:20.977956096,0,017,-0.15967814092886737,-0.6480449255211208,-2.250766051748246,0.2442735111729808,1.5150270805952548,-0.3373060665071322,4.027325768982525,-1.0622472089306703,0
487,2024-09-25 15:09:21.038039040,0,017,-0.20143886981235068,-0.6431447003007512,-2.2945014520108638,0.252724793351072,1.4835556856484247,-0.32328087479903383,4.114864176048035,-1.0578988288475681,0
488,2024-09-25 15:09:21.099602176,0,017,-0.24917235534105547,-0.6373061020318941,-2.3043616318301403,0.25428001737960504,1.4411700300380725,-0.3083638185835512,4.200694371123863,-1.0492703671890038,0
489,2024-09-25 15:09:21.181436928,0,017,-0.3005670606924763,-0.6306793577533348,-2.277116445675986,0.24949743620708156,1.3878776883656412,-0.29263016600700476,4.277984240568224,-1.035458220760872,0
490,2024-09-25 15:09:21.249244928,0,017,-0.353201454243548,-0.6234410934343743,-2.210806545294274,0.23930253815624836,1.3240350337251905,-0.2760987673752558,4.341184073036873,-1.016128883899693,0
491,2024-09-25 15:09:22.189326848,0,017,-0.4046819543172894,-0.6157963373561377,-2.105269360223515,0.2248961769495286,1.2505072813239786,-0.2587530854815604,4.386044453739792,-0.9914166792983278,0
492,2024-09-25 15:09:22.251958016,0,017,-0.4528007689847389,-0.6079742542276467,-1.9625834947959018,0.207618974950026,1.1687277310351571,-0.240567203904869,4.40945146319948,-0.9617782590401242,0
493,2024-09-25 15:09:22.314445056,0,017,-0.49568909778630343,-0.6002111864212085,-1.7873189209949834,0.18879712612691457,1.080640988447581,-0.22152325625637387,4.409283933624062,-0.9278832875767327,0
494,2024-09-25 15:09:22.395837952,0,017,-0.5319305567344739,-0.5927245969046036,-1.5865051330905353,0.16961500390919707,0.9885854889663878,-0.20162386397592683,4.38437687052886,-0.8905800339058512,0
495,2024-09-25 15:09:22.454200064,0,017,-0.5606367337310258,-0.5856857596202705,-1.3693851217316666,0.1510619591952062,0.8951584440020182,-0.18090870895230862,4.334609634277083,-0.8509064695916245,0
496,2024-09-25 15:09:22.531137024,0,017,-0.5815131807954335,-0.5791950540692342,-1.1470272967593995,0.1339520156619415,0.8030387047899985,-0.15946971313343913,4.26111412336779,-0.8100927662532607,0
497,2024-09-25 15:09:22.593204224,0,017,-0.5949192680934898,-0.573258794938126,-0.931692448203198,0.11896378459947343,0.7147369389751668,-0.13744945242792717,4.166515801262828,-0.76953226046182,0
498,2024-09-25 15:09:23.542827776,0,017,-0.6018729599475824,-0.5677712800554426,-0.7358240878306672,0.10665634045422115,0.632327927272322,-0.11502172653365254,4.0550240381012985,-0.7307193416380575,0
499,2024-09-25 15:09:23.598701824,0,017,-0.6039341430328938,-0.5625168544679384,-0.5707536421776386,0.09746097242167515,0.5572845763224957,-0.09237490374455516,3.9321964485674985,-0.6951384515744011,0
500,2024-09-25 15:09:23.678139904,0,017,-0.6029563401902596,-0.5572056599097245,-0.4454486233206859,0.09167502051314018,0.49048381187576856,-0.06971760553123167,3.8043067580899024,-0.6640916842598922,0
501,2024-09-25 15:09:23.738036992,0,017,-0.6007838979110119,-0.5515367547299572,-0.36566512134094864,0.08947430701695747,0.43233750671826693,-0.04730092563548249,3.67735432451413,-0.6384907012876624,0
502,2024-09-25 15:09:23.800077824,0,017,-0.5990018918367709,-0.5452616734268707,-0.3336640026446701,0.09092397333426874,0.3829420223603614,-0.025432496829129892,3.5559045490021184,-0.6186663275121096,0
503,2024-09-25 15:09:23.877229056,0,017,-0.5987934001828094,-0.5382226613234775,-0.34838026432108465,0.09595313731330533,0.34218821032951047,-0.004467875049810796,3.4421990191962277,-0.6042570367817955,0
504,2024-09-25 15:09:23.938760960,0,017,-0.6008936359063328,-0.5303613847042818,-0.4058374249841155,0.10430275119692999,0.3098361932439665,0.015213473970512897,3.3360130955174903,-0.5942310151085503,0
505,2024-09-25 15:09:24.891576064,0,017,-0.6056172473324752,-0.5217106616244563,-0.49969098259718914,0.11550134117538306,0.285546069551584,0.03323670632094175,3.235264024083609,-0.5870407063175272,0
506,2024-09-25 15:09:24.959424000,0,017,-0.6129379325917441,-0.5123807193195702,-0.621898173826716,0.12890688450785623,0.2688377727369033,0.049262881393623524,3.1368589179390387,-0.5808330626857523,0
507,2024-09-25 15:09:25.027316224,0,017,-0.6225740301111486,-0.5025456096378597,-0.7635336415198186,0.14379993614987926,0.2590152234182147,0.0630204396134293,3.037366578253886,-0.5736437467196055,0
508,2024-09-25 15:09:25.095107072,0,017,-0.6340376368702195,-0.49243326071519783,-0.915684149153115,0.15947933908553366,0.2551515548192175,0.07432712559075126,2.933521368883245,-0.5635766360073274,0
509,2024-09-25 15:09:25.147944192,0,017,-0.6466684181474558,-0.48231956394167685,-1.0702333831531219,0.17532178168844947,0.2561893561730796,0.08309354796150452,2.8226820623270434,-0.5489901174759879,0
510,2024-09-25 15:09:25.225228032,0,017,-0.6597032194329979,-0.47252224928121633,-1.2203239082529427,0.19079976010841437,0.2611060784110832,0.08930976191784341,2.7032490766436164,-0.5286752777589397,0
511,2024-09-25 15:09:25.286316032,0,017,-0.6723814789855337,-0.4633880966616463,-1.360433823322454,0.20547572560111768,0.26904881112293955,0.09302688562689398,2.5750336831790848,-0.5020059640531425,0
512,2024-09-25 15:09:26.241698048,0,017,-0.684033829051976,-0.4552704921316479,-1.4862620185260595,0.21900363035851428,0.2793926382776219,0.09434467468411342,2.4395281722392284,-0.4690391890696724,0
513,2024-09-25 15:09:26.309478144,0,017,-0.6941122282231414,-0.4485023282686476,-1.5947378692934515,0.23116672157156645,0.2917404487972264,0.09340372608090781,2.2998630932494857,-0.43051464395874406,0
514,2024-09-25 15:09:26.377085952,0,017,-0.7021718366979418,-0.4433732581142118,-1.6842772776905583,0.24194141470657823,0.3058804241115085,0.09037476299707004,2.1602664607377218,-0.3877218493212769,0
515,2024-09-25 15:09:26.438697984,0,017,-0.7078473374499206,-0.44011493878254304,-1.7550822994290196,0.2515354744449569,0.3216950167774389,0.08544423995804426,2.025094114816522,-0.34227443524941226,0
516,2024-09-25 15:09:26.512924928,0,017,-0.7108533462292783,-0.43888968138497064,-1.809172959738535,0.26035564322066124,0.3390464175720926,0.07880320568843972,1.8977495952919763,-0.2958689115566135,0
517,2024-09-25 15:09:26.580761856,0,017,-0.711013031560799,-0.4397770724331407,-1.8500211305366745,0.26891008785826903,0.35770524745301263,0.0706437623378914,1.7799356481472326,-0.250094913795722,0
518,2024-09-25 15:09:26.641141760,0,017,-0.7083103912055272,-0.44276045300433864,-1.881906402392576,0.277697240301059,0.37735796807239824,0.061158531506313694,1.6715209105623594,-0.2063345026606033,0
519,2024-09-25 15:09:27.591756032,0,017,-0.7029593390659824,-0.44771928060273586,-1.9092505006081926,0.2871350178610386,0.3976482646598744,0.050539162652690164,1.5709076316528618,-0.16574508346156097,0
520,2024-09-25 15:09:27.645967104,0,017,-0.6954698854790785,-0.4544285487149936,-1.9361802552481389,0.2975518178408724,0.41818031559755414,0.03898092121081816,1.4755894647071355,-0.12927660831539967,0
521,2024-09-25 15:09:27.722695936,0,017,-0.6866693106469564,-0.46256390368393696,-1.9663988990624082,0.30922433995282844,0.4384793863726415,0.026698310089817913,1.3827880179230392,-0.09767909489941037,0
522,2024-09-25 15:09:27.795258112,0,017,-0.6776383028974733,-0.4717169144977458,-2.0032346314920275,0.32242611814001726,0.4579770205518297,0.013938329954538099,1.2902434911316145,-0.07151277112555789,0
523,2024-09-25 15:09:27.863074048,0,017,-0.6695771467854283,-0.4814260045213268,-2.0496948940748934,0.3374533974637307,0.47605953634699066,0.0009739933524146366,1.197058786259838,-0.05119030937651105,0
524,2024-09-25 15:09:27.930895104,0,017,-0.6636780791490938,-0.49121627205634333,-2.1084480711592457,0.3546083459614109,0.49213971153714153,-0.011918907045235693,1.1042583609010062,-0.03703633061083408,0
525,2024-09-25 15:09:27.998756096,0,017,-0.6610707150450318,-0.5006300990990267,-2.1817349807329935,0.3741329529196542,0.5056957303196815,-0.02448150768785409,1.0148042581946988,-0.029325097972678273,0
526,2024-09-25 15:09:28.904159232,0,017,-0.6628321374248447,-0.5092390491885661,-2.2712276774279267,0.3961090210874105,0.5162639889323378,-0.03647371763235869,0.9330737174089152,-0.02827457135202307,0
527,2024-09-25 15:09:28.982121728,0,017,-0.6699929529359563,-0.5166490777509517,-2.3778357678152084,0.42035973758674183,0.5234027764972702,-0.04766264953221412,0.8640164516420059,-0.0340002692512052,0
528,2024-09-25 15:09:29.044557056,0,017,-0.683479020328258,-0.5225185354323075,-2.501467571849442,0.4463842158522682,0.5266448868428739,-0.05781206102434457,0.8122930205943778,-0.04645411643996487,0
529,2024-09-25 15:09:29.120820992,0,017,-0.703976784461639,-0.526593766678249,-2.6407591756480513,0.47333325910036833,0.525458804134228,-0.06668132837390116,0.7815986036490447,-0.06537535204153959,0
530,2024-09-25 15:09:29.184181760,0,017,-0.7317535870480766,-0.5287482745430306,-2.7928042792343004,0.5000200054490315,0.5192536622818927,-0.07403383305865852,0.7742499683034193,-0.09026916617782779,0
531,2024-09-25 15:09:29.256444160,0,017,-0.7664948560686088,-0.5290064991747543,-2.9529933534376234,0.5249657158854867,0.5074614172294489,-0.07965389157178013,0.7910660931014133,-0.12042921575430486,0
532,2024-09-25 15:09:29.323001088,0,017,-0.8072286962579506,-0.5275441552661855,-3.1150828502482937,0.5464913393205242,0.4896832196221345,-0.08337152237935452,0.8314945487972099,-0.15500751339693977,0
533,2024-09-25 15:09:30.251462912,0,017,-0.8523798416099017,-0.5246685502371193,-3.271496999552341,0.5628590254405862,0.46583204397279,-0.0850888969543075,0.8938477076811501,-0.19309328480487017,0
534,2024-09-25 15:09:30.334692864,0,017,-0.8999327971813571,-0.5207838550752155,-3.4137873734361057,0.5724478911230768,0.43621022620175914,-0.08479936120244246,0.975488773185419,-0.2337404886361461,0
535,2024-09-25 15:09:30.391283968,0,017,-0.9476255438926596,-0.5163470134442705,-3.533239637553355,0.5739391904986119,0.40152570303131335,-0.08259531554879487,1.0728430170556316,-0.27591585931015244,0
536,2024-09-25 15:09:30.470275840,0,017,-0.9931089547365375,-0.5118228355314535,-3.6216300130470573,0.5664918428170244,0.3628763920732036,-0.07866570196747857,1.181258451498339,-0.31839967215275006,0
537,2024-09-25 15:09:30.530471168,0,017,-1.0340877510453121,-0.5076429115457736,-3.6719899251926265,0.549885686270466,0.3216833889739736,-0.07328134545229781,1.294904530263592,-0.35971465352902265,0
538,2024-09-25 15:09:30.605915136,0,017,-1.0684915520872367,-0.5041671032482362,-3.679173352233317,0.5246001307966416,0.2795368053768314,-0.06676694763074002,1.4068846799925796,-0.39815170910877334,0
539,2024-09-25 15:09:30.670222848,0,017,-1.0946682228198146,-0.5016484058254115,-3.6401438505722554,0.4918036537841938,0.2379915199171999,-0.05946735393416177,1.5096266821881685,-0.4319045962065942,0
540,2024-09-25 15:09:31.587758080,0,017,-1.1115365634040935,-0.5002082893467562,-3.553964627254311,0.45323918458516727,0.19841588173537147,-0.05172221040361528,1.5955209410816455,-0.4592636238760755,0
541,2024-09-25 15:09:31.650597120,0,017,-1.1186458207648469,-0.49983227459892465,-3.4214527869458955,0.4109976468031782,0.16196177537340548,-0.04385883486362544,1.6576433702282434,-0.478801248593605,0
542,2024-09-25 15:09:31.727633920,0,017,-1.1161447230176043,-0.5003893902564339,-3.2446147129611416,0.3672195247428212,0.1296236593700838,-0.03620023019764743,1.690308028734379,-0.48951109728531284,0
543,2024-09-25 15:09:31.795914752,0,017,-1.1047001534084373,-0.5016669720134685,-3.0262004014166215,0.323824533071862,0.10229455582974636,-0.0290729911396141,1.689320435974,-0.49089414128687037,0
544,2024-09-25 15:09:31.863750912,0,017,-1.0853852005836726,-0.5034071939527022,-2.7696111609991942,0.2823535312991288,0.08076844257562761,-0.022801287817343967,1.6520236779862039,-0.4829895920815238,0
545,2024-09-25 15:09:31.928936960,0,017,-1.0595248820794614,-0.5053394219324546,-2.479073761563536,0.24393024790556211,0.06572019302187851,-0.01768863015919614,1.5772748063620339,-0.46633375924618026,0
546,2024-09-25 15:09:31.990935040,0,017,-1.0285151915896067,-0.5072095355927262,-2.1598452151917518,0.20929735522300466,0.057713276021729,-0.014000330023886422,1.465392082555785,-0.44183866812250766,0
547,2024-09-25 15:09:32.931689984,0,017,-0.9936831424586033,-0.5088035943687087,-1.8182843136436644,0.17887166271160324,0.05723244304012925,-0.011954578188516583,1.3180882248340722,-0.4106275916731341,0
548,2024-09-25 15:09:33.008444160,0,017,-0.9562294403739043,-0.5099606707799997,-1.4617629780364914,0.15277806761818236,0.06469668325320271,-0.011720228202519774,1.138442982799493,-0.3738945135673146,0
549,2024-09-25 15:09:33.078284032,0,017,-0.9172023308548465,-0.5105778202171055,-1.0984886913402174,0.13085274195312607,0.08042785468625964,-0.013418553689834526,0.9309372021045499,-0.3328283912265148,0
550,2024-09-25 15:09:33.146065920,0,017,-0.877432169899424,-0.5106148793255624,-0.737305873578344,0.11264118773870536,0.1045889210717181,-0.01713002040672027,0.7014761324171681,-0.28859700921128234,0
551,2024-09-25 15:09:33.207688960,0,017,-0.8374490998378495,-0.5100976729942075,-0.38746267333939866,0.09743378475606336,0.1371129565724385,-0.02290442848680997,0.4572821085639309,-0.2423615606195509,0
552,2024-09-25 15:09:33.281689088,0,017,-0.7974653366553,-0.5091086772640968,-0.058261906379291996,0.08435932354858562,0.1776404695659673,-0.030766478817026873,0.20659292420436293,-0.19528988150764404,0
553,2024-09-25 15:09:33.349528064,0,017,-0.7574425113338945,-0.5077592991249452,0.24146612402695217,0.07251295170304081,0.22549249537352936,-0.04071025672793971,-0.041794606008394686,-0.14854611008341206,0
554,2024-09-25 15:09:34.283591168,0,017,-0.7171896673228856,-0.5061528816194568,0.5040095246377645,0.061073498897665966,0.27970226076400645,-0.05268478581590432,-0.2790252171559508,-0.10325760356511808,0
555,2024-09-25 15:09:34.345092096,0,017,-0.6764519388985543,-0.5043548053165041,0.723372644926257,0.04937736895120989,0.3390909614948059,-0.06657802634989345,-0.4966513113829808,-0.06047076237874569,0
556,2024-09-25 15:09:34.428306176,0,017,-0.6350007913283866,-0.5023776327302736,0.8957102957180941,0.03694149683578764,0.4023423027624944,-0.08220440313808354,-0.6871419231582345,-0.021083256151105765,0
557,2024-09-25 15:09:34.496120832,0,017,-0.5927310948720628,-0.5001776810961442,1.0195865698730195,0.023451280346432797,0.4680470256426603,-0.09929606979831333,-0.8445821758132173,0.014272479173304847,0
558,2024-09-25 15:09:34.560308224,0,017,-0.5497205369139759,-0.49765988143920986,1.0959949837742742,0.008747049163683976,0.5347349109246741,-0.1174978326196326,-0.9655088418062764,0.04537466672315025,0
559,2024-09-25 15:09:34.621869056,0,017,-0.5062041370361139,-0.4946943035943555,1.1279844514701904,-0.0071565075585914946,0.6009352623244371,-0.13637197478793683,-1.049581709905141,0.07251825885728239,0
560,2024-09-25 15:09:34.699554816,0,017,-0.46249088060765636,-0.49114365022005896,1.119860764026808,-0.024017360779757316,0.6652829237578958,-0.15542187948487488,-1.0997641015356203,0.09652236945285128,0
561,2024-09-25 15:09:35.642746112,0,017,-0.4189060437872566,-0.48688954081043123,1.0761775240927065,-0.041322741269954215,0.7266420161064475,-0.1741330640527724,-1.1218195959440036,0.11861692526848605,0
562,2024-09-25 15:09:35.703412992,0,017,-0.37579589992111734,-0.48184737596734334,1.0008256164099665,-0.05829779713581869,0.7842013051817612,-0.19201876613448918,-1.1231773178542306,0.14021551278634942,0
563,2024-09-25 15:09:35.765465088,0,017,-0.333549903882268,-0.47597553129143993,0.8964562244160809,-0.0739687376282126,0.837509491535193,-0.20865919904586533,-1.1115087887752857,0.16261721203060303,0
564,2024-09-25 15:09:35.846213120,0,017,-0.2925957391472663,-0.46928823692422583,0.7643268892844354,-0.08725521651110033,0.8864326299377142,-0.22373035572411334,-1.0934264945505765,0.18671908056838218,0
565,2024-09-25 15:09:35.904719872,0,017,-0.2533755323436923,-0.46186650153189523,0.6045373790878413,-0.09706889870231152,0.9310371058552429,-0.2370180127778709,-1.0735728116249141,0.2128260793836597,0
566,2024-09-25 15:09:35.966310912,0,017,-0.21631254462708105,-0.453854758331106,0.41660742415086943,-0.10240962018187727,0.9714533065083254,-0.24841327111179154,-1.0542590335049233,0.24060585119532496,0
567,2024-09-25 15:09:36.043462912,0,017,-0.18174541302080038,-0.4454432385082254,0.20034676422076242,-0.10246528799893682,1.0077968664980541,-0.2578940265335706,-1.0356057221144404,0.269167707322167,0
568,2024-09-25 15:09:36.992816896,0,017,-0.1498334594993925,-0.4368467527193219,-0.043147042408998165,-0.09672710365801472,1.0401546249683205,-0.2655017303927498,-1.015836891376369,0.2971906159620302,0
569,2024-09-25 15:09:37.053306112,0,017,-0.120500405042986,-0.4282860414837379,-0.3106690011573782,-0.08510865265510172,1.068561998140279,-0.27131834944245736,-0.9914910340619372,0.3230474511160388,0
570,2024-09-25 15:09:37.128462080,0,017,-0.09347855784097235,-0.4199681642525848,-0.5965693073717644,-0.06802086318700466,1.0929251974283245,-0.2754435063910551,-0.957769710074371,0.3449472100709155,0
571,2024-09-25 15:09:37.196239872,0,017,-0.06842487766358558,-0.41206364206396917,-0.8929833547446555,-0.0463653345086405,1.1129397546443658,-0.2779739131182763,-0.9093340621679686,0.36113179665460343,0
572,2024-09-25 15:09:37.264034048,0,017,-0.04501552064597138,-0.4046898301126285,-1.19042826931726,-0.021467199976785464,1.1280921565267648,-0.27899183604742545,-0.8414398178280539,0.37009769292856204,0
573,2024-09-25 15:09:37.331870208,0,017,-0.022973095154058425,-0.39791247200620505,-1.4785102651725048,0.005012562948261777,1.1377652246440093,-0.2785685105082983,-0.7509276878431235,0.37075922268853617,0
574,2024-09-25 15:09:37.392297216,0,017,-0.0020677884044386355,-0.3917625905349811,-1.746680802451188,0.031191655932747458,1.141391015972227,-0.2767812557829917,-0.636628294098248,0.3624934729773243,0
575,2024-09-25 15:09:38.327512064,0,017,0.017861506441802778,-0.3862533085468253,-1.985105091395461,0.05513860534700271,1.1385932787810122,-0.2737357362118894,-0.4990802783023175,0.3450773099260944,0
576,2024-09-25 15:09:38.410747136,0,017,0.036872068687433125,-0.3813866722769038,-2.1856007751516544,0.07509539482161952,1.1293100347431033,-0.2695843655530424,-0.33983384980542675,0.318585701741964,0
577,2024-09-25 15:09:38.478590976,0,017,0.05488695983555684,-0.3771548719935557,-2.342413399604783,0.08969531946586615,1.1138954536217938,-0.26453661593470396,-0.16081491737038295,0.2833312949854509,0
578,2024-09-25 15:09:38.546365952,0,017,0.07166857048266331,-0.37354513445981746,-2.452556555891556,0.098107546302403,1.0931542841125086,-0.2588575967520128,0.035879863783198386,0.23987824970182553,0
579,2024-09-25 15:09:38.614181120,0,017,0.08679526786459432,-0.37054741833869337,-2.51567513796551,0.1000757417528559,1.0682567452259804,-0.25284946668746344,0.24770283241616464,0.18910477516619217,0
580,2024-09-25 15:09:38.681513216,0,017,0.09965066414286501,-0.36815423979293255,-2.5336464951517548,0.09587319114417699,1.0405609178736586,-0.24681712456795457,0.47111261921105574,0.13226834477941696,0
581,2024-09-25 15:09:38.749819136,0,017,0.10943817075935693,-0.36634956371199046,-2.5101173886049675,0.08621006666130852,1.0114360089396561,-0.24103096791920495,0.7010952823421067,0.07102925111461052,0
582,2024-09-25 15:09:39.656724736,0,017,0.11523022325859808,-0.3650982679674427,-2.4500855087787894,0.07211940750336486,0.9821469798662191,-0.235700959194724,0.9309650783902772,0.007405725220825648,0
583,2024-09-25 15:09:39.735332096,0,017,0.11604169173258351,-0.3643460878990761,-2.359672210651348,0.054862504759619235,0.9537805615721882,-0.2309654482456919,1.1524448488252106,-0.05632229703545813,0
584,2024-09-25 15:09:39.802912000,0,017,0.11089922514825398,-0.36402567841912614,-2.2461143493379527,0.03588327962833754,0.9271660857016544,-0.2268861780922613,1.3559609991562989,-0.11772545449551629,0
585,2024-09-25 15:09:39.871411200,0,017,0.09890313143722448,-0.364060808238101,-2.117691235066215,0.016782259779627256,0.9027907370574515,-0.22344231877314003,1.5311879423941548,-0.1743471247933386,0
586,2024-09-25 15:09:39.936424960,0,017,0.07931276175212457,-0.36437148506290523,-1.9832458726710906,-0.0007540570895894436,0.8807581295272806,-0.2205313754939673,1.6678759035256365,-0.22383745032957,0
587,2024-09-25 15:09:40.007056896,0,017,0.05165946523548179,-0.36488734929356004,-1.8513072760952767,-0.015100335657894969,0.8608233604016525,-0.21799118870679016,1.7568148535430983,-0.264078150765757,0
588,2024-09-25 15:09:40.074902016,0,017,0.015833970975141675,-0.365565362012701,-1.7291693402347714,-0.024882489695625183,0.8424735619759622,-0.21564139502241259,1.790675124219975,-0.2932830891849699,0
589,2024-09-25 15:09:41.017511936,0,017,-0.0279015202023052,-0.3663975193486044,-1.6222630955112194,-0.02914515074141772,0.8249932111841446,-0.21332265589622368,1.7645996585680641,-0.310084540224266,0
590,2024-09-25 15:09:41.085359104,0,017,-0.07896244663655218,-0.36740165126998603,-1.5339095352521146,-0.027459328140994506,0.8074941234578233,-0.2109127224827497,1.6766241538126043,-0.3136187235531746,0
591,2024-09-25 15:09:41.153186048,0,017,-0.1364983899679097,-0.3686057713528383,-1.4654067533792945,-0.019966971280633603,0.7889463200405062,-0.20831995816283744,1.5280371546151086,-0.30362361663350074,0
592,2024-09-25 15:09:41.220992256,0,017,-0.19943485772711514,-0.37004065481795917,-1.416432736167926,-0.007352176991927752,0.7682468411234741,-0.20547110815875258,1.3236709212979825,-0.2805567334931295,0
593,2024-09-25 15:09:41.288808960,0,017,-0.26652850439575015,-0.37173925334116065,-1.3856978191795855,0.009276569270284987,0.7443107797881966,-0.2023031782415943,1.0719464357210675,-0.24569507795417703,0
594,2024-09-25 15:09:41.349971968,0,017,-0.3364556852798905,-0.3737275796438584,-1.3715934148568507,0.0285738278013609,0.7161411595735029,-0.19875515947283534,0.7844275088138066,-0.20112919736997226,0
595,2024-09-25 15:09:41.424435968,0,017,-0.4078987075216103,-0.3760007539454143,-1.3725767382776421,0.04916618322023841,0.6828728203832019,-0.19475547737801618,0.47479643855720394,-0.1495882084715353,0
596,2024-09-25 15:09:42.340086016,0,017,-0.4795700873655472,-0.3785001255053703,-1.3873437537786402,0.06984619884109507,0.6438251138202252,-0.19021103922087168,0.15745063831952352,-0.09412209150218324,0
597,2024-09-25 15:09:42.409979904,0,017,-0.5501668618649929,-0.3811133347270976,-1.4150565354459876,0.08973010920372797,0.598572978109987,-0.18500624010638206,-0.1539285586961123,-0.037726997843915484,0
598,2024-09-25 15:09:42.463308032,0,017,-0.6183181196328448,-0.38369865546714577,-1.455717313548912,0.108357835303959,0.5469997269568088,-0.17901266325357257,-0.44754974115827345,0.017002975353151335,0
599,2024-09-25 15:09:42.545677056,0,017,-0.6825810918616906,-0.38611369264795764,-1.5104419061437644,0.1257119090998061,0.4893129873592547,-0.17210538702198772,-0.7142203411692014,0.068120326435383,0
