,time,MARKER,pid,L_O_DSI,L_D_DSI,L_O_DSphi,L_D_DSphi,R_O_DSI,R_D_DSI,R_O_DSphi,R_D_DSphi,trial_id
0,2024-09-25 22:23:35.233376000,TASK_BEGIN,018,-0.2846096371328745,0.27817579159782857,0.8526426703370227,0.09188234555790448,0.5760390359669352,0.13394611426927966,1.0577569629256967,0.10544368663289473,1
1,2024-09-25 22:23:35.288506112,TASK_BEGIN,018,-0.3626278568076551,0.27983892639902036,1.1844831313511008,-0.03053333540705734,0.6585177564907804,0.10961197444208655,0.12345592473053248,0.07296005466042514,1
2,2024-09-25 22:23:36.219284992,TASK_BEGIN,018,-0.43758843092597766,0.2811149768760308,1.5072153983452727,-0.1488130135829925,0.7403127147990436,0.08530935638423301,-0.7852516198466729,0.04261566563136134,1
3,2024-09-25 22:23:36.276043008,TASK_BEGIN,018,-0.5061254259087391,0.2815079502425715,1.8102693266807846,-0.2587219597836219,0.8189190932086526,0.06137759153375298,-1.6455632654689103,0.016552682184003163,1
4,2024-09-25 22:23:36.354985216,TASK_BEGIN,018,-0.5654671281117073,0.2805481313047901,2.0852357433132633,-0.35689775988938927,0.8921516247033016,0.038171275907680206,-2.437978792818792,-0.0034274239372897837,1
5,2024-09-25 22:23:36.422776832,TASK_BEGIN,018,-0.6136437186158538,0.2778180479965274,2.3264701194402964,-0.44105226880912146,0.9583226794234673,0.016044226150138584,-3.1473297009681445,-0.01596494933347354,1
6,2024-09-25 22:23:36.478727936,TASK_BEGIN,018,-0.6495998313214166,0.27297967918400423,2.531221144617615,-0.5100056178494901,1.0163533402390525,-0.0046751855185101,-3.7632597505668826,-0.02019786966026529,1
7,2024-09-25 22:23:36.558415872,TASK_BEGIN,018,-0.6732240196211629,0.2658026471509508,2.6993756329887,-0.5636093901940102,1.065784005006376,-0.023706249590324694,-4.280127570878475,-0.015804781533056395,1
8,2024-09-25 22:23:36.626227968,TASK_BEGIN,018,-0.6852920065306265,0.2561910201405564,2.8329766432230654,-0.6026039816702766,1.106688289567656,-0.04082551078798079,-4.696412958290684,-0.0030563145273430703,1
9,2024-09-25 22:23:37.569313024,TASK_BEGIN,018,-0.6873058753833251,0.24420124435873997,2.9356921123122044,-0.628439760335633,1.1395382858268033,-0.0558643399257928,-5.013888342954656,0.01715166076488947,1
10,2024-09-25 22:23:37.633160192,TASK_BEGIN,018,-0.6812363708007426,0.2300416162094266,3.012378606260432,-0.6430860563206557,1.1650621097054321,-0.06870156354203087,-5.236863393980639,0.043332027150447615,1
11,2024-09-25 22:23:37.695228928,TASK_BEGIN,018,-0.669231141727349,0.21405087708466947,3.0687385331385877,-0.6488424728686404,1.1841028680561883,-0.07925594708502318,-5.371615601972215,0.07352442996579585,1
12,2024-09-25 22:23:37.772463104,TASK_BEGIN,018,-0.6533760799411542,0.1966644609082004,3.110953859131705,-0.6481573924487962,1.1974769031201118,-0.08747880437379514,-5.425907168624751,0.10547496369916223,1
13,2024-09-25 22:23:37.834482944,TASK_BEGIN,018,-0.6355530763934275,0.17837904993069278,3.1452343923975095,-0.6434588175056623,1.2058388174130126,-0.09334607390647592,-5.408478278086648,0.13684287251302277,1
14,2024-09-25 22:23:37.908411136,TASK_BEGIN,018,-0.6173712839054232,0.15971935073556312,3.1772758055150074,-0.6369943148470664,1.2095759947739788,-0.09685119944858704,-5.3285591498584965,0.16540114882604454,1
15,2024-09-25 22:23:37.976259072,TASK_BEGIN,018,-0.600129960520357,0.14120645950248775,3.2116238823201337,-0.6306680123323821,1.2087567408264748,-0.09800011319604317,-5.195515431145322,0.1892035979512154,1
16,2024-09-25 22:23:38.917214208,TASK_BEGIN,018,-0.584805609250263,0.12333015629836946,3.2510413119919916,-0.6258928920559031,1.203144717873914,-0.09680975706507208,-5.018613501621694,0.20670475447409037,1
17,2024-09-25 22:23:38.970258176,TASK_BEGIN,018,-0.5720851319889431,0.10653181833989234,3.2961068521942782,-0.6235193623731459,1.1922838073226798,-0.09331389704635389,-4.806811680964971,0.21683865619840506,1
18,2024-09-25 22:23:39.046922240,TASK_BEGIN,018,-0.5624420943778372,0.09120120497404784,3.3452593899253054,-0.6238830466394233,1.1756436775049834,-0.0875777489562592,-4.568639582795378,0.21907947176701031,1
19,2024-09-25 22:23:39.120628224,TASK_BEGIN,018,-0.5562103955415074,0.077681234301014,3.3953416766906543,-0.6269501442215937,1.1527970310104285,-0.07971758872762547,-4.3123406321681514,0.21350391565770738,1
20,2024-09-25 22:23:39.188399872,TASK_BEGIN,018,-0.5536160103182146,0.06627090601054078,3.442515340638753,-0.632506860990221,1.1235947442946745,-0.06992022273683285,-4.046248984472789,0.20083688864000251,1
21,2024-09-25 22:23:39.248135936,TASK_BEGIN,018,-0.5547735211882389,0.057220074690916334,3.4832638355859737,-0.6403418944664506,1.0883101880522639,-0.05845690524494212,-3.7791110424911163,0.18242210326687672,1
22,2024-09-25 22:23:39.310251008,TASK_BEGIN,018,-0.5596726331815327,0.05071436141329316,3.5151207273729934,-0.6503650188595537,1.0477208689194393,-0.045684461045323414,-3.5201262306948706,0.1600802446077709,1
23,2024-09-25 22:23:40.255779072,TASK_BEGIN,018,-0.568156402874566,0.0468518741799418,3.5368680219542874,-0.6626164092812636,1.0030951857994947,-0.032027844722689075,-3.278753204780637,0.13588689610575608,1
24,2024-09-25 22:23:40.336413952,TASK_BEGIN,018,-0.5798827691936546,0.04561809676311681,3.5482287188836525,-0.6771775177524222,0.9560768056765825,-0.01794474429072547,-3.0643761770624627,0.11193951455293642,1
25,2024-09-25 22:23:40.401259008,TASK_BEGIN,018,-0.5942909985438195,0.046868981735094226,3.549323980125543,-0.6940461336774334,0.9084955385362725,-0.0038803996432194747,-2.8857294268002676,0.09015490359020745,1
26,2024-09-25 22:23:40.470906880,TASK_BEGIN,018,-0.6106202088750784,0.05033031561839214,3.5402151278802214,-0.7130397420163141,0.8621492520782772,0.009775617740541387,-2.75004182697268,0.07210713036530726,1
27,2024-09-25 22:23:40.539882752,TASK_BEGIN,018,-0.6280047654967467,0.05561585501535863,3.520701302937781,-0.7337578064422792,0.8185955671240475,0.022722498937158157,-2.6622776649934226,0.05893189488385742,1
28,2024-09-25 22:23:40.607248896,TASK_BEGIN,018,-0.6456175116066938,0.062261117731843736,3.4903534847638937,-0.7556034291397611,0.7789901209958731,0.03476830844725122,-2.6249310015993252,0.051336352143191794,1
29,2024-09-25 22:23:40.675504896,TASK_BEGIN,018,-0.6627961182319364,0.06976489599418519,3.4487021068665173,-0.7778523219880731,0.7440105756250386,0.04583485081923446,-2.638332297935196,0.049694546686729534,1
30,2024-09-25 22:23:41.618625024,TASK_BEGIN,018,-0.6790972931859325,0.07762952565650208,3.395527613890491,-0.7997471481103304,0.7138825871252131,0.055946196841677495,-2.7010475932901086,0.054136961515694346,1
31,2024-09-25 22:23:41.686445056,TASK_BEGIN,018,-0.6942664878158835,0.0853950103025064,3.331207462173014,-0.8205823373646915,0.6884787864556848,0.06520534488720593,-2.810155092554131,0.06457786683763765,1
32,2024-09-25 22:23:41.754295808,TASK_BEGIN,018,-0.7081590173468991,0.09266735025524461,3.2570109060577583,-0.8397487141121578,0.6674362911675611,0.07376708740485642,-2.961518958167329,0.08071879578289012,1
33,2024-09-25 22:23:41.817193984,TASK_BEGIN,018,-0.7206710838462579,0.09914371710856971,3.17519234455979,-0.8567338143344295,0.6502534783304947,0.08181360951724673,-3.1501118285516343,0.10206569634358273,1
34,2024-09-25 22:23:41.876115968,TASK_BEGIN,018,-0.7317153538363245,0.10463435889644233,3.088834082181455,-0.8710977050047783,0.6363679170628154,0.08953483394498529,-3.370190968367118,0.12792924869668099,1
35,2024-09-25 22:23:41.957751040,TASK_BEGIN,018,-0.7412280785951216,0.10907554357683974,3.001544572278371,-0.8824479221816783,0.6252393360749665,0.09711105204100898,-3.6151888519097373,0.1573812040528072,1
36,2024-09-25 22:23:42.025624064,TASK_BEGIN,018,-0.7491742663640835,0.11252532962253538,2.9171159692742767,-0.8904236755564396,0.6164320529149603,0.10469429551900129,-3.8774588966202512,0.18920152072747728,1
37,2024-09-25 22:23:42.957082112,TASK_BEGIN,018,-0.7555361230576478,0.11513774684976129,2.8391240821878667,-0.8946850723542213,0.6096585795549834,0.11238723574496194,-4.148159485752215,0.22187978858449917,1
38,2024-09-25 22:23:43.036449024,TASK_BEGIN,018,-0.7602957379820732,0.11712094635228906,2.770440457394623,-0.8949064304436563,0.6047675452508279,0.12022228356172984,-4.417447767315761,0.253704445450228,1
39,2024-09-25 22:23:43.097404160,TASK_BEGIN,018,-0.7634331638870647,0.11869529776102512,2.7127480956907633,-0.8907861593009982,0.6016935733917739,0.12814871669969508,-4.674905227737421,0.2829062647350888,1
40,2024-09-25 22:23:43.172183040,TASK_BEGIN,018,-0.7649543422788536,0.12006657529938305,2.666241232393455,-0.8820849527101359,0.6003832717467914,0.13603928503185403,-4.910004401682528,0.307786340813338,1
41,2024-09-25 22:23:43.239623168,TASK_BEGIN,018,-0.764940128500116,0.12141524585813117,2.629631564333561,-0.8686874444901391,0.600705476050326,0.1437221540794306,-5.112618282395684,0.3268074067977748,1
42,2024-09-25 22:23:43.307764224,TASK_BEGIN,018,-0.7635806587347387,0.12288991298829932,2.6004198172150983,-0.8506701595731532,0.6023745769249315,0.15102799648896006,-5.273760660208802,0.33869011290528145,1
43,2024-09-25 22:23:43.375623168,TASK_BEGIN,018,-0.7611646439461954,0.12459492872274802,2.5752638537257417,-0.8283557894594151,0.6049291716684307,0.15783001442425376,-5.386537926563591,0.34253478910612434,1
44,2024-09-25 22:23:44.293225216,TASK_BEGIN,018,-0.758036728139058,0.12657640335652529,2.550308216083897,-0.8023286349082615,0.6077876873764134,0.1640603670138345,-5.446933769527833,0.3379192268575651,1
45,2024-09-25 22:23:44.352058880,TASK_BEGIN,018,-0.7545600427546796,0.1288200085946069,2.5215058152250336,-0.7733883154208909,0.610363413484842,0.1697029755361894,-5.454066528806126,0.32490908705949084,1
46,2024-09-25 22:23:44.428857088,TASK_BEGIN,018,-0.7510933926371262,0.13126520754563173,2.485029593165435,-0.7424433039100032,0.6121913880740332,0.17477405672305624,-5.409895790069195,0.3039787553740826,1
47,2024-09-25 22:23:44.493401088,TASK_BEGIN,018,-0.7479668207968889,0.13382575576251793,2.437735294367572,-0.7103771405668146,0.6130090453432613,0.17930347125398685,-5.318596696867116,0.27590190399536174,1
48,2024-09-25 22:23:44.564420864,TASK_BEGIN,018,-0.7454562360614881,0.13640624351322336,2.3775311528226393,-0.6779356175494046,0.6127467133329436,0.18332578970523014,-5.185921130566672,0.241680414056653,1
49,2024-09-25 22:23:44.632192000,TASK_BEGIN,018,-0.7437750584725443,0.1389144003231647,2.303597633886702,-0.645671076936298,0.6114297220751027,0.18688301323825854,-5.01888511170249,0.20255357993315268,1
50,2024-09-25 22:23:44.699572992,TASK_BEGIN,018,-0.7430811072082512,0.14127057940995266,2.216544099161115,-0.6139532976171264,0.6090408751485129,0.19003455638132344,-4.825918592029551,0.16009082711711975,1
51,2024-09-25 22:23:45.643848960,TASK_BEGIN,018,-0.7434701411675023,0.14340990684796942,2.1186253785005458,-0.5830449607541142,0.6054004675299343,0.192866568370213,-4.617215641330513,0.11631813631163625,1
52,2024-09-25 22:23:45.711746048,TASK_BEGIN,018,-0.7449369149551938,0.14527186819134827,2.0140106754171243,-0.5532316707059254,0.600097899065792,0.1954929754612447,-4.404749979319568,0.07377211391797747,1
53,2024-09-25 22:23:45.775738112,TASK_BEGIN,018,-0.7473277099250757,0.14678066521299518,1.908899571491791,-0.5249648050233567,0.5924768998055666,0.19804665807154684,-4.201581424253997,0.035381457631341144,1
54,2024-09-25 22:23:45.846448896,TASK_BEGIN,018,-0.7503296290963289,0.14782887140401252,1.8112511679421532,-0.4989544914077265,0.5816578604724716,0.2006659608657647,-4.020551024675113,0.004167849057996506,1
55,2024-09-25 22:23:45.901559040,TASK_BEGIN,018,-0.7535049377075985,0.1482757105229021,1.730063976380467,-0.4761750718741196,0.5665925163553955,0.20348134178831298,-3.872775731555879,-0.017152774293623725,1
56,2024-09-25 22:23:45.983037952,TASK_BEGIN,018,-0.7563328220393251,0.14796048872269638,1.6742787307391136,-0.4577768602897594,0.5461557037038347,0.20660409848937117,-3.7663678360598976,-0.026563735607826107,1
57,2024-09-25 22:23:46.050902016,TASK_BEGIN,018,-0.7582301720896113,0.1467227827461708,1.6514342719081028,-0.44490687397058504,0.5192618176721444,0.21011862788870345,-3.705661266310552,-0.02305024332716697,1
58,2024-09-25 22:23:46.968846848,TASK_BEGIN,018,-0.7585681222420699,0.14442160725820144,1.6663711112846997,-0.43846847658842203,0.4849883083831026,0.2140753321104707,-3.690995527973326,-0.006764863742755882,1
59,2024-09-25 22:23:47.035528704,TASK_BEGIN,018,-0.7567145371919375,0.14095151038051026,1.720442996793285,-0.4389058008567766,0.44271025523859037,0.2184769643710707,-3.718965210078808,0.02096445382142459,1
60,2024-09-25 22:23:47.104470016,TASK_BEGIN,018,-0.752099452027308,0.13625545602184871,1.811548650455929,-0.446109064401211,0.39225670656171296,0.22325879002289248,-3.7830476467294107,0.05779452051308822,1
61,2024-09-25 22:23:47.172243968,TASK_BEGIN,018,-0.7442703265560697,0.13033192249200562,1.9348580346023176,-0.4594559310358562,0.3340705885755117,0.22827506440262546,-3.87451440085854,0.10066880972145843,1
62,2024-09-25 22:23:47.240087808,TASK_BEGIN,018,-0.7329103327540648,0.1232320175453802,2.083775030207854,-0.47791536435190973,0.2693285415450095,0.23330228961837907,-3.9835124471678336,0.14619603278392732,1
63,2024-09-25 22:23:47.307927040,TASK_BEGIN,018,-0.7178236614907257,0.11504509601385525,2.2507732838665544,-0.5001526988045611,0.19998552708311224,0.2380555718360265,-4.100176135440747,0.19104338311018323,1
64,2024-09-25 22:23:47.375754240,TASK_BEGIN,018,-0.6989219982672519,0.10587905025862829,2.4281018623092545,-0.5246486288998518,0.1287271175457438,0.24220864521115912,-4.215583242710886,0.2322931673991494,1
65,2024-09-25 22:23:48.313288192,TASK_BEGIN,018,-0.6762456644044551,0.09584699511287889,2.6084561626753424,-0.5498524545523309,0.058826719365236174,0.24541428407735036,-4.3224281510955205,0.2677156305124306,1
66,2024-09-25 22:23:48.386825216,TASK_BEGIN,018,-0.6500105933222632,0.08506585251382028,2.785461686756271,-0.5743294374358027,-0.006076663587447595,0.24732566872243236,-4.41542952733256,0.2959353710391596,1
67,2024-09-25 22:23:48.454700800,TASK_BEGIN,018,-0.6206362840254828,0.0736600100114848,2.953747514696307,-0.5968462117051259,-0.06225824963127358,0.24761893732447174,-4.491562545966755,0.3164962090625277,1
68,2024-09-25 22:23:48.522483200,TASK_BEGIN,018,-0.5887294683290855,0.06176129182042462,3.1086659480239045,-0.6163919766166946,-0.10621909588957319,0.24601713505888811,-4.550215801404381,0.3298320286706873,1
69,2024-09-25 22:23:48.590300160,TASK_BEGIN,018,-0.5550427681864117,0.04950605026438574,3.24594161465316,-0.6321790583593093,-0.13497944604674258,0.24231175253716822,-4.593340762867983,0.3371545147227758,1
70,2024-09-25 22:23:48.650771968,TASK_BEGIN,018,-0.5204370752236298,0.037035356676599324,3.361489637068886,-0.6436632270612473,-0.14629828238971776,0.23637388920720948,-4.625506966071431,0.3402828048643789,1
71,2024-09-25 22:23:48.717180928,TASK_BEGIN,018,-0.4858444188098347,0.024498173467565484,3.451482296975556,-0.6505967034183022,-0.13879623648561085,0.22815209154552996,-4.653595684816556,0.3414284030035624,1
72,2024-09-25 22:23:49.669011968,TASK_BEGIN,018,-0.4522013291795273,0.012050441045796965,3.512654260331925,-0.6531059483522446,-0.1119859444466325,0.21766124674535775,-4.685930553879386,0.34292336806320894,1
73,2024-09-25 22:23:49.728576000,TASK_BEGIN,018,-0.4203490846450485,-0.0001542891011920826,3.542822745525085,-0.6517771799343066,-0.06623106594802367,0.2049684871307358,-4.730950867715154,0.3468894392634789,1
74,2024-09-25 22:23:49.804704000,TASK_BEGIN,018,-0.39095058425858015,-0.011977937883634653,3.541494683987723,-0.6477165421056384,-0.0026712417402066633,0.19018193773181516,-4.7957741187990885,0.3548895408645518,1
75,2024-09-25 22:23:49.872494848,TASK_BEGIN,018,-0.3644757577960876,-0.02330621408792115,3.510255719052106,-0.6425230352638128,0.0768623593112374,0.17344751996028107,-4.884983844977343,0.3676441425639524,1
76,2024-09-25 22:23:49.928719872,TASK_BEGIN,018,-0.34125129857594344,-0.034049036357205506,3.4526899459948655,-0.638121328747118,0.16994122310556434,0.15495558501732706,-4.9998106488905885,0.38489476893719526,1
77,2024-09-25 22:23:50.005024000,TASK_BEGIN,018,-0.3215253113588905,-0.044136159290395945,3.3738838303747642,-0.6364779281293728,0.2736421702356447,0.13495401406055424,-5.1377646816133975,0.40545001639164047,1
78,2024-09-25 22:23:50.066614016,TASK_BEGIN,018,-0.30550614390753,-0.053511944328168255,3.2797351862710555,-0.6392841412667828,0.38464622008013977,0.11376035923338604,-5.2928031376008935,0.42739825217641325,1
79,2024-09-25 22:23:51.019702784,TASK_BEGIN,018,-0.2933694228978857,-0.062131619883950474,3.1762339536388557,-0.6476742132855117,0.4993327778159836,0.09176529942319207,-5.456143233215236,0.448442703171881,1
80,2024-09-25 22:23:51.083666944,TASK_BEGIN,018,-0.28523709432190125,-0.06996144550458654,3.068882719207939,-0.662026224824295,0.6138923711655061,0.06942240986381917,-5.61770616597991,0.46629301578122034,1
81,2024-09-25 22:23:51.155365888,TASK_BEGIN,018,-0.28111799507785357,-0.07698646351261776,2.962447531117803,-0.6818992766503698,0.7244833117030519,0.04722325099893351,-5.767903190292969,0.47902870156590543,1
82,2024-09-25 22:23:51.223153152,TASK_BEGIN,018,-0.280807700175178,-0.08322810301794666,2.861046772293558,-0.7061329356485313,0.8274246806645242,0.025663527540650224,-5.899272170364648,0.48535938175135135,1
83,2024-09-25 22:23:51.284034816,TASK_BEGIN,018,-0.28378923444726006,-0.08876572824942111,2.768346076665607,-0.7330716367113486,0.9193763464863766,0.005212788407210507,-6.007530443078417,0.4847503631866809,1
84,2024-09-25 22:23:51.346520064,TASK_BEGIN,018,-0.2892064733641398,-0.09374598966838806,2.6876305473836974,-0.7608422345441576,0.997457250699032,-0.01370253768808836,-6.091852277345977,0.47742912745558186,1
85,2024-09-25 22:23:51.426611712,TASK_BEGIN,018,-0.2959472539607237,-0.09836583596126489,2.6217408422371977,-0.787628424802019,1.0593108948962153,-0.030705438713161143,-6.154467576007252,0.464314766736449,1
86,2024-09-25 22:23:52.369233920,TASK_BEGIN,018,-0.3027972009988969,-0.10283212589498525,2.5730190217860494,-0.8119210191128108,1.1031749022252684,-0.04547536207212479,-6.199889764852191,0.446915844481957,1
87,2024-09-25 22:23:52.437094912,TASK_BEGIN,018,-0.30859281144775424,-0.1073149480175897,2.543362084330712,-0.8327390853791256,1.127992126347221,-0.057764533589747515,-6.2340720601742134,0.4272186847521371,1
88,2024-09-25 22:23:52.499623168,TASK_BEGIN,018,-0.3123439633546044,-0.11190962053340683,2.5343336219672676,-0.8497932004955662,1.133544218832298,-0.0674225894661707,-6.263595667195346,0.407549665204429,1
89,2024-09-25 22:23:52.572710912,TASK_BEGIN,018,-0.31333773751267446,-0.1166129153548707,2.5472310464240024,-0.8635323076947601,1.120539591968277,-0.07441856717038946,-6.294820737153389,0.390378039903327,1
90,2024-09-25 22:23:52.640515072,TASK_BEGIN,018,-0.3112190718727599,-0.12131446404201637,2.583041329692215,-0.875034869952475,1.090579926451945,-0.07884552594312057,-6.332925606318456,0.3780442592886545,1
91,2024-09-25 22:23:52.700392960,TASK_BEGIN,018,-0.30601988432497096,-0.12580243288162016,2.642222157532629,-0.8857646443088334,1.045995654083139,-0.08090310788304975,-6.380886645212468,0.3724358194230149,1
92,2024-09-25 22:23:52.762876928,TASK_BEGIN,018,-0.2981306092944059,-0.1297798626973102,2.7242807291630418,-0.8972563415204894,0.9896276669123026,-0.08087025149312804,-6.438610375377925,0.37467146655109607,1
93,2024-09-25 22:23:53.719302912,TASK_BEGIN,018,-0.2882408483398987,-0.1328875067821202,2.8272608012996905,-0.9107988092601592,0.9246358552951308,-0.07908403190578575,-6.502508976235362,0.3848702302223338,1
94,2024-09-25 22:23:53.776541952,TASK_BEGIN,018,-0.2772746915649642,-0.13472907302226309,2.947341836447465,-0.927163893340938,0.8543476787883247,-0.07592758923392973,-6.565669412036747,0.4020565158241043,1
95,2024-09-25 22:23:53.854951936,TASK_BEGIN,018,-0.2663217281749754,-0.13489474533276663,3.0787028024324883,-0.9464226199179099,0.7821267972156554,-0.07181929486498083,-6.61850917467134,0.42421883672677363,1
96,2024-09-25 22:23:53.916357888,TASK_BEGIN,018,-0.2565447247770617,-0.13298498152833543,3.213702063748741,-0.9678859425161044,0.711263184669986,-0.06719780620103821,-6.649704041853462,0.4485181811473873,1
97,2024-09-25 22:23:53.990608896,TASK_BEGIN,018,-0.2490541286090724,-0.12864336955668415,3.3433625064053794,-0.9901728995051136,0.6448907667526327,-0.0625048594522242,-6.647232017102268,0.47160530733565387,1
98,2024-09-25 22:23:54.058415104,TASK_BEGIN,018,-0.24477980958857362,-0.12160068358844928,3.458105152493793,-1.0113673926218962,0.5859129183863836,-0.05816991817921513,-6.599507735203979,0.48997615192231964,1
99,2024-09-25 22:23:54.118062080,TASK_BEGIN,018,-0.24439489835627343,-0.11171766087155154,3.548592049511493,-1.0292152617594348,0.5369118566891898,-0.054596944176218326,-6.496675061303894,0.5003175623021159,1
100,2024-09-25 22:23:55.043761920,TASK_BEGIN,018,-0.24831449227313232,-0.09900993888196288,3.6064887966086268,-1.0413319993319485,0.5000388585481271,-0.052148671390062115,-6.332009143557084,0.4998364865453989,1
101,2024-09-25 22:23:55.111607296,TASK_BEGIN,018,-0.25673486592872785,-0.0836499234956236,3.6250783897150023,-1.0454233951892065,0.47689571136856707,-0.05112520153045251,-6.103139644838087,0.4865663397095048,1
102,2024-09-25 22:23:55.169892096,TASK_BEGIN,018,-0.2696636298594876,-0.06595444773895935,3.599846089314945,-1.0395434603526092,0.46842293948536645,-0.05174091090671767,-5.812765497201747,0.4596147947188132,1
103,2024-09-25 22:23:55.246902016,TASK_BEGIN,018,-0.2869293956890667,-0.04636923760129647,3.529096370727015,-1.0223831938566508,0.47481871166764134,-0.05410786195585586,-5.468748688213858,0.4193036192688855,1
104,2024-09-25 22:23:55.314956032,TASK_BEGIN,018,-0.30819349012064895,-0.025452324251259345,3.4143844547971205,-0.9935151147941589,0.49551342313628666,-0.05823029615562615,-5.083705111162324,0.3671734766005333,1
105,2024-09-25 22:23:55.382733824,TASK_BEGIN,018,-0.33297935851925325,-0.003851474872023605,3.2604771960901977,-0.9535003565249038,0.5292095212258571,-0.06400824962457503,-4.674256405295169,0.30585786764178924,1
106,2024-09-25 22:23:55.450607104,TASK_BEGIN,018,-0.36071268470564594,0.0177282111650847,3.0748381778433793,-0.9038270850097961,0.5739810169706708,-0.07124732298570483,-4.259950442854245,0.23883059869745915,1
107,2024-09-25 22:23:56.391097088,TASK_BEGIN,018,-0.3907559644562789,0.038563821117856605,2.866863422767803,-0.8467107121865826,0.6274218440947614,-0.07967504834899868,-3.86171869894452,0.17003188412168316,1
108,2024-09-25 22:23:56.453584896,TASK_BEGIN,018,-0.4224297979608688,0.057952160736747006,2.6470079524115504,-0.7847946729975548,0.6868245057885437,-0.08896411582245047,-3.4999405761744184,0.10344140096437546,1
109,2024-09-25 22:23:56.529160960,TASK_BEGIN,018,-0.45503378613031603,0.07523680269863603,2.4258215887713783,-0.7208008753863375,0.74936203148126,-0.09875897943212135,-3.192588703362417,0.04272934471671734,1
110,2024-09-25 22:23:56.596982016,TASK_BEGIN,018,-0.4878886229935653,0.08982421590962125,2.2130339422119096,-0.6572222118432558,0.8122480079936159,-0.10870028042796757,-2.9539962946718767,-0.008929881114360655,1
111,2024-09-25 22:23:56.654284800,TASK_BEGIN,018,-0.5203973397402172,0.1011946541766694,2.016946517012972,-0.5961513828888941,0.8728559861611951,-0.11844174427636078,-2.7944138423773808,-0.04890827988230624,1
112,2024-09-25 22:23:56.730968064,TASK_BEGIN,018,-0.5520957146743579,0.10891090656266605,1.8442241435381481,-0.5392653844651892,0.9287892707964704,-0.12765622180555591,-2.720101466421037,-0.07512897735602908,1
113,2024-09-25 22:23:56.800471808,TASK_BEGIN,018,-0.5826683608184137,0.11262286867816165,1.6999273459905349,-0.48790830950947534,0.9779092209227238,-0.13603187363858288,-2.733501808517472,-0.08610783015748855,1
114,2024-09-25 22:23:57.719054080,TASK_BEGIN,018,-0.6119385253894012,0.1120688871743967,1.5876107348778776,-0.4432011442402837,1.018340195460637,-0.14326339568781185,-2.8331256740963866,-0.08106623023140999,1
115,2024-09-25 22:23:57.786883072,TASK_BEGIN,018,-0.6398553014828384,0.10708328140691506,1.5094626176400332,-0.4061361139266053,1.0484724307011193,-0.1490453738103836,-3.0131846532994,-0.06007351474224084,1
116,2024-09-25 22:23:57.854692864,TASK_BEGIN,018,-0.6664799583659315,0.09761732321015434,1.4664774502432458,-0.37763304067090003,1.0669964851573743,-0.15307666290762176,-3.263410329025375,-0.02412429683428627,1
117,2024-09-25 22:23:57.914372864,TASK_BEGIN,018,-0.6919513923745004,0.08376669966755827,1.4585657677948891,-0.35853841099207495,1.0729871690124875,-0.15507987660683556,-3.5694384095365446,0.024907006812822815,1
118,2024-09-25 22:23:57.976385024,TASK_BEGIN,018,-0.7164336843720226,0.0657907413774006,1.484567512949914,-0.3495626237028883,1.0659908636712359,-0.15482644356611625,-3.91375189669036,0.08441052971742447,1
119,2024-09-25 22:23:58.058146048,TASK_BEGIN,018,-0.7400766538003732,0.044115926978270666,1.5422643739436923,-0.3511766932661537,1.0460453913652648,-0.15215099148538555,-4.276978159701581,0.15124139863358715,1
120,2024-09-25 22:23:58.115847936,TASK_BEGIN,018,-0.7630049994881716,0.0193281673999613,1.6284947487945018,-0.36350611114317716,1.013623964439218,-0.1469490922890407,-4.639329999822133,0.22195713320803367,1
121,2024-09-25 22:23:59.063205120,TASK_BEGIN,018,-0.7853227749533157,-0.00783754388042867,1.7394141526554663,-0.38626358077341405,0.9695599191084877,-0.13916800509033642,-4.9819226271878625,0.2930563649928995,1
122,2024-09-25 22:23:59.125225216,TASK_BEGIN,018,-0.8071072186089805,-0.03650985373456286,1.8708634045529038,-0.41874823217409407,0.9150091753598556,-0.1288057082555481,-5.287722513969696,0.36116555358501984,1
123,2024-09-25 22:23:59.201916928,TASK_BEGIN,018,-0.8283705989429392,-0.0657063374165957,2.0187202977739807,-0.45990178880703403,0.8514636341843976,-0.11592540468071351,-5.542142545086579,0.42316919803089836,1
124,2024-09-25 22:23:59.271990016,TASK_BEGIN,018,-0.848999615612076,-0.09437963752007689,2.1791189186130837,-0.5083816816148945,0.7807848109373031,-0.10067924872985314,-5.733477014422742,0.47632927029737765,1
125,2024-09-25 22:23:59.339790080,TASK_BEGIN,018,-0.8687124172190402,-0.12148165063151531,2.3484928844430764,-0.5626169413846817,0.7052109893013548,-0.08332807767503471,-5.853278937587193,0.5184126682991642,1
126,2024-09-25 22:23:59.407601152,TASK_BEGIN,018,-0.8870583087776711,-0.14603670659024123,2.523426209610882,-0.6208426751962515,0.6273061867389428,-0.06424721625188588,-5.896710101881614,0.5478000524781534,1
127,2024-09-25 22:23:59.462801152,TASK_BEGIN,018,-0.9034529398699614,-0.16721430380164745,2.700353594333648,-0.6811372418227339,0.54985502032409,-0.04391675615657881,-5.862876256357454,0.5635511189782452,1
128,2024-09-25 22:24:00.416886016,TASK_BEGIN,018,-0.9172455428362567,-0.18439029919311392,2.875270108095442,-0.741492163980015,0.47574027228261445,-0.022900818772929495,-5.754945983147744,0.5654108617815695,1
129,2024-09-25 22:24:00.486511104,TASK_BEGIN,018,-0.9278242918404308,-0.19718548361083713,3.0436352293947433,-0.7999199593850679,0.40782929583310157,-0.0018201361803439984,-5.5797148444997005,0.5537483162641142,1
130,2024-09-25 22:24:00.540466176,TASK_BEGIN,018,-0.9347327857536306,-0.20547696322713843,3.200534930473438,-0.8545731139851368,0.3488504194021058,0.01868260889636691,-5.346607862567929,0.5294564366842074,1
131,2024-09-25 22:24:00.622081024,TASK_BEGIN,018,-0.9377357857082127,-0.2093857985140016,3.3410063194721324,-0.9038372371088664,0.301225611150444,0.03798707354636895,-5.066583236864099,0.4938666012500822,1
132,2024-09-25 22:24:00.680257024,TASK_BEGIN,018,-0.9367933775049887,-0.2092493812211491,3.4603786481280547,-0.9463785136868536,0.26685941751516756,0.05554529172069264,-4.751442256747458,0.44870475330730925,1
133,2024-09-25 22:24:00.742268928,TASK_BEGIN,018,-0.9319626403110028,-0.2055874006788218,3.554585981005299,-0.9811555151636583,0.24692369869909186,0.0709266611828229,-4.413608854522027,0.39606687544672037,1
134,2024-09-25 22:24:00.821353984,TASK_BEGIN,018,-0.9232962764237198,-0.1990631416513035,3.620493698928494,-1.0074178068456079,0.24168930630549498,0.08384831467176161,-4.066019440466564,0.33835476584257373,1
135,2024-09-25 22:24:01.768780032,TASK_BEGIN,018,-0.9108128980852418,-0.19043301737072454,3.656214108000938,-1.0246973103520907,0.2504442960236849,0.09418704968920216,-3.7218436234648418,0.2781334003710789,1
136,2024-09-25 22:24:01.836657920,TASK_BEGIN,018,-0.8945596804475879,-0.18047956999807085,3.6612856956780093,-1.0327858935928904,0.2715266950668371,0.10197212404402513,-3.3940919259798257,0.21794571957072092,1
137,2024-09-25 22:24:01.899919872,TASK_BEGIN,018,-0.8747175229980301,-0.16993650645385566,3.636613872415655,-1.0317075303511614,0.3024889150987277,0.10735983611863147,-3.09522958587181,0.16016062529679206,1
138,2024-09-25 22:24:01.972256768,TASK_BEGIN,018,-0.8516806483334778,-0.1594235645676837,3.5841832103115454,-1.0217073110787347,0.34037959174322807,0.1105952172634877,-2.8367194836670833,0.10688803455373416,1
139,2024-09-25 22:24:02.040069120,TASK_BEGIN,018,-0.8260769461588521,-0.14940565833880573,3.506646221520443,-1.0032641005963192,0.38208443711795387,0.1119714731869962,-2.6282927558959526,0.05992542671784529,1
140,2024-09-25 22:24:02.100378880,TASK_BEGIN,018,-0.7987236744523444,-0.1401814514975519,3.4069032910046353,-0.9771045903966997,0.42464606645365804,0.11179725888036036,-2.476936235314967,0.020685946553160313,1
141,2024-09-25 22:24:02.162377216,TASK_BEGIN,018,-0.7705192947174319,-0.13189883991163234,3.2877187607617735,-0.9441878651562177,0.4655020768166132,0.11037481949966368,-2.385957586308477,-0.009890713179170592,1
142,2024-09-25 22:24:03.103998720,TASK_BEGIN,018,-0.7422933475250579,-0.12458966435175654,3.1514221866783294,-0.9056581173166858,0.5026327957811649,0.10798528603872015,-2.3545267250490762,-0.0314104103736861,1
143,2024-09-25 22:24:03.181620992,TASK_BEGIN,018,-0.7146700335732362,-0.11821396043692477,2.999843326668268,-0.8627939732883851,0.53466004490929,0.10487429180633032,-2.3777441940963437,-0.04406342376032683,1
144,2024-09-25 22:24:03.243219968,TASK_BEGIN,018,-0.6879978272177646,-0.11270487617200112,2.834565047039706,-0.8169636354068155,0.5609373584843367,0.10123146977730171,-2.4470843385115386,-0.048618146583770755,1
145,2024-09-25 22:24:03.320038144,TASK_BEGIN,018,-0.662356622286338,-0.1080054020797968,2.6573331603466257,-0.7695645792646735,0.5816197473853504,0.09716404277529074,-2.551120837821408,-0.046348846177894594,1
146,2024-09-25 22:24:03.390019072,TASK_BEGIN,018,-0.6376233705693852,-0.10408857688201102,2.4703903365194773,-0.7219579936327654,0.597652046294312,0.09267631539019111,-2.676457428629573,-0.038911400918892225,1
147,2024-09-25 22:24:03.457873920,TASK_BEGIN,018,-0.6135670905316404,-0.1009589850329677,2.276667171960329,-0.6754443734281087,0.6106155931433755,0.08767183419181523,-2.8087454699651064,-0.028215312167367234,1
148,2024-09-25 22:24:03.525729024,TASK_BEGIN,018,-0.5899361432128623,-0.09864309172118764,2.079836732745534,-0.6312773867521774,0.6224340329436018,0.08198384718236054,-2.933720533671216,-0.016309126539385013,1
149,2024-09-25 22:24:04.468940032,TASK_BEGIN,018,-0.5665058792673566,-0.09717992112012401,1.8841537974944271,-0.5906480968350537,0.6350297230131466,0.07541977567447915,-3.038275155092836,-0.005249365534853059,1
150,2024-09-25 22:24:04.536756992,TASK_BEGIN,018,-0.5430908235348814,-0.09661559159421947,1.6940348322416996,-0.5545993502620856,0.6500653399221479,0.06779622225563223,-3.1115575886186604,0.0030672622971061646,1
151,2024-09-25 22:24:04.604594944,TASK_BEGIN,018,-0.5195602130044854,-0.09699378659285778,1.5135419949499505,-0.5239095557611825,0.6688371618315853,0.058954455932864094,-3.1459194833643465,0.007077861886770517,1
152,2024-09-25 22:24:04.671217920,TASK_BEGIN,018,-0.49587727719332336,-0.09833566762603604,1.3460507602451028,-0.49901725948073117,0.6922656365427295,0.04876683382521453,-3.137460642480632,0.005682647320122759,1
153,2024-09-25 22:24:04.735219968,TASK_BEGIN,018,-0.4721307614442882,-0.10061515472469056,1.1942422239928854,-0.48002403446646424,0.7208989127693495,0.03714430777902532,-3.086139596030649,-0.0016813549167754873,1
154,2024-09-25 22:24:04.794273024,TASK_BEGIN,018,-0.4485206409064858,-0.10373969467668359,1.0603096288656955,-0.46675756539394153,0.754919424813943,0.024038947907533845,-2.9956263295162717,-0.014997357917123358,1
155,2024-09-25 22:24:04.871910144,TASK_BEGIN,018,-0.4253106165066131,-0.10753904065156807,0.9461724582946077,-0.4588520544962903,0.7941875587293016,0.0094338203546593,-2.8729250519995557,-0.033655659626592616,1
156,2024-09-25 22:24:05.793210880,TASK_BEGIN,018,-0.40279358206565036,-0.11176018654536869,0.8535940320560652,-0.455821382696038,0.8383202639856618,-0.006671256693869342,-2.7276069552681452,-0.05650139863621635,1
157,2024-09-25 22:24:05.861231104,TASK_BEGIN,018,-0.38129666638888315,-0.11606958800532054,0.7841946508810178,-0.4571194831210052,0.8867650227967313,-0.024260580124714475,-2.570658753747499,-0.08196279263638637,1
158,2024-09-25 22:24:05.927752960,TASK_BEGIN,018,-0.36121238003156614,-0.12006652632889643,0.739394321887837,-0.46218186014075474,0.9388444878315465,-0.04328466082766176,-2.4132465381146178,-0.10824361786740722,1
159,2024-09-25 22:24:05.996844032,TASK_BEGIN,018,-0.34301992900285927,-0.12331070191146097,0.7203796375425295,-0.47045076901222305,0.9937815622790691,-0.06363780598583935,-2.2657429770200976,-0.13352947447151162,1
160,2024-09-25 22:24:06.051889920,TASK_BEGIN,018,-0.3272785333139382,-0.12536117714224423,0.7281439304107705,-0.48140110423070503,1.0507117118176394,-0.08514767196870922,-2.1371703349384306,-0.15615038844461168,1
161,2024-09-25 22:24:06.132592896,TASK_BEGIN,018,-0.3146112888452763,-0.12581495039522225,0.7635000181558509,-0.4945719693654207,1.1086722915464848,-0.10757797974906656,-2.034928197750864,-0.17469178590423137,1
162,2024-09-25 22:24:06.189730048,TASK_BEGIN,018,-0.3057013399840538,-0.12433216962656161,0.8269618372585724,-0.5095819087021694,1.1665919969213763,-0.1306384097034182,-1.9644670468681449,-0.18811146857109862,1
163,2024-09-25 22:24:07.136218112,TASK_BEGIN,018,-0.30129456682745387,-0.12064408245360739,0.9185112805264999,-0.5261013293145314,1.2233444505835136,-0.15400194950322857,-1.9287130509533146,-0.19589730455132895,1
164,2024-09-25 22:24:07.197774848,TASK_BEGIN,018,-0.3021886886968846,-0.11455010983940067,1.0372903619385527,-0.5437819784605513,1.2778885339227022,-0.17733004700007907,-1.9275159016464163,-0.19819234006402028,1
165,2024-09-25 22:24:07.275373056,TASK_BEGIN,018,-0.30919524342824617,-0.10591442211376896,1.1812597275573595,-0.5621734229588892,1.329428605510958,-0.2002971117107507,-1.9576017292124386,-0.19577815870620602,1
166,2024-09-25 22:24:07.347424000,TASK_BEGIN,018,-0.3230733840493558,-0.09466858465730651,1.3469601856987221,-0.5806600770022405,1.3775034329736493,-0.22260368499150757,-2.013216123927999,-0.18990181727022476,1
167,2024-09-25 22:24:07.414324992,TASK_BEGIN,018,-0.34444810166611795,-0.08081876417041697,1.529540816391605,-0.5984395749860634,1.4219693564110691,-0.2439745210422096,-2.087291956268016,-0.18202179117537462,1
168,2024-09-25 22:24:07.476972288,TASK_BEGIN,018,-0.37373010115632804,-0.06445193446651383,1.723074098144847,-0.614556187335066,1.4629043348748838,-0.26414576213054836,-2.1728373262707974,-0.17354668426832623,1
169,2024-09-25 22:24:07.550716928,TASK_BEGIN,018,-0.41103999913491823,-0.04573993689366851,1.9210263307968443,-0.6279883751099138,1.5004945183031235,-0.2828522462322126,-2.2641565287654397,-0.16560658082753793,1
170,2024-09-25 22:24:08.468343040,TASK_BEGIN,018,-0.4561269504545452,-0.02494495998754393,2.116746013552656,-0.6377688635563357,1.5349617816599317,-0.29982566650331915,-2.3575176647738787,-0.15889176994522455,1
171,2024-09-25 22:24:08.530412032,TASK_BEGIN,018,-0.5082896187787809,-0.0024251624494081073,2.303935368950868,-0.6431131203021759,1.566519466442939,-0.3147999603061816,-2.4511007094836623,-0.15359678737963273,1
172,2024-09-25 22:24:08.605304832,TASK_BEGIN,018,-0.566338116374739,0.021369176322576944,2.477111731160998,-0.6435349470192789,1.5952859120819323,-0.32750954385524855,-2.544381259393891,-0.14948164596056474,1
173,2024-09-25 22:24:08.673110784,TASK_BEGIN,018,-0.6286396431723489,0.04591825371446652,2.632011333681841,-0.6389228310020993,1.6211490533003983,-0.3376785717720681,-2.6372983837156987,-0.1460186490392825,1
174,2024-09-25 22:24:08.731607040,TASK_BEGIN,018,-0.6932561021242328,0.0706739119312111,2.765889872127013,-0.6295620924836499,1.6436709243028587,-0.3450173146953635,-2.7295506461094328,-0.14256397966543516,1
175,2024-09-25 22:24:08.808718080,TASK_BEGIN,018,-0.7581330019615512,0.0951073546277983,2.87773854881139,-0.6161152547451213,1.6621005142175764,-0.34923740635649575,-2.8202474006411635,-0.13849264809336775,1
176,2024-09-25 22:24:08.871267072,TASK_BEGIN,018,-0.8212860278543281,0.11874615881856149,2.968407332775971,-0.5995787642768149,1.6754651522682438,-0.3500785450788408,-2.907990598723474,-0.1332618491992983,1
177,2024-09-25 22:24:09.811244800,TASK_BEGIN,018,-0.8809625049490832,0.1411915475079049,3.040513949243671,-0.5812117788575574,1.6826714420703526,-0.34733151318701677,-2.991327119639127,-0.12640486058596637,1
178,2024-09-25 22:24:09.873275136,TASK_BEGIN,018,-0.9357691028867116,0.16212030034827574,3.0979974261240133,-0.5624182153264955,1.6826026407202155,-0.34085375994805667,-3.0693987018716715,-0.11749787110444453,1
179,2024-09-25 22:24:09.950418944,TASK_BEGIN,018,-0.9847419639331634,0.18128045814697674,3.145333570947244,-0.5445777740899207,1.6742599167103105,-0.3305876800786724,-3.142485276215167,-0.10616849559164844,1
180,2024-09-25 22:24:10.022647040,TASK_BEGIN,018,-1.0273442435753781,0.19848555083638947,3.1866249601927343,-0.5288556810301039,1.6569688184044604,-0.31658952057078726,-3.2121010323200916,-0.09218302778949693,1
181,2024-09-25 22:24:10.090176000,TASK_BEGIN,018,-1.063411134707405,0.21360625220047588,3.2248495673103266,-0.5160513013685664,1.6305851089292243,-0.29906169947312305,-3.2805083761834424,-0.07557716156075348,1
182,2024-09-25 22:24:10.158176000,TASK_BEGIN,018,-1.0930763799206114,0.22655721668577153,3.2614840216949537,-0.5065356015069388,1.5955871575442093,-0.2783711076749744,-3.3498556028642836,-0.05675589917912482,1
183,2024-09-25 22:24:10.212919808,TASK_BEGIN,018,-1.1166956547623281,0.23728147289078433,3.2965511484148045,-0.5002733184477411,1.5529896506799554,-0.25503913001858913,-3.4213618973371207,-0.03650300348603886,1
184,2024-09-25 22:24:11.163586048,TASK_BEGIN,018,-1.134763343781156,0.24573964284418096,3.3289640090710435,-0.49688959495988233,1.5041276433922328,-0.2297033170233982,-3.4948896889251824,-0.01588407360509057,1
185,2024-09-25 22:24:11.237101056,TASK_BEGIN,018,-1.1478223009593864,0.25190924480023463,3.356971166085799,-0.49575845171527555,1.4504506996318955,-0.20306759811870534,-3.56894284097165,0.003924703705977581,1
186,2024-09-25 22:24:11.304930816,TASK_BEGIN,018,-1.1563806983508258,0.2557914841084468,3.3785685483557524,-0.49611576912791,1.3934392191604001,-0.17586194066361438,-3.6409199502115746,0.021823455194106705,1
187,2024-09-25 22:24:11.364428032,TASK_BEGIN,018,-1.1608612467928663,0.25741887824972676,3.391823375595514,-0.4971852374644774,1.3346298039036326,-0.14881770487562057,-3.707515780632687,0.0369390660833548,1
188,2024-09-25 22:24:11.440586240,TASK_BEGIN,018,-1.1616051130436882,0.2568604647817717,3.395079441200641,-0.49827504482556606,1.2756494676446757,-0.12264853811294131,-3.7653001105747492,0.04871160799397818,1
189,2024-09-25 22:24:11.504812032,TASK_BEGIN,018,-1.15892641853233,0.2542253446832409,3.3870477696908883,-0.49881304339159227,1.2181814479263824,-0.09802480946409549,-3.81137649814977,0.05689914864082622,1
190,2024-09-25 22:24:11.576201984,TASK_BEGIN,018,-1.153181496188591,0.2496652412613455,3.366880029834564,-0.49834151003494753,1.1638616891352778,-0.07554039802139952,-3.8437880879795046,0.0614900223549133,1
191,2024-09-25 22:24:12.510575872,TASK_BEGIN,018,-1.1448132352552716,0.2433744027757269,3.334350958103989,-0.49652513426134864,1.1141594139903317,-0.055683480347465536,-3.8614820396871687,0.06255964884507578,1
192,2024-09-25 22:24:12.587251968,TASK_BEGIN,018,-1.134353750059389,0.23558379307674063,3.290121672811095,-0.4931931419599367,1.0702955326124781,-0.03882579536592131,-3.864025041143343,0.06015440490767962,1
193,2024-09-25 22:24:12.644644096,TASK_BEGIN,018,-1.1223912891498213,0.22654842218308868,3.2358388744639703,-0.4883760781457154,1.033214713198048,-0.025233371992886344,-3.8513512521905904,0.054259173084372024,1
194,2024-09-25 22:24:12.722750976,TASK_BEGIN,018,-1.1095199705163916,0.21653070013998768,3.173843339106688,-0.4822852455276239,1.0035948012129134,-0.015086780403961214,-3.8237085307778127,0.044854154226435176,1
195,2024-09-25 22:24:12.790766848,TASK_BEGIN,018,-1.0962953212345166,0.20578465695178522,3.106568015884719,-0.47523057391225537,0.9818807650594122,-0.008496291838035979,-3.7819339429448444,0.032038575071321726,1
196,2024-09-25 22:24:12.846743808,TASK_BEGIN,018,-1.0832083837612585,0.19454405547475345,3.0359292506542825,-0.4675141910402711,0.9683567332840114,-0.005510615928337318,-3.7280288301184727,0.016161096704315456,1
197,2024-09-25 22:24:12.923480064,TASK_BEGIN,018,-1.0706705403357704,0.18301396190983593,2.962925232951051,-0.4593339573156492,0.9632556158592611,-0.006127803198352158,-3.6656800209691833,-0.0021319918222044774,1
198,2024-09-25 22:24:13.858831872,TASK_BEGIN,018,-1.05899561109928,0.1713636693682223,2.8874908794178036,-0.4507203208154799,0.9668437074722789,-0.010307528113103464,-3.6003520710923174,-0.02196770174703508,1
199,2024-09-25 22:24:13.930438912,TASK_BEGIN,018,-1.0483843503362216,0.15972088490239303,2.808598240746869,-0.4415312619730419,0.9794075836109044,-0.01797406237295688,-3.538929525843889,-0.04237767443095699,1
200,2024-09-25 22:24:13.991976192,TASK_BEGIN,018,-1.0389280351027694,0.14816967437693904,2.7245420037454853,-0.43151085024510305,1.00113141761708,-0.02900462935324402,-3.4891277794595075,-0.06240347732265528,1
201,2024-09-25 22:24:14.069644032,TASK_BEGIN,018,-1.0306346126609458,0.13675399580153452,2.633311338514211,-0.4203805091125233,1.0318975406186681,-0.04320599961442804,-3.4587994835961564,-0.08114251893786815,1
202,2024-09-25 22:24:14.138582016,TASK_BEGIN,018,-1.0234659185979107,0.12548572248179388,2.5330159589926495,-0.40793295375832483,1.0710629828428209,-0.0602874210225602,-3.4551092937737446,-0.09776021396076061,1
203,2024-09-25 22:24:14.206396928,TASK_BEGIN,018,-1.0173675620950235,0.11435349977177627,2.4224076239560164,-0.39413342675533436,1.1172850929707414,-0.07984210049041789,-3.483580712129915,-0.11151095756693573,1
204,2024-09-25 22:24:14.274242048,TASK_BEGIN,018,-1.0122688937099948,0.10332879212676585,2.301468057030748,-0.379233898765454,1.168460227623304,-0.10134620020521588,-3.5471571678234457,-0.12178588828740039,1
205,2024-09-25 22:24:15.212998912,TASK_BEGIN,018,-1.0080414912451063,0.09236825605882235,2.1719025844123685,-0.363863053800634,1.2218026371492408,-0.12417583508464937,-3.645520452029586,-0.1281604829206085,1
206,2024-09-25 22:24:15.274673152,TASK_BEGIN,018,-1.004431482165553,0.0814143600752944,2.0373617529743404,-0.3490340348803865,1.274058054270333,-0.14763792412556664,-3.774956165116477,-0.13038365026791315,1
207,2024-09-25 22:24:15.354580992,TASK_BEGIN,018,-1.0009969388754805,0.07039660519794956,1.9033332674500147,-0.3360533508336434,1.3218139914942715,-0.17100970550294428,-3.928911151146542,-0.1282769922954425,1
208,2024-09-25 22:24:15.414825984,TASK_BEGIN,018,-0.9970775786567084,0.059234109058517725,1.7767876752516443,-0.32637973386447494,1.3618380890081587,-0.19358058310977733,-4.099020392728626,-0.12159158376360597,1
209,2024-09-25 22:24:15.490200064,TASK_BEGIN,018,-0.9918193788907785,0.047840350293378374,1.6656779784288782,-0.32149720974415175,1.391371978343096,-0.21468984490742365,-4.276198284579193,-0.10990938909642196,1
210,2024-09-25 22:24:15.558044928,TASK_BEGIN,018,-0.9842687349957677,0.03613348536101029,1.5783047009271964,-0.3228175094619966,1.4083340628367902,-0.2337566197251678,-4.451580422674679,-0.09263978049844508,1
211,2024-09-25 22:24:15.615176960,TASK_BEGIN,018,-0.9735257237059847,0.024054907106866624,1.5225612465883531,-0.3315832907446551,1.4114349822657524,-0.25030485449669365,-4.617280289501889,-0.06912279829358568,1
212,2024-09-25 22:24:16.542545152,TASK_BEGIN,018,-0.9589220007177586,0.011592208402429258,1.5051522019695163,-0.34874987654304795,1.4002622502467554,-0.2639914726196752,-4.766871189579803,-0.038839936747942574,1
213,2024-09-25 22:24:16.611462144,TASK_BEGIN,018,-0.9401794351784599,-0.0012026816186660374,1.5308505253513227,-0.3748515517272512,1.3753737517971643,-0.2746393112204435,-4.895459722400917,-0.0017004539571695886,1
214,2024-09-25 22:24:16.673639168,TASK_BEGIN,018,-0.9175088397161824,-0.014206844018017126,1.6018285397010357,-0.4098807034041359,1.3383438347666547,-0.2822606868928157,-4.9994006891193,0.041689905874832914,1
215,2024-09-25 22:24:16.747083008,TASK_BEGIN,018,-0.8916300638466983,-0.027230182273892015,1.7171842075577743,-0.45321385568335754,1.2916575577846388,-0.2870527472587799,-5.075975235738196,0.08990234224148905,1
216,2024-09-25 22:24:16.814898944,TASK_BEGIN,018,-0.8637180286994325,-0.04002588065852902,1.872814025361125,-0.503606321497431,1.2384291792666382,-0.28935955955704773,-5.123352228735061,0.1407763051725655,1
217,2024-09-25 22:24:16.873915904,TASK_BEGIN,018,-0.8352801693050687,-0.0523079845640004,2.0616521159440944,-0.5592551161035912,1.1820285374338644,-0.2896131119565692,-5.140803741235231,0.1916888260813325,1
218,2024-09-25 22:24:16.935436032,TASK_BEGIN,018,-0.8079704266737658,-0.06377846813112205,2.2741678100989353,-0.6179062003106686,1.1257159679690454,-0.28827150340769025,-5.128830880353404,0.23986634618274671,1
219,2024-09-25 22:24:17.893704192,TASK_BEGIN,018,-0.7833674545904014,-0.07416057291162462,2.4990249766669996,-0.6769783480848925,1.0723489272222584,-0.2857689698618916,-5.088917674953205,0.2826169556547366,1
220,2024-09-25 22:24:17.954971136,TASK_BEGIN,018,-0.7627649870732994,-0.08323007332842228,2.7238747524925766,-0.7337019359025064,1.0241998622914263,-0.2824860979268897,-5.023009523706035,0.3174733863041568,1
221,2024-09-25 22:24:18.028062976,TASK_BEGIN,018,-0.7470105140993563,-0.09083839558626301,2.9362525049748056,-0.7852865814964167,0.9828869072924129,-0.2787393487582272,-4.933136209653477,0.3423325397822602,1
222,2024-09-25 22:24:18.097204224,TASK_BEGIN,018,-0.7364026136441765,-0.09692655484504477,3.124496229734012,-0.829109176773042,0.9493657496644118,-0.2747797614769984,-4.821487959668626,0.35565193919956284,1
223,2024-09-25 22:24:18.150795776,TASK_BEGIN,018,-0.730647864605727,-0.10153063968008068,3.2786121269686332,-0.8628953981407839,0.9239374115829788,-0.2707921149211376,-4.6907880541986025,0.3566535954849868,1
224,2024-09-25 22:24:18.228943104,TASK_BEGIN,018,-0.7288835058140236,-0.10477849202147829,3.3910923535597126,-0.8848853597077513,0.9062830244431642,-0.2668954742618611,-4.544546398835447,0.3454322685510948,1
225,2024-09-25 22:24:18.290951936,TASK_BEGIN,018,-0.7297766673392474,-0.10687595237932905,3.457697100055288,-0.8939895002270446,0.895551435317551,-0.2631486414853612,-4.386991415376723,0.32291635316741174,1
226,2024-09-25 22:24:19.235159040,TASK_BEGIN,018,-0.7317011044256243,-0.10808234188456128,3.4780716989619997,-0.889921326195419,0.8904952234314303,-0.25955828501570016,-4.222783788844433,0.2906985216192053,1
227,2024-09-25 22:24:19.311853056,TASK_BEGIN,018,-0.7329626035028686,-0.10867923062295418,3.455938442659967,-0.8732701622737904,0.8896369743952133,-0.2560857085478798,-4.056651143909513,0.25078581886926227,1
228,2024-09-25 22:24:19.373944064,TASK_BEGIN,018,-0.7320185416301447,-0.1089406594654532,3.3987070622711326,-0.8454881492108488,0.8914486365932767,-0.2526533122289785,-3.892990346969836,0.2053365283002672,1
229,2024-09-25 22:24:19.435937024,TASK_BEGIN,018,-0.7276428729940311,-0.1091133920166535,3.3165920998076426,-0.8087916557613684,0.894518626553387,-0.24915582660953106,-3.7355123345611143,0.15644656929330655,1
230,2024-09-25 22:24:19.512635136,TASK_BEGIN,018,-0.7190152185974743,-0.10941086773153634,3.221398842424798,-0.7659844681738838,0.8976780267175644,-0.24547856995077655,-3.587032597668015,0.10599925017599746,1
231,2024-09-25 22:24:19.583134976,TASK_BEGIN,018,-0.7057375300369177,-0.11001722614891082,3.1250846757147595,-0.7202219850172272,0.9000696080726444,-0.24151881001581105,-3.449366285757602,0.05554694960049289,1
232,2024-09-25 22:24:19.636635136,TASK_BEGIN,018,-0.6877994093001177,-0.1110945040590927,3.038304202450056,-0.6747673347089579,0.901171090207622,-0.23720583507227871,-3.323156714704668,0.00620994668104119,1
233,2024-09-25 22:24:20.593256960,TASK_BEGIN,018,-0.6655207854441862,-0.11278793792816579,2.969310246388964,-0.632790939908791,0.9008104424275608,-0.23252162384751168,-3.207592493937891,-0.041371744666043105,1
234,2024-09-25 22:24:20.654315008,TASK_BEGIN,018,-0.639492212468529,-0.11522667022487125,2.9234728448726606,-0.5972152627122506,0.8991987516641176,-0.22752620673110582,-3.100269132331573,-0.0869837666041506,1
235,2024-09-25 22:24:20.716793088,TASK_BEGIN,018,-0.6105196594689029,-0.11851861725705475,2.90333680919527,-0.5705659040952229,0.8969642092210591,-0.2223832616637989,-2.997560050936636,-0.13067976875516416,1
236,2024-09-25 22:24:20.794902016,TASK_BEGIN,018,-0.5795688188803766,-0.12274110235993413,2.9089381087999,-0.5548033359195121,0.8951538402411514,-0.2173719820775447,-2.895531411522986,-0.17258657782901343,1
237,2024-09-25 22:24:20.856446976,TASK_BEGIN,018,-0.5476928030280812,-0.12793156190178584,2.938183254280147,-0.5511532881558028,0.895177918935984,-0.21287213152982043,-2.790985828804265,-0.21275143856790177,1
238,2024-09-25 22:24:20.918934016,TASK_BEGIN,018,-0.5159370966387131,-0.13408068342767232,2.987261604718892,-0.5599811399625257,0.8986671961528475,-0.20931780343431758,-2.682183494397072,-0.2510626095236777,1
239,2024-09-25 22:24:20.996572928,TASK_BEGIN,018,-0.48524609666985336,-0.1411272404877084,3.0511118927802383,-0.5807459744762002,0.9072263876522149,-0.20712727203328257,-2.5691184952458572,-0.2872209774941159,1
240,2024-09-25 22:24:21.943164928,TASK_BEGIN,018,-0.4564027103173309,-0.14895700000515494,3.1239094042096665,-0.6120450658356665,0.9221411615061926,-0.2066295547735414,-2.453469516751663,-0.3207314260011455,1
241,2024-09-25 22:24:22.005194752,TASK_BEGIN,018,-0.4300078751729831,-0.15741133302415106,3.1995011037953702,-0.6517490130543092,0.9441553334369703,-0.20801240321763445,-2.3383220439874175,-0.35090938997928767,1
242,2024-09-25 22:24:22.066756096,TASK_BEGIN,018,-0.4064871260492099,-0.1663049912030059,3.2717585018591717,-0.6972202181352956,0.9733897523085304,-0.2113043818712392,-2.227634757228821,-0.3769222540041812,1
243,2024-09-25 22:24:22.143955200,TASK_BEGIN,018,-0.38610541325857656,-0.1754455467989803,3.33489835888703,-0.7455825854065514,1.0093834368930674,-0.21638645848296612,-2.1254375280313624,-0.3978881374887501,1
244,2024-09-25 22:24:22.205972992,TASK_BEGIN,018,-0.3689738339906234,-0.1846497661795675,3.3838452122602507,-0.7939879347647357,1.05120855701399,-0.22302092340283058,-2.034983898838979,-0.4130176658270155,1
245,2024-09-25 22:24:22.282927872,TASK_BEGIN,018,-0.3550512661428545,-0.19375695617470484,3.414598977717409,-0.8398239489528072,1.0976293148601348,-0.23088879606945323,-1.9582308885020485,-0.4217330735776858,1
246,2024-09-25 22:24:22.350907904,TASK_BEGIN,018,-0.3441578876125096,-0.2026389398101884,3.4244318163659035,-0.8808296742196748,1.1472731636015279,-0.23963038506342957,-1.8957860923120926,-0.42372142252817024,1
247,2024-09-25 22:24:23.255354112,TASK_BEGIN,018,-0.3359966187009472,-0.211206451970063,3.411812758743655,-0.9151302037788384,1.1987661879102975,-0.24888063183808717,-1.847172667824421,-0.4189506345671291,1
248,2024-09-25 22:24:23.336944128,TASK_BEGIN,018,-0.3301541547959485,-0.21941440254071454,3.37618484181626,-0.9412407695641706,1.2507999955936553,-0.25829087138879725,-1.811325806341974,-0.40767586574480796,1
249,2024-09-25 22:24:23.404716032,TASK_BEGIN,018,-0.32607248669845745,-0.2272680882406984,3.317804163626448,-0.958081437188977,1.3021425521966377,-0.26753911328697333,-1.787369614341323,-0.39040789419938837,1
250,2024-09-25 22:24:23.472470016,TASK_BEGIN,018,-0.3230268474517707,-0.23482844986331347,3.2377778782335196,-0.9650162627119692,1.3516209366010736,-0.27633810864199126,-1.7755586028174435,-0.3678036621442399,1
251,2024-09-25 22:24:23.532820992,TASK_BEGIN,018,-0.3201582241220387,-0.24221210846556968,3.138335299747407,-0.9619203756588182,1.3980854784312327,-0.2844445115483495,-1.7780092899566617,-0.3404798651886154,1
252,2024-09-25 22:24:23.594814976,TASK_BEGIN,018,-0.31656988631395033,-0.24958292403414678,3.023188702865504,-0.9492532757524903,1.4403696314761565,-0.2916651330323048,-1.7988436690627299,-0.3088174436616166,1
253,2024-09-25 22:24:23.673825024,TASK_BEGIN,018,-0.3114501741555215,-0.2571344393548928,2.897648976655041,-0.9280771872020078,1.4772796476006818,-0.29785720433101537,-1.8436109089058481,-0.272874366643752,1
254,2024-09-25 22:24:24.619124992,TASK_BEGIN,018,-0.3041702302860755,-0.26506707254002543,2.768230060794811,-0.8999709338027676,1.5076377997838204,-0.30292462959353444,-1.918097659214364,-0.23248278886106719,1
255,2024-09-25 22:24:24.686974976,TASK_BEGIN,018,-0.2943243621956612,-0.27356796903233893,2.6418341551749323,-0.8668517339351568,1.5303729075842165,-0.30681413510435723,-2.0267747876223785,-0.18748859249740316,1
256,2024-09-25 22:24:24.748568064,TASK_BEGIN,018,-0.28171275849208,-0.2827989043199737,2.524898960076198,-0.8307601639549445,1.5446280484460546,-0.3095113141399826,-2.171229344080156,-0.13801671972398136,1
257,2024-09-25 22:24:24.822632192,TASK_BEGIN,018,-0.2662951253796979,-0.2928898834906552,2.422817779898216,-0.7936620762933025,1.5498492046350698,-0.3110326817360661,-2.348994001323574,-0.08467102835387966,1
258,2024-09-25 22:24:24.890467072,TASK_BEGIN,018,-0.24814914587607997,-0.30393214882168296,2.3396352373527582,-0.7572970463847976,1.545842662059706,-0.31141503692468586,-2.553178209475099,-0.02861941718584883,1
259,2024-09-25 22:24:24.958285056,TASK_BEGIN,018,-0.227448315121207,-0.31596745385434727,2.277852610357045,-0.7230827160985575,1.532826320661507,-0.31071359980347424,-2.77312232613204,0.0284713038795439,1
260,2024-09-25 22:24:25.026105088,TASK_BEGIN,018,-0.20445771729055265,-0.32897518622057575,2.2382959165606366,-0.6920817900311277,1.511488645050822,-0.3090164480583876,-2.9958461884108765,0.08463544123980513,1
261,2024-09-25 22:24:25.963928064,TASK_BEGIN,018,-0.1795431828058942,-0.3428610993687839,2.22016211010085,-0.6650391348136484,1.4830110400019691,-0.30646374108781704,-3.2076860597266963,0.13785337542014886,1
262,2024-09-25 22:24:26.025567232,TASK_BEGIN,018,-0.15318536544174516,-0.35745159213247263,2.221325404072237,-0.6424789497682448,1.4490096009528854,-0.30325421359305704,-3.3956100200211603,0.186244160253771,1
263,2024-09-25 22:24:26.102757888,TASK_BEGIN,018,-0.12598532409988766,-0.3724962641106329,2.238791832507031,-0.6248162888850745,1.4114228481009423,-0.2996372070148089,-3.5481148441040635,0.2281647967040409,1
264,2024-09-25 22:24:26.172699904,TASK_BEGIN,018,-0.09864911327814957,-0.38768045606645807,2.269059020488401,-0.6124180903447299,1.3723959972697901,-0.29590048635521565,-3.655939325625828,0.26223567372025514,1
265,2024-09-25 22:24:26.240566016,TASK_BEGIN,018,-0.0719461411375648,-0.4026496590697144,2.308264562759002,-0.6055838987085101,1.3341648484470152,-0.29235861282206377,-3.7128233823081733,0.28734488147156767,1
266,2024-09-25 22:24:26.308350976,TASK_BEGIN,018,-0.046644121695528604,-0.41704530278109797,2.352271936788278,-0.604478843389177,1.2989195648020908,-0.28933681180071275,-3.7162099389707692,0.3026695585651501,1
267,2024-09-25 22:24:26.364389888,TASK_BEGIN,018,-0.023427088566728312,-0.43054534971112657,2.396935842292877,-0.6090779338527403,1.2686639967235667,-0.2871446464881714,-3.66753806830325,0.30770737161687906,1
268,2024-09-25 22:24:27.284845824,TASK_BEGIN,018,-0.0028089261686053365,-0.4428994796419645,2.438616660380775,-0.6191547911647692,1.245110315309664,-0.28604246851792664,-3.5719089526238617,0.30228990025341623,1
269,2024-09-25 22:24:27.346850048,TASK_BEGIN,018,0.01493311048779988,-0.45395149715596433,2.4747450634502237,-0.6343011610564718,1.22961883689469,-0.2862115957794907,-3.437165141317652,0.2865668102904075,1
270,2024-09-25 22:24:27.423565056,TASK_BEGIN,018,0.029775816822580927,-0.4636469564020089,2.5041348827978704,-0.6539414366841293,1.223151415063036,-0.28773719126738123,-3.272563966269709,0.26097001620295796,1
271,2024-09-25 22:24:27.497748992,TASK_BEGIN,018,0.04190406677936954,-0.47202670440296735,2.5269366539237943,-0.6773328143435409,1.2262096659913058,-0.2906047480885628,-3.087311042533118,0.22616086044956396,1
272,2024-09-25 22:24:27.562326784,TASK_BEGIN,018,0.05161601933227904,-0.4792074237592182,2.5443952317145166,-0.7035804468845356,1.2387791860714277,-0.2947085016312144,-2.8892772294595837,0.1829483316284104,1
273,2024-09-25 22:24:27.633341184,TASK_BEGIN,018,0.059218985027118726,-0.48535163673630966,2.558598583725424,-0.7316897042891515,1.260337615140792,-0.2998721729019387,-2.684262392135988,0.13219325314450284,1
274,2024-09-25 22:24:27.701193216,TASK_BEGIN,018,0.06496117622994803,-0.4906340411518386,2.5722217012594704,-0.7606335295699276,1.2899533402810999,-0.3058797666500925,-2.476124316565438,0.07476719171742732,1
275,2024-09-25 22:24:28.644325888,TASK_BEGIN,018,0.06902171286723711,-0.495214722874146,2.588211194986206,-0.7894015404767513,1.326437190358118,-0.3125092173097575,-2.2677241759052906,0.011619963642023605,1
276,2024-09-25 22:24:28.703030016,TASK_BEGIN,018,0.07153405275334854,-0.4992239471003676,2.6094825696164627,-0.817035199809189,1.3684891229675535,-0.31956301320438374,-2.0620947018148414,-0.05609280305809884,1
277,2024-09-25 22:24:28.764562944,TASK_BEGIN,018,0.0725941151798059,-0.502751241100199,2.6386890970549093,-0.8426694818848485,1.4148156741276066,-0.326894427408513,-1.8630649281823521,-0.12695089346842597,1
278,2024-09-25 22:24:28.841808128,TASK_BEGIN,018,0.07224038438720391,-0.5058308569592063,2.677933565768738,-0.8655679222457875,1.4642191896223025,-0.33442654776896696,-1.6750038830472145,-0.19936141398966478,1
279,2024-09-25 22:24:28.915623168,TASK_BEGIN,018,0.07043656325049259,-0.5084282127213995,2.7283340003206944,-0.8851269429046907,1.51564662829807,-0.3421564450633114,-1.5020088825432898,-0.27174373572744615,1
280,2024-09-25 22:24:28.982626048,TASK_BEGIN,018,0.06708052098319639,-0.5104384579822953,2.7896327272214285,-0.9008609153983507,1.5681818057074322,-0.3501401064024289,-1.3471368758593447,-0.3426840414692141,1
281,2024-09-25 22:24:29.042697984,TASK_BEGIN,018,0.06203261400626138,-0.5117005542466332,2.860109554932864,-0.9123943567046789,1.6209962014974937,-0.3584647400766766,-1.2120358994004832,-0.41100476805758723,1
282,2024-09-25 22:24:29.994405888,TASK_BEGIN,018,0.05514380570292119,-0.5120200396064463,2.93687070648554,-0.919473080619257,1.6732968393370298,-0.36722058867462487,-1.097050868265297,-0.4757660168608322,1
283,2024-09-25 22:24:30.062242816,TASK_BEGIN,018,0.04627756987002537,-0.5111926098170964,3.016453497241483,-0.9220048756218617,1.7243020983534982,-0.37647972385168116,-1.0016940913987555,-0.5362266921578634,1
284,2024-09-25 22:24:30.117125120,TASK_BEGIN,018,0.03534673867252655,-0.5090278593836772,3.095658965798408,-0.9201377791751681,1.7732611181064941,-0.386283159637029,-0.9251437517445202,-0.5917996258277669,1
285,2024-09-25 22:24:30.197892864,TASK_BEGIN,018,0.022387140293673786,-0.5053781042725395,3.1724044736459023,-0.9143512319577891,1.8195151251997848,-0.3966366073573902,-0.8664111343896489,-0.6420362442059718,1
286,2024-09-25 22:24:30.265698048,TASK_BEGIN,018,0.007644759924328036,-0.5001726671768172,3.2462068193001397,-0.9054948961704888,1.8625673637842732,-0.4075142420898582,-0.8241579462814993,-0.6866427605263813,1
287,2024-09-25 22:24:30.332127232,TASK_BEGIN,018,-0.008381305118462454,-0.4934474802693129,3.31802015586089,-0.89472138889874,1.9021058492413119,-0.41886416981759855,-0.7964790215144489,-0.7254933831992242,1
288,2024-09-25 22:24:30.401402112,TASK_BEGIN,018,-0.024968145763161694,-0.48535706475991675,3.3896429702818085,-0.8833431599927437,1.9379496567744774,-0.4306067814785725,-0.780986735137506,-0.7586019802108714,1
289,2024-09-25 22:24:31.343620096,TASK_BEGIN,018,-0.04124428910039775,-0.4761652427838838,3.463196188800569,-0.8727041365140076,1.9699555294012923,-0.442626124296157,-0.7753430647652932,-0.7860323834986906,1
290,2024-09-25 22:24:31.411438848,TASK_BEGIN,018,-0.056275834732372576,-0.46622154309355196,3.5408672326624386,-0.8640989505074347,1.997956701120871,-0.45476535714110977,-0.7781420071143371,-0.8077562385159797,1
291,2024-09-25 22:24:31.471888896,TASK_BEGIN,018,-0.06916001416449001,-0.45593200504284453,3.624698856384543,-0.8586803220086299,2.021754735600317,-0.4668330432892945,-0.7897895960759628,-0.8235108760877282,1
292,2024-09-25 22:24:31.547052032,TASK_BEGIN,018,-0.07913545930748599,-0.4457272857922947,3.7162223107472583,-0.8573086646076438,2.0411068990366643,-0.47861155897228363,-0.8128940685478147,-0.8327411835276028,1
293,2024-09-25 22:24:31.610689024,TASK_BEGIN,018,-0.08569473519949243,-0.43602674687971016,3.815990560685365,-0.8603877002921684,2.0556569247688135,-0.48985590279215135,-0.8518915757654325,-0.8346769962203187,1
294,2024-09-25 22:24:31.672355072,TASK_BEGIN,018,-0.08866062672501303,-0.42720089836601854,3.9231358581964595,-0.8677645336138782,2.0648382198264064,-0.5002857074060675,-0.9120769231154953,-0.8285228055814393,1
295,2024-09-25 22:24:31.750077952,TASK_BEGIN,018,-0.08819714796360818,-0.4195399880578897,4.034986752848532,-0.8787283933779368,2.067821402392272,-0.5095828368990527,-0.9984220051248032,-0.8136903897452313,1
296,2024-09-25 22:24:32.684051968,TASK_BEGIN,018,-0.08476271715833739,-0.4132339772961462,4.146784338940439,-0.8920986602361705,2.063535016845271,-0.5173987179626413,-1.11446578822011,-0.7899949858872881,1
297,2024-09-25 22:24:32.760861952,TASK_BEGIN,018,-0.07903578718580526,-0.4083628653796715,4.251646546602155,-0.9063821396093981,2.050735590117196,-0.5233648747604468,-1.2614983228992873,-0.7577502320312479,1
298,2024-09-25 22:24:32.822424832,TASK_BEGIN,018,-0.07183520566619034,-0.40489480961216817,4.340957676440647,-0.9199692254201561,2.028107294731115,-0.5271025423024936,-1.4382960835792242,-0.7177446220582636,1
299,2024-09-25 22:24:32.897166080,TASK_BEGIN,018,-0.06404420472855718,-0.4026911820953695,4.405233333553099,-0.931325995990136,1.994390059676048,-0.5282341530255514,-1.6415206392246,-0.6711335704002772,1
300,2024-09-25 22:24:32.962020096,TASK_BEGIN,018,-0.05654002793178809,-0.40151996406923385,4.435319095244438,-0.9391490053466398,1.9485174959920908,-0.5263983069818181,-1.8665323346193357,-0.6193048912845898,1
301,2024-09-25 22:24:33.032803840,TASK_BEGIN,018,-0.05012331011710643,-0.4010804717791638,4.423624784970059,-0.9424711774910942,1.8897291680452937,-0.5212652503472259,-2.1081389951262195,-0.5637701794462012,1
302,2024-09-25 22:24:33.090748928,TASK_BEGIN,018,-0.04544571308156273,-0.4010380156171891,4.365064517585381,-0.9407170877220798,1.8176423618508355,-0.5125495892636851,-2.3609584100766847,-0.5060972387966685,1
303,2024-09-25 22:24:34.043180032,TASK_BEGIN,018,-0.04295648240643627,-0.40105849283215045,4.257507232589956,-0.9337058240008763,1.732296754097735,-0.5000203623047644,-2.6194660553325124,-0.447853165192727,1
304,2024-09-25 22:24:34.105146112,TASK_BEGIN,018,-0.04289348639395448,-0.4008327821105431,4.101739659656831,-0.921606779786286,1.63419761876298,-0.48351230401787165,-2.878034766963546,-0.3905273550412497,1
305,2024-09-25 22:24:34.167156992,TASK_BEGIN,018,-0.04531552734231366,-0.4000919894236684,3.901108877365491,-0.9048728660406088,1.5243807610143063,-0.46294148046828,-3.1311595749800993,-0.3354422520357231,1
306,2024-09-25 22:24:34.244334080,TASK_BEGIN,018,-0.05015079876954696,-0.3986219136487547,3.6611113462656606,-0.884181939242569,1.4044879080634751,-0.4383229637669711,-3.373792940634518,-0.283677235269995,1
307,2024-09-25 22:24:34.315556096,TASK_BEGIN,018,-0.05724494021025643,-0.3962795380124209,3.389120254536433,-0.8603967362772573,1.2767921071789048,-0.40978470677064127,-3.601576584850378,-0.23602428892489996,1
308,2024-09-25 22:24:34.383298048,TASK_BEGIN,018,-0.06640196584096117,-0.3930066682893223,3.0941937881084978,-0.8345294307456449,1.1441172487075062,-0.3775737782428789,-3.810844425119434,-0.192991264979925,1
309,2024-09-25 22:24:34.451145984,TASK_BEGIN,018,-0.07740841856984362,-0.3888356410226861,2.786757683806109,-0.8076929597084443,1.0096574426536506,-0.34205415417175666,-3.9984833005737825,-0.1548509859661213,1
310,2024-09-25 22:24:35.364081920,TASK_BEGIN,018,-0.09003545752104024,-0.3838860231966,2.478077775739647,-0.7810417713721911,0.8767476774511368,-0.3036957132125138,-4.16184827231726,-0.12169898090164577,1
311,2024-09-25 22:24:35.427048704,TASK_BEGIN,018,-0.1040269752245184,-0.3783548141221841,2.1796060694611663,-0.7557185300758261,0.7486363264806942,-0.2630541802382707,-4.298857205175175,-0.0934780350860635,1
312,2024-09-25 22:24:35.504237824,TASK_BEGIN,018,-0.11908153390522759,-0.3725042940194019,1.902279620371634,-0.7327997018241226,0.6282915329227761,-0.2207447011281126,-4.408253184898647,-0.06996857992934148,1
313,2024-09-25 22:24:35.572886016,TASK_BEGIN,018,-0.13482236893445743,-0.36665078606677454,1.6557997371052153,-0.7132148484075553,0.5182626305986919,-0.1774165076083876,-4.489861399456732,-0.050788043059745255,1
314,2024-09-25 22:24:35.628386048,TASK_BEGIN,018,-0.15075366665408876,-0.3611545002200938,1.4479658009198937,-0.697648107000169,0.42061762339317765,-0.13373784948800804,-4.544531665614367,-0.03545053776919257,1
315,2024-09-25 22:24:35.705233152,TASK_BEGIN,018,-0.16622377346321168,-0.3564070831210713,1.284230305589602,-0.6864740999117844,0.3369657447983646,-0.09039465739921015,-4.5735649623568655,-0.023498821529662994,1
316,2024-09-25 22:24:35.776412160,TASK_BEGIN,018,-0.180419510012484,-0.35281457590793913,1.1676306084888923,-0.6797729479493515,0.26852548329196235,-0.048095299677713664,-4.57778323529936,-0.014655620233371355,1
317,2024-09-25 22:24:36.718220032,TASK_BEGIN,018,-0.1923944138299396,-0.3507792262536037,1.0990297863077285,-0.6774056541924918,0.21615476411919787,-0.007566902960196379,-4.55671376640795,-0.008901047847721985,1
318,2024-09-25 22:24:36.784459264,TASK_BEGIN,018,-0.20112393269804016,-0.3506832143767186,1.077369161766797,-0.6790751543265875,0.18029199219567346,0.03046608510582019,-4.5083636369265525,-0.006408053803508623,1
319,2024-09-25 22:24:36.853905152,TASK_BEGIN,018,-0.20559287545822566,-0.3528690452682142,1.0997484070970585,-0.6843254642246401,0.16083759036520484,0.0653181109298907,-4.429720874593713,-0.007358582689884691,1
320,2024-09-25 22:24:36.921735168,TASK_BEGIN,018,-0.20491662163150082,-0.3576113452797621,1.1614492705093584,-0.6925077417399489,0.1570493687302455,0.09638333914131224,-4.31771222617335,-0.011748201552593162,1
321,2024-09-25 22:24:36.984321024,TASK_BEGIN,018,-0.19846663517508636,-0.3650863016199084,1.25607201974577,-0.7027597354598684,0.16751235647888887,0.12317158536383249,-4.170260827816293,-0.019276385350515634,1
322,2024-09-25 22:24:37.057418240,TASK_BEGIN,018,-0.18596549532156514,-0.3753484376264252,1.3757870288872798,-0.7140029094534981,0.190202035110174,0.14533338243139787,-3.9872771581437294,-0.02933056081038353,1
323,2024-09-25 22:24:37.123617792,TASK_BEGIN,018,-0.16755128733637656,-0.38831510523350804,1.5116041750663392,-0.7249463176838525,0.22261394181541005,0.1626732424155767,-3.771510664459964,-0.041011898688823295,1
324,2024-09-25 22:24:38.035169024,TASK_BEGIN,018,-0.1438221936525426,-0.40375527742791173,1.6536088700637868,-0.7341108676839222,0.2619156006957092,0.17515445948909716,-3.5290828975307673,-0.05317440215469704,1
325,2024-09-25 22:24:38.101305856,TASK_BEGIN,018,-0.11583911361342564,-0.42128706817209266,1.791218306418887,-0.7398964310611101,0.305097102338683,0.1828979170016542,-3.269460314111158,-0.06450113161895973,1
326,2024-09-25 22:24:38.179550720,TASK_BEGIN,018,-0.08504796987388964,-0.44039411762066916,1.9135526533968832,-0.7406974079820399,0.349121115708604,0.18617435643374322,-3.0048228075393153,-0.0736368312851465,1
327,2024-09-25 22:24:38.236550912,TASK_BEGIN,018,-0.05311915711443221,-0.4604647864231878,2.0099902865940718,-0.7350605205459915,0.3910827587765391,0.18538922735361937,-2.7490693953150167,-0.07934084798840613,1
328,2024-09-25 22:24:38.314173952,TASK_BEGIN,018,-0.021749565951212413,-0.48084599173764003,2.070954339074533,-0.7218655861581619,0.4283907390035601,0.1810592347763846,-2.516700464097183,-0.08060944893746007,1
329,2024-09-25 22:24:38.376174848,TASK_BEGIN,018,0.007517196687584664,-0.5008971290238518,2.088893097867481,-0.7004880416297569,0.45896718580217694,0.17377915705379626,-2.3215890893201894,-0.07676293563012822,1
330,2024-09-25 22:24:38.437942016,TASK_BEGIN,018,0.03342195337457447,-0.5200323211136336,2.0592539010004876,-0.6709069354614052,0.4814285121551028,0.16418088814671897,-2.175599213236893,-0.06752128264196232,1
331,2024-09-25 22:24:39.393981952,TASK_BEGIN,018,0.05506875445670471,-0.5377471123916256,1.981197920190895,-0.6337544306619203,0.4951808519398438,0.1528929936901331,-2.087167763309254,-0.05307709061006119,1
332,2024-09-25 22:24:39.461863936,TASK_BEGIN,018,0.07196037726443617,-0.5536329607395952,1.857921111898208,-0.5903162973396209,0.5003813615088671,0.14051040177105642,-2.0601140684168997,-0.03415712092915589,1
333,2024-09-25 22:24:39.529709056,TASK_BEGIN,018,0.08400073794607345,-0.567383554415157,1.6965441672292545,-0.5424822232736417,0.4977836754140522,0.12757675720627717,-2.0930252007252954,-0.012039348451571952,1
334,2024-09-25 22:24:39.597549056,TASK_BEGIN,018,0.09146710986591013,-0.5787918956349216,1.5075256836382596,-0.4926339347560994,0.488547342072695,0.11457329393302285,-2.1795275003142196,0.011532317720297844,1
335,2024-09-25 22:24:39.656356864,TASK_BEGIN,018,0.09494707181971045,-0.5877361270541351,1.303581467171613,-0.4434580210334159,0.4740858194413906,0.10190703766863117,-2.309453257893092,0.03456180744681653,1
336,2024-09-25 22:24:39.733063936,TASK_BEGIN,018,0.09523725535121022,-0.5941590961942097,1.0982554572529102,-0.39769785332194035,0.45596678397207885,0.08989716508194405,-2.470542024163136,0.055099766891901214,1
337,2024-09-25 22:24:39.801024000,TASK_BEGIN,018,0.09321494987346247,-0.5980512700872959,0.9044837693603873,-0.3579052764460003,0.4358277977302215,0.07876343853213613,-2.6501641876874316,0.07154481613465116,1
338,2024-09-25 22:24:40.744039936,TASK_BEGIN,018,0.08970991900601076,-0.5994415935762188,0.733528595713497,-0.32625404420146775,0.41527259330998784,0.06862180398374207,-2.8366147778448467,0.08286259584982085,1
339,2024-09-25 22:24:40.797958912,TASK_BEGIN,018,0.08540871778370399,-0.5983942973131947,0.5944668605111402,-0.3044285896238829,0.39575792735375165,0.059491336512031624,-3.019808957987395,0.08867250098027529,1
340,2024-09-25 22:24:40.879308800,TASK_BEGIN,018,0.08080721903804937,-0.5950084986938579,0.49415317495714084,-0.2935701720162162,0.3785136753046943,0.05131352867046024,-3.191577706111872,0.08921284428359716,1
341,2024-09-25 22:24:40.937614080,TASK_BEGIN,018,0.07619890130808867,-0.5894179898747979,0.4374090812452477,-0.29425976877309085,0.3645233689572831,0.043979169416616955,-3.345806270762671,0.08523152850803124,1
342,2024-09-25 22:24:41.014794240,TASK_BEGIN,018,0.07167905951870922,-0.5817893899248786,0.42718115777072696,-0.30651410629775944,0.3545513504571811,0.03735448368940686,-3.478465901329683,0.07784804914763153,1
343,2024-09-25 22:24:41.075840000,TASK_BEGIN,018,0.06716339590560717,-0.5723195501672497,0.4645086563051701,-0.3297695624511221,0.3491730068821238,0.03130113640115879,-3.5875427082123292,0.06841112052317097,1
344,2024-09-25 22:24:41.151120896,TASK_BEGIN,018,0.06242613689977187,-0.5612341557499887,0.5482452482490967,-0.3628435823080473,0.3487687743508068,0.025690468956405022,-3.6728687372867403,0.05835022550235928,1
345,2024-09-25 22:24:42.093214208,TASK_BEGIN,018,0.057146658040112396,-0.5487867526610797,0.6746311392650997,-0.40390178902219714,0.35347731426584467,0.02041551400683036,-3.7357585873519277,0.04902554464881263,1
346,2024-09-25 22:24:42.159457024,TASK_BEGIN,018,0.0509438835494033,-0.5352553234659099,0.8370301343531189,-0.4504946131146195,0.36313118161764163,0.015403745443982719,-3.7783636750432374,0.04160657444730733,1
347,2024-09-25 22:24:42.216334848,TASK_BEGIN,018,0.043392527776253055,-0.5209353676432378,1.0261735467690383,-0.4997081119797499,0.377200825878447,0.010628651180609329,-3.8028553022051863,0.03699141023515734,1
348,2024-09-25 22:24:42.297684736,TASK_BEGIN,018,0.034041040720329485,-0.5061319832511784,1.2309569390737838,-0.5484059805539074,0.3947692773459259,0.006112819528285375,-3.8106938446747054,0.035736909298593654,1
349,2024-09-25 22:24:42.354726144,TASK_BEGIN,018,0.02245451490406226,-0.4911533983052716,1.4395303629843248,-0.593498042666572,0.4145542116046402,0.0019185970415952966,-3.8022289496935957,0.0379924901285933,1
350,2024-09-25 22:24:42.431544832,TASK_BEGIN,018,0.008279103973545006,-0.4763038993119576,1.6404225129070051,-0.6321889574425424,0.43498375774659653,-0.001868293444754204,-3.776783017689903,0.043492902320759315,1
351,2024-09-25 22:24:42.492701952,TASK_BEGIN,018,-0.008695995521341749,-0.46187241675116547,1.8235855189189976,-0.6621882258993188,0.4543309173656452,-0.005156294789716381,-3.733143680646816,0.051646459048207444,1
352,2024-09-25 22:24:43.430553856,TASK_BEGIN,018,-0.02849475176776019,-0.44811862468069935,1.9812274581285978,-0.6818638025251075,0.4708971468888781,-0.007866504368168915,-3.6701241813387973,0.06166904132075146,1
353,2024-09-25 22:24:43.512100864,TASK_BEGIN,018,-0.050929718753992714,-0.4352633429237215,2.1082304170477113,-0.6903261563949521,0.4831956817984058,-0.009949654971121538,-3.58693339407468,0.07269872273465383,1
354,2024-09-25 22:24:43.569669888,TASK_BEGIN,018,-0.07560358923426783,-0.4234850637224429,2.2021002784401524,-0.6874449513044033,0.4900841907604506,-0.011395665916272231,-3.4834800864096023,0.08388138005847663,1
355,2024-09-25 22:24:43.647793920,TASK_BEGIN,018,-0.10195579275767361,-0.4129156219665957,2.2626183150223396,-0.6738074088357514,0.49085248862515385,-0.012235785142351878,-3.3608196424663728,0.09443924443219025,1
356,2024-09-25 22:24:43.715607808,TASK_BEGIN,018,-0.12935458815476672,-0.403629394240853,2.2913936179000487,-0.6506327887196245,0.4852974462221543,-0.012542647814457209,-3.221581189502743,0.10371671614287972,1
357,2024-09-25 22:24:43.770910976,TASK_BEGIN,018,-0.15720001391970642,-0.39563144483191454,2.2913902047456536,-0.6196580216156589,0.4737828255168497,-0.012431191992316975,-3.069961750978828,0.11119075157337564,1
358,2024-09-25 22:24:43.851269120,TASK_BEGIN,018,-0.18500058809013706,-0.38885573640814425,2.266422416707138,-0.5829965596904256,0.4572454347898564,-0.012059866583814876,-2.91117715240958,0.11645714564960083,1
359,2024-09-25 22:24:44.794820096,TASK_BEGIN,018,-0.21241074472575078,-0.3831779458523232,2.2206537521090106,-0.5429718378617084,0.4371023613224952,-0.011627426973970794,-2.7507558252876705,0.11923681680148566,1
360,2024-09-25 22:24:44.862669056,TASK_BEGIN,018,-0.23922219873321837,-0.37843844142953004,2.1582030202322846,-0.5019431336358526,0.41504678355557445,-0.011357562717346318,-2.5940854208003303,0.1194214747988155,1
361,2024-09-25 22:24:44.928913152,TASK_BEGIN,018,-0.26529590854247936,-0.37446988343191034,2.0829247380371942,-0.46213995353469006,0.3927937718434451,-0.01147177801686385,-2.4462018052618935,0.11710331383158912,1
362,2024-09-25 22:24:44.990981888,TASK_BEGIN,018,-0.29044275387312746,-0.3711266096679474,1.998321498162237,-0.4255102986578855,0.37188224995841046,-0.012164249061698175,-2.3115465252987555,0.11251565377446797,1
363,2024-09-25 22:24:45.053064192,TASK_BEGIN,018,-0.3143056359474425,-0.36831108983807836,1.907523078685475,-0.3936067396830461,0.3535880650710851,-0.013591642452083596,-2.1935470595944966,0.10588645483225262,1
364,2024-09-25 22:24:45.133868032,TASK_BEGIN,018,-0.3363094814231069,-0.36598940649539935,1.813323430723899,-0.3675509601451661,0.338919475059953,-0.015877585283583268,-2.094170746093678,0.0972896468164109,1
365,2024-09-25 22:24:45.191838976,TASK_BEGIN,018,-0.3557080525170537,-0.36418957788583206,1.7182653423963377,-0.3480840687864208,0.3286480550311121,-0.019123452074111147,-2.013812210444165,0.08659345501922049,1
366,2024-09-25 22:24:46.106689024,TASK_BEGIN,018,-0.37170566589564835,-0.36298249009451117,1.6247325173532035,-0.3356630621717121,0.32335548367814393,-0.02341897137702508,-1.9517616447195116,0.07355096377119487,1
367,2024-09-25 22:24:46.183870976,TASK_BEGIN,018,-0.3836022695312376,-0.3624517314299266,1.535034924644728,-0.3305547418728422,0.32348355572117,-0.028850256474303945,-1.9070824379090165,0.05799440511787003,1
368,2024-09-25 22:24:46.245417216,TASK_BEGIN,018,-0.39090886569527733,-0.3626626029810944,1.4514824975437346,-0.3328961627339687,0.3293667284450833,-0.03550553409560681,-1.8794397575251351,0.04003391652525394,1
369,2024-09-25 22:24:46.322545920,TASK_BEGIN,018,-0.3934008468508904,-0.3636402797417024,1.376395472300395,-0.3427095989327542,0.34123806924966854,-0.04347943531263672,-1.869494865962084,0.02016605266623927,1
370,2024-09-25 22:24:46.384574976,TASK_BEGIN,018,-0.39110613328140187,-0.3653638654896713,1.3119747441278764,-0.35986918486530156,0.3592194503475383,-0.052872995269020825,-1.8786654708939967,-0.0007553981426065028,1
371,2024-09-25 22:24:46.457552896,TASK_BEGIN,018,-0.3842495495182114,-0.367776523535636,1.2599959974458415,-0.38401896714313677,0.3833088935852635,-0.06378221035254726,-1.9082506055266568,-0.02168642916120726,1
372,2024-09-25 22:24:46.525272064,TASK_BEGIN,018,-0.37317640966295407,-0.3708049422358084,1.2214273463432337,-0.4144648534315684,0.41337061529424046,-0.0762732884784275,-1.9582140509848542,-0.04164790852665929,1
373,2024-09-25 22:24:47.468822016,TASK_BEGIN,018,-0.35826077608208806,-0.37438179101001756,1.1962201933380303,-0.45010159663997634,0.44912360727619416,-0.09035356356112625,-2.0261747360141737,-0.05997124975693646,1
374,2024-09-25 22:24:47.536668928,TASK_BEGIN,018,-0.3398098767107825,-0.3784674975157295,1.1834397355733113,-0.48943150835859733,0.49011109525711155,-0.10594804039419593,-2.1071423336442248,-0.07643121737235636,1
375,2024-09-25 22:24:47.601230080,TASK_BEGIN,018,-0.3180087272973878,-0.38306269159246037,1.1816066495938549,-0.5306720192847585,0.5356479272477733,-0.1228857320967239,-2.1942116879717593,-0.09120976255448106,1
376,2024-09-25 22:24:47.672370176,TASK_BEGIN,018,-0.29294995196775137,-0.38819955151734115,1.1889787036237656,-0.5719012911604375,0.584783360259285,-0.140898692065602,-2.2799846082220023,-0.10470192181094617,1
377,2024-09-25 22:24:47.740217088,TASK_BEGIN,018,-0.2647444514671362,-0.3939113539935723,1.203658916694902,-0.6112018882356228,0.6363237483178509,-0.15963629025055293,-2.3582028062645586,-0.11723339006823437,1
378,2024-09-25 22:24:47.802690048,TASK_BEGIN,018,-0.2336585192521227,-0.4001937127904952,1.2236251150695556,-0.6468049811733123,0.6889239084572341,-0.17869311131803084,-2.4250369460440053,-0.12879453824975162,1
379,2024-09-25 22:24:47.865175040,TASK_BEGIN,018,-0.20021595092160419,-0.4069725323904701,1.246775686140445,-0.6772464509741803,0.7412163266620087,-0.197643756834324,-2.47963780802676,-0.13888596683638957,1
380,2024-09-25 22:24:48.787456000,TASK_BEGIN,018,-0.16523240716542414,-0.4140868093010433,1.2709831432572631,-0.7015090941774683,0.7919345757761359,-0.21607619342987713,-2.5238763876461086,-0.14651732596786982,1
381,2024-09-25 22:24:48.861376000,TASK_BEGIN,018,-0.12977959250999702,-0.42128888627785477,1.2941883540688925,-0.719110566654382,0.8400156339572746,-0.2336197311481825,-2.5615362811111955,-0.15033733204997837,1
382,2024-09-25 22:24:48.929224960,TASK_BEGIN,018,-0.09509686946356614,-0.4282602502637341,1.314641041160297,-0.7301314179593453,0.884698224127737,-0.24996868897476274,-2.5973523983714206,-0.14883105153475457,1
383,2024-09-25 22:24:48.997019904,TASK_BEGIN,018,-0.062483739115087526,-0.4346372527266114,1.3312793920794337,-0.7351993878081307,0.9256160629063337,-0.2649009065712229,-2.636143674966528,-0.1405274368253991,1
384,2024-09-25 22:24:49.064847872,TASK_BEGIN,018,-0.0332066032483057,-0.4400414643754558,1.3440857927935421,-0.7354309028018053,0.9628395857614589,-0.27828475525388763,-2.682048196331897,-0.12420999458558546,1
385,2024-09-25 22:24:49.127781120,TASK_BEGIN,018,-0.008432765577477314,-0.44411162708343394,1.3542398506520565,-0.7323203286616349,0.9968217616741286,-0.29006896278397115,-2.737794655677486,-0.09915009390714977,1
386,2024-09-25 22:24:49.195229952,TASK_BEGIN,018,0.01081382966958616,-0.4465337678447834,1.3639956370404065,-0.7275769906101822,1.0282639607214425,-0.30025931030248676,-2.8040868448071334,-0.06533966678891401,1
387,2024-09-25 22:24:50.143534848,TASK_BEGIN,018,0.023687923685989185,-0.4470654185008132,1.3763647792322502,-0.7229224031331744,1.0579643099090417,-0.3088945737357313,-2.8793447146616002,-0.023639642571061072,1
388,2024-09-25 22:24:50.206067200,TASK_BEGIN,018,0.029564315098985834,-0.44555345305238736,1.3947174693300004,-0.7198672287525444,1.086689606387771,-0.3160307219237473,-2.9599951208668815,0.02423209353954052,1
389,2024-09-25 22:24:50.279187968,TASK_BEGIN,018,0.028087737050780114,-0.44194685681611506,1.4222778871599004,-0.7194957756154503,1.1150615531339352,-0.32173274773280475,-3.0412156417801013,0.07587035222262514,1
390,2024-09-25 22:24:50.346969856,TASK_BEGIN,018,0.019209994639236172,-0.43630025250685867,1.4614758051032393,-0.7223047876473955,1.143439261843161,-0.3260686488523424,-3.1177898892742464,0.1284432555909558,1
391,2024-09-25 22:24:50.408026880,TASK_BEGIN,018,0.003193397684592201,-0.4287619408408213,1.513303619683686,-0.7281512607067852,1.1718191158036062,-0.32910290953290156,-3.1847730926249436,0.17898017428856042,1
392,2024-09-25 22:24:50.470042880,TASK_BEGIN,018,-0.01940951150953068,-0.41954919637328314,1.5769378645256673,-0.7363326344897999,1.1998052008630598,-0.3308927061852036,-3.2378691851713706,0.22464177338978428,1
393,2024-09-25 22:24:50.547248896,TASK_BEGIN,018,-0.047772865469923737,-0.4089216534367433,1.6497948704979928,-0.7457711019846985,1.2266805538062608,-0.3314913284453282,-3.2735737472709223,0.26292707277604105,1
394,2024-09-25 22:24:51.494215168,TASK_BEGIN,018,-0.08080561720505676,-0.3971611364168328,1.7279999162920197,-0.7552380405011225,1.2515484100456096,-0.33095800869076064,-3.289229657536908,0.29179711601970043,1
395,2024-09-25 22:24:51.548434176,TASK_BEGIN,018,-0.1171748721634442,-0.38455893744046565,1.8070641609530347,-0.763551767802689,1.2734743786580218,-0.3293682183685807,-3.2831567057322784,0.30974246935500444,1
396,2024-09-25 22:24:51.626560000,TASK_BEGIN,018,-0.15536903422147558,-0.37140707560845715,1.882520433289752,-0.7697133759335145,1.2915729950090917,-0.3268185599196848,-3.2549038790091385,0.31583922922150204,1
397,2024-09-25 22:24:51.689697024,TASK_BEGIN,018,-0.1937964545850204,-0.3579912503069913,1.9504050212908872,-0.7729847805397689,1.3050338011615221,-0.3234254119748518,-3.2055600115581413,0.30982710005898095,1
398,2024-09-25 22:24:51.750674944,TASK_BEGIN,018,-0.2308840382698988,-0.3445882382195749,2.007609885985342,-0.7729213388677895,1.3131409290217804,-0.31932328359171325,-3.138010838283612,0.29221075094407545,1
399,2024-09-25 22:24:51.828352000,TASK_BEGIN,018,-0.26513995653368055,-0.33147196277379504,2.052124903793211,-0.769354877702367,1.315345021748188,-0.3146698630672251,-3.0569490533925125,0.2643177124722881,1
400,2024-09-25 22:24:51.890156032,TASK_BEGIN,018,-0.29518221788931215,-0.31892500568905524,2.0831041945694326,-0.762327080648498,1.3113776428161459,-0.3096565341291224,-2.9684273888753867,0.2282133708563338,1
401,2024-09-25 22:24:52.843799040,TASK_BEGIN,018,-0.3197721392501087,-0.3072437153202753,2.1006750122901545,-0.7519988312569634,1.301338879516305,-0.3045152903503164,-2.878981588783721,0.18645259284218368,1
402,2024-09-25 22:24:52.911686144,TASK_BEGIN,018,-0.3378808018558916,-0.29672796825947995,2.105547629921697,-0.7385691150490582,1.2857118622606,-0.2995154958006287,-2.7946869111534944,0.14176515040602228,1
403,2024-09-25 22:24:52.965681152,TASK_BEGIN,018,-0.34876809167499756,-0.2876590553187236,2.098666243382686,-0.722230858063961,1.265316360295477,-0.29495129346928606,-2.7205662176288263,0.09680459681844202,1
404,2024-09-25 22:24:53.047311104,TASK_BEGIN,018,-0.3520397743986158,-0.28027571281145786,2.081128225651964,-0.7031858073613593,1.2412260871608667,-0.2911216113276327,-2.660423073380535,0.05401399567770054,1
405,2024-09-25 22:24:53.115164160,TASK_BEGIN,018,-0.3476896132518879,-0.2747523752912436,2.0543609398584772,-0.6817108363438323,1.2146454766215913,-0.28830155528675494,-2.6168127348490677,0.015562037300514609,1
406,2024-09-25 22:24:53.182199040,TASK_BEGIN,018,-0.3361495410713716,-0.27117816830677033,2.0203504647957278,-0.6582283227513859,1.1867388611965262,-0.2867077969462303,-2.5909331040208623,-0.016713968105875804,1
407,2024-09-25 22:24:53.243772928,TASK_BEGIN,018,-0.3183194756579896,-0.26954099163776013,1.9817804782944686,-0.6333471425831084,1.1584528942700145,-0.2864715803520803,-2.582539368384627,-0.041368211382308825,1
408,2024-09-25 22:24:54.193837824,TASK_BEGIN,018,-0.2955164500981693,-0.26972628377180335,1.9421127279705976,-0.6078895164807033,1.130408849562001,-0.28763465755614226,-2.590028986386101,-0.05739843832097558,1
409,2024-09-25 22:24:54.261740032,TASK_BEGIN,018,-0.2693360880589201,-0.2715321583697371,1.9056525764585468,-0.5829197908711259,1.102907297508163,-0.29016859206981943,-2.6106593782641854,-0.0642960595768049,1
410,2024-09-25 22:24:54.329593088,TASK_BEGIN,018,-0.24148365728293925,-0.27469298240619394,1.8775292493147517,-0.5597530033617989,1.0760224452254639,-0.29400333962859443,-2.64083785523967,-0.0620952819899296,1
411,2024-09-25 22:24:54.397388032,TASK_BEGIN,018,-0.21362150991551543,-0.27890478000335056,1.8634974298465314,-0.5399157048151901,1.049740114512932,-0.29905173636001287,-2.6764506971443827,-0.05140811228477289,1
412,2024-09-25 22:24:54.460179200,TASK_BEGIN,018,-0.1872336802760496,-0.283851319519728,1.8695422306967153,-0.5250560320554242,1.0241111136165753,-0.3052261658791891,-2.7131332184728314,-0.03343133743666585,1
413,2024-09-25 22:24:54.533044224,TASK_BEGIN,018,-0.16349871075637146,-0.28923048750916736,1.9013342170952152,-0.5168154022222142,0.9993891074798944,-0.31244849277566633,-2.746447184179375,-0.009907810742026645,1
414,2024-09-25 22:24:54.598560000,TASK_BEGIN,018,-0.1431792238104952,-0.2947787251899408,1.9636410188451787,-0.5166884836243566,0.9760962693599571,-0.32065197311260035,-2.7720440115634917,0.016963334969791428,1
415,2024-09-25 22:24:55.530952960,TASK_BEGIN,018,-0.1265452107419184,-0.30029153897758765,2.0598117442305957,-0.5259041938054675,0.9549780562480631,-0.32977284852417627,-2.7858286598228537,0.04464613452180319,1
416,2024-09-25 22:24:55.608617984,TASK_BEGIN,018,-0.11334432516404393,-0.3056395920763126,2.1913516126042714,-0.5453300907462675,0.9368708890672731,-0.33973315485510824,-2.7840966974442756,0.07040957748276418,1
417,2024-09-25 22:24:55.679592960,TASK_BEGIN,018,-0.10282324681396483,-0.31077947176145615,2.357552262743214,-0.5753727094450303,0.9225443985309953,-0.3504202436479137,-2.763675764289143,0.09151205277187167,1
418,2024-09-25 22:24:55.747407872,TASK_BEGIN,018,-0.09379527040475537,-0.3157577259985228,2.555211316337628,-0.6158697798719532,0.9125716939851077,-0.3616700532672192,-2.722056240173292,0.10541894743618656,1
419,2024-09-25 22:24:55.808931072,TASK_BEGIN,018,-0.08475117659955748,-0.32070855769175977,2.7785376801366533,-0.6660199225947356,0.907250607387897,-0.3732596598581796,-2.6574434786143537,0.11000764147481937,1
420,2024-09-25 22:24:55.871620864,TASK_BEGIN,018,-0.07401991949055796,-0.3258450942667583,3.0193881640183746,-0.7244102435132427,0.9065699622132005,-0.38491051266057663,-2.5687426367250423,0.10373651745996916,1
421,2024-09-25 22:24:55.948313856,TASK_BEGIN,018,-0.05997744152563387,-0.33144114887254217,3.2679750415547937,-0.7891658536430878,0.9102074452552967,-0.39630047629601484,-2.4555023972124053,0.0857753317422166,1
422,2024-09-25 22:24:56.869019136,TASK_BEGIN,018,-0.04126722576077725,-0.33780339420707556,3.5139573393318058,-0.8581789798610877,0.917553365651657,-0.40708096400615806,-2.31778900645224,0.05607210863252817,1
423,2024-09-25 22:24:56.930036992,TASK_BEGIN,018,-0.016973842523588696,-0.3452404726090689,3.7475272721374115,-0.9293168478612054,0.9277538379581269,-0.4168939522934214,-2.1560211896428267,0.015326906353533605,1
424,2024-09-25 22:24:56.992476160,TASK_BEGIN,018,0.01328430326177874,-0.3540332387454037,3.960110533186832,-1.000517923389469,0.9397578757448896,-0.4253843976524738,-1.9708661187562582,-0.03511697075366732,1
425,2024-09-25 22:24:57.070550016,TASK_BEGIN,018,0.04933400703503758,-0.3644025100099616,4.144611161590129,-1.0697820151243749,0.9523549498404738,-0.4322065642750869,-1.7632612278876962,-0.09341854348845156,1
426,2024-09-25 22:24:57.132148992,TASK_BEGIN,018,0.09047575229768144,-0.37647217421298396,4.29536952017518,-1.135146249919656,0.9642060457176745,-0.43702658968759006,-1.5345754460262746,-0.1573887415535074,1
427,2024-09-25 22:24:57.193652224,TASK_BEGIN,018,0.13555034794201215,-0.390235466964995,4.408017887188307,-1.194723999445453,0.973884887154887,-0.43952763672650297,-1.286894996312148,-0.22464228613222503,1
428,2024-09-25 22:24:57.271311104,TASK_BEGIN,018,0.18303689000711978,-0.40553690064829395,4.4793727124890745,-1.2468072569518889,0.9799451592269969,-0.43942437508919957,-1.023438789828568,-0.29273542463920355,1
429,2024-09-25 22:24:58.212926976,TASK_BEGIN,018,0.23116916877048763,-0.42207603852599535,4.507442635054084,-1.2899871256511861,0.9810162873658305,-0.4364879577650634,-0.7491479284490581,-0.3592396711575399,1
430,2024-09-25 22:24:58.274614016,TASK_BEGIN,018,0.2780556756421521,-0.4394285730574029,4.491496435219531,-1.3232464977281255,0.9759188075318721,-0.4305770440682231,-0.4713545330562111,-0.42173582537094134,1
431,2024-09-25 22:24:58.354162176,TASK_BEGIN,018,0.32179419101465256,-0.4570741933518126,4.432023802984638,-1.3459888803077267,0.9637907001092407,-0.42166894849083864,-0.20016007063602276,-0.477791482797953,1
432,2024-09-25 22:24:58.413810944,TASK_BEGIN,018,0.36057916343867885,-0.47442475218724595,4.330484510677216,-1.3579905231814144,0.944207503528394,-0.4098835956817262,0.05186984972655461,-0.5250003525886158,1
433,2024-09-25 22:24:58.489808128,TASK_BEGIN,018,0.3928032753798187,-0.49085579748014635,4.188958043700666,-1.3593093711982864,0.9172552884031937,-0.3954916308575324,0.27077088708092234,-0.561096915144986,1
434,2024-09-25 22:24:58.557614080,TASK_BEGIN,018,0.4171467879584787,-0.5057460456310686,4.009963929294677,-1.3502139024153614,0.883518001645773,-0.37890177871255826,0.44278702150358795,-0.5841130564921522,1
435,2024-09-25 22:24:58.625399296,TASK_BEGIN,018,0.432634796063366,-0.5185197977232202,3.796598562541012,-1.3311702440429347,0.8439831819976078,-0.3606292636856885,0.5562237975325327,-0.5925614730651357,1
436,2024-09-25 22:24:59.534117888,TASK_BEGIN,018,0.4386466382165735,-0.5286807512209393,3.5528348328798476,-1.3028733869908773,0.7999056026550554,-0.34125100406235565,0.6032217075223508,-0.5856427999412127,1
437,2024-09-25 22:24:59.610874880,TASK_BEGIN,018,0.43488588001380385,-0.5358296371743501,3.283730941440645,-1.266280783008788,0.7526624786820326,-0.3213543947561858,0.581023051263283,-0.5634255871848222,1
438,2024-09-25 22:24:59.679739136,TASK_BEGIN,018,0.42133431987773895,-0.5396663294812937,2.995450426123023,-1.2226174819508058,0.7036107648715451,-0.30148781202968783,0.49230391229129145,-0.5269003552805148,1
439,2024-09-25 22:24:59.747581952,TASK_BEGIN,018,0.3982035586840126,-0.5399830424228024,2.6951044789023877,-1.1733447918074296,0.6539570191333761,-0.2821218824743232,0.3444164243765401,-0.47784357770459346,1
440,2024-09-25 22:24:59.811670272,TASK_BEGIN,018,0.36588289512255795,-0.5366550411584469,2.390400912789699,-1.1200966815816498,0.6046692430692845,-0.26362759962211735,0.14785105903064288,-0.418536052173202,1
441,2024-09-25 22:24:59.883128832,TASK_BEGIN,018,0.32488263568920794,-0.5296303509304129,2.0891096819881145,-1.0645935887311548,0.5564571366368456,-0.24627039883691548,-0.08538489026093325,-0.35147884850052863,1
442,2024-09-25 22:24:59.935735040,TASK_BEGIN,018,0.27578162542602946,-0.5189173592360911,1.798492211764572,-1.0085551960615406,0.5098102257370604,-0.23021352724104013,-0.3427953714919807,-0.279251167670757,1
443,2024-09-25 22:25:00.894179072,TASK_BEGIN,018,0.21919737495551894,-0.5045711183611699,1.5249266712129588,-0.9536391583697135,0.4650530816354836,-0.21552494348046833,-0.6116963124502784,-0.20453687288858247,1
444,2024-09-25 22:25:00.957267200,TASK_BEGIN,018,0.1557948086029096,-0.48668224078176303,1.2738482337182462,-0.9014080746801703,0.42238869478873525,-0.20218825628980847,-0.8792500822099814,-0.13021117699750603,1
445,2024-09-25 22:25:01.029863936,TASK_BEGIN,018,0.08632249954294677,-0.4653737679097168,1.0498791523862612,-0.8532927404087848,0.3819336374344261,-0.19012101620122288,-1.1327108684577272,-0.05935798553701796,1
446,2024-09-25 22:25:01.089026816,TASK_BEGIN,018,0.011639738797228362,-0.44080878965188564,0.8568844436148634,-0.8105214595215998,0.343759514489648,-0.17919884300011543,-1.359927953933092,0.004825873147213076,1
447,2024-09-25 22:25:01.153024000,TASK_BEGIN,018,-0.0672896212072146,-0.4132048959653944,0.6978041120212343,-0.7740218051519974,0.3079414565582583,-0.16927910727191162,-1.5499409391533474,0.05921169206326601,1
448,2024-09-25 22:25:01.227073024,TASK_BEGIN,018,-0.14943055972125802,-0.382846143622367,0.5743436209408871,-0.7443239639752592,0.2746036779353058,-0.16021859547250716,-1.6936257358269533,0.10096985005931917,1
449,2024-09-25 22:25:01.289983232,TASK_BEGIN,018,-0.23371863100912882,-0.3500851691071289,0.48671459275653567,-0.7214869620754176,0.24395582612875893,-0.15188262842945383,-1.7843942709982252,0.1278159835234014,1
450,2024-09-25 22:25:02.244519168,TASK_BEGIN,018,-0.31909277266656033,-0.3153368748332226,0.4335575496895803,-0.7050653094741062,0.2163184151388619,-0.14414760064738658,-1.8188467417971912,0.1382272040344995,1
451,2024-09-25 22:25:02.312386048,TASK_BEGIN,018,-0.40451390086810035,-0.27907241473784106,0.41203557378360706,-0.6941352405121358,0.19213156711839302,-0.13690388254385016,-1.7972218039138554,0.13159117611526253,1
452,2024-09-25 22:25:02.380243968,TASK_BEGIN,018,-0.48898131965892405,-0.24181924240398675,0.4179904861366925,-0.6873792716419159,0.17193744541302594,-0.13006492866404054,-1.7234713626288092,0.10825901452904041,1
453,2024-09-25 22:25:02.445488896,TASK_BEGIN,018,-0.5715585642520348,-0.20416159791163527,0.4461023114730774,-0.6832106158146545,0.15633245719821556,-0.1235806394296327,-1.6048608306938021,0.06947668248067183,1
454,2024-09-25 22:25:02.512808960,TASK_BEGIN,018,-0.6514054766814465,-0.1667288740691193,0.4900943233555208,-0.6799239598469154,0.14589947017784394,-0.11744763281149664,-1.4512057533943683,0.017204280149457265,1
455,2024-09-25 22:25:02.569736192,TASK_BEGIN,018,-0.727808597520911,-0.13016593239781327,0.5430409140320955,-0.675855043897765,0.14114030233554686,-0.11171106198425022,-1.2739699745074413,-0.04611717316281367,1
456,2024-09-25 22:25:02.646519040,TASK_BEGIN,018,-0.800203012948588,-0.09509276426091072,0.5978160441560659,-0.6695285212445394,0.14241621352521194,-0.10645729659606083,-1.0854577551094884,-0.11776104848683577,1
457,2024-09-25 22:25:03.594629120,TASK_BEGIN,018,-0.8681760090309112,-0.06206629733089736,0.6476791126151374,-0.6597932635458502,0.14987948431929857,-0.10179859823326744,-0.8983453239851138,-0.19479777570687437,1
458,2024-09-25 22:25:03.661474048,TASK_BEGIN,018,-0.9314480509191649,-0.03155139643690768,0.6868655026505702,-0.6459448979750586,0.16338723508953568,-0.09785132643202397,-0.7255979279541582,-0.2740794318778866,1
459,2024-09-25 22:25:03.722643968,TASK_BEGIN,018,-0.9898398090685384,-0.0039010820861785514,0.710988306881577,-0.6278052909887945,0.18243937285295223,-0.09471380932520654,-0.5804095516147268,-0.3522398610314304,1
460,2024-09-25 22:25:03.798174976,TASK_BEGIN,018,-1.0432338869069013,0.020654574116543593,0.7171926088923216,-0.6057203749591321,0.20620764189536983,-0.09245474086561176,-0.47567630678249356,-0.4258166946382085,1
461,2024-09-25 22:25:03.866010112,TASK_BEGIN,018,-1.0915271063331267,0.0420079859909168,0.7041231291398188,-0.5804663562425831,0.23366463577834112,-0.09111647783837291,-0.42288995785436645,-0.4914903590536109,1
462,2024-09-25 22:25:03.922882048,TASK_BEGIN,018,-1.1345779012111343,0.060160229389069064,0.671773007005677,-0.5530971902113944,0.26373755946875577,-0.0907242113963824,-0.43080318532889333,-0.5463410007921964,1
463,2024-09-25 22:25:04.000092160,TASK_BEGIN,018,-1.1721849092354868,0.07519950325534872,0.6213183509890542,-0.5248014280534115,0.29540008967143944,-0.09128833842383009,-0.5043189558617704,-0.5880360672493801,1
464,2024-09-25 22:25:04.929761024,TASK_BEGIN,018,-1.2041355560309572,0.08728144586033597,0.5550360510568537,-0.4968221558893823,0.3276789307675667,-0.09279589067463592,-0.6438640543836711,-0.6149376438248433,1
465,2024-09-25 22:25:05.012332032,TASK_BEGIN,018,-1.230314045796045,0.09661590581476619,0.476254881554343,-0.4704256190364186,0.3596155184469913,-0.09519556791907945,-0.8453278896297287,-0.6261612912115013,1
466,2024-09-25 22:25:05.080167936,TASK_BEGIN,018,-1.2508024424025295,0.10345721159505031,0.3891827224239096,-0.4468566561134608,0.39023982103213084,-0.09838299247845936,-1.1004935285921793,-0.6216150451389485,1
467,2024-09-25 22:25:05.144515072,TASK_BEGIN,018,-1.2659109411618727,0.10809114659664432,0.29851029133671275,-0.42724001048198734,0.4185848304625604,-0.10219071047376999,-1.3977185220052855,-0.6020376146309238,1
468,2024-09-25 22:25:05.215831040,TASK_BEGIN,018,-1.2761393669106136,0.11081444769374488,0.20887238924075766,-0.4124414448614594,0.4437276885944842,-0.10638519998699622,-1.7226557303997716,-0.5690229284680143,1
469,2024-09-25 22:25:05.282960896,TASK_BEGIN,018,-1.2821272605810334,0.11191146847457069,0.1244256152701182,-0.4029378133331146,0.46482304948476344,-0.11067213867291245,-2.059033635899182,-0.5249691315139752,1
470,2024-09-25 22:25:05.344845056,TASK_BEGIN,018,-1.284635313387526,0.11163966664434971,0.04875486642605307,-0.3987421975855127,0.48110349808387715,-0.11470871362895517,-2.3895770477537277,-0.47289740203859754,1
471,2024-09-25 22:25:06.283666944,TASK_BEGIN,018,-1.284548153322389,0.11023122383107464,-0.01497042789346665,-0.39940271953153617,0.4918411884487209,-0.11811781558248838,-2.6970433928469366,-0.41615558982403206,1
472,2024-09-25 22:25:06.360820992,TASK_BEGIN,018,-1.2828590161315012,0.10790540031337612,-0.06389999410099916,-0.4040568442437375,0.496290437569556,-0.12050096287597632,-2.9653842940748905,-0.3580722060036373,1
473,2024-09-25 22:25:06.429513984,TASK_BEGIN,018,-1.2806067413883317,0.1048782514937527,-0.09568425385959342,-0.41150373171808485,0.49365726693385736,-0.12145388062256801,-3.181032972578089,-0.30163536261525387,1
474,2024-09-25 22:25:06.485931008,TASK_BEGIN,018,-1.278768050077811,0.10136020733442032,-0.10882514471425275,-0.42028682914413207,0.48313274484414104,-0.12058870591311029,-3.3340484179403385,-0.24927009892339105,1
475,2024-09-25 22:25:06.565167872,TASK_BEGIN,018,-1.2781397094811724,0.09754302123177912,-0.10289994550843409,-0.42881238467536,0.4639832176105449,-0.11756079200770762,-3.4187771097287714,-0.20274610971349397,1
476,2024-09-25 22:25:06.632980992,TASK_BEGIN,018,-1.2792522706939828,0.09358576212905215,-0.07851287659289431,-0.435499776342528,0.4356710296364936,-0.11209711817224476,-3.434011246835562,-0.16316309327049006,1
477,2024-09-25 22:25:06.686194944,TASK_BEGIN,018,-1.2823363908454786,0.08960787451534825,-0.037065545208968514,-0.43891999867426695,0.39798896937161954,-0.10402359622419115,-3.3827390784035245,-0.13095038818560362,1
478,2024-09-25 22:25:07.613135872,TASK_BEGIN,018,-1.287337198778469,0.08568816902762925,0.01951286366612003,-0.437902122523628,0.35117734510016796,-0.09328436330395748,-3.2714069549911655,-0.10590439695881756,1
479,2024-09-25 22:25:07.686511872,TASK_BEGIN,018,-1.2939596170602827,0.08186241792961356,0.08900610173754657,-0.4316208907805535,0.2959702849577663,-0.07994641598165578,-3.108768999809118,-0.0873055976713007,1
480,2024-09-25 22:25:07.754324992,TASK_BEGIN,018,-1.3017240682523263,0.07811598697053508,0.16909692823188474,-0.41966655487242577,0.23354653340226858,-0.06419089106864133,-2.9047921268327324,-0.07406920614360238,1
481,2024-09-25 22:25:07.822132992,TASK_BEGIN,018,-1.3100132519815952,0.074376659482157,0.25748158586954073,-0.40208083463242505,0.16541961456287207,-0.046298099452297375,-2.6699991252337605,-0.06486040131396932,1
482,2024-09-25 22:25:07.876445952,TASK_BEGIN,018,-1.3181004151762876,0.0705165102839377,0.351921297474041,-0.3793538248506591,0.09332283497391608,-0.026632593318061094,-2.4151758812707795,-0.05818409485011082,1
483,2024-09-25 22:25:07.953591040,TASK_BEGIN,018,-1.3251621600408445,0.06636662236220886,0.4502748236059273,-0.3523883199956516,0.019109918973790364,-0.005630363292548034,-2.151183465585072,-0.052497808110742415,1
484,2024-09-25 22:25:08.015134976,TASK_BEGIN,018,-1.3302895214019241,0.061740452226064224,0.5505376647484737,-0.32242791310057317,-0.05534679673020572,0.016214627336001968,-1.8887673389839688,-0.04634766462930006,1
485,2024-09-25 22:25:08.968676096,TASK_BEGIN,018,-1.3325212372168183,0.05645958011827379,0.6508566810212237,-0.29094200156076244,-0.12826950631544667,0.038368616060431765,-1.6383952360970753,-0.03848407212451894,1
486,2024-09-25 22:25:09.036570112,TASK_BEGIN,018,-1.330917425242648,0.05037864767965935,0.749500949572401,-0.2594906296972114,-0.19806870337558538,0.06028003640954524,-1.4101136829507435,-0.02793658622209506,1
487,2024-09-25 22:25:09.104382208,TASK_BEGIN,018,-1.3246609950444457,0.043406004254091135,0.8448723106380677,-0.22961868172606967,-0.2633854730161939,0.08140149315782139,-1.2132693137683146,-0.014077551215757803,1
488,2024-09-25 22:25:09.164407040,TASK_BEGIN,018,-1.3131475466802345,0.03551404768644374,0.9356431351704677,-0.20280333130876613,-0.3230914058959133,0.10121127115514321,-1.0558729874078943,0.0032844309434413295,1
489,2024-09-25 22:25:09.225939968,TASK_BEGIN,018,-1.2960349016699522,0.026737124169094607,1.0209116683082422,-0.18042055176795563,-0.3762667560919281,0.11923376372520271,-0.9436009692579421,0.023790306426315234,1
490,2024-09-25 22:25:09.303113984,TASK_BEGIN,018,-1.2732596465583321,0.017162511787160446,1.1001532781296763,-0.16367777155519517,-0.4221561276251403,0.1350541424234508,-0.8788772868477939,0.04647433129831444,1
491,2024-09-25 22:25:09.375665920,TASK_BEGIN,018,-1.2450453724574397,0.006920910526922421,1.172917330088283,-0.15350177297188414,-0.46011126884368014,0.14832633144771212,-0.8606031720058837,0.06984249034896892,1
492,2024-09-25 22:25:10.287661056,TASK_BEGIN,018,-1.2119053788968612,-0.003822578487007337,1.2384305025663822,-0.15041416468696114,-0.4895514492689848,0.1587798055226694,-0.8846203738835181,0.09207652880797206,1
493,2024-09-25 22:25:10.350148864,TASK_BEGIN,018,-1.1746152629741653,-0.014879184446802246,1.2953303136108505,-0.1544356463693638,-0.5099522361761868,0.16622744801597802,-0.9445367792968238,0.11129366532828004,1
494,2024-09-25 22:25:10.427326976,TASK_BEGIN,018,-1.1341354602033635,-0.026050601532441268,1.341720110130372,-0.16506214710424935,-0.5208582809676077,0.1705717447448366,-1.0325682828126126,0.12579880965898918,1
495,2024-09-25 22:25:10.497196032,TASK_BEGIN,018,-1.091493571327901,-0.03714713950794023,1.3755963970094771,-0.1813481193967949,-0.5219367756511767,0.1718108403833336,-1.1402728509308577,0.13428308805726763,1
496,2024-09-25 22:25:10.564948992,TASK_BEGIN,018,-1.0476623720506315,-0.04800753970855761,1.3954818513070562,-0.2020890547730329,-0.5130828074980937,0.17004858670910294,-1.2592192892794725,0.1359467087441043,1
497,2024-09-25 22:25:10.632793088,TASK_BEGIN,018,-1.0034721281042254,-0.05851349911804801,1.4009870972741671,-0.2260462022222891,-0.49453405288132196,0.16550310642178714,-1.3816969345929682,0.13056194812756508,1
498,2024-09-25 22:25:10.700575232,TASK_BEGIN,018,-0.959575559625156,-0.06859273463912745,1.3930625084572597,-0.25213746580569074,-0.4669229139474707,0.15849975644305725,-1.5014428238729312,0.11848981325636097,1
499,2024-09-25 22:25:11.633714944,TASK_BEGIN,018,-0.916460795689248,-0.07821252029696282,1.3738150688407018,-0.2795353686971469,-0.4312362268940832,0.14944160994671193,-1.6141989547825661,0.1006328525947357,1
500,2024-09-25 22:25:11.706980096,TASK_BEGIN,018,-0.8744928556909323,-0.0873717261741044,1.345983337436693,-0.30766587101006576,-0.3887235596140001,0.1387657509996583,-1.7179729898737213,0.07831877757931709,1
501,2024-09-25 22:25:11.776387840,TASK_BEGIN,018,-0.833953913758737,-0.09609733397871982,1.3123827293721058,-0.3361509599944911,-0.3408184431903023,0.12689931654230313,-1.8129786051412329,0.05314638669703882,1
502,2024-09-25 22:25:11.836598016,TASK_BEGIN,018,-0.795057835786567,-0.10444515358189042,1.2756026726254686,-0.36473710227347145,-0.28909027410562865,0.11422279552054707,-1.9011528354061502,0.026824075679265348,1
503,2024-09-25 22:25:11.915191808,TASK_BEGIN,018,-0.757936900173517,-0.1124997655624169,1.2379859149712633,-0.39322327830175435,-0.23518976100960287,0.10104148812907199,-1.9851989184582837,0.0010154710943643783,1
504,2024-09-25 22:25:11.975318016,TASK_BEGIN,018,-0.7226124093789976,-0.1203689448373894,1.2017319410110812,-0.4213873771073525,-0.18075286239083074,0.08756575795762042,-2.067429320370521,-0.022792965201402293,1
505,2024-09-25 22:25:12.050827264,TASK_BEGIN,018,-0.6889626564697401,-0.12817215771180981,1.1689685498566424,-0.4489137546278634,-0.12727755296479298,0.07390259606876755,-2.1488096635387897,-0.04339924054895297,1
506,2024-09-25 22:25:12.993835008,TASK_BEGIN,018,-0.6567064276937449,-0.13602633723368995,1.1417505156536276,-0.47534345234777986,-0.07602543534129089,0.06006106569017167,-2.2283594088573357,-0.05997704570963071,1
507,2024-09-25 22:25:13.054985984,TASK_BEGIN,018,-0.6254146390419191,-0.14403274551270598,1.122056671597335,-0.5000831796148543,-0.027984828504788218,0.04597233897446996,-2.3028660128113656,-0.07213972557017123,1
508,2024-09-25 22:25:13.117505024,TASK_BEGIN,018,-0.5945401469793075,-0.1522675690566658,1.1118508763584882,-0.5224872408891741,0.01611455399380349,0.031522868796919616,-2.3669165676901187,-0.07994655524099646,1
509,2024-09-25 22:25:13.197362176,TASK_BEGIN,018,-0.5634503410905998,-0.1607769027683482,1.1131634964285066,-0.541987553649799,0.05576718659448009,0.01659708569579163,-2.413354858294884,-0.08383018969360871,1
510,2024-09-25 22:25:13.265196032,TASK_BEGIN,018,-0.5314710502129317,-0.1695760291714379,1.1280948816712273,-0.558233197060292,0.09066190609608042,0.0011219569462933652,-2.4342253214161236,-0.08444731189236786,1
511,2024-09-25 22:25:13.333009152,TASK_BEGIN,018,-0.49795743489443833,-0.1786548756813474,1.1586658136160741,-0.5711960118593934,0.12067639253356596,-0.014898539047229542,-2.422052251776489,-0.08248872135118739,1
512,2024-09-25 22:25:13.400824832,TASK_BEGIN,018,-0.46237640152102555,-0.18799110437654226,1.2065029360398583,-0.5811988284857901,0.1459084080816635,-0.03136917752049566,-2.3711955298702887,-0.07850227645222707,1
513,2024-09-25 22:25:14.333949952,TASK_BEGIN,018,-0.4243669564132,-0.19756491501541873,1.272481355307821,-0.5888617114811949,0.1667320887265322,-0.04811056008231432,-2.2791541711878684,-0.07275233358993505,1
514,2024-09-25 22:25:14.411159040,TASK_BEGIN,018,-0.3837675594264812,-0.20736442162673913,1.3565223662658503,-0.5950037783664679,0.18385387853841423,-0.06488160861849093,-2.1476952403310765,-0.06512333250622716,1
515,2024-09-25 22:25:14.479691776,TASK_BEGIN,018,-0.3406190464418891,-0.21737840094913596,1.457619770427441,-0.600535513726029,0.19834718817506716,-0.08141192582755293,-1.9834285733273977,-0.05510980312167664,1
516,2024-09-25 22:25:14.534284288,TASK_BEGIN,018,-0.29514787241296214,-0.2275851835315376,1.5740284668961697,-0.6063635646735933,0.21162774999635783,-0.09743649513957574,-1.79741108965502,-0.041931418323927244,1
517,2024-09-25 22:25:14.611272192,TASK_BEGIN,018,-0.24773419983527364,-0.23794665813338142,1.7035548491312467,-0.6133256388475073,0.22531537897878923,-0.11272016376987845,-1.6038161441519234,-0.024731194846717847,1
518,2024-09-25 22:25:14.683163904,TASK_BEGIN,018,-0.19887271700334375,-0.24840848699416868,1.843861043699857,-0.6221446315780418,0.24098441791399028,-0.12706469119700534,-1.4181417104825966,-0.0027744939241820202,1
519,2024-09-25 22:25:14.750788864,TASK_BEGIN,018,-0.1491275211541546,-0.25890377994802444,1.992579887953043,-0.6333631463770893,0.2598908301954001,-0.14030375025544975,-1.2553370591376372,0.02436930333520211,1
520,2024-09-25 22:25:15.681384960,TASK_BEGIN,018,-0.09907992438115677,-0.2693588118441954,2.14711192334556,-0.6472454398959568,0.2827723669157419,-0.15229555644261222,-1.12794573241664,0.05663469316546248,1
521,2024-09-25 22:25:15.761958912,TASK_BEGIN,018,-0.04928072545756522,-0.27970092376243866,2.3042644305925295,-0.6636855163612745,0.3097561956633887,-0.162917933147412,-1.0445042632504073,0.09329614667170626,1
522,2024-09-25 22:25:15.829585920,TASK_BEGIN,018,-0.0002331799348172516,-0.28986735334536917,2.4600217685729704,-0.6821765856972687,0.34035466676388637,-0.17206640724764055,-1.008700343555091,0.132937643264321,1
523,2024-09-25 22:25:15.885036800,TASK_BEGIN,018,0.047575099438350296,-0.2998115104659592,2.60955797870742,-0.7018643172154394,0.3735237518910166,-0.17965655429785435,-1.01951372904993,0.17360204905724078,1
524,2024-09-25 22:25:15.964103936,TASK_BEGIN,018,0.09360496676719109,-0.3095044866446763,2.747403611846599,-0.7216544524496605,0.40778430160543044,-0.18563258488123538,-1.0720116451356467,0.21305058605933916,1
525,2024-09-25 22:25:16.026112000,TASK_BEGIN,018,0.13719743726206954,-0.3189333911101914,2.867703024394756,-0.7403342461325282,0.44141259132032235,-0.18998101756029015,-1.1583341350392296,0.24902459879419275,1
526,2024-09-25 22:25:16.099105024,TASK_BEGIN,018,0.17753489037564402,-0.3281014995901209,2.9646246939913077,-0.7567058690807055,0.47267152629758524,-0.19274472248209493,-1.2686570502628232,0.2794530822186304,1
527,2024-09-25 22:25:17.043024896,TASK_BEGIN,018,0.2136560265464811,-0.3370358780772594,3.0329598753072853,-0.7697391364553248,0.5000251064362073,-0.1940318971724319,-1.392166760200609,0.3026084998636753,1
528,2024-09-25 22:25:17.105746176,TASK_BEGIN,018,0.244535972558942,-0.345803037859223,3.068761474993034,-0.7787091074134128,0.5222918902551901,-0.19401580969887763,-1.518139642145342,0.31722335190264633,1
529,2024-09-25 22:25:17.168615936,TASK_BEGIN,018,0.2692147091044906,-0.35452476440105385,3.0697631669152328,-0.7832689667052753,0.5387193486384069,-0.19292422874473777,-1.6370649052898851,0.32255764276262266,1
530,2024-09-25 22:25:17.247324928,TASK_BEGIN,018,0.2869399045039948,-0.3633829863201309,3.0354059702090415,-0.7834450075094215,0.5489832340994026,-0.1910213202746934,-1.7415058578483542,0.3183959670094912,1
531,2024-09-25 22:25:17.309463040,TASK_BEGIN,018,0.2972950351343089,-0.3726080666274915,2.966531370362838,-0.7795808227780601,0.553144432458401,-0.18858730292415177,-1.8263203205918999,0.3049563531607095,1
532,2024-09-25 22:25:17.372807168,TASK_BEGIN,018,0.30028336539712025,-0.38245301891358785,2.8650454560655874,-0.7722797002408884,0.5516069974905996,-0.1859026822150041,-1.8881430099948162,0.28271807944931604,1
533,2024-09-25 22:25:17.444625920,TASK_BEGIN,018,0.29633565141498264,-0.3931596809607491,2.7338862612483674,-0.762385822587052,0.5450936910952916,-0.18324219064104294,-1.9245085993259572,0.25223854115491007,1
534,2024-09-25 22:25:18.368568832,TASK_BEGIN,018,0.2862367671984263,-0.40492245447286307,2.5773153361333168,-0.7509904616455017,0.5346167408582014,-0.18087486907998254,-1.9331704675376418,0.21406725700688023,1
535,2024-09-25 22:25:18.437060096,TASK_BEGIN,018,0.2710113737313699,-0.41785443584793924,2.4012303635556522,-0.7394014713137959,0.52141794988519,-0.17906038025732,-1.9118631798967085,0.1688017290185026,1
536,2024-09-25 22:25:18.503992064,TASK_BEGIN,018,0.25181938706941553,-0.4319601324708492,2.2132164751546695,-0.7290419835520812,0.5068928464835666,-0.1780393944599671,-1.8583772657658817,0.11721904823045862,1
537,2024-09-25 22:25:18.565099008,TASK_BEGIN,018,0.22987757455827573,-0.44711884205986635,2.022271068406817,-0.7213110978714685,0.49253515617599697,-0.17802605211089695,-1.7707465310093258,0.06037780711357149,1
538,2024-09-25 22:25:18.640075008,TASK_BEGIN,018,0.2063923875276673,-0.46308298763701017,1.8382863592856211,-0.717464901697414,0.47989639072623924,-0.17920596951361967,-1.6475052418392053,-0.00036495355030608477,1
539,2024-09-25 22:25:18.708374016,TASK_BEGIN,018,0.18249305297955964,-0.4794929635727933,1.6714427692642477,-0.7185494124843429,0.47051849074395524,-0.18173199963583436,-1.4880680593611673,-0.06341914352984489,1
540,2024-09-25 22:25:18.775291904,TASK_BEGIN,018,0.1591676980821573,-0.4959037542543809,1.5316348304352059,-0.7253755402692486,0.46582518980749804,-0.18570950392931332,-1.293191008089938,-0.12709088538576074,1
541,2024-09-25 22:25:19.719286016,TASK_BEGIN,018,0.13720370054428438,-0.5118146417717818,1.427898365714785,-0.7385001725285115,0.46699695623433873,-0.19117350119403223,-1.0653127123250699,-0.18975186545990494,1
542,2024-09-25 22:25:19.783120128,TASK_BEGIN,018,0.11713467626022725,-0.5266975083857066,1.3677392375087958,-0.7581870450683456,0.47485184576575296,-0.1980695102780115,-0.8086161213831429,-0.24999965341140992,1
543,2024-09-25 22:25:19.854964992,TASK_BEGIN,018,0.09921234808823445,-0.5400277852854257,1.3564071730235743,-0.784358821870034,0.48975079663814003,-0.20625141795804733,-0.5288904878708324,-0.30674754993113124,1
544,2024-09-25 22:25:19.922774272,TASK_BEGIN,018,0.08342293489646681,-0.551323693528241,1.3962666056314388,-0.8165663378217047,0.511576613050068,-0.2155054857291845,-0.23336311343046032,-0.35921678031650456,1
545,2024-09-25 22:25:19.976325888,TASK_BEGIN,018,0.06954325631744966,-0.5601905000513812,1.486343336850909,-0.8539737166551167,0.5398361728998764,-0.22560045315525165,0.0694639794143948,-0.40685523390809364,1
546,2024-09-25 22:25:20.058496000,TASK_BEGIN,018,0.05721290556467133,-0.5663571710870724,1.6220883629724376,-0.8953392375640388,0.5738511420011583,-0.23634835744122332,0.37004535935105054,-0.4492407978451257,1
547,2024-09-25 22:25:20.116643072,TASK_BEGIN,018,0.04600400267534294,-0.5696943565488825,1.795490866314723,-0.9389939964389954,0.6129230028412765,-0.2476494926736812,0.6581804281704758,-0.48602895040493466,1
548,2024-09-25 22:25:21.034324992,TASK_BEGIN,018,0.03548696998625434,-0.5702139986139757,1.9956844999324126,-0.9828580019359285,0.6563892654624626,-0.2595028037936853,0.9235665394941143,-0.5169519219753246,1
549,2024-09-25 22:25:21.101882112,TASK_BEGIN,018,0.025304155742699015,-0.56806052668642,2.2099786480028762,-1.0245355984675757,0.7035794806123276,-0.27198392733951343,1.1563707305226516,-0.5418180644549694,1
550,2024-09-25 22:25:21.180012032,TASK_BEGIN,018,0.015258820148487996,-0.5635026964877101,2.425019537304118,-1.0614895083059206,0.7537255121369072,-0.28520635524854315,1.347666116820054,-0.5604802481086419,1
551,2024-09-25 22:25:21.234977024,TASK_BEGIN,018,0.005401072810839115,-0.5569254963981447,2.6278906759871035,-1.0912652288972844,0.8058815765449214,-0.2992811511970766,1.48972927306977,-0.5727987236756755,1
552,2024-09-25 22:25:21.312591104,TASK_BEGIN,018,-0.003924942310494617,-0.5488148328696142,2.807247097830377,-1.111750972423147,0.858914375338258,-0.3142877924083406,1.5763440845558327,-0.5786416300122168,1
553,2024-09-25 22:25:21.375267072,TASK_BEGIN,018,-0.012090809159945037,-0.5397307753428761,2.9545668909601512,-1.1214603187698504,0.9116017885266801,-0.3302664120906568,1.6033780588921507,-0.57796600241621,1
554,2024-09-25 22:25:21.437752832,TASK_BEGIN,018,-0.018247240863784115,-0.5302692924791874,3.06531209169284,-1.119788633543931,0.9628018515001042,-0.34723247759894904,1.5697557030347564,-0.5709888977027155,1
555,2024-09-25 22:25:22.380792064,TASK_BEGIN,018,-0.021439908607628407,-0.5210120515747917,3.1395857354789216,-1.1071579689829942,1.0116056512176266,-0.3652011894568259,1.4784254864929134,-0.5583658877518085,1
556,2024-09-25 22:25:22.461699072,TASK_BEGIN,018,-0.020769193888491598,-0.5124675517123702,3.1819020087697525,-1.0849758351356256,1.0574296607275504,-0.3842051108198936,1.3366052928571246,-0.5412481100358428,1
557,2024-09-25 22:25:22.519106048,TASK_BEGIN,018,-0.015553703887992858,-0.5050160682845372,3.199985214608395,-1.0554065696701749,1.1000623783901806,-0.4042971601554059,1.1550032089579736,-0.5211722377499621,1
558,2024-09-25 22:25:22.597936128,TASK_BEGIN,018,-0.005445997902155706,-0.498873657745337,3.202987048399067,-1.0210446085463298,1.139676743496542,-0.4255387604598087,0.946391232937449,-0.4998578706473879,1
559,2024-09-25 22:25:22.657826816,TASK_BEGIN,018,0.009525306079827597,-0.4940829145214513,3.1997687514179445,-0.9846037981828983,1.1767780259997467,-0.44797397167630015,0.7241701606585123,-0.47902218646859696,1
560,2024-09-25 22:25:22.719395072,TASK_BEGIN,018,0.028988851775451584,-0.4905301130061966,3.197717005481268,-0.948683576220775,1.2120564455410392,-0.47159308863224664,0.5013496412540701,-0.46026747570784576,1
561,2024-09-25 22:25:22.801491968,TASK_BEGIN,018,0.052330306514762615,-0.4879843618890097,3.202208272000968,-0.9156137454562644,1.2461733512337498,-0.4962965746209183,0.2900124290689996,-0.44502755692768003,1
562,2024-09-25 22:25:23.743209984,TASK_BEGIN,018,0.0788236848522236,-0.48614823600002216,3.2165839969724126,-0.8873535433687808,1.279564214234827,-0.5218745158835002,0.10108692463509332,-0.43453457255287653,1
563,2024-09-25 22:25:23.802191872,TASK_BEGIN,018,0.1077358100113652,-0.48470380265156054,3.242387928045125,-0.8654173736656735,1.3123430251480424,-0.5480131056686787,-0.0557782763081092,-0.42978853341527123,1
564,2024-09-25 22:25:23.864855040,TASK_BEGIN,018,0.13837214936078737,-0.48334436291290883,3.2796294028536326,-0.8508188506109094,1.3443463266960225,-0.5743294642948136,-0.17233975966782986,-0.4315336916568691,1
565,2024-09-25 22:25:23.942308096,TASK_BEGIN,018,0.1700788020031587,-0.48179476530889415,3.326954312829969,-0.8440498478442396,1.3752769069350648,-0.600422070731218,-0.24190608826833013,-0.44024659400407684,1
566,2024-09-25 22:25:24.004626944,TASK_BEGIN,018,0.20221794058163045,-0.479826176735835,3.3817465218362797,-0.8451093009522725,1.4048390276531226,-0.6259138179512806,-0.25947177569685037,-0.45614429731170586,1
567,2024-09-25 22:25:24.067115008,TASK_BEGIN,018,0.2341195953553324,-0.47726640881103766,3.440281967091407,-0.8535798056770407,1.4327650939609093,-0.6504687145086666,-0.22179426865521953,-0.47922416611085084,1
568,2024-09-25 22:25:24.150393088,TASK_BEGIN,018,0.26503360461351666,-0.4740049823852139,3.49809090458392,-0.8687412353808959,1.4587286913976336,-0.6737817908168672,-0.12746085876312524,-0.5093263154121029,1
569,2024-09-25 22:25:25.093586944,TASK_BEGIN,018,0.29412467492452504,-0.46999351276941564,3.5505552138900933,-0.8896904799116837,1.482243141561639,-0.6955614172616222,0.022996484730896122,-0.5461981908062401,1
570,2024-09-25 22:25:25.161488896,TASK_BEGIN,018,0.32052045175949034,-0.46524126497873264,3.593515887612482,-0.9154144086476108,1.5026574398749588,-0.7155264313686939,0.2270019071760251,-0.5895475751126901,1
571,2024-09-25 22:25:25.229222144,TASK_BEGIN,018,0.3433740640309794,-0.4598024246851345,3.623612023611883,-0.9447899291828052,1.5192685350548314,-0.7334234443843168,0.47988908977027983,-0.639052178468447,1
