,time,MARKER,pid,L_O_DSI,L_D_DSI,L_O_DSphi,L_D_DSphi,R_O_DSI,R_D_DSI,R_O_DSphi,R_D_DSphi,trial_id
0,2024-09-25 22:37:52.505947021,TASK_BEGIN,018,0.877407611269605,-0.34491579483647233,0.5157997695768163,-1.2298563860182201,0.9985376128545127,0.025660236352651057,-7.486942061633274,1.5277715590601766,3
1,2024-09-25 22:37:52.567041992,0,018,0.8822073743175658,-0.36159087669590156,0.5760521974917561,-1.2395378676213222,1.0527373707530125,0.005901521696659372,-7.391966990058481,1.5087435383723082,3
2,2024-09-25 22:37:52.629652100,0,018,0.8863383436197335,-0.3759014857232892,0.644999567316996,-1.254318446137936,1.1015448477996377,-0.01655046223182457,-7.313609963913516,1.4961853910285567,3
3,2024-09-25 22:37:52.706511962,0,018,0.889802714020312,-0.3879715116311933,0.7182736987359318,-1.2730783743138385,1.143121919352067,-0.04120247762179737,-7.2409536276259985,1.48813094813458,3
4,2024-09-25 22:37:52.777270996,0,018,0.8925642824277429,-0.39797947675919076,0.7918046246144397,-1.2945966834960032,1.1759752769930558,-0.06742684508992798,-7.166309413201711,1.4831541962918968,3
5,2024-09-25 22:37:53.695295898,0,018,0.894616567798384,-0.40615800629005333,0.8619760270123521,-1.3176346001791412,1.1990223164715983,-0.09449551702494771,-7.085338081305089,1.4803324333081056,3
6,2024-09-25 22:37:53.763170898,0,018,0.8960570334097334,-0.4127901493618605,0.9256054535090047,-1.3409807997433076,1.2116173586726595,-0.12162094905856301,-6.996576249363809,1.4791141014302038,3
7,2024-09-25 22:37:53.830693848,0,018,0.8971406365655337,-0.41819744854337215,0.979928709624261,-1.3634890645085451,1.2135190151202149,-0.14799465757513422,-6.901002383573515,1.4791996286955742,3
8,2024-09-25 22:37:53.890235840,0,018,0.8982871216904394,-0.42271854553592264,1.0226444454215324,-1.3841252978322984,1.2048244593737696,-0.1728234713671403,-6.802002830751037,1.480494871983283,3
9,2024-09-25 22:37:53.952316895,0,018,0.9000330184244774,-0.4266803433202865,1.0520025309929013,-1.402009016358942,1.1859198181765382,-0.19536856018370974,-6.705449937273513,1.4831011296064731,3
10,2024-09-25 22:37:54.029941162,0,018,0.9029487119650625,-0.4303668743291563,1.0669082803027263,-1.416436332256293,1.1574687404663133,-0.21499010551788367,-6.619375534220711,1.4872807657833391,3
11,2024-09-25 22:37:54.092427979,0,018,0.9075546299905265,-0.4339941111244967,1.0669737808256157,-1.4268920166699703,1.1204141939677024,-0.23119296302490364,-6.553074145657499,1.4933838104866228,3
12,2024-09-25 22:37:55.004687012,0,018,0.9142547923470395,-0.43769727112921564,1.0524576670529373,-1.4330565228783663,1.0759600186330105,-0.24366383622057894,-6.515836541915842,1.5017518050979988,3
13,2024-09-25 22:37:55.081413086,0,018,0.9232862070312966,-0.44153147708440355,1.0241533565074235,-1.4348094958141324,1.0255240709904472,-0.2522926064672236,-6.515580852076755,1.5126151426482028,3
14,2024-09-25 22:37:55.143424072,0,018,0.9346831746124907,-0.44548306623873357,0.9833490682559699,-1.4322401252517583,0.9706626535037225,-0.25717426919236863,-6.557622890647918,1.5260025000669635,3
15,2024-09-25 22:37:55.222824951,0,018,0.9482670659716462,-0.44948754506611704,0.9318779277671014,-1.4256642683450573,0.9129607564780906,-0.2585906708992712,-6.643823574520868,1.5416841507519687,3
16,2024-09-25 22:37:55.290635010,0,018,0.9636737650955072,-0.4534500324091315,0.872160339130681,-1.4156221669485909,0.8539021300730864,-0.25697565881551976,-6.772248361536537,1.5591597406128082,3
17,2024-09-25 22:37:55.344261963,0,018,0.9804174192623392,-0.45726714431818954,0.8071483248347139,-1.4028320506693488,0.794754522982541,-0.25287067960517934,-6.9373019010195165,1.5776816756840844,3
18,2024-09-25 22:37:55.421910889,0,018,0.9979674855513712,-0.46085113900496716,0.7401239245218917,-1.3880990014853674,0.7364904872723751,-0.24687639924492188,-7.130207950976341,1.5962983633811827,3
19,2024-09-25 22:37:56.366316162,0,018,1.015804565737417,-0.46415277713000186,0.674338542340114,-1.3721956467543304,0.6797400225037378,-0.23960349276216442,-7.3396896946161245,1.6139130609696488,3
20,2024-09-25 22:37:56.428337891,0,018,1.03343775352017,-0.46717590043368834,0.6125561905838612,-1.3557427461560596,0.6247783160712863,-0.23162713162113355,-7.552712702985511,1.629362863324011,3
21,2024-09-25 22:37:56.505161133,0,018,1.0503967338405817,-0.4699799368656425,0.5566406308813383,-1.3391203540628365,0.5715761527685815,-0.22345250977482442,-7.7552078805382525,1.6415115598650438,3
22,2024-09-25 22:37:56.572969971,0,018,1.0662207713971579,-0.4726704383772495,0.5073526089663309,-1.3224260848001823,0.5199362285031796,-0.21549691444719882,-7.932817321939785,1.6493403586309456,3
23,2024-09-25 22:37:56.629308838,0,018,1.0804550117317995,-0.475379206371946,0.46445392476955,-1.3054824030648646,0.4696883502311043,-0.20808636080946935,-8.07178732188136,1.6520334612705487,3
24,2024-09-25 22:37:56.706530029,0,018,1.092656392803667,-0.4782384584972974,0.42703632194254215,-1.2878854157898982,0.420867997891171,-0.20145848796287416,-8.160018589317286,1.649060242388766,3
25,2024-09-25 22:37:56.776506104,0,018,1.1024061527956286,-0.481356815062098,0.3938730570839677,-1.2690727268402024,0.3738104529592862,-0.19576396335602034,-8.188088810777742,1.640230507801799,3
26,2024-09-25 22:37:57.714621094,0,018,1.1093176571032828,-0.4848034400569199,0.3636661246952385,-1.2483811862556393,0.3291370518479805,-0.19106406134936002,-8.150028869209958,1.6256916496889573,3
27,2024-09-25 22:37:57.787321045,0,018,1.1130325323106205,-0.4886012062589846,0.33520053711258846,-1.225085238814727,0.2876481552247909,-0.1873280804355705,-8.043729264457914,1.6058723197722633,3
28,2024-09-25 22:37:57.855093018,0,018,1.1132121437692883,-0.4927254782104706,0.3074670738111944,-1.1984380361367142,0.25016650645769,-0.18443743920958613,-7.870913319196136,1.5814023725177113,3
29,2024-09-25 22:37:57.915180908,0,018,1.1095290946067267,-0.497103556582304,0.2797904634372047,-1.1677475235747308,0.2173876466523068,-0.1822003214040151,-7.636677777941386,1.5530229338658073,3
30,2024-09-25 22:37:57.977666016,0,018,1.1016549235515563,-0.5016112366225716,0.2519502168902684,-1.1324942091519794,0.1897806048858767,-0.18037556690073261,-7.348776702098303,1.5214900520083323,3
31,2024-09-25 22:37:58.056564941,0,018,1.0892521096947165,-0.5060683318147928,0.22425201878372603,-1.0924621321684032,0.16756377773899891,-0.17870519638639934,-7.016946364307528,1.487490908731498,3
32,2024-09-25 22:37:58.117665039,0,018,1.0719906803530146,-0.5102393475506369,0.19752326879467164,-1.0478416374848125,0.15076303703086535,-0.1769570301666821,-6.6524043065283065,1.4515911958685466,3
33,2024-09-25 22:37:59.069595947,0,018,1.0496018995723762,-0.5138437070817393,0.1730169372778999,-0.9992690344016334,0.13932623279797102,-0.17497247753885004,-6.267403203132707,1.414210850201605,3
34,2024-09-25 22:37:59.130343994,0,018,1.0219663483909855,-0.5165754775841902,0.15221103651233633,-0.9477890808579942,0.13324320480242186,-0.17270577502447818,-5.874695200432446,1.3756194466929506,3
35,2024-09-25 22:37:59.191884033,0,018,0.9892117672426581,-0.5181279369304507,0.1365253464699162,-0.8947578604946136,0.1326319576545012,-0.17024290761254404,-5.4868552164564885,1.335944275282439,3
36,2024-09-25 22:37:59.273124023,0,018,0.9517774923672587,-0.5182142691812022,0.12698681218190788,-0.8417119267880252,0.13777772104510203,-0.16779868544550985,-5.115458647012491,1.2951778785442891,3
37,2024-09-25 22:37:59.330233154,0,018,0.910417643616793,-0.5165779452577528,0.12385565132541997,-0.7902113960628179,0.14912323115340026,-0.1656966733864193,-4.770190546456857,1.2531865596264673,3
38,2024-09-25 22:37:59.407881104,0,018,0.8661525340117454,-0.5129955042378997,0.1262618306419411,-0.7416631232213912,0.16721235803510162,-0.16433629445302536,-4.458073242328232,1.2097511238259018,3
39,2024-09-25 22:37:59.476502930,0,018,0.8201948172262857,-0.5072802855455444,0.1319533250539014,-0.697145746666217,0.19259760877457033,-0.16415026591419285,-4.183032070871481,1.1646644878884278,3
40,2024-09-25 22:38:00.419708008,0,018,0.7738630639227745,-0.4992917438226758,0.13724444482502696,-0.6572655204501293,0.22573269926782955,-0.1655566872137933,-3.945934161673143,1.1178603401516383,3
41,2024-09-25 22:38:00.474964111,0,018,0.7284775426305566,-0.4889473862259963,0.13721119416192235,-0.6220720878770521,0.266872388946278,-0.1689118299270349,-3.7450191049533728,1.0694946550227473,3
42,2024-09-25 22:38:00.555411133,0,018,0.6852394359818986,-0.4762316336951762,0.12613072995387883,-0.5910542229813844,0.315987585496636,-0.17446971838520534,-3.5764264101967553,1.0199053828746998,3
43,2024-09-25 22:38:00.623217041,0,018,0.6451177254855028,-0.46119914536256956,0.09810781921286808,-0.5632162430478828,0.3726947401401465,-0.18235389790360815,-3.434589976758674,0.9694640210401294,3
44,2024-09-25 22:38:00.690431885,0,018,0.6087742880761278,-0.44397525981485936,0.0478017547926312,-0.5372193328157616,0.4362100268434401,-0.19254623884473285,-3.3126073738487762,0.9184321815029276,3
45,2024-09-25 22:38:00.758898926,0,018,0.576540715393714,-0.4247583398646396,-0.028850702001500913,-0.511557808545926,0.5053449502912167,-0.20489494948948056,-3.2028757287444334,0.866934126978448,3
46,2024-09-25 22:38:00.826726074,0,018,0.5484433569866296,-0.40382531775691294,-0.13401548745685296,-0.48473705654636046,0.5785417829983797,-0.21913902063291904,-3.098063975316732,0.8150569490876212,3
47,2024-09-25 22:38:01.759998047,0,018,0.5242639519874092,-0.3815355470262955,-0.2675132435318092,-0.45543884307911653,0.6539324963212727,-0.23494308483491258,-2.992159842700673,0.7629997502753413,3
48,2024-09-25 22:38:01.837692871,0,018,0.5036137494918339,-0.35832613868011054,-0.4266191087219985,-0.4226680000396298,0.7294141509044627,-0.25193685752551137,-2.881270677971993,0.7111845905210067,3
49,2024-09-25 22:38:01.905560059,0,018,0.4859988638729085,-0.3346968916882727,-0.6061750688457535,-0.385860461770249,0.8027456319724542,-0.26975414674639303,-2.7640660993659867,0.6602978440998925,3
50,2024-09-25 22:38:01.961544922,0,018,0.4708719523480718,-0.3111882147366432,-0.798961970283205,-0.3449441615409228,0.8716724905461736,-0.2880667885223281,-2.641921697743934,0.611278581593513,3
51,2024-09-25 22:38:02.041183838,0,018,0.4576780591413326,-0.28835515309800613,-0.9961999028342943,-0.30037350494940196,0.934091339975948,-0.3066114945753286,-2.5187568723502727,0.5652658421758217,3
52,2024-09-25 22:38:02.109026855,0,018,0.4458958578807962,-0.26673830871439747,-1.1881284646534163,-0.25314463108142776,0.9882581532210537,-0.325210094189679,-2.4004377862641757,0.5234908932893623,3
53,2024-09-25 22:38:02.162875977,0,018,0.4350693397766077,-0.24683341053421784,-1.364702608038118,-0.20476248248377477,1.032998038215652,-0.34377934553897466,-2.293707415048251,0.4871084325238903,3
54,2024-09-25 22:38:03.117621826,0,018,0.42482991655213187,-0.22906441103934505,-1.5164013541503796,-0.1571294635073775,1.067827507301254,-0.3623210211269114,-2.204874193119595,0.45700569286732834,3
55,2024-09-25 22:38:03.179218994,0,018,0.4149074450613009,-0.21376538786620722,-1.6350517126108817,-0.11235643362653405,1.0929261909322316,-0.3808886127846677,-2.138677895976882,0.43365745423147706,3
56,2024-09-25 22:38:03.255558105,0,018,0.4051197335550175,-0.201172388741304,-1.7145009975406658,-0.07253424410549002,1.1089795344205104,-0.3995394590875357,-2.097666658596177,0.4170672036988817,3
57,2024-09-25 22:38:03.318748047,0,018,0.3953334084458334,-0.1914212943538192,-1.7510045460734116,-0.039523841365483176,1.1169722936431878,-0.4182865391491123,-2.0821512772336646,0.406783880920954,3
58,2024-09-25 22:38:03.391125000,0,018,0.38540769059806457,-0.18454704277347472,-1.7433165463624956,-0.01480808683846636,1.1180082610586672,-0.43706171785952774,-2.0905740655327096,0.401964690373307,3
59,2024-09-25 22:38:03.458931885,0,018,0.3751531867544566,-0.18048508221915638,-1.6925377021452985,0.000580555326076417,1.113199542291352,-0.4556994300008268,-2.1200195191043782,0.401464599757972,3
60,2024-09-25 22:38:03.519023926,0,018,0.36433791604862825,-0.17908115338246888,-1.6017596543589718,0.006062848613448903,1.103634291244594,-0.4739453592320831,-2.166630386694583,0.4039429784440963,3
61,2024-09-25 22:38:04.440697998,0,018,0.352738404950628,-0.1801111168614958,-1.4755487749907288,0.001468958008252117,1.0903930071699135,-0.4914846459996214,-2.225879732840315,0.4079815155081314,3
62,2024-09-25 22:38:04.512842041,0,018,0.3401974212597922,-0.18330340000972992,-1.319348648249891,-0.013023036900371612,1.0745605583919133,-0.507976651183913,-2.292810248076678,0.41221010081174203,3
63,2024-09-25 22:38:04.580372070,0,018,0.32665043582843817,-0.18835587845612647,-1.1389249053876098,-0.03694831267687376,1.0571991750318717,-0.5230869242183847,-2.3623466187517477,0.4154378163085221,3
64,2024-09-25 22:38:04.642455078,0,018,0.31210637977571465,-0.19494571333535668,-0.9400156607280327,-0.06960523754257801,1.0392863483613943,-0.5365152603473328,-2.429718115498171,0.41678435157709054,3
65,2024-09-25 22:38:04.704014160,0,018,0.2965949524756108,-0.20273504628510708,-0.7282897698365137,-0.11008238909656698,1.0216369589369108,-0.5480203699193396,-2.490989568435883,0.41579946661180905,3
66,2024-09-25 22:38:04.784163086,0,018,0.2801194573095395,-0.21137649342895365,-0.5095102252287848,-0.1572623332364651,1.0048204782662362,-0.5574383233833585,-2.5436124988851114,0.4125390501096263,3
67,2024-09-25 22:38:04.843250977,0,018,0.2626537343010061,-0.22052238212742128,-0.2896796300058207,-0.20981541814018978,0.989090932434703,-0.564692812093842,-2.586788791834566,0.40756326552947925,3
68,2024-09-25 22:38:05.790359131,0,018,0.2441814373379616,-0.22983847414969,-0.07506672334172051,-0.2661976424058436,0.9743634318190249,-0.5697978434382516,-2.621508189651987,0.40186345725837935,3
69,2024-09-25 22:38:05.862879883,0,018,0.22474369836546898,-0.23901911221053818,0.12786133911242992,-0.3246665741837614,0.9602562583798275,-0.5728509364917148,-2.6503701747679194,0.39676504949618424,3
70,2024-09-25 22:38:05.929111084,0,018,0.2044722098770178,-0.24780169155472787,0.31263306807874486,-0.3833296871646511,0.9461834409222833,-0.5740139520426865,-2.677339168761596,0.39383252513184464,3
71,2024-09-25 22:38:05.998493896,0,018,0.18360258940081847,-0.25597946740923744,0.47316795219591595,-0.44022827161101685,0.9314629359527717,-0.573483381195697,-2.7073316625784654,0.3947460432197728,3
72,2024-09-25 22:38:06.053021973,0,018,0.16246189461356858,-0.26340891363805885,0.6043233604137409,-0.49343990038439933,0.915404508863713,-0.5714540798929056,-2.7455003278814263,0.40111852462103414,3
73,2024-09-25 22:38:06.131606201,0,018,0.1414362993992537,-0.27000856897354164,0.7024174689592807,-0.5411701832063729,0.8973570252831766,-0.5680803247546443,-2.796429750054426,0.4142924905002937,3
74,2024-09-25 22:38:06.192663818,0,018,0.12094841175736197,-0.2757517965049015,0.7655671996537148,-0.5818128244435697,0.8767188982947473,-0.5634412897985598,-2.863607206406185,0.4351857368540245,3
75,2024-09-25 22:38:07.119745117,0,018,0.1014606827292655,-0.28065632386694433,0.793741092967921,-0.6139746002152257,0.8529315314234455,-0.5575191098611266,-2.9492015669314227,0.4641944095509952,3
76,2024-09-25 22:38:07.181249023,0,018,0.083481270182774,-0.28476904370795425,0.7884723831323114,-0.6364741189217855,0.8254758201740415,-0.5501923789591737,-3.053909484612638,0.5011211365401638,3
77,2024-09-25 22:38:07.255750977,0,018,0.06753750010477186,-0.28814481055023355,0.7522889709289993,-0.6483358187356822,0.7938757876074864,-0.5412432481534581,-3.1767603266867583,0.5451362621798055,3
78,2024-09-25 22:38:07.319529053,0,018,0.05411050772626105,-0.2908221918440462,0.6880697138831865,-0.6488104107990408,0.7576931038499058,-0.5303757639047113,-3.314983208975219,0.5948141343397234,3
79,2024-09-25 22:38:07.391375977,0,018,0.04356003224243596,-0.29280039215243814,0.5985802236584512,-0.6374431627072707,0.7164958173129833,-0.5172421804938053,-3.464058436977085,0.6482512303333747,3
80,2024-09-25 22:38:07.459184814,0,018,0.03607769749457223,-0.294020784444878,0.48634171411828553,-0.6141832414176855,0.6698141645497513,-0.5014723713588232,-3.618024554262278,0.7032258328125365,3
81,2024-09-25 22:38:07.519886963,0,018,0.031680402154027586,-0.29435740445074626,0.3538359771871455,-0.5794997568705433,0.617124019350575,-0.4827019482419037,-3.7700639934762297,0.7573612114331266,3
82,2024-09-25 22:38:08.470156982,0,018,0.03022410764774557,-0.29362042252155224,0.20391486275823886,-0.5344609341929639,0.5578839102192833,-0.46059610688050096,-3.9132649561079487,0.8082854418777323,3
83,2024-09-25 22:38:08.525447998,0,018,0.031419900769321156,-0.29157200558979834,0.040196855783200085,-0.48074200831951674,0.4916181652829135,-0.4348687684490781,-4.041360832067287,0.853795530035937,3
84,2024-09-25 22:38:08.602195068,0,018,0.034853698475419324,-0.28794993195780993,-0.13274330206911072,-0.4205476097809816,0.41803329996826133,-0.4053000338104452,-4.149328765753844,0.8920219972432797,3
85,2024-09-25 22:38:08.673636963,0,018,0.0400110561918383,-0.2824940781770375,-0.30943694426279006,-0.3564677311165315,0.33715459573216094,-0.37175388539776877,-4.233826590580819,0.9215711000266197,3
86,2024-09-25 22:38:08.741490967,0,018,0.0462971530366175,-0.274971127805916,-0.483738216774219,-0.29131002765572656,0.2494458996550907,-0.33419373348360226,-4.293413763457359,0.9416182169063749,3
87,2024-09-25 22:38:08.809260010,0,018,0.053048184265772715,-0.265194166101672,-0.649115268047439,-0.227928087066117,0.15586905957180425,-0.29269393580598396,-4.328480340771779,0.9519383665174271,3
88,2024-09-25 22:38:08.877048096,0,018,0.05954308018731835,-0.2530381565873583,-0.7990384302856242,-0.16902768060328713,0.057871436004197696,-0.24744846931275005,-4.340868272546202,0.9528639346064759,3
89,2024-09-25 22:38:09.811355957,0,018,0.06501875013144602,-0.23845346946502455,-0.927471035374214,-0.11694545231233923,-0.04268696454414913,-0.19877565745364403,-4.3332233402832925,0.9451622305970868,3
90,2024-09-25 22:38:09.873842041,0,018,0.06868392837816231,-0.2214756409123325,-1.029355552133354,-0.073439297545419,-0.14366036049353778,-0.14711333753056044,-4.308179879734671,0.9298576257782035,3
91,2024-09-25 22:38:09.955935059,0,018,0.06973864948771415,-0.20222879689756568,-1.1009804875323197,-0.03954369447216518,-0.2427882022666153,-0.09300055242291878,-4.267559279987549,0.9080586066199521,3
92,2024-09-25 22:38:10.012115967,0,018,0.06741467930751298,-0.1809235468111688,-1.1402273570916972,-0.015515427635078086,-0.3378762888504805,-0.03705039617336836,-4.211796321624894,0.8808462095765156,3
93,2024-09-25 22:38:10.089116943,0,018,0.06103021786093077,-0.15784950129126127,-1.1467579704476798,-0.0008607330223485083,-0.4269446743673418,0.020075566465562574,-4.139785862237979,0.8492482811462925,3
94,2024-09-25 22:38:10.150615967,0,018,0.05002812356909641,-0.1333592513225338,-1.122137657498353,0.005573981820444299,-0.5083220767185105,0.0776852026358483,-4.049189149111824,0.8142796707120276,3
95,2024-09-25 22:38:10.227207031,0,018,0.03397880717709758,-0.10784302572047025,-1.0697989177934784,0.005455325652161445,-0.5806908743370562,0.1350668469877917,-3.9369745151634232,0.7769918445354077,3
96,2024-09-25 22:38:11.170326904,0,018,0.012558222449476523,-0.08169915855262555,-0.9947520109649434,0.0007726509756777782,-0.6430940536232312,0.19149583607728174,-3.799908167511033,0.7384863899671178,3
97,2024-09-25 22:38:11.238190918,0,018,-0.014476752920934106,-0.055306379630592734,-0.9030728615630483,-0.00635908090131996,-0.6949256635243679,0.24624064925866032,-3.6349618023252317,0.6998906708779241,3
98,2024-09-25 22:38:11.304764893,0,018,-0.04729163318099201,-0.029001156652146715,-0.8013365790890234,-0.013861994492266423,-0.7359337162061507,0.29857588648496747,-3.4398138192978895,0.6623223075795024,3
99,2024-09-25 22:38:11.366791992,0,018,-0.08593322607710505,-0.0030632574318477704,-0.6961542411761834,-0.019813022082204458,-0.7662375270912762,0.3478039023955855,-3.213517503918822,0.6268633380626275,3
100,2024-09-25 22:38:11.441639893,0,018,-0.13024537281042606,0.022287027435081125,-0.5938153598711815,-0.02253777354656913,-0.7863221472907482,0.39327562433450125,-2.9571405713428414,0.5945275386375908,3
101,2024-09-25 22:38:11.506052979,0,018,-0.17978166079903038,0.04688067612955771,-0.4999217214040017,-0.020701487168277948,-0.7969813271109022,0.43440098814339667,-2.674107812677408,0.5661889562039639,3
102,2024-09-25 22:38:11.568998047,0,018,-0.23375802077014687,0.0705855570706487,-0.41893848589228555,-0.013401044492488814,-0.7992312153969451,0.4706522779468589,-2.3701945803695064,0.5424902212892677,3
103,2024-09-25 22:38:12.512388916,0,018,-0.2910503026488057,0.09328952575952407,-0.35372785182689087,-0.0002509951724802909,-0.7942385690035031,0.5015714733462955,-2.053298793074144,0.5237912996506987,3
104,2024-09-25 22:38:12.573981934,0,018,-0.350222845891756,0.11488277394461845,-0.30522718539703175,0.018558458072368667,-0.7832834823467232,0.5267875613587861,-1.7330601561628791,0.5101837111532187,3
105,2024-09-25 22:38:12.653264160,0,018,-0.4095898113545328,0.13524341850836394,-0.27239729792676604,0.04226803191539041,-0.7677496979975098,0.5460407808373687,-1.4202720711387806,0.5015382545063903,3
106,2024-09-25 22:38:12.713134033,0,018,-0.46731214276823907,0.15423067372203803,-0.25243745148539687,0.06963651711031674,-0.74911141545746,0.5592031587756924,-1.1259952842627454,0.49753717949014903,3
107,2024-09-25 22:38:12.789485840,0,018,-0.521510103564349,0.17168471099642274,-0.24117031883147222,0.09908368108812432,-0.7288678991756247,0.5662806746594818,-0.8603736238450383,0.49766144158889974,3
108,2024-09-25 22:38:12.857328857,0,018,-0.5703651126931331,0.18742919698552857,-0.23353721502366756,0.12886029292221535,-0.708410383726354,0.5673909366452442,-0.6313931045457245,0.5011504388847585,3
109,2024-09-25 22:38:12.925137939,0,018,-0.6121991917769756,0.20127518239771292,-0.22421844602372584,0.1572365354738893,-0.6888780032741946,0.5627288786489223,-0.4439881447190067,0.506991916841,3
110,2024-09-25 22:38:13.858728027,0,018,-0.6455318777986933,0.21302741327951985,-0.2083305215942937,0.18268811123201076,-0.671075866909168,0.5525401355566287,-0.29972615493126076,0.5139777099313978,3
111,2024-09-25 22:38:13.935483887,0,018,-0.6691259789721863,0.2224941454801092,-0.1820459453893884,0.20404099375769624,-0.6554584321332179,0.5371087449432774,-0.19698025119438223,0.5207928051879727,3
112,2024-09-25 22:38:13.997970947,0,018,-0.6820455383417694,0.22950183998669846,-0.14303371916103935,0.22055494858242192,-0.642124421099866,0.5167521550417504,-0.13138073331453703,0.5260797722304138,3
113,2024-09-25 22:38:14.072958984,0,018,-0.6837395050303211,0.23391541532339874,-0.09071814705388095,0.2319479522288332,-0.6307977390946754,0.4918177474828,-0.09645030469308022,0.5284702512161832,3
114,2024-09-25 22:38:14.136739990,0,018,-0.6741333914389986,0.23566133296103017,-0.026333116419440344,0.23835964399749257,-0.6208251134819521,0.4626822422541482,-0.08441518488986288,0.5266241538976032,3
115,2024-09-25 22:38:14.199225830,0,018,-0.6536862096028818,0.23474747859092573,0.047279659738764294,0.24025218117780486,-0.611228728635024,0.4297560534157504,-0.08709547373823175,0.5193056608661254,3
116,2024-09-25 22:38:14.261483887,0,018,-0.623371655750708,0.23127303409158978,0.1261185253044181,0.2382654471287826,-0.6008074597357362,0.3934898527113006,-0.0966898904782232,0.5054844588965921,3
117,2024-09-25 22:38:15.194020996,0,018,-0.5845746510304742,0.22542416434659632,0.2056589725747742,0.23305795109595817,-0.5882407740480747,0.3543781159085871,-0.10630992591197566,0.48442064948089164,3
118,2024-09-25 22:38:15.255152832,0,018,-0.5389344867290928,0.21745758419636638,0.2816010492674718,0.22516999854394137,-0.5721748436505796,0.31295835570150177,-0.1101943613321299,0.4556924997931933,3
119,2024-09-25 22:38:15.329689941,0,018,-0.48817752797091757,0.20767896649850975,0.3505522931615961,0.21495200367289985,-0.5513263702238639,0.26980920636448746,-0.10362470961113332,0.41916916377454844,3
120,2024-09-25 22:38:15.397483154,0,018,-0.433967876946688,0.19642230839129962,0.4104100881256437,0.20258833336780113,-0.5246300581292239,0.2255478527012993,-0.08267547403912244,0.37497414646211485,3
121,2024-09-25 22:38:15.465291016,0,018,-0.3777944274553879,0.1840340174951682,0.4603295665203105,0.18820128734989103,-0.49139832686131285,0.18082310073320798,-0.04401875095560425,0.3234873023513164,3
122,2024-09-25 22:38:15.533114014,0,018,-0.3209065521864159,0.17086425958362866,0.5003571722746039,0.1719816215487502,-0.4514535101556375,0.13630418867733515,0.014972621961155291,0.2654097906928092,3
123,2024-09-25 22:38:15.600913086,0,018,-0.26429752541280516,0.15726478805015567,0.5309187105001483,0.1542935530586628,-0.40521501343899496,0.0926697446722734,0.09570211064149196,0.20187992711517275,3
124,2024-09-25 22:38:16.544635986,0,018,-0.2087297373831977,0.14358918051248726,0.5523587557885032,0.13571912980488082,-0.353712054884529,0.050595990126688646,0.19758638855276509,0.13458162210254487,3
125,2024-09-25 22:38:16.607724854,0,018,-0.15479614545041726,0.13019207911226097,0.5646734000943722,0.1170220765077645,-0.2984916907090092,0.010738223059952179,0.31748550186370317,0.06576687727645304,3
126,2024-09-25 22:38:16.669264160,0,018,-0.10299834630128224,0.11742464421381911,0.5675157393866207,0.09903687192142283,-0.24143994242971872,-0.026295890653546195,0.449703573071844,-0.0018546652812536262,3
127,2024-09-25 22:38:16.746480957,0,018,-0.05380924104595609,0.10562206976019614,0.5604715321339769,0.08252224856617248,-0.184569664508644,-0.05997632095035232,0.5866110092813299,-0.06534283297081496,3
128,2024-09-25 22:38:16.815613037,0,018,-0.007698006185976472,0.09508124575836745,0.5434458653063479,0.06803721808838506,-0.12982352080533097,-0.0898756231956559,0.7196320399941497,-0.12180220424238121,3
129,2024-09-25 22:38:16.883799072,0,018,0.034889944754495646,0.08603198670592348,0.5169283982953407,0.05587999891647965,-0.07892763236633826,-0.1156803073349642,0.8402422964506139,-0.16862508304511659,3
130,2024-09-25 22:38:16.951613037,0,018,0.07359621619680029,0.0786072286648342,0.48206801732482424,0.0460841039134928,-0.0333155386291547,-0.13718764388354987,0.9407187341522283,-0.20365423545478828,3
131,2024-09-25 22:38:17.869335938,0,018,0.10823865145940222,0.07281710727058342,0.44062502703756046,0.038442895250666506,0.00588135969825407,-0.15429624096706163,1.0145992462780122,-0.22527807416438697,3
132,2024-09-25 22:38:17.932010986,0,018,0.13889025526662716,0.06853229323262706,0.394791085289693,0.03255524537224643,0.03779906142508868,-0.16699888833048837,1.0569496320745102,-0.23250385364632728,3
133,2024-09-25 22:38:17.994496094,0,018,0.16590904766844808,0.06548033568475278,0.3468584681620738,0.027897008901662634,0.06179447345549012,-0.1753807521754713,1.0644750334812698,-0.22502434212586953,3
134,2024-09-25 22:38:18.073137939,0,018,0.1898989711255395,0.06325517485636976,0.29887417649862574,0.023900293957469808,0.07741449427919074,-0.17962285631431454,1.0354653926954267,-0.20325823308004698,3
135,2024-09-25 22:38:18.140924072,0,018,0.21160824725394267,0.06133980227217858,0.25243883341619155,0.02001445958972872,0.0843926452278229,-0.18000995899956224,0.9696768475923045,-0.16834998983911928,3
136,2024-09-25 22:38:18.195887939,0,018,0.2317967992373975,0.05914179655855062,0.20867541191587716,0.015741963508263863,0.08268353926747433,-0.17694112148784832,0.8682971070568113,-0.12212456625018182,3
137,2024-09-25 22:38:18.273718994,0,018,0.2511189124213578,0.056036289633159944,0.16831377386067475,0.01065299209150059,0.07253904449559706,-0.1709395939537014,0.7339956981335449,-0.0669904597668312,3
138,2024-09-25 22:38:19.219793945,0,018,0.27005150991570676,0.05140916510593622,0.13183091841681394,0.004389952174951471,0.05460153811896937,-0.1626573412280883,0.5709389740402874,-0.005798718929779472,3
139,2024-09-25 22:38:19.287661133,0,018,0.28886424818432743,0.04469933907004762,0.09957974192997018,-0.0033162430793832265,0.029977361529268318,-0.1528697371661287,0.38472095370619996,0.05831190840883643,3
140,2024-09-25 22:38:19.341873047,0,018,0.30761458020836185,0.03544255530451184,0.07185560207923423,-0.012606083995987777,0.00026163255502203574,-0.14245565116424988,0.18228248211209702,0.12205830062772147,3
141,2024-09-25 22:38:19.419117920,0,018,0.3261588685396753,0.02331588666385448,0.04890908431185579,-0.02344302040988098,-0.032519124242584616,-0.13235690740931688,-0.028151833663687807,0.18214776638967486,3
142,2024-09-25 22:38:19.481123047,0,018,0.34417181369828087,0.00817895761371827,0.030960033851277956,-0.03558854733584934,-0.06606729162331072,-0.12351449495663591,-0.23726325441706167,0.23542247428778615,3
143,2024-09-25 22:38:19.558843994,0,018,0.36116783865657387,-0.009893644301001363,0.018233791989990027,-0.04862160053157676,-0.09803602281324587,-0.11679014192730831,-0.4351187270101575,0.2790193380889954,3
144,2024-09-25 22:38:19.620266846,0,018,0.3765336397585985,-0.0305972188259051,0.010960999493762048,-0.06198575036256714,-0.12622645493873563,-0.11289189310024093,-0.6118909565631395,0.3105349684090235,3
145,2024-09-25 22:38:20.569888184,0,018,0.38958192143912784,-0.05340623471422387,0.009269803497547191,-0.07501507660903821,-0.14871434906190198,-0.11231864232867146,-0.7586333025114023,0.32818629017642587,3
146,2024-09-25 22:38:20.625885010,0,018,0.39960533389721964,-0.07760453003613729,0.012971131370780327,-0.08690463655611537,-0.163936187083621,-0.11532393131083576,-0.867991007416609,0.33095665106975,3
147,2024-09-25 22:38:20.705541992,0,018,0.40589648257448546,-0.10232455841416079,0.02133761070874217,-0.09665155877532783,-0.17078408221262628,-0.1218908307786085,-0.9347737296086829,0.31869648350679447,3
148,2024-09-25 22:38:20.765099121,0,018,0.4077380713814284,-0.12658932601506287,0.03304539503635721,-0.10303884527153802,-0.16871363741988388,-0.13171612182388837,-0.956264165368337,0.2921378559083734,3
149,2024-09-25 22:38:20.827583984,0,018,0.4044008193112309,-0.14935889619153292,0.04638882041081868,-0.10471412341507487,-0.15782468446555462,-0.14421215002673407,-0.9321687179065432,0.2528141980433704,3
150,2024-09-25 22:38:20.905227783,0,018,0.39516770728651085,-0.16958114676539,0.05969988711878984,-0.10034932873916753,-0.13887509625144512,-0.15853507268516304,-0.8643051539012547,0.20292192524097047,3
151,2024-09-25 22:38:20.966881104,0,018,0.3793720741797855,-0.18624129074328225,0.07179207186044032,-0.08882577974833711,-0.11321954139879704,-0.17363992059565006,-0.7562686702424797,0.1451695856897923,3
152,2024-09-25 22:38:21.908658936,0,018,0.35643732287372526,-0.19840637949442058,0.0822730902539183,-0.06939678516012748,-0.08269390530744693,-0.18835414436645956,-0.6132086854306201,0.08263284006134912,3
153,2024-09-25 22:38:21.986605957,0,018,0.3259208885068234,-0.20526548196721625,0.09161823403688253,-0.041794017556069776,-0.04946872962551338,-0.20145739350572445,-0.44164065330853425,0.01861266717769308,3
154,2024-09-25 22:38:22.049093994,0,018,0.2875692980424187,-0.20616691919121263,0.10095135461499997,-0.006257756970759259,-0.015879518289276452,-0.21175792800851104,-0.249198931548181,-0.04350520796133417,3
155,2024-09-25 22:38:22.123472900,0,018,0.24138196065022477,-0.20065204435777165,0.11161822956218177,0.036488704025217755,0.01575944096597915,-0.2181614890855065,-0.04434562027483995,-0.1003875802316438,3
156,2024-09-25 22:38:22.187942871,0,018,0.18766789663326428,-0.1884837652907974,0.12475061054548905,0.08527349836034312,0.043336670587207415,-0.21973207826111527,0.1639282207096523,-0.14889007016581773,3
157,2024-09-25 22:38:22.259093018,0,018,0.1270769034547729,-0.1696670252970155,0.14094558984057529,0.13850691777438462,0.06510043722619303,-0.2157452975603473,0.3664267019850056,-0.18620804690061812,3
158,2024-09-25 22:38:22.311521973,0,018,0.060596344616211904,-0.14445753443234083,0.1600163592130804,0.1942468939708258,0.0797754548774612,-0.20573133972058283,0.5541412209480542,-0.2100601491274149,3
159,2024-09-25 22:38:23.270062012,0,018,-0.010491779178575421,-0.11335475865793465,0.18075501189238274,0.2503352539150786,0.08660831799716304,-0.18949867665764927,0.7187256099885266,-0.21889007997255613,3
160,2024-09-25 22:38:23.334319092,0,018,-0.08469890093775276,-0.07707616672341433,0.20079858380874455,0.30458826237407455,0.08532059377754696,-0.16713264512005754,0.8530157168611658,-0.21203029188606037,3
161,2024-09-25 22:38:23.399188965,0,018,-0.16044724486372558,-0.03651468432535847,0.2167590170675611,0.3549833440029591,0.07600364775568597,-0.13897467400353947,0.9515106185787873,-0.1897705492956194,3
162,2024-09-25 22:38:23.473470947,0,018,-0.23617679940716063,0.0073117548181062635,0.22466879710584936,0.3997918749912192,0.05901801824915214,-0.10559206994900243,1.010705703665812,-0.15331876820434903,3
163,2024-09-25 22:38:23.541239014,0,018,-0.3104185275128607,0.053309529713391715,0.22064232553190746,0.43764906802983145,0.034927480000199074,-0.06774219864116747,1.029192874974757,-0.10468892838762883,3
164,2024-09-25 22:38:23.596517090,0,018,-0.381845677227464,0.10035510660559688,0.20154362551051233,0.4675892078151662,0.0044549788634020825,-0.026329947341782865,1.0075515508535349,-0.046561608212756775,3
165,2024-09-25 22:38:23.676884033,0,018,-0.44931864487015166,0.1473379732268324,0.16542331482757242,0.4890796791101569,-0.03155857891985482,0.017641750524709513,0.9481338860339125,0.01786840649067214,3
166,2024-09-25 22:38:24.608718018,0,018,-0.5119199446770366,0.19319930681804817,0.11160872914372018,0.5020574083142048,-0.07218619878718899,0.06312476412949933,0.8548348050566889,0.08506884968589384,3
167,2024-09-25 22:38:24.686376953,0,018,-0.5689728194892564,0.23696482379220327,0.04053361963367721,0.5069373771010064,-0.11641412269691476,0.10907454722232438,0.7329170751255417,0.1513653881632251,3
168,2024-09-25 22:38:24.748451904,0,018,-0.6200465023417839,0.2777729791486537,-0.04650080064210101,0.5045578428070692,-0.1631071898588759,0.15448836743165026,0.5888997009835467,0.21313503485683638,3
169,2024-09-25 22:38:24.810474121,0,018,-0.6649496060299053,0.31489957415167946,-0.14748541593179063,0.4960536004193671,-0.21097314660272176,0.1984333244771945,0.43035726292151827,0.2670059058900811,3
170,2024-09-25 22:38:24.888149902,0,018,-0.7037077809551894,0.34777650240936236,-0.25973642423330034,0.4826863080781588,-0.25855814845700603,0.24006759874161493,0.2653963521391166,0.3100960189541008,3
171,2024-09-25 22:38:24.950637939,0,018,-0.7365309984040364,0.3760019817912926,-0.3798580538327994,0.4656870270015738,-0.3042793836639424,0.27865432416090957,0.10179573883385629,0.3402821072253852,3
172,2024-09-25 22:38:25.013123047,0,018,-0.7637871591413202,0.3993435012824718,-0.5037587753327866,0.4461630385435205,-0.34648956132269776,0.3135659836838238,-0.05382217851902102,0.35641172600075416,3
173,2024-09-25 22:38:25.941135986,0,018,-0.7859865490934701,0.41773525491855557,-0.6268034231921442,0.4250806095156037,-0.3835704532908535,0.344281917303819,-0.19635300985839196,0.3583611412247478,3
174,2024-09-25 22:38:26.012468018,0,018,-0.8037573285900876,0.4312671188901407,-0.7440774433157896,0.40328627224793223,-0.4140522355758098,0.370386005916567,-0.3220227023202694,0.34692490995706654,3
175,2024-09-25 22:38:26.080256104,0,018,-0.81779441770018,0.44016184564762195,-0.8507094869844902,0.3815197170157136,-0.43675035779924026,0.3915708253797527,-0.42790686121854266,0.32360188879558227,3
176,2024-09-25 22:38:26.137904785,0,018,-0.8287893121183765,0.4447438242420568,-0.9422257002861036,0.3603987131281782,-0.4508920740314196,0.4076477296368053,-0.5114595321617874,0.2903476668742013,3
177,2024-09-25 22:38:26.215531982,0,018,-0.8373550248064097,0.4454068760217162,-1.0148787790533063,0.3403820426853695,-0.45618201726995655,0.4185543361062153,-0.5702168715251225,0.24932963087519752,3
178,2024-09-25 22:38:26.279128174,0,018,-0.8439489519008984,0.44258545317207265,-1.0658747606897383,0.321735944074832,-0.4527702568069192,0.4243501743506439,-0.6016976595325862,0.20270286314924438,3
179,2024-09-25 22:38:26.351531006,0,018,-0.8488040188247431,0.4367291743177655,-1.0935215327761503,0.30454106079697607,-0.44113706673884334,0.4251997339729821,-0.6034810784539477,0.1524337295706848,3
180,2024-09-25 22:38:27.292802002,0,018,-0.8519007801540828,0.42828066503319956,-1.0974022963836658,0.28875499418156864,-0.4219486063210801,0.4213517349946864,-0.5734762573215961,0.10019773949366449,3
181,2024-09-25 22:38:27.349294922,0,018,-0.8530069067988634,0.41765907110895595,-1.0785919158980697,0.2743076582434219,-0.3959348414660575,0.41312360300925466,-0.5103748302784842,0.04735291603186155,3
182,2024-09-25 22:38:27.426119141,0,018,-0.8517708645196602,0.4052503690997708,-1.0398228833610033,0.2611922885017415,-0.36381414360860337,0.4008914924191592,-0.41417328421464394,-0.005030698899157569,3
183,2024-09-25 22:38:27.488605957,0,018,-0.8478288283331988,0.3914016043441221,-0.9854944443865091,0.24951856329408292,-0.3262758716419066,0.3850814633424815,-0.2865769449961025,-0.056111526148572406,3
184,2024-09-25 22:38:27.566525879,0,018,-0.8408894480528895,0.3764167768610196,-0.921452930318753,0.23950755494220466,-0.28402868309664187,0.3661612725715526,-0.13111435988045933,-0.1052160804271086,3
185,2024-09-25 22:38:27.627466797,0,018,-0.8307797109811296,0.36055781564692285,-0.8545230580990753,0.23143501926925977,-0.23789840263510265,0.3446354663917327,0.047102411666423226,-0.15179908003509635,3
186,2024-09-25 22:38:27.689716064,0,018,-0.8174549379018657,0.3440562605995449,-0.7918280854968951,0.22554893972680448,-0.1889254153009904,0.3210443581224843,0.2418641671373211,-0.1954287793297448,3
187,2024-09-25 22:38:28.620285156,0,018,-0.8009930125904529,0.32713567741592986,-0.7399879013800365,0.22198981693863276,-0.13840260641846286,0.2959645568542177,0.44634448598769305,-0.2357831162546688,3
188,2024-09-25 22:38:28.685275146,0,018,-0.7815910177166359,0.31003800322389363,-0.7043417670545928,0.22074012614167784,-0.08782376344005256,0.2700075373429055,0.6533242758898777,-0.272624097500948,3
189,2024-09-25 22:38:28.755872070,0,018,-0.7595626744656071,0.29304551103939874,-0.6883462015687722,0.22161653300197004,-0.03876855771484446,0.24381343453950188,0.8551512449841255,-0.30573649221966737,3
190,2024-09-25 22:38:28.808864990,0,018,-0.7353238411774928,0.27649217443967994,-0.693214818467655,0.22429174172229288,0.007209562501757479,0.2180397655515961,1.0437513458031933,-0.3348780471112732,3
191,2024-09-25 22:38:28.886972900,0,018,-0.7093589229982624,0.26076020706886305,-0.7177984874564343,0.22831671559831385,0.04864953977800405,0.1933458282562179,1.211013656370087,-0.35980402292443125,3
192,2024-09-25 22:38:28.948592041,0,018,-0.6821659468913845,0.24626029592370466,-0.7586909469673331,0.23312826246452217,0.08422012946352148,0.17037122495801996,1.3495027790886487,-0.3803574116843237,3
193,2024-09-25 22:38:29.025772949,0,018,-0.6541810082937545,0.23339934916509394,-0.8105427627413763,0.2380547097918589,0.11276881732524215,0.14970591676797512,1.4532181255815,-0.39656005482957235,3
194,2024-09-25 22:38:29.962193848,0,018,-0.6256984474239684,0.22254406067880864,-0.8665800121602558,0.24234104272363666,0.13339319286945975,0.13185363294268784,1.5182293068080155,-0.4086682683366889,3
195,2024-09-25 22:38:30.037195801,0,018,-0.5968186908408758,0.2139870585137723,-0.9193173914029544,0.24520234031108978,0.14550988867982323,0.11719752260075593,1.5431345502675975,-0.4171945972538457,3
196,2024-09-25 22:38:30.104993164,0,018,-0.5674482049036527,0.20791887823988286,-0.9613693077924825,0.2458972983833995,0.14888920253016277,0.10597953849630692,1.529244166655229,-0.42288712367298764,3
197,2024-09-25 22:38:30.163122803,0,018,-0.5373537808724032,0.2044105007294565,-0.9861849396627748,0.24379946269257835,0.1436504782934719,0.09829849650135176,1.4803745673145299,-0.42664853498106076,3
198,2024-09-25 22:38:30.225311035,0,018,-0.5062506673270358,0.2034113833484312,-0.9885770556086302,0.2384442378594473,0.1302461478803831,0.0941210902824696,1.4022764349247918,-0.42940623357105523,3
199,2024-09-25 22:38:30.303420166,0,018,-0.4738905332104443,0.20476038094973575,-0.965031889436741,0.2295524126018404,0.10945559719377292,0.0932965955551356,1.301912465387757,-0.4319784479751405,3
200,2024-09-25 22:38:30.365020020,0,018,-0.4401275230982859,0.20820204772305823,-0.913863636167349,0.21705237876247563,0.08237415726929938,0.09557116297113748,1.1868580988607333,-0.43498498518244394,3
201,2024-09-25 22:38:31.317589111,0,018,-0.4049680147707809,0.21340601418736796,-0.8352326912646482,0.20110938700983758,0.05037458849115459,0.10060265654744935,1.06495328761979,-0.4388243927048369,3
202,2024-09-25 22:38:31.387355957,0,018,-0.3686166954475224,0.21999195733571636,-0.7309405776415636,0.18213338611100408,0.015041030553089288,0.10797725908703659,0.944121944269265,-0.4436966795537947,3
203,2024-09-25 22:38:31.440770996,0,018,-0.3315113330900732,0.22755785262392664,-0.603950056371608,0.16072774972332518,-0.021911411762880917,0.11722680600122404,0.8321759511569395,-0.449623448755591,3
204,2024-09-25 22:38:31.522968018,0,018,-0.29432232226769944,0.2357021420502695,-0.4577695894279955,0.13757431558571348,-0.05871917322310735,0.12784458695068937,0.7365014399004243,-0.45643894764431164,3
205,2024-09-25 22:38:31.579052979,0,018,-0.2579038384893968,0.24403249076548414,-0.29595098073721704,0.11329563456070482,-0.09364489478691035,0.13929840803109508,0.6636910007925088,-0.4637816443065202,3
206,2024-09-25 22:38:31.656742188,0,018,-0.2232023811088875,0.2521630101033612,-0.12186473047219845,0.08835135534206866,-0.1250421457655688,0.15104094537640997,0.619212472225622,-0.47113670263158675,3
207,2024-09-25 22:38:31.719238037,0,018,-0.1911343135444156,0.25970725177631193,0.061261455583496945,0.06299298713090141,-0.1514156957718617,0.162517676533791,0.6070919879555005,-0.47793211449381495,3
208,2024-09-25 22:38:32.665327148,0,018,-0.16244961645845143,0.26627204350288003,0.25018154798908365,0.0372649675289251,-0.1714760592256947,0.17317298446948723,0.6296011355680399,-0.4836442564328137,3
209,2024-09-25 22:38:32.727849121,0,018,-0.13761226478676974,0.27145463427310157,0.4414721489035075,0.011048295499124632,-0.18418111832446124,0.18245628872692998,0.6870654246691351,-0.4878790367893813,3
210,2024-09-25 22:38:32.805760986,0,018,-0.11672995796177076,0.2748479706123968,0.6313993377611115,-0.01583959443149355,-0.1887674838912759,0.18983215927282107,0.7778838302703525,-0.49042049284448425,3
211,2024-09-25 22:38:32.873562012,0,018,-0.09954554516718633,0.2760588920369873,0.8157783143144979,-0.04350077821292261,-0.18477727971706814,0.19479764802435656,0.8987027856439678,-0.4912476138323678,3
212,2024-09-25 22:38:32.927458984,0,018,-0.08547424341482587,0.2747354192326143,0.9898152708337414,-0.07182088817225733,-0.17207208764691606,0.19690474271054464,1.0446544364525332,-0.49052621355552284,3
213,2024-09-25 22:38:33.008173096,0,018,-0.07366304121072699,0.2705925172296733,1.147989919363086,-0.10039016808526297,-0.15081534729882096,0.19578235172780645,1.2095989280705306,-0.4885781774235027,3
214,2024-09-25 22:38:33.067707031,0,018,-0.06306255619920566,0.2634297271452872,1.2841234508164368,-0.12849359894318144,-0.12141285737474797,0.19115411821572817,1.3862792149924188,-0.48581931928616257,3
215,2024-09-25 22:38:34.011808105,0,018,-0.05250639165801765,0.25314029587835013,1.3917823958428135,-0.15515729003683207,-0.08443471864404331,0.18285133089849337,1.5663673249124395,-0.4826694017576352,3
216,2024-09-25 22:38:34.084458008,0,018,-0.04078630855108579,0.23971294592856202,1.4650083562908995,-0.17923515112618546,-0.04057448539023069,0.17082246469363688,1.7406097488964178,-0.4794602753892635,3
217,2024-09-25 22:38:34.155216064,0,018,-0.026719743427670622,0.22322852920167238,1.4991655735454574,-0.1995275297943121,0.009320624516812414,0.15514185776549977,1.8992995091205374,-0.4763617020565874,3
218,2024-09-25 22:38:34.222889893,0,018,-0.009220929930727926,0.20385514903024549,1.4916317323067751,-0.21492404974066287,0.0641780766347402,0.13601717885259704,2.033001739676018,-0.47332746401382475,3
219,2024-09-25 22:38:34.284457031,0,018,0.012621079453096432,0.1818436338486821,1.4421311050408077,-0.2245500298572194,0.12265182227394739,0.11379053152891382,2.1332933072001623,-0.4700751919081729,3
220,2024-09-25 22:38:34.346945068,0,018,0.039474625931712866,0.15752222433571,1.3526869250288018,-0.22789532220116449,0.18314638792974733,0.08892590543681408,2.19339115735476,-0.4661223899665593,3
221,2024-09-25 22:38:34.426325195,0,018,0.07172620993567304,0.13128794171508576,1.2273461938626171,-0.2249117858212145,0.243916920092021,0.06197987613312353,2.2085965205883284,-0.46086736511441206,3
222,2024-09-25 22:38:35.369684082,0,018,0.10946939122576696,0.10359345532887439,1.0718703092234563,-0.2160613354991877,0.3032023872209557,0.03356218535179604,2.176467349173045,-0.4536659980707457,3
223,2024-09-25 22:38:35.437522949,0,018,0.15250766935532495,0.07493180891625563,0.8935206050213417,-0.20230828898225556,0.3593392921441455,0.004297470010582857,2.0967539140540055,-0.4438744137809274,3
224,2024-09-25 22:38:35.505314209,0,018,0.20036529005796636,0.04582154804218391,0.7009544671687791,-0.185071438461836,0.41084392094771155,-0.025208005903895186,1.971246861826782,-0.4308815710808204,3
225,2024-09-25 22:38:35.573101074,0,018,0.25231601461421094,0.016789619178575813,0.5041032161063421,-0.16613989352392414,0.45649386658189056,-0.05439878922550249,1.8036780755267459,-0.4141743061302981,3
226,2024-09-25 22:38:35.639267822,0,018,0.30743057151859937,-0.011651041894491431,0.3138636864009626,-0.14753899833668413,0.49542611085322896,-0.0828021817969951,1.5997629027742055,-0.3934455887362727,3
227,2024-09-25 22:38:35.702214111,0,018,0.36461933084137965,-0.039024483566122405,0.14155346122139176,-0.1313516060315296,0.5272225913783483,-0.11005167023382106,1.367317987086044,-0.36871061298684027,3
228,2024-09-25 22:38:35.776563965,0,018,0.42265626537044704,-0.06490697614380327,-0.0018230274952003192,-0.11952681942318218,0.5519447449130822,-0.13589454280355484,1.1162049606489723,-0.3403773940641354,3
229,2024-09-25 22:38:36.694137939,0,018,0.4802014481945282,-0.0889321661890164,-0.10646308155904802,-0.1137021164186802,0.5701025070795879,-0.16018397212508528,0.8579144917569836,-0.3092511361400164,3
230,2024-09-25 22:38:36.758277832,0,018,0.5358401643818468,-0.11079025507649405,-0.16475169200813922,-0.11504574723815318,0.5825583860654119,-0.182860374243871,0.6048331652252893,-0.27649051382856427,3
231,2024-09-25 22:38:36.829808838,0,018,0.5881383308863619,-0.1302265967469893,-0.17216573558968398,-0.12412919272191406,0.5903838626173433,-0.20392697401671916,0.36934422706679076,-0.24352922818851722,3
232,2024-09-25 22:38:36.897608154,0,018,0.6357144375050428,-0.14704250532958263,-0.12786118435379085,-0.14084934756543147,0.5947082568216655,-0.2234230493941509,0.16293318692945155,-0.21196097804773883,3
233,2024-09-25 22:38:36.965454102,0,018,0.6773326090072368,-0.16109794708530784,-0.0348009143380448,-0.16441669894842384,0.5965958648082764,-0.24139613289091919,-0.004571642690812125,-0.18338951642711174,3
234,2024-09-25 22:38:37.021082031,0,018,0.7120013512828629,-0.17231428788975683,0.10059169649754524,-0.19341853090493835,0.5969642939354147,-0.2578743796583939,-0.12566355532592882,-0.15924774227014063,3
235,2024-09-25 22:38:37.099190918,0,018,0.7390383712525219,-0.18067359346335643,0.2691644693573351,-0.22595229241666365,0.5965547635911199,-0.272844820960728,-0.19581049668843592,-0.14060746859234816,3
236,2024-09-25 22:38:38.043248779,0,018,0.7580713878056099,-0.18621062042142555,0.45997690726549834,-0.2598024051062238,0.5959652809224395,-0.28624551586737335,-0.21394094095965835,-0.12803947086278036,3
237,2024-09-25 22:38:38.112708008,0,018,0.768981933748203,-0.1889989673356288,0.6612608340507482,-0.2926284923505946,0.5957211501394596,-0.29797180428084846,-0.18245496274444228,-0.12158036128798529,3
238,2024-09-25 22:38:38.180541992,0,018,0.771825600214286,-0.18913875701810706,0.8612763422895637,-0.3221431507583216,0.5963180119364003,-0.3078859798034702,-0.10664644257763851,-0.12080777039380416,3
239,2024-09-25 22:38:38.248328857,0,018,0.7667635557080217,-0.186751869308262,1.0490003497645317,-0.3462617327866029,0.5981935029050893,-0.3158194843110405,0.006252182343212901,-0.12497858387405456,3
240,2024-09-25 22:38:38.305027100,0,018,0.7540308912260164,-0.18198543361077382,1.2146462358595058,-0.3632192258113272,0.6016473684571819,-0.32156756513807194,0.1480238776093897,-0.13317475909426438,3
241,2024-09-25 22:38:38.381793945,0,018,0.7339517614388382,-0.1750208653380982,1.350059375893699,-0.3716731468251888,0.6067570734923112,-0.32488516915606475,0.310165635549492,-0.1444231062561745,3
242,2024-09-25 22:38:38.451653076,0,018,0.7069825060059126,-0.16608305492539735,1.4490062250856648,-0.3708028975493292,0.613310635771873,-0.3254911232240635,0.48436389618884385,-0.15779270525135505,3
243,2024-09-25 22:38:39.362950928,0,018,0.6737441626645756,-0.15544250034253948,1.5073469370400436,-0.3603748503486951,0.6207625371356914,-0.32308111921185584,0.6629079104728547,-0.17248199923169794,3
244,2024-09-25 22:38:39.424087158,0,018,0.6350248161821147,-0.1434070884309909,1.5231237611451136,-0.34073310506335097,0.6282320497826513,-0.31734790761503856,0.8391120103507755,-0.18788313935313858,3
245,2024-09-25 22:38:39.505670166,0,018,0.5917633048610296,-0.13030848624784638,1.496619858187993,-0.31271708153564787,0.634563491839138,-0.30800946169733895,1.0077150977297686,-0.20361115935021804,3
246,2024-09-25 22:38:39.563317139,0,018,0.5450241024972039,-0.11649100548174872,1.4303844812565603,-0.27754116621164826,0.6384420972104623,-0.29484542760609483,1.1651944311058178,-0.21951955153204353,3
247,2024-09-25 22:38:39.641287109,0,018,0.4959524227915637,-0.10230383173568995,1.3291299281973181,-0.23666253796544676,0.6385382567572603,-0.2777365165378268,1.309924326670863,-0.23572942537266364,3
248,2024-09-25 22:38:39.702209961,0,018,0.4457002430721146,-0.08808916217980957,1.1993645336188898,-0.19164533081678092,0.6336491860635971,-0.2566976443160662,1.4420996994762914,-0.252646810193738,3
249,2024-09-25 22:38:39.763833984,0,018,0.3953428676043417,-0.0741614706633584,1.0487161876113145,-0.14403411278569803,0.6227989869099996,-0.23189615311336775,1.5633688134276853,-0.27089972011006774,3
250,2024-09-25 22:38:40.719988037,0,018,0.34582422443354893,-0.0607846544336406,0.8850869083288971,-0.09525532302784975,0.605254652612624,-0.20364841080728827,1.676266267385181,-0.2911766282580665,3
251,2024-09-25 22:38:40.787837891,0,018,0.29794394763282533,-0.04815685150669312,0.7158835472305071,-0.04655243088352659,0.5804637573289873,-0.17239589329658894,1.7836962174521953,-0.31404328525114433,3
252,2024-09-25 22:38:40.840688965,0,018,0.25236162725756894,-0.03640321398483778,0.5475083722032054,0.001050050263618024,0.5479863605868392,-0.13867306690947787,1.888625093171493,-0.3398265914319531,3
253,2024-09-25 22:38:40.923508789,0,018,0.20959839255698975,-0.025572073872452077,0.385172952148098,0.04674951973956139,0.5074870068585999,-0.10307970843618769,1.9938835640875523,-0.36857545514646245,3
254,2024-09-25 22:38:40.980314941,0,018,0.1700421103020986,-0.015635128725753126,0.23301904296303533,0.08992350158344631,0.4587927536220387,-0.06626127537298093,2.1018819283762498,-0.40004659649428953,3
255,2024-09-25 22:38:41.058039062,0,018,0.13395807750614733,-0.0064936238043089185,0.09445854492581458,0.13005446072622395,0.40199438557421435,-0.028895259372996328,2.2141451374108803,-0.43366808104559057,3
256,2024-09-25 22:38:41.126970947,0,018,0.10148746512422113,0.0020129540409707055,-0.027445505155957794,0.16666487162647542,0.33756082781880953,0.0083212084426926,2.3307094122859326,-0.4684787067078032,3
257,2024-09-25 22:38:42.070032959,0,018,0.07262045635144196,0.010100830755422176,-0.12975184485467223,0.1992974530548101,0.26641683780408115,0.044688516936612944,2.449546180459169,-0.5030885499008547,3
258,2024-09-25 22:38:42.130059082,0,018,0.047156910426639345,0.01803870830495838,-0.20965432309480242,0.22753359727285888,0.18993967524749822,0.07952702268734942,2.5662633111310678,-0.5357104240783124,3
259,2024-09-25 22:38:42.192153809,0,018,0.024686142796264014,0.026142323938576805,-0.2647045667424821,0.2510263719095904,0.10988121590187909,0.11219765432437191,2.674288047103592,-0.5642648854374344,3
260,2024-09-25 22:38:42.268855957,0,018,0.004614083677827359,0.0347612880837883,-0.2931731554582998,0.26954109635498846,0.028260700247351573,0.14211466498794437,2.765520058308002,-0.5865159344178398,3
261,2024-09-25 22:38:42.341176025,0,018,-0.013750097977235635,0.044254761413277846,-0.2944381262040275,0.2829947277986499,-0.05274013116276171,0.168752550948026,2.8311967213021423,-0.6001976039157172,3
262,2024-09-25 22:38:42.408082031,0,018,-0.031061303147659546,0.05495522517656087,-0.2692355541153687,0.29146400470861095,-0.13088016357242407,0.19165350206899523,2.862682932760082,-0.603135370662234,3
263,2024-09-25 22:38:42.470778076,0,018,-0.047810375814050544,0.06712654237684729,-0.21966502567483948,0.295147361051888,-0.20397103323150362,0.21043837128993212,2.852131579547923,-0.5934033464070089,3
264,2024-09-25 22:38:43.420198975,0,018,-0.0642633626582569,0.08092980100783657,-0.14898605554821348,0.29430491175993395,-0.270005645075484,0.22481944408906815,2.793193935330699,-0.569545256458718,3
265,2024-09-25 22:38:43.477464111,0,018,-0.08048643898476228,0.09640639001620359,-0.06130103181575554,0.2892014349044574,-0.32731020165767305,0.23461417605810808,2.681886885930804,-0.5308280562766674,3
266,2024-09-25 22:38:43.555889893,0,018,-0.09642378534689411,0.11347632075647479,0.038809309049037975,0.28005539895299936,-0.3747115171660536,0.23976097728651427,2.5174211435044236,-0.4774435337507282,3
267,2024-09-25 22:38:43.616677002,0,018,-0.11199123234776155,0.13194596100169748,0.14663861743309417,0.26700975451073705,-0.4116784107011524,0.24033394553815562,2.302698963606294,-0.41058594966470485,3
268,2024-09-25 22:38:43.691504882,0,018,-0.12715646876136336,0.15152183167241495,0.25760979309969423,0.2501644447127026,-0.4383819764732435,0.23654840396729637,2.0443792703475556,-0.3324002824021971,3
269,2024-09-25 22:38:43.759272949,0,018,-0.14197247188108783,0.17182667614808397,0.36737005216955965,0.22968408607090773,-0.4556444845117999,0.22875147809056606,1.7524973875886007,-0.2458300633577954,3
270,2024-09-25 22:38:43.817446045,0,018,-0.15655229067155668,0.1924145222465308,0.47176780197932505,0.2059368948370064,-0.4647899623066836,0.2173994510740282,1.439610387299204,-0.15438298578117135,3
271,2024-09-25 22:38:44.770251952,0,018,-0.17101038845676572,0.2127866693043035,0.5668075261900136,0.1796098802627559,-0.4674419193681214,0.20302941347954467,1.1195742885323274,-0.06184108460248345,3
272,2024-09-25 22:38:44.833250977,0,018,-0.1853961876545975,0.23241203427604895,0.6486140496462448,0.15177842503784925,-0.4653256245213658,0.18623408293131458,0.8061946133771174,0.02803596647543476,3
273,2024-09-25 22:38:44.895292969,0,018,-0.19962095749156816,0.2507496464455067,0.7134052887735433,0.12391686599675814,-0.4601244981493631,0.16764570659257136,0.5119831574666336,0.11177789746960722,3
274,2024-09-25 22:38:44.972126953,0,018,-0.21337929554284127,0.2672691902828019,0.7575217697359601,0.09782726881405172,-0.4534106756613598,0.1479294780429412,0.24724586924038794,0.1864276981714152,3
275,2024-09-25 22:38:45.041511962,0,018,-0.22609662051071677,0.28147328066078636,0.7775438638223785,0.07549093819060719,-0.44663321713851445,0.12778139353772633,0.01970061006882273,0.2497019606463429,3
276,2024-09-25 22:38:45.109301025,0,018,-0.23695090522844617,0.2929295654080855,0.7704386950803732,0.05888818596521809,-0.44113222829959614,0.10792255001295413,-0.1653394487076666,0.3000543248887252,3
277,2024-09-25 22:38:45.177152100,0,018,-0.2449853592310862,0.3013112658218529,0.733656639819125,0.04983036067142805,-0.43815481497541686,0.08908450937835007,-0.30442340780338367,0.3366368477466639,3
278,2024-09-25 22:38:46.120322021,0,018,-0.2492731765350695,0.30643319381545386,0.6651688738741133,0.049814516881295796,-0.43885467302839,0.0719854931438787,-0.3954355043423836,0.35920726980802303,3
279,2024-09-25 22:38:46.176038086,0,018,-0.24906838105828288,0.30827057839079064,0.5635174724649981,0.05989192224376992,-0.4442585458950168,0.05729873175593883,-0.43737987322836763,0.3680421607893824,3
280,2024-09-25 22:38:46.253182861,0,018,-0.2438964807697473,0.306956760565042,0.4279847814173108,0.08055093447669306,-0.4551950913067858,0.045614457939302945,-0.43045153590690494,0.36387096847714545,3
281,2024-09-25 22:38:46.315220215,0,018,-0.2335830964360834,0.30276441367888624,0.25893540376941315,0.11163588952180897,-0.47220256733170585,0.03740119735266013,-0.37610956212014185,0.34780120255714186,3
282,2024-09-25 22:38:46.376728027,0,018,-0.21824618450076125,0.2960791792019954,0.05822463762625111,0.1523345071667715,-0.4954502559820336,0.03297749564489674,-0.27696019247447456,0.3212143901298456,3
283,2024-09-25 22:38:46.459453125,0,018,-0.19826630266933115,0.2873719277605681,-0.17053500068008687,0.20124846044361705,-0.5247101321824161,0.03250334506255691,-0.136578939704409,0.2856616938257966,3
284,2024-09-25 22:38:46.516431885,0,018,-0.17423409267623424,0.277169700060796,-0.4219592537500039,0.25652415193156997,-0.5593902125256893,0.035990037297205256,0.04047362985965342,0.242804485207195,3
285,2024-09-25 22:38:47.436342041,0,018,-0.14688702816058005,0.26602322304460024,-0.6890843635125948,0.3160017543139241,-0.5986123825101197,0.043318961185789734,0.24846424229569802,0.19438972986903227,3
286,2024-09-25 22:38:47.512262207,0,018,-0.11705859509582389,0.2544720375200083,-0.9636667113237293,0.37735516320195595,-0.6413127563960185,0.054261831326522736,0.4804572580993421,0.14219593773180747,3
287,2024-09-25 22:38:47.575568848,0,018,-0.08564147087994671,0.24301189318615288,-1.2364919670833956,0.4382140363923181,-0.6863500817318452,0.06850143044168829,0.7286401606231363,0.08792553115369407,3
288,2024-09-25 22:38:47.637598877,0,018,-0.053541550914665406,0.23206845248923577,-1.4976236772416012,0.49626059056082883,-0.732602886367464,0.08565438741663119,0.9848309094507008,0.033098960833414834,3
289,2024-09-25 22:38:47.715306152,0,018,-0.02161602986555994,0.22197828760465763,-1.7366256990531896,0.5492954643726843,-0.7790306516970731,0.10529538794684515,1.2409182686795674,-0.02099811247571705,3
290,2024-09-25 22:38:47.776866943,0,018,0.009367997551256122,0.21297961322987002,-1.9429106452388007,0.5952840261696564,-0.8246886576124184,0.1269799692051516,1.4892042942554535,-0.07333300165592585,3
291,2024-09-25 22:38:47.843989990,0,018,0.038709779123919485,0.20521890806992482,-2.1063568221617954,0.632417739631267,-0.8686995158462215,0.15026123999091656,1.7227669031578923,-0.12315810715960324,3
292,2024-09-25 22:38:48.790347168,0,018,0.0656904232065285,0.1987752960333071,-2.2181731324108904,0.6592260178057776,-0.9101891328221537,0.17469653193341103,1.9358842470044646,-0.17007001621347898,3
293,2024-09-25 22:38:48.862322998,0,018,0.08948617142066437,0.19369339711166356,-2.2717932140333854,0.6747310718853319,-0.9482165651403169,0.199846159380005,2.1243864258623852,-0.2140580666058028,3
294,2024-09-25 22:38:48.929079102,0,018,0.10913719914580236,0.19000942649514846,-2.2635301388332887,0.6785888905256416,-0.981745721121378,0.22527143747398623,2.2857515171501555,-0.2554909782253415,3
295,2024-09-25 22:38:48.997906982,0,018,0.12357742653650601,0.1877607442690138,-2.1928779939972403,0.6711561952643216,-1.0096871893572583,0.25053719823648524,2.418900819534107,-0.2950203031794292,3
296,2024-09-25 22:38:49.065725098,0,018,0.13169343131271605,0.18697979159163744,-2.0625233547679906,0.6534564333896076,-1.0309991318286982,0.2752189384905937,2.5237907191155555,-0.3334120246967752,3
297,2024-09-25 22:38:49.130121094,0,018,0.13239998898836808,0.1876794956671331,-1.8781657171283601,0.6270594321985099,-1.0448084558920983,0.2989095781868081,2.6009066382393913,-0.37132223825302574,3
298,2024-09-25 22:38:49.192174072,0,018,0.12474730052278163,0.18983575528289012,-1.6481992920497943,0.5939255729202958,-1.0505123149402418,0.3212194616540023,2.6507303271758076,-0.40903741299980684,3
299,2024-09-25 22:38:50.144568848,0,018,0.10805646861539427,0.19336880126321024,-1.3832914765394602,0.5562656793883637,-1.047843323786694,0.3417690700388569,2.6733114644189184,-0.44623707543666535,3
300,2024-09-25 22:38:50.200488037,0,018,0.08204572069997539,0.1981250995986777,-1.095905438705953,0.5164259704640184,-1.0369022550241043,0.3601804206433024,2.668139145999041,-0.48187210530503444,3
301,2024-09-25 22:38:50.280233887,0,018,0.046915914839888676,0.20386358260695342,-0.799771965606594,0.4767733880770265,-1.0181560902341782,0.3760729082116257,2.634403186830333,-0.5142258022455364,3
302,2024-09-25 22:38:50.339302979,0,018,0.0034005192894072515,0.21024929015231497,-0.5092218146932586,0.43956243113390436,-0.9923819404496359,0.3890656229671838,2.571522456301619,-0.541150705023828,3
303,2024-09-25 22:38:50.401436035,0,018,-0.047200700016124655,0.21685481256914266,-0.23829150910816557,0.40678852100846263,-0.9605437813928114,0.39878598239865193,2.4796820286021126,-0.5604148120081133,3
304,2024-09-25 22:38:50.478629150,0,018,-0.10300899313560383,0.2231687872288348,0.0003134141871357034,0.3800503496836437,-0.9236255924599488,0.40488318091491293,2.360133956690326,-0.5700672763749829,3
305,2024-09-25 22:38:50.551436035,0,018,-0.1616104079886293,0.22861287212585668,0.1961413006757361,0.3604492983534871,-0.8824774515329389,0.40704495428518944,2.215167238538331,-0.5687329527349924,3
306,2024-09-25 22:38:51.494593018,0,018,-0.22019267718846744,0.23257269256057367,0.3416000430723691,0.3485424995136082,-0.837727893965214,0.4050184771090991,2.047831266840296,-0.5557665623250931,3
307,2024-09-25 22:38:51.552770996,0,018,-0.27576738265753614,0.2344460383666887,0.432266121839691,0.34434104859688236,-0.7897778452356904,0.3986360897908692,1.8615690815263497,-0.5312445282694807,3
308,2024-09-25 22:38:51.630239014,0,018,-0.32541748742030363,0.23370012448019592,0.46703527516636545,0.347331649291701,-0.7388545674732524,0.387841960977953,1.6599071786727755,-0.49583852788612337,3
309,2024-09-25 22:38:51.698052002,0,018,-0.366513907068344,0.2299227121579008,0.44817293219472826,0.3565109803293842,-0.6851016040747216,0.37271313018484553,1.4462967047902158,-0.4506577689633637,3
310,2024-09-25 22:38:51.752590820,0,018,-0.39689107239016336,0.22285885186335863,0.38118878685656243,0.37044209257555716,-0.6286935078608181,0.3534710183143982,1.224085154747366,-0.3971215737547469,3
311,2024-09-25 22:38:51.832216064,0,018,-0.41498614345026774,0.21243381337297082,0.27440654759477523,0.38735321927202976,-0.5699540425063887,0.33048336943239404,0.9965588277852219,-0.3368745522478101,3
312,2024-09-25 22:38:51.901561035,0,018,-0.41992005325089155,0.19876109538284822,0.1381587833545979,0.405288483497185,-0.5094318520244079,0.30425639305191365,0.7670861821524142,-0.2717446420408948,3
313,2024-09-25 22:38:52.838433105,0,018,-0.4114954506303364,0.1821305959638862,-0.016332303164689147,0.4222940603294773,-0.4478893236760452,0.27541340085790117,0.5393384601483181,-0.20372639147284458,3
314,2024-09-25 22:38:52.912619141,0,018,-0.3901294238535085,0.16297838610119414,-0.17816588082442494,0.4366060435701884,-0.38621046929280994,0.24465879792933048,0.3173965925843085,-0.13493814680483623,3
315,2024-09-25 22:38:52.978121094,0,018,-0.35676948380941503,0.14184978801002737,-0.3377288837660453,0.44680330558640363,-0.32528476869782635,0.2127342078796092,0.10564435744547758,-0.06753050981642716,3
316,2024-09-25 22:38:53.040210938,0,018,-0.3128165954517753,0.11936692744176056,-0.4871646987100748,0.4518957932537735,-0.2659076834014727,0.18037306063371242,-0.09145964928023405,-0.003580794653681877,3
317,2024-09-25 22:38:53.102247070,0,018,-0.26003947635264424,0.09620072583359167,-0.6203566892503907,0.4513378858424427,-0.2086953496411111,0.1482551404911077,-0.2697219659166855,0.05500496418797599,3
318,2024-09-25 22:38:53.179489014,0,018,-0.20046407542739225,0.07303979330512413,-0.7326441220767408,0.4449825627712329,-0.154016369717062,0.11696641563467021,-0.4257387222583057,0.1065980759623148,3
319,2024-09-25 22:38:53.241496094,0,018,-0.1362457902770869,0.050552698435569206,-0.8205082845469004,0.433011501747015,-0.1019608399279572,0.08697253654860937,-0.5574165805820354,0.14994999937008974,3
320,2024-09-25 22:38:54.159677002,0,018,-0.06953446466450107,0.02934595918522901,-0.8813853507789937,0.41587477103966075,-0.0523493278762565,0.05860659242207248,-0.6640681709492261,0.18423825182098322,3
321,2024-09-25 22:38:54.237350830,0,018,-0.0023292442408987795,0.009919032141405984,-0.9136530343303149,0.3942518271574895,-0.004770072329293854,0.03206467124091945,-0.7459086929986083,0.20902824353780122,3
322,2024-09-25 22:38:54.305490967,0,018,0.06366631072619724,-0.007380965509662855,-0.9167329803412991,0.3690243849638585,0.04135662896982235,0.007406110316493454,-0.8032785106250275,0.22418594125009883,3
323,2024-09-25 22:38:54.361922119,0,018,0.12714833203205664,-0.022392898929894694,-0.8911741274961512,0.341241947984493,0.08668212914843433,-0.015438725467363239,-0.8360950753112019,0.2297924832694748,3
324,2024-09-25 22:38:54.439112793,0,018,0.1872472476126774,-0.035150476833720815,-0.8385705341102332,0.3120536156789108,0.13181189125542733,-0.0366512030969641,-0.8437947658301933,0.22608989823897047,3
325,2024-09-25 22:38:54.501144043,0,018,0.2435130976543883,-0.045866339356507725,-0.7612872427869815,0.2825872459810824,0.17719816098414093,-0.056501232875982466,-0.8257019779055975,0.21347189562408558,3
326,2024-09-25 22:38:54.568782959,0,018,0.29588705192095377,-0.05490171696947614,-0.6621474010938179,0.25379497530346645,0.2230798519739881,-0.07532363439642821,-0.7815536402124409,0.19250645555634688,3
327,2024-09-25 22:38:55.519931885,0,018,0.3446652724332527,-0.06272851574565465,-0.5442589909181063,0.22632185569087707,0.2694894703334575,-0.0934959629447278,-0.7118528757872008,0.16393753569931588,3
328,2024-09-25 22:38:55.587775879,0,018,0.3904413352504935,-0.06988360477480467,-0.4109845045831296,0.2004496889074007,0.3163174063290455,-0.11141544737941285,-0.6178954415727688,0.12862869221743117,3
329,2024-09-25 22:38:55.641083008,0,018,0.43402059173566776,-0.07691623931082127,-0.26589420163164396,0.17612540833172846,0.3633996418798976,-0.12947289354508779,-0.5016024294212662,0.08747874822739582,3
330,2024-09-25 22:38:55.717775879,0,018,0.4763089966898808,-0.08433591556600245,-0.11259891631786752,0.15304739349527405,0.4105920205480697,-0.14802659739432886,-0.36545958739793594,0.04137405863224713,3
331,2024-09-25 22:38:55.791172119,0,018,0.5181814993877758,-0.09256861304934974,0.04543326395786518,0.1307836415109106,0.4578155686170348,-0.1673832856655151,-0.21276537392954362,-0.008781771471736768,3
332,2024-09-25 22:38:55.857386230,0,018,0.5603429701600382,-0.10192338788263557,0.2048930235673229,0.10890394075045143,0.5050752940052236,-0.1877885917600871,-0.048068572060836014,-0.06197127403095918,3
333,2024-09-25 22:38:55.919449951,0,018,0.6032048067643252,-0.11256825785469947,0.3624810349324245,0.08708948128753063,0.5524499396281836,-0.20942137937146904,0.12257613893814272,-0.1169611334071996,3
334,2024-09-25 22:38:56.855331055,0,018,0.6467974049692935,-0.12451688117940457,0.5148256776777775,0.06517071432859428,0.6000459461915859,-0.23238488476078123,0.29180552380197855,-0.1722640437202351,3
335,2024-09-25 22:38:56.932500977,0,018,0.6907288996762219,-0.13762931586051078,0.6586645867868532,0.04308132364444101,0.6479203949803245,-0.25669184966501946,0.4515375962787745,-0.22618227510574684,3
336,2024-09-25 22:38:56.995191162,0,018,0.734199415006626,-0.1516286727616476,0.7912140519071785,0.020771440127454275,0.6959836208715025,-0.28224351299040645,0.593690663598537,-0.2768932894888544,3
337,2024-09-25 22:38:57.058113037,0,018,0.7760770542638765,-0.16613269701435399,0.9104603732080704,-0.001859695395890695,0.7438856467403577,-0.3088043747332545,0.7108495099263515,-0.3225351041634302,3
338,2024-09-25 22:38:57.141148926,0,018,0.8150251898483178,-0.18069678879225143,1.015201245504422,-0.024974347019186355,0.7908981998949216,-0.3359797303593094,0.7968612541521174,-0.36129462257162176,3
339,2024-09-25 22:38:57.208934082,0,018,0.8496547513098814,-0.19486357218924147,1.104907855074297,-0.048749750181084836,0.8358301567558816,-0.3632066811761202,0.84734123912122,-0.391531611399071,3
340,2024-09-25 22:38:57.273216064,0,018,0.8786728140909217,-0.2082126971576292,1.1795867596942524,-0.0733059067508644,0.8770230180361323,-0.389765171161434,0.8600358103699056,-0.41195265405198767,3
341,2024-09-25 22:38:58.190893799,0,018,0.9010041612976175,-0.22040317046644342,1.2396918790005813,-0.0986429633888977,0.9124503956228202,-0.4148081071783113,0.835096389711314,-0.4218079346832304,3
342,2024-09-25 22:38:58.263078857,0,018,0.9158687107598187,-0.23120247520572332,1.2859924221207535,-0.12460086866523461,0.9399114734480665,-0.43740687641002485,0.7753120106363901,-0.4210482401940405,3
343,2024-09-25 22:38:58.329426025,0,018,0.9228038521870795,-0.2404999121679335,1.319346320641418,-0.15084085883365173,0.9572767637127377,-0.45660868994905046,0.6861426839351836,-0.41037651971818223,3
344,2024-09-25 22:38:58.391495850,0,018,0.9216330665050338,-0.24830130142985668,1.3404119353693358,-0.17685015847616845,0.9627266471034989,-0.4714992291519295,0.5753655283682906,-0.39117299255490734,3
345,2024-09-25 22:38:58.453980957,0,018,0.9124048325555533,-0.2547037776664042,1.3493274738726186,-0.2019677939533896,0.9549342958360542,-0.4812608595431996,0.4523533812469086,-0.3653308101517029,3
346,2024-09-25 22:38:58.531426025,0,018,0.8953410915520758,-0.2598578861424386,1.3454525398414785,-0.22542720263430055,0.9331783732241439,-0.485220180109046,0.3271099282351517,-0.33505288588570475,3
347,2024-09-25 22:38:58.592835938,0,018,0.8708205263108776,-0.2639310730360367,1.327351323930488,-0.24641400307393396,0.897392340220495,-0.48288433766404615,0.20914417124240275,-0.3026321392093545,3
348,2024-09-25 22:38:59.544581787,0,018,0.8393859507919528,-0.2670824803675998,1.2930588821756217,-0.2641279513722907,0.8481481707239507,-0.4739646644048942,0.10634094900481682,-0.270227164716562,3
349,2024-09-25 22:38:59.612955078,0,018,0.8017373660805103,-0.269447068960412,1.2404649847063909,-0.27782839374456697,0.7865674549760779,-0.4583836363213185,0.02415217302657793,-0.239666491719742,3
350,2024-09-25 22:38:59.668476074,0,018,0.7586778813457499,-0.27111939768398935,1.1676786262081134,-0.2868603729175035,0.714179144180321,-0.43626472327190785,-0.03459756874512805,-0.21231982910662828,3
351,2024-09-25 22:38:59.748554932,0,018,0.711018785877696,-0.2721315745391409,1.073365493895899,-0.2906837689171196,0.6327693109525095,-0.40791135664037226,-0.06930842197304726,-0.18904845677427834,3
352,2024-09-25 22:38:59.807744873,0,018,0.659487349507765,-0.2724309794540518,0.9570264374050884,-0.2889140760397231,0.5442602569662429,-0.3737838792469546,-0.08095781774583957,-0.1702203126843669,3
353,2024-09-25 22:38:59.869760986,0,018,0.6046732944392289,-0.27186790031688646,0.8191260814892198,-0.28134856606012787,0.45062950827152926,-0.33447960655554604,-0.0715891446362383,-0.15576986835736786,3
354,2024-09-25 22:38:59.947413818,0,018,0.5470112053741218,-0.27019665159995293,0.6610842849527016,-0.26795739191459456,0.3538654217166626,-0.2907147981749799,-0.044002563773475056,-0.14529313835626678,3
355,2024-09-25 22:39:00.890129883,0,018,0.4867838201495011,-0.2670865687744221,0.48527583406105723,-0.24885713952583574,0.25595260411228804,-0.24330376091894476,-0.0014403497580309297,-0.13817600512096045,3
356,2024-09-25 22:39:00.952172119,0,018,0.4241463742194582,-0.2621393083540882,0.2951380974977586,-0.22429669029518712,0.15887090131763443,-0.19313184829621674,0.052849914399310007,-0.13374498997350703,3
357,2024-09-25 22:39:01.030883057,0,018,0.359165762484867,-0.25491099488940827,0.09532831482228284,-0.19466814425354428,0.06458043493914928,-0.14112261824649625,0.11604612764041476,-0.13140989453593935,3
358,2024-09-25 22:39:01.098623047,0,018,0.2918448650864015,-0.24493610767288218,-0.10821467868487945,-0.1605390833689788,-0.02503632619804793,-0.0881994690671765,0.1859953451651638,-0.13075995257314268,3
359,2024-09-25 22:39:01.152511962,0,018,0.22211325090473485,-0.23174898782883496,-0.3084112091184869,-0.12269134749590495,-0.10828228142536088,-0.035242601926767696,0.2611944655036125,-0.13158708636224725,3
360,2024-09-25 22:39:01.229695068,0,018,0.14980880395869967,-0.2149048722526563,-0.49742487971991994,-0.08213776414880773,-0.18376776227784508,0.016951138138614895,0.34053918050732046,-0.13383224863007592,3
361,2024-09-25 22:39:01.292180908,0,018,0.07469277416910865,-0.19400906942856982,-0.667318857251149,-0.04007986336051439,-0.25049264845778874,0.06769474817193259,0.4229618062520021,-0.13747571843361672,3
362,2024-09-25 22:39:02.237583008,0,018,-0.0034868379419623887,-0.1687589498322615,-0.8109453297692675,0.002207778044869997,-0.3078663876098947,0.11642131016453088,0.5071078072523304,-0.14240578401884443,3
363,2024-09-25 22:39:02.313333008,0,018,-0.08490296647055556,-0.13899173920310556,-0.9228392016180654,0.04352707006728049,-0.35569096474429474,0.16268398987740806,0.5911591067612777,-0.14830006195485496,3
364,2024-09-25 22:39:02.375270996,0,018,-0.1695591691770897,-0.1047245972650144,-0.9998207081760306,0.08287273524905034,-0.3941451854879686,0.20615156445079877,0.672849198359727,-0.15455505484557233,3
365,2024-09-25 22:39:02.437759033,0,018,-0.25722333834689176,-0.06617747194912368,-1.0412281904711884,0.11948763699772781,-0.4237837462722083,0.24660183094654414,0.7496005963136814,-0.1602925474881069,3
366,2024-09-25 22:39:02.514420898,0,018,-0.3473933325225038,-0.023776627414267972,-1.0489189078875316,0.15288089494907858,-0.445531107392028,0.28391323175562133,0.8186078073127515,-0.16444212905713426,3
367,2024-09-25 22:39:02.584512939,0,018,-0.4392988331697824,0.021859807073264684,-1.0271258048680525,0.18282834717130442,-0.46063725686168083,0.318053090635752,0.8767816426220488,-0.1658723409862361,3
368,2024-09-25 22:39:02.637547119,0,018,-0.5319411280402188,0.06995050910149206,-0.9821223003159751,0.20934801853355767,-0.4705773353396806,0.349059752481304,0.9207354176367086,-0.16354007160763456,3
369,2024-09-25 22:39:03.595418945,0,018,-0.6241583339412329,0.11958690717267083,-0.9216681641757658,0.23265045153441777,-0.4769053804593548,0.3770185934130334,0.9471037450919684,-0.1566354835440085,3
370,2024-09-25 22:39:03.663191162,0,018,-0.7147003523864888,0.16977172119210118,-0.8542882498208579,0.2530753297433571,-0.4811001842708487,0.4020378810065425,0.9532794068844046,-0.14470772790664035,3
371,2024-09-25 22:39:03.727418945,0,018,-0.8023111618494175,0.21946172897752064,-0.7884412923783468,0.271012259558025,-0.4844528503869738,0.42423345644807153,0.9383554075270892,-0.12776526560602416,3
372,2024-09-25 22:39:03.798794922,0,018,-0.8858110017553393,0.2676162465028873,-0.731652231173941,0.28680247243228435,-0.4880218053347995,0.4437261140495273,0.9038916307561322,-0.10634239520051346,3
373,2024-09-25 22:39:03.866579102,0,018,-0.9641532536730113,0.31324668765368535,-0.6897437323729758,0.30064418636192264,-0.4926432026181448,0.46064762633936834,0.8541467479325844,-0.08151022905254013,3
374,2024-09-25 22:39:03.926845947,0,018,-1.0364449596940652,0.35546197897658294,-0.6663257361284693,0.31254449388490313,-0.4989697836909429,0.4751477023608455,0.7956257341258753,-0.05480418297624084,3
375,2024-09-25 22:39:03.988409912,0,018,-1.1019500644488949,0.39350977134475823,-0.6626542244769021,0.32235007543843186,-0.5075079475446751,0.48739390040288966,0.7360828098351591,-0.028058417847963847,3
376,2024-09-25 22:39:04.919477051,0,018,-1.1600900887002397,0.4268130097896872,-0.6778651704652326,0.32984839263619514,-0.5186269266660647,0.4975602279861476,0.6833322211056366,-0.003184364342575671,3
377,2024-09-25 22:39:04.978663086,0,018,-1.2104352515531493,0.45499536427690523,-0.709472424313145,0.3348941959967504,-0.5325436382221209,0.5058094583816313,0.6442441108903874,0.01803328575429356,3
378,2024-09-25 22:39:05.040707031,0,018,-1.2526859819242187,0.4778883701855763,-0.7539796773258803,0.33751612023252764,-0.5493089591579458,0.5122796710398982,0.6240966754783323,0.0340725691955121,3
379,2024-09-25 22:39:05.122947998,0,018,-1.2866650077139898,0.4955199572743435,-0.8074980433130957,0.33797880124131585,-0.5688067828444183,0.5170796110833307,0.6261949850115525,0.043754347935197474,3
380,2024-09-25 22:39:05.190760010,0,018,-1.312333813013122,0.5080900749796535,-0.866285336225981,0.33679167622391587,-0.5907602620953548,0.5202893915444226,0.6516298933146596,0.046311708294239945,3
381,2024-09-25 22:39:05.258610107,0,018,-1.3298178064699717,0.5159389759240036,-0.9271111989528714,0.33466675888212677,-0.6147403042806707,0.5219629633397481,0.69919438511156,0.04146593285026695,3
382,2024-09-25 22:39:05.318364990,0,018,-1.3394057030742528,0.519509166676617,-0.9873766852710627,0.33243585422407845,-0.6401730142581964,0.5221324295601877,0.7655249170072411,0.029483650497050054,3
383,2024-09-25 22:39:06.253601074,0,018,-1.3415080916976865,0.5193005078896382,-1.045013221622694,0.3309445606316015,-0.6663494560471788,0.5208149964212946,0.8454611941407569,0.011186338189543876,3
384,2024-09-25 22:39:06.331545166,0,018,-1.3366071423741266,0.5158241904635207,-1.098297691640902,0.33095172101665293,-0.6924616715596611,0.5180230640044108,0.9325493596730925,-0.012091417530711227,3
385,2024-09-25 22:39:06.393138916,0,018,-1.3252457626851426,0.5095668461672255,-1.1457380851547292,0.33306252937800374,-0.7176888376581025,0.5137777343867687,1.0195560020028278,-0.03857993909209528,3
386,2024-09-25 22:39:06.471245117,0,018,-1.3080617799318148,0.5009711412971253,-1.1860721723472216,0.33769185160318965,-0.7413142089854706,0.5081228693021711,1.0988975878234377,-0.06618387394466656,3
387,2024-09-25 22:39:06.533250977,0,018,-1.2858265051610915,0.4904292093714479,-1.2182964066652062,0.34502377927832334,-0.7628206639144699,0.5011341077102026,1.1631132350505562,-0.09265162672775722,3
388,2024-09-25 22:39:06.594834961,0,018,-1.2594546804775637,0.478281413121125,-1.241636147637631,0.35495366676656237,-0.781938269632866,0.4929210691635059,1.2056112992327004,-0.11582740872161808,3
389,2024-09-25 22:39:06.675854980,0,018,-1.229992162824318,0.464817469169596,-1.255462838959668,0.36704541194731205,-0.7986622651201227,0.48362838688026777,1.2216208483977105,-0.1339342631093787,3
390,2024-09-25 22:39:07.613754150,0,018,-1.198602057641941,0.4502825278005222,-1.2592291899860537,0.3805389657014879,-0.813264165592563,0.4734426102516836,1.2089092506619212,-0.1457793592052464,3
391,2024-09-25 22:39:07.676635986,0,018,-1.1665474262865785,0.43489044344771927,-1.2524556206643978,0.39439971160504567,-0.8262828976184305,0.46260347093960597,1.1678313900001907,-0.15079971627366603,3
392,2024-09-25 22:39:07.754590088,0,018,-1.1351471815761838,0.4188422195598779,-1.2347127085544531,0.4073751127490507,-0.8384581664320512,0.45140852609199195,1.1006458998827118,-0.1489476492894378,3
393,2024-09-25 22:39:07.815062988,0,018,-1.1056953106366612,0.4023451170434348,-1.2055331364661102,0.4180419378453274,-0.8505915768182547,0.4402013696018125,1.0104873318362462,-0.1404951937944704,3
394,2024-09-25 22:39:07.890191162,0,018,-1.0793664841215034,0.38562861281545907,-1.1643047984733337,0.42486293230323763,-0.8633683169528067,0.42934358485250884,0.9005616094890272,-0.1258615486856776,3
395,2024-09-25 22:39:07.954749023,0,018,-1.0571397058608725,0.36895470364693106,-1.1102852967296135,0.4262877122454603,-0.8771938737085834,0.41917834360129747,0.7738578210537992,-0.10551978641686674,3
396,2024-09-25 22:39:08.025724854,0,018,-1.0397510972124107,0.352620380223323,-1.0427838945853105,0.420907900482405,-0.8920848959888998,0.40999417042584596,0.6332406103917502,-0.07996810932029874,3
397,2024-09-25 22:39:08.939035889,0,018,-1.027669394209503,0.33695107994709117,-0.9614068278594752,0.4076295713011856,-0.9076251619759789,0.401994442199241,0.48162450483221075,-0.04971905069474035,3
398,2024-09-25 22:39:09.012453125,0,018,-1.0210849087230158,0.3222850248813947,-0.8662507087172812,0.38580815460643847,-0.9229826348917242,0.3952763949304531,0.3220741416801787,-0.015287344230222669,3
399,2024-09-25 22:39:09.078532959,0,018,-1.0199077444256208,0.308948240490936,-0.7580264541683548,0.35532269208991146,-0.9369858555447897,0.3898230597376335,0.1578500018846455,0.02280009159297909,3
400,2024-09-25 22:39:09.148041992,0,018,-1.0237783884146876,0.297222136511547,-0.6381515492924321,0.3166060207590556,-0.9482542558909475,0.38550931875176814,-0.0075743984531545005,0.06395574902389127,3
401,2024-09-25 22:39:09.202656982,0,018,-1.0320908557954818,0.287310115764728,-0.5088145754474183,0.27065090038293216,-0.9553613301421134,0.3821201892110158,-0.17061144139291295,0.10748265396568507,3
402,2024-09-25 22:39:09.279512939,0,018,-1.0440111307416162,0.27930983784563845,-0.3729745059458356,0.218985558400765,-0.9570034049186231,0.3793785802715412,-0.32791794563462956,0.15258816543539305,3
403,2024-09-25 22:39:09.341034912,0,018,-1.0584664449240668,0.2731924199977635,-0.23428580443867236,0.1635963134168901,-0.9521489167577809,0.3769778086152517,-0.4770313153768353,0.19847729514262358,3
404,2024-09-25 22:39:10.294770020,0,018,-1.074110756952879,0.2687881554486344,-0.09700406008084046,0.10679762981016472,-0.9401440392084865,0.3746112072491167,-0.6170579046206696,0.24447681683953362,3
405,2024-09-25 22:39:10.362632080,0,018,-1.0893121457090948,0.2657830062620839,0.03407867710992459,0.05108315492037914,-0.9207600869048681,0.37199331684998566,-0.7490472288202137,0.2901147800026838,3
406,2024-09-25 22:39:10.430474121,0,018,-1.1022021975968783,0.26373198366241307,0.15372279028982777,-0.0010174088595626704,-0.8941867774254345,0.3688719068742355,-0.8758063292327157,0.33509794103093377,3
407,2024-09-25 22:39:10.496937988,0,018,-1.1107824726406108,0.26208983807498937,0.25649247225530986,-0.04709169168734325,-0.8609898164325747,0.3650319049602422,-1.0011919838643017,0.3791843356008565,3
408,2024-09-25 22:39:10.558962158,0,018,-1.1130566219018776,0.2602518344499753,0.3372378156382071,-0.08503187499141146,-0.8220497800248916,0.360292948274009,-1.1290849245449548,0.4220043159371425,3
409,2024-09-25 22:39:10.620533936,0,018,-1.1071640433635692,0.25759411195877024,0.3917169878687899,-0.11323988177631199,-0.7784817330964665,0.3545016855702109,-1.2622420289307885,0.46289291174277153,3
410,2024-09-25 22:39:10.697837158,0,018,-1.0915030047896208,0.25350651891716636,0.41721557523392727,-0.13080856371787158,-0.7315255800948648,0.34751778801272554,-1.4012812072101526,0.5007813246817803,3
411,2024-09-25 22:39:11.644839111,0,018,-1.064835629776477,0.24741872031304474,0.4130709923327367,-0.1376458157851345,-0.6824176080395269,0.3391962768858418,-1.5441722318042785,0.5341894320198521,3
412,2024-09-25 22:39:11.712702881,0,018,-1.0263718280476828,0.23882572418599984,0.38102970495066874,-0.13451943300288186,-0.6322782595999245,0.3293765272715183,-1.686421221616848,0.5613229325391792,3
413,2024-09-25 22:39:11.780481934,0,018,-0.9758317283079604,0.22731577961072674,0.325350629591094,-0.12300904877586706,-0.582036684046538,0.3178843016644585,-1.8216941197282246,0.5802131716384205,3
414,2024-09-25 22:39:11.838669922,0,018,-0.9134831111554564,0.21259663222974196,0.25256691943359694,-0.10536257197289213,-0.5323757123606777,0.30453949519086154,-1.9424828086387456,0.5888403405456868,3
415,2024-09-25 22:39:11.900719971,0,018,-0.8401499169523472,0.19451596634694956,0.17087635159064365,-0.08426441742130697,-0.48367386524502903,0.289159658776494,-2.040651291456135,0.5852427029596244,3
416,2024-09-25 22:39:11.980443848,0,018,-0.7571917067036061,0.17307765545059836,0.08926228082031092,-0.06254709591738446,-0.4359465490010579,0.2715599219697414,-2.107847276328554,0.5676307203023786,3
417,2024-09-25 22:39:12.040816162,0,018,-0.6664539927316555,0.1484558584828408,0.016530558967980148,-0.04290185860498645,-0.38881239090726655,0.2515582349514468,-2.1357676838214648,0.534505001405116,3
418,2024-09-25 22:39:12.985266113,0,018,-0.5701846443655135,0.12100154540878001,-0.03957730150146963,-0.027628996766745472,-0.3415118830514421,0.22899377986626943,-2.116355385937368,0.4847860786926906,3
419,2024-09-25 22:39:13.062755127,0,018,-0.47091259019232135,0.09123182600971569,-0.07306812455791402,-0.018435690581762417,-0.29298708450434446,0.20375881993554498,-2.0420952323814365,0.41797299281087597,3
420,2024-09-25 22:39:13.123662109,0,018,-0.3712962214427217,0.0597991954192627,-0.0800699718103222,-0.016292306154374367,-0.24201462053667244,0.17583619472676643,-1.906532036047912,0.3343230416786438,3
421,2024-09-25 22:39:13.198406982,0,018,-0.27395452429681444,0.02744711293038464,-0.05884818611950711,-0.02138715484217281,-0.18737706300868376,0.1453319886627367,-1.70501811911747,0.235017434359829,3
422,2024-09-25 22:39:13.266145996,0,018,-0.18128846708574406,-0.005040719936137642,-0.009539089240572117,-0.033213173423064554,-0.12805253408952688,0.112497079703061,-1.4355792398817806,0.12226467573567153,3
423,2024-09-25 22:39:13.333976074,0,018,-0.09530781541952486,-0.03689316429765187,0.06617967887270326,-0.05075846558971281,-0.06340162755397118,0.07773696169130764,-1.0996779465068092,-0.0007106259721067814,3
424,2024-09-25 22:39:13.401794922,0,018,-0.017499897379107916,-0.06740148458783701,0.1652497981204331,-0.07271864885530861,0.006675593831195871,0.041609078721545546,-0.7026289770054495,-0.129829441099501,3
425,2024-09-25 22:39:14.345000977,0,018,0.05122901079147766,-0.09596007674408018,0.28325729863854243,-0.09766791168530843,0.0816518953032604,0.004804342156098094,-0.2535672704338398,-0.26046297773982646,3
426,2024-09-25 22:39:14.405959961,0,018,0.11054515924746111,-0.12209521002355658,0.4146325024494636,-0.12418717591753203,0.16037592134797582,-0.031886819810814274,0.23493424025246687,-0.38782652154990227,3
427,2024-09-25 22:39:14.467976074,0,018,0.1606327731292615,-0.1454817385117016,0.5531998714219727,-0.1509698955957747,0.24114362822629867,-0.06761745296430535,0.747462322309113,-0.5073815532362558,3
428,2024-09-25 22:39:14.546083008,0,018,0.20209950570261243,-0.16594629555824877,0.6928957647536695,-0.1769057254413508,0.3218011812268787,-0.10152937367040733,1.266527775688453,-0.615162053897509,3
429,2024-09-25 22:39:14.616211914,0,018,0.23584744628519613,-0.18345459582785367,0.8284032450019817,-0.20113394748338453,0.3998716576819156,-0.13279830414014737,1.7735023324032633,-0.7079726835327997,3
430,2024-09-25 22:39:14.670165039,0,018,0.26293550525196796,-0.19808472233132216,0.9556158304821164,-0.22306721597687476,0.4727294707025007,-0.16068020232102598,2.2497037189043514,-0.7834639886263426,3
431,2024-09-25 22:39:14.751835205,0,018,0.28445908513388213,-0.2099941583814557,1.0719014755666938,-0.24239145556211253,0.5378433084496451,-0.18455983511283044,2.677489254140858,-0.8401235249970093,3
432,2024-09-25 22:39:15.670124023,0,018,0.3014518063827643,-0.21938906382378928,1.1761299440516897,-0.2590496338953013,0.5930689128343746,-0.20399683560260762,3.0411700407542672,-0.8772177862894406,3
433,2024-09-25 22:39:15.732700195,0,018,0.31480994507496096,-0.22649879995698896,1.2684824743870615,-0.2732096293034378,0.6369252125353498,-0.21875799813150024,3.3277055205412513,-0.8947122678844887,3
434,2024-09-25 22:39:15.805749023,0,018,0.32525487271264475,-0.2315544275192598,1.3501147793644457,-0.28520306139685536,0.6687731044532517,-0.2288255349458874,3.5272506007025966,-0.8931884661958673,3
435,2024-09-25 22:39:15.871496826,0,018,0.33334766589267284,-0.23477270175991305,1.4227463859525022,-0.29543339336921615,0.6888543802843677,-0.23437970537283798,3.6335492795240314,-0.8737612119786263,3
436,2024-09-25 22:39:15.933027100,0,018,0.3395417310454936,-0.2363498577841345,1.4882542874539264,-0.30428823772214525,0.6982048173477049,-0.23576230922476837,3.644099193654875,-0.8379946745633664,3
437,2024-09-25 22:39:15.994839844,0,018,0.344231653511259,-0.2364639258877276,1.5483768094080366,-0.3121069782392772,0.698482543956893,-0.2334301466254916,3.5600399297788803,-0.7878134207194811,3
438,2024-09-25 22:39:16.071528809,0,018,0.3477645861701839,-0.23527754000817977,1.6046167581295434,-0.31922466064714045,0.6917511327679765,-0.22790704617967675,3.3857989199920633,-0.7254013187139687,3
439,2024-09-25 22:39:17.006954102,0,018,0.3504239904411371,-0.23293669465142952,1.658308319971072,-0.32605957357917426,0.6802562104906997,-0.21974182760568392,3.1286433971049563,-0.653092466133798,3
440,2024-09-25 22:39:17.085061035,0,018,0.3524285419850576,-0.2295711458994181,1.7106782531215312,-0.3331792482461379,0.6662256177796597,-0.20947574021047227,2.798326271667708,-0.5732766349098692,3
441,2024-09-25 22:39:17.147084961,0,018,0.35396766867149554,-0.22530343588048807,1.7627690456415275,-0.3412946133475567,0.6516916481831077,-0.19761743090246062,2.406908228149781,-0.48834591479770806,3
442,2024-09-25 22:39:17.223491943,0,018,0.3552402496022163,-0.22026166087822793,1.8152476342386654,-0.3511754915109823,0.6383282197836435,-0.18462383818908437,1.9686380852166276,-0.40068429959283036,3
443,2024-09-25 22:39:17.291114014,0,018,0.35644925154513796,-0.21458384678956285,1.868178980031223,-0.36351870313002976,0.6273373223165043,-0.17089140659252533,1.499618756157,-0.31265728096518686,3
444,2024-09-25 22:39:17.358746094,0,018,0.35775459129252546,-0.2084110542129534,1.9208151898752668,-0.37882285679276784,0.6194330842066923,-0.15676314388892393,1.017062727946851,-0.22654776514422495,3
445,2024-09-25 22:39:17.425354980,0,018,0.35922716038844793,-0.20187820513718993,1.9714522784648678,-0.39731458383189205,0.6149194597060181,-0.14255003918280143,0.5382067075530647,-0.1444331510908659,3
446,2024-09-25 22:39:18.360645020,0,018,0.36083136882647854,-0.1951111525889225,2.01737045996663,-0.4189222174586555,0.6138006931063932,-0.12855691865596408,0.07915451362176405,-0.06805451670686227,3
447,2024-09-25 22:39:18.422611084,0,018,0.3624312921518541,-0.18822973801120257,2.0548264851010978,-0.44325987072209777,0.6158620979332915,-0.11510066430254409,-0.3460770480141523,0.0012591545555185805,3
448,2024-09-25 22:39:18.500718018,0,018,0.3638051687324731,-0.1813501849880791,2.0791484814515617,-0.4696097711570574,0.6207032420022051,-0.1025151112462268,-0.7261432988759702,0.0625769773944813,3
449,2024-09-25 22:39:18.572173096,0,018,0.36466309472871905,-0.17458250586138083,2.085098963281674,-0.49693031796744475,0.6277399879994695,-0.09114341279379268,-1.0525559453827233,0.1152772198275501,3
450,2024-09-25 22:39:18.624982178,0,018,0.36467916450468807,-0.1680274711177528,2.067594040111274,-0.5239206973208373,0.6361941488535308,-0.08132004657975242,-1.319586898229892,0.15894948215258728,3
451,2024-09-25 22:39:18.707743896,0,018,0.3635476451140372,-0.1617811003677442,2.0226018481303627,-0.5491446797558732,0.6451006466073673,-0.07334839002667377,-1.5241161819631652,0.19335788734402823,3
452,2024-09-25 22:39:18.763361816,0,018,0.36104639304466574,-0.15594694195596442,1.94785802919433,-0.5711834767074635,0.6533757951736998,-0.067483602313647,-1.6656019762916814,0.2184767707481392,3
453,2024-09-25 22:39:19.693895020,0,018,0.35707244290737256,-0.15064798065965362,1.8431264066408837,-0.5887712095063281,0.6599565010794135,-0.06392451633391448,-1.7461777973357022,0.2345564563275399,3
454,2024-09-25 22:39:19.758558105,0,018,0.3516309773810886,-0.14603016990669576,1.7099885997981368,-0.6008756255306679,0.663967415503491,-0.06280996769350267,-1.7707228724018265,0.24217522851567605,3
455,2024-09-25 22:39:19.829523926,0,018,0.3447954345184882,-0.1422562644901127,1.5513454661623056,-0.6067134449935002,0.6648598375236606,-0.06421587182925108,-1.746725732704823,0.24225794744708962,3
456,2024-09-25 22:39:19.882646973,0,018,0.3366796319272459,-0.13949602069054734,1.3708714809882423,-0.6057183480106679,0.6624933987294427,-0.06815559972678041,-1.683814093298287,0.23604989323169828,3
457,2024-09-25 22:39:19.960263916,0,018,0.32745034128430844,-0.13792016637993845,1.1726029371907056,-0.5974943433577,0.6571655895348351,-0.07458757042169963,-1.5929055309056785,0.22502956662592627,3
458,2024-09-25 22:39:20.022283936,0,018,0.31736826705456067,-0.13769706049098107,0.9607178150193668,-0.5817796022092068,0.6495943087034953,-0.08342673946894408,-1.4851430446596263,0.21077092155036337,3
459,2024-09-25 22:39:20.100393066,0,018,0.3068169692792561,-0.1389825311668694,0.739473586074933,-0.5584282256308397,0.6408318755069787,-0.09455008529245043,-1.3709827967532233,0.19481278349760958,3
460,2024-09-25 22:39:21.041926025,0,018,0.29629585611157355,-0.14189802431106457,0.5132485153286822,-0.5274129063423654,0.6321000211643021,-0.10779102154052482,-1.259673003629829,0.17858595311481426,3
461,2024-09-25 22:39:21.103049072,0,018,0.2863915138914427,-0.14650414510133,0.2866102138047185,-0.48885778685149256,0.6245942655088635,-0.12292928760407418,-1.159053256389367,0.16339676194688985,3
462,2024-09-25 22:39:21.165093018,0,018,0.2777515574000786,-0.1527810715490055,0.06429988401344079,-0.44309906145989514,0.619335839422346,-0.13968772844399607,-1.0755582589384334,0.15044832568130762,3
463,2024-09-25 22:39:21.248238037,0,018,0.27106148589858503,-0.1606225243822659,-0.14892666507975377,-0.39074112747585643,0.6171084851828195,-0.15774084982791,-1.0144001357224286,0.14087950459752163,3
464,2024-09-25 22:39:21.303893066,0,018,0.2670074517314555,-0.16984332822149995,-0.3485299198174904,-0.33267051548932863,0.6184604989389774,-0.17673161900874929,-0.979751355766479,0.13577235035988802,3
465,2024-09-25 22:39:21.380521973,0,018,0.26621942560513967,-0.18019658502847039,-0.5303733602777121,-0.2700220373148376,0.6237335688504866,-0.1962920161979174,-0.9746339568145539,0.13607968896950773,3
466,2024-09-25 22:39:21.442681885,0,018,0.26920747277174323,-0.19139609415841324,-0.6908341441838161,-0.2041256127401925,0.6330881268612903,-0.21606558696228462,-1.0004676881255603,0.14247963534750288,3
467,2024-09-25 22:39:22.389718018,0,018,0.2763035888191659,-0.20314049844476806,-0.8268865264543961,-0.13646681680883818,0.6465098498484017,-0.23572988613269055,-1.0564903598226218,0.15520063198774886,3
468,2024-09-25 22:39:22.462394043,0,018,0.2876132052280216,-0.2151352522277217,-0.9362161380566452,-0.06866803070478732,0.663799872765925,-0.2550143706984964,-1.139257267309638,0.1738617915254589,3
469,2024-09-25 22:39:22.530164062,0,018,0.30298470148549805,-0.22710978256091635,-1.0173767334353,-0.0024674950961708257,0.6845642224673796,-0.2737093792952781,-1.2423460744137216,0.1973737788822872,3
470,2024-09-25 22:39:22.597937988,0,018,0.3220180666748038,-0.23883257314115974,-1.0699210220246047,0.06032964208836313,0.7082254242005825,-0.2916662124952249,-1.3563764612621025,0.22393954082156436,3
471,2024-09-25 22:39:22.665733154,0,018,0.34412795748421293,-0.2501297024920147,-1.0944301949984008,0.11793933419400661,0.7340713132280317,-0.3087926062909253,-1.4694444343400277,0.25117199497568893,3
472,2024-09-25 22:39:22.733552002,0,018,0.3686403522211955,-0.26090585217468354,-1.0924344414145382,0.16871572219354988,0.7613197811215241,-0.32504625148764704,-1.5680074913720958,0.2763138270354261,3
473,2024-09-25 22:39:22.801394043,0,018,0.3948780122987365,-0.27115858532609804,-1.0662004643723293,0.2112559057893196,0.7891562464136662,-0.3404255205210791,-1.6381306460562293,0.29651365941620345,3
474,2024-09-25 22:39:23.744548096,0,018,0.42221562519357986,-0.2809782612400614,-1.0183393764346607,0.2444457500937652,0.8167355727963956,-0.3549579389079359,-1.6668935355000718,0.3091096277946251,3
475,2024-09-25 22:39:23.812393066,0,018,0.45011892489549454,-0.2905338681522705,-0.9513448347723024,0.26745175052756975,0.843183399212291,-0.3686892755156267,-1.6437496884945018,0.3118944353316314,3
476,2024-09-25 22:39:23.866208008,0,018,0.47817361945873976,-0.3000480101783056,-0.8673286434023931,0.2797147929890765,0.8676187236785028,-0.3816723716284773,-1.5616805355242624,0.3033424996707776,3
477,2024-09-25 22:39:23.943012939,0,018,0.5060859608371927,-0.3097608873519274,-0.7680913518607806,0.2809859345204902,0.8891795124616652,-0.39395021090357324,-1.4180294541171437,0.282767537431262,3
478,2024-09-25 22:39:24.004051025,0,018,0.53364031742338,-0.3198838299915038,-0.6553625218875792,0.271387569737545,0.9070377397289202,-0.40553382800639054,-1.214967770612264,0.25038589635693226,3
479,2024-09-25 22:39:24.083577881,0,018,0.5606249226794239,-0.33055275850685295,-0.5309397200713355,0.25145517202322404,0.9204247283880581,-0.41638562582087457,-0.9596127180597077,0.20728393905652948,3
480,2024-09-25 22:39:24.143794922,0,018,0.5867590707696125,-0.3417977871997939,-0.39662888319491,0.22213148966802565,0.9286824167560668,-0.42641476449906673,-0.6637836548153362,0.1553037388397291,3
481,2024-09-25 22:39:25.094391113,0,018,0.6116594513257945,-0.3535365627984821,-0.2540803002472818,0.18470933227550046,0.9313228593793105,-0.43548043698758276,-0.3433262588108664,0.0968697665149966,3
482,2024-09-25 22:39:25.154391113,0,018,0.634867756241247,-0.3655875152426992,-0.10468151577578778,0.14073874214882476,0.9280711512855674,-0.4433998360410267,-0.016977482437568626,0.03477686345443036,3
483,2024-09-25 22:39:25.230268066,0,018,0.6559307752511322,-0.37769673248852226,0.05033520109277798,0.09193814889389688,0.9188783033808687,-0.44996402449269607,0.2951780297534632,-0.028045340954144352,3
484,2024-09-25 22:39:25.298043945,0,018,0.6744916832223938,-0.38957195863458893,0.20951476248789147,0.040145830996402954,0.90389918808597,-0.45496230825707745,0.5735169122755701,-0.08876679429326488,3
485,2024-09-25 22:39:25.365811035,0,018,0.690345176399114,-0.4009146674550146,0.3706785527326024,-0.012699458714701782,0.883445816057973,-0.45820930970897095,0.8006707370090209,-0.1448556252977557,3
486,2024-09-25 22:39:25.432001953,0,018,0.7034418753171563,-0.4114434536053011,0.5305706535016974,-0.06459553150458701,0.8579408607986402,-0.4595679140743568,0.9629789282721887,-0.19421543176193143,3
487,2024-09-25 22:39:25.501462891,0,018,0.7138616426651271,-0.4209090226219242,0.6848157773819212,-0.11356224063718552,0.827886057222924,-0.4589638545450666,1.0514307375283702,-0.23526182554589403,3
488,2024-09-25 22:39:26.434178955,0,018,0.7217726662466603,-0.4291036623392026,0.8281362526656357,-0.1577729188140978,0.7938301138926636,-0.45638989844074634,1.0621306957285759,-0.26696745656284343,3
489,2024-09-25 22:39:26.512577148,0,018,0.727373517874551,-0.43586497359025106,0.9546950592859104,-0.19571287470136609,0.7563098823577699,-0.4518991966899302,0.9963750145804098,-0.2889008960054463,3
490,2024-09-25 22:39:26.574171143,0,018,0.730819781110347,-0.44107227063190213,1.0585369415598944,-0.22633828968905337,0.7157721707015621,-0.44559083542795724,0.8603895169201083,-0.3012483970120111,3
491,2024-09-25 22:39:26.648157959,0,018,0.7321592454286162,-0.44463769254087065,1.1341497354112229,-0.2491985903800252,0.6725330829132532,-0.4375956523424854,0.6648379235234959,-0.3047984406453462,3
492,2024-09-25 22:39:26.713674072,0,018,0.731300136400717,-0.446497456813799,1.1770454732037134,-0.2644814744883083,0.6268276725092687,-0.42806967866106366,0.42424148847734167,-0.30088846422327786,3
493,2024-09-25 22:39:26.775204834,0,018,0.7280114739560748,-0.4466069491209116,1.1841706942929444,-0.2729566213120236,0.5789240725248,-0.4171932632344378,0.15625887830603935,-0.29130547798179757,3
494,2024-09-25 22:39:26.841831055,0,018,0.7219455312176457,-0.44493961362061046,1.154057776186581,-0.27583039992909325,0.5292118452592138,-0.40516720851830224,-0.11939142605300548,-0.27812572758630677,3
495,2024-09-25 22:39:27.764666016,0,018,0.7126898509718934,-0.44148840756907276,1.086817785666461,-0.2745546830347695,0.4782075164884198,-0.39220264408803496,-0.38246127500338195,-0.26351136883801607,3
496,2024-09-25 22:39:27.826685791,0,018,0.6998570553186219,-0.43626871096033265,0.9841562583779115,-0.270632491555899,0.42650145548704016,-0.37851073138927877,-0.614020722687867,-0.24950017068067035,3
497,2024-09-25 22:39:27.905451172,0,018,0.6831900419450907,-0.4293211281942888,0.8494747403566981,-0.26543983877004756,0.3747005717112069,-0.3642983814489837,-0.7983284388763591,-0.23780483800618815,3
498,2024-09-25 22:39:27.972513916,0,018,0.6626367710888179,-0.42071203144384056,0.6879086412317925,-0.2600698287682014,0.32338885217520563,-0.3497681104755159,-0.9243416617826237,-0.22962622193787696,3
499,2024-09-25 22:39:28.040981934,0,018,0.6383622931132128,-0.4105296621762605,0.5060928066283076,-0.255215660181755,0.2730923695820555,-0.33511544925383835,-0.9865423398187345,-0.22550049021206234,3
500,2024-09-25 22:39:28.108812012,0,018,0.6107053121153724,-0.39887546661257967,0.3116304767875007,-0.25112064406445905,0.22423650940884302,-0.3205212492620287,-0.9849700494396894,-0.22522621370167276,3
501,2024-09-25 22:39:28.165848877,0,018,0.580118075282933,-0.3858545684319126,0.11243963541637951,-0.24760621996599572,0.1771057535621611,-0.3061431766130763,-0.9245656123811722,-0.22791367217840544,3
502,2024-09-25 22:39:29.116377197,0,018,0.5471247252830479,-0.3715717367326455,-0.08384094621019476,-0.2441583081546452,0.13182471058471226,-0.2921119183478209,-0.814082074424923,-0.23214723576380297,3
503,2024-09-25 22:39:29.187227051,0,018,0.5122973284797447,-0.3561342478392231,-0.2702943482751064,-0.24004583991999426,0.08836416315650478,-0.2785319216485976,-0.6649383141106787,-0.2361937145046799,3
504,2024-09-25 22:39:29.240751953,0,018,0.4762190024721113,-0.33965496781209936,-0.44102355110761116,-0.23444792235204912,0.04656292565307825,-0.26548190651954656,-0.49035292104164374,-0.23817409146214144,3
505,2024-09-25 22:39:29.322762939,0,018,0.439420358100534,-0.32224969503746004,-0.5914070461349692,-0.22655575745378126,0.006159053664201033,-0.2530119964484812,-0.3048309758899471,-0.23614851485321225,3
506,2024-09-25 22:39:29.379512939,0,018,0.40231410434178433,-0.3040315782313011,-0.7183604417276607,-0.21563084899705542,-0.03317252110984774,-0.2411390371922285,-0.12379075727292368,-0.22813067645017396,3
507,2024-09-25 22:39:29.458385010,0,018,0.3651548739691849,-0.2851096202851548,-0.8204798653944775,-0.2010434273459249,-0.07178183100027716,-0.22984520602563463,0.036964169861256765,-0.21211027564432505,3
508,2024-09-25 22:39:29.526048828,0,018,0.32802260824134677,-0.2655938426835483,-0.8979669874311211,-0.18231824499117377,-0.11001189352584592,-0.21908282346747843,0.16209951419587776,-0.1861561885388347,3
509,2024-09-25 22:39:30.435919922,0,018,0.2908136349857988,-0.24560343473610893,-0.9524189239839911,-0.15918512477648056,-0.14816891703016155,-0.20878175874346314,0.2378969400404028,-0.14859715398743012,3
510,2024-09-25 22:39:30.512805908,0,018,0.2532391255176671,-0.22527293485203048,-0.9865459895419465,-0.13162935228387468,-0.18647738424035612,-0.19885520883817973,0.25345404717408676,-0.0982158425100847,3
511,2024-09-25 22:39:30.575576172,0,018,0.21485909718424256,-0.2047562700328349,-1.0037286119065159,-0.0999413290696787,-0.22501674995196427,-0.1892051438903664,0.20161208850182027,-0.034398535371528545,3
512,2024-09-25 22:39:30.648447998,0,018,0.17518172397517445,-0.18423316933630746,-1.007395773715275,-0.06474344794572703,-0.26366853593063166,-0.1797297038877574,0.07941883817953967,0.042775492236502496,3
513,2024-09-25 22:39:30.716259033,0,018,0.1338103579443148,-0.16391980586772395,-1.000410999733724,-0.02697339129575381,-0.30210379471736126,-0.17033081511913234,-0.11182486317022197,0.13248984707530048,3
514,2024-09-25 22:39:30.784113037,0,018,0.0905728806224649,-0.14407739502423944,-0.9846710960292104,0.012163127226625834,-0.33981388375305244,-0.1609184065237206,-0.36675124970105943,0.23317023038957563,3
515,2024-09-25 22:39:30.837882080,0,018,0.04558033328713024,-0.12500883813464092,-0.9609876267009911,0.051256473141586684,-0.3761719125324929,-0.15141013827325853,-0.6762102740479464,0.34247895455612487,3
516,2024-09-25 22:39:31.795018799,0,018,-0.0007808003470024147,-0.10704045441909654,-0.9292291180231267,0.08878992134580949,-0.4105092171645755,-0.14173021721921178,-1.0276600331830417,0.4573380992647482,3
517,2024-09-25 22:39:31.854375000,0,018,-0.04788345799612478,-0.0904964788759205,-0.8886710543265476,0.12327810587699424,-0.44218844674665575,-0.13181220670406882,-1.4057496382378942,0.5740030703665271,3
518,2024-09-25 22:39:31.930418945,0,018,-0.09490393836663816,-0.0756756353621177,-0.8384532587724283,0.15341332799520183,-0.47066169946546327,-0.12160604554280766,-1.7931404127131756,0.6882017276385461,3
519,2024-09-25 22:39:31.992002930,0,018,-0.14088873302738394,-0.062831541179269,-0.7779935936431832,0.17816808895154224,-0.4955172560489667,-0.1110853492376725,-2.1715347327380834,0.7953498809322899,3
520,2024-09-25 22:39:32.054489990,0,018,-0.1848475091260126,-0.05215337109592085,-0.7072441673673204,0.19683205667347792,-0.5165238093755805,-0.10025265604434946,-2.5228444942861183,0.8908516409073617,3
521,2024-09-25 22:39:32.134110107,0,018,-0.2258458805674262,-0.04374543716862263,-0.6268046559056015,0.20900230503209238,-0.5336759988989915,-0.08914258200897146,-2.8303749803283376,0.9704655011704098,3
522,2024-09-25 22:39:32.201899902,0,018,-0.26307264666923286,-0.03760954219398537,-0.538015251646597,0.21456253780682225,-0.5472361930511153,-0.0778228229852851,-3.0798407331891764,1.030674199339681,3
523,2024-09-25 22:39:33.145622070,0,018,-0.29588055787446543,-0.0336363598851385,-0.4431383678556943,0.2136815019963711,-0.5577518999964618,-0.06639413054380484,-3.260124577431595,1.0689933464005965,3
524,2024-09-25 22:39:33.210467041,0,018,-0.32380650558936014,-0.03161020981964759,-0.3455901692417006,0.2068359332001068,-0.5660211417971781,-0.05499144584499806,-3.363862881674325,1.0841878441428765,3
525,2024-09-25 22:39:33.272531982,0,018,-0.3465638799872916,-0.03122732757219843,-0.2500236226358512,0.19482780375305175,-0.5730008094648006,-0.04378531196326329,-3.3879131980216757,1.076378775509407,3
526,2024-09-25 22:39:33.334060791,0,018,-0.3639988090742953,-0.03212464473733775,-0.16205668927929576,0.17875068231101823,-0.5796802170788701,-0.03298026686921816,-3.3335399865884248,1.0470120082298358,3
527,2024-09-25 22:39:33.410234863,0,018,-0.3760163409167067,-0.03391694847326059,-0.08760992818826487,0.1598840223102859,-0.586938110701765,-0.022811126426303514,-3.206059387487713,0.9986699113219489,3
528,2024-09-25 22:39:33.472240967,0,018,-0.38249550209233957,-0.03624051439883671,-0.03204190934156103,0.13954040889630773,-0.5953920122904245,-0.013542366719149348,-3.013915618994271,0.9347580783647156,3
529,2024-09-25 22:39:33.551683838,0,018,-0.3832231986959101,-0.03879583323615175,0.0006483631511021594,0.11891686447403516,-0.6052664453050618,-0.005471767097170302,-2.767518169351845,0.8591534485434195,3
530,2024-09-25 22:39:34.487827881,0,018,-0.37787353301772975,-0.04137875685794319,0.008382043261819079,0.09898738169330606,-0.6163158885474038,0.0010672408041161418,-2.4782469440653823,0.7759005199266256,3
531,2024-09-25 22:39:34.549906006,0,018,-0.36603301223513746,-0.04389521353169388,-0.008732104135405639,0.08045049930026472,-0.6278074201036854,0.005709942266011881,-2.1577308077181327,0.6889778335580838,3
532,2024-09-25 22:39:34.627624023,0,018,-0.3472577459371072,-0.04636106847457516,-0.04840356166329683,0.06372914184199319,-0.6385457948773418,0.008073071907789631,-1.8172291261797302,0.6021006556740447,3
533,2024-09-25 22:39:34.689848877,0,018,-0.32115943806828806,-0.04888880409091822,-0.10635208470753663,0.04899879923787687,-0.646953170346309,0.007778079953035829,-1.467069732512777,0.5185425878469583,3
534,2024-09-25 22:39:34.751858887,0,018,-0.2875188116424372,-0.05166151527284622,-0.17660738294331088,0.036209487043919825,-0.6512363397006645,0.0044881322742897755,-1.1163581295709268,0.44100404511773794,3
535,2024-09-25 22:39:34.829062988,0,018,-0.246404073979281,-0.054897792801478766,-0.25192313380470066,0.02508877851433993,-0.6496275014989139,-0.0020438192024840466,-0.7730790135925826,0.371548545507422,3
536,2024-09-25 22:39:34.891551025,0,018,-0.19824864388516808,-0.05881709343027308,-0.3243736756050626,0.015154142978641278,-0.6406310413852115,-0.011926296538074291,-0.4443548279202408,0.3115804777130038,3
537,2024-09-25 22:39:35.845256104,0,018,-0.14384919119227593,-0.06361556764144038,-0.38614906531511184,0.005772459160556496,-0.6232154099910673,-0.025091689210036773,-0.1364962822843305,0.26182637700499833,3
538,2024-09-25 22:39:35.904156982,0,018,-0.08429411898958601,-0.06945205929098373,-0.43039956358275916,-0.003741287431937923,-0.5969223958782068,-0.04127853962391033,0.14532416242443974,0.222314371824667,3
539,2024-09-25 22:39:35.966156006,0,018,-0.020874314922197202,-0.07643556028565594,-0.45189555735574766,-0.014031714044539437,-0.5618822049593114,-0.060039500295619004,0.39765120719654146,0.19237146078430298,3
540,2024-09-25 22:39:36.042963135,0,018,0.04498474053997736,-0.08461142190797882,-0.4473897325541022,-0.025640860871948258,-0.5187341028087659,-0.08077692905983495,0.6191953395298208,0.17066881682354393,3
541,2024-09-25 22:39:36.105451904,0,018,0.1117643965061854,-0.09395339881512837,-0.4157030470401061,-0.038969851863564026,-0.468475927173065,-0.10280180320120855,0.8107839957176739,0.1553413807552784,3
542,2024-09-25 22:39:36.184052979,0,018,0.17787583367741372,-0.10436644611488252,-0.3575695396888006,-0.054260029169079925,-0.41229198425524394,-0.12540429787604923,0.9748642900201171,0.14416780692025605,3
543,2024-09-25 22:39:36.252201172,0,018,0.24168128757961393,-0.11569717257179887,-0.2753207910168332,-0.07158705071019239,-0.3514134060786261,-0.1479202730156817,1.1149722723836337,0.1347589003476637,3
544,2024-09-25 22:39:37.187030029,0,018,0.3015464224049381,-0.12774883518691316,-0.17258634215249127,-0.09084570984422136,-0.28703262736318785,-0.16978207930723885,1.2354860139329016,0.12471718560184485,3
545,2024-09-25 22:39:37.249066162,0,018,0.3559477549203852,-0.14030185918598523,-0.05412863586929404,-0.11171267535011101,-0.2202499804037169,-0.19055270182612982,1.3415962232990026,0.11177084754908018,3
546,2024-09-25 22:39:37.327308105,0,018,0.40361266542959956,-0.15313785020734003,0.07427136390804008,-0.1336115244843701,-0.15202284380787126,-0.2099486270242207,1.4391757707885884,0.09389946155695247,3
547,2024-09-25 22:39:37.388912109,0,018,0.4436375304467372,-0.16605972745566935,0.2060809959124492,-0.15572801617644905,-0.08311968142633663,-0.2278528330074015,1.534364747204007,0.06944445312082767,3
548,2024-09-25 22:39:37.466500977,0,018,0.47555507409083075,-0.17890415572843443,0.3345545809938506,-0.17710379224634976,-0.014104596513029732,-0.2443136744277611,1.6330292076491915,0.037173797420293475,3
549,2024-09-25 22:39:37.534375000,0,018,0.49936530963403686,-0.19155057251958346,0.453446524447212,-0.19678565543672968,0.0546381902416427,-0.25952794114209593,1.7403466430976082,-0.0037084826092727086,3
550,2024-09-25 22:39:37.602125977,0,018,0.5155415981750195,-0.2039315911470006,0.5576238448378193,-0.2139679672423792,0.12285519016061895,-0.273810772938655,1.8605394954511838,-0.053578695530802446,3
551,2024-09-25 22:39:38.520440186,0,018,0.5249933154097336,-0.21604288623808127,0.6433271853850095,-0.22807021536307415,0.19036137959196475,-0.2875533456243366,1.9965776870550203,-0.11240118535775838,3
552,2024-09-25 22:39:38.580733887,0,018,0.5289688336232674,-0.22794646099666485,0.7080564041725427,-0.23873974293423866,0.25696879613666096,-0.3011696829588365,2.1497400771821855,-0.1797079392549515,3
553,2024-09-25 22:39:38.642312988,0,018,0.5289120571329174,-0.23976243685670182,0.7502865415283204,-0.2458216801086576,0.32242916483204614,-0.31504208930705024,2.319130759134232,-0.2545477894267109,3
554,2024-09-25 22:39:38.723840088,0,018,0.5263104582998832,-0.2516497469918635,0.7692605839404575,-0.24933928137764227,0.3864298874814558,-0.3294787677894795,2.5013475061010455,-0.3354361115602016,3
555,2024-09-25 22:39:38.780955078,0,018,0.5225826839124756,-0.26378326404692204,0.7649729483576082,-0.24948386458363406,0.44865620850824367,-0.3446902091440344,2.690441101243652,-0.4203583845533892,3
556,2024-09-25 22:39:38.858589844,0,018,0.519029614881812,-0.2763351262098783,0.7383064069160732,-0.24659584322661435,0.5088744314209315,-0.3607798780344881,2.878212910956534,-0.5068596996221992,3
557,2024-09-25 22:39:38.927291992,0,018,0.5168215777999356,-0.28945852380195164,0.6912279028719431,-0.24114520503709963,0.5669579625550762,-0.3777388754338806,3.0548584125305447,-0.5922153335845617,3
558,2024-09-25 22:39:39.859581055,0,018,0.5169752536469695,-0.3032672433951918,0.6269656073312496,-0.23372773194030452,0.6228186091997618,-0.39543997861978863,3.209877623129963,-0.673651995540176,3
559,2024-09-25 22:39:39.931723145,0,018,0.5203029551063105,-0.3178114136960166,0.5501005341882311,-0.22506283828833784,0.6762933245099924,-0.4136386551748007,3.33300444083744,-0.7485686351317478,3
560,2024-09-25 22:39:39.994820068,0,018,0.5273443813239002,-0.33305700189489923,0.4664959807306789,-0.21596414798455993,0.7270759069732575,-0.4319911789042496,3.414894409940053,-0.81470010486869,3
561,2024-09-25 22:39:40.070995117,0,018,0.538293863208863,-0.3488745311326793,0.3830055773800878,-0.20727540125397337,0.7747291005985174,-0.45008870722601274,3.447552891222027,-0.870195567267941,3
562,2024-09-25 22:39:40.133479980,0,018,0.5529401430638294,-0.36503684130071007,0.3069491945245375,-0.19978459212182773,0.8187391951285494,-0.4674953808034184,3.4247081932473367,-0.9136307598344174,3
563,2024-09-25 22:39:40.195187988,0,018,0.5706469378215173,-0.38122403433999846,0.24536871670282442,-0.1941260218165997,0.8585613972748776,-0.4837780386779039,3.342304585493183,-0.9440003148428593,3
564,2024-09-25 22:39:40.275898926,0,018,0.5903917695140611,-0.397035360098974,0.204104641549336,-0.19067907236500956,0.8936317958011863,-0.49852087958535574,3.1990409447792487,-0.9607199098150762,3
565,2024-09-25 22:39:41.194689941,0,018,0.6108446800577139,-0.4120064374192248,0.18685860457115439,-0.18949542313090825,0.9233416224315396,-0.5113244518345266,2.9966868755255276,-0.9636355162477639,3
566,2024-09-25 22:39:41.253769043,0,018,0.6304535512073225,-0.42562614630710827,0.19453005778719787,-0.1902964035957153,0.9469814190112187,-0.5217939708655734,2.7400691656014127,-0.953037233351698,3
567,2024-09-25 22:39:41.315370117,0,018,0.6475313790166434,-0.43735004124853305,0.22504301637279178,-0.19254352779626407,0.9636865216514149,-0.5295272862196523,2.4369322757096614,-0.9296924027106744,3
568,2024-09-25 22:39:41.398147217,0,018,0.6603674569771002,-0.44661641325747514,0.27365840907329725,-0.19553978458870017,0.9724284965762209,-0.5341130626331398,2.097832053272451,-0.8948913134749986,3
569,2024-09-25 22:39:41.465949951,0,018,0.6673694084751591,-0.4528731409178866,0.33363095643126206,-0.19852390986371615,0.9720720128771642,-0.535142208649849,1.7358788942648598,-0.8504530598958331,3
570,2024-09-25 22:39:41.531550781,0,018,0.6672118603723848,-0.45561341130915595,0.3970679900706355,-0.200755635865146,0.9614825626132619,-0.5322284325636428,1.3660387695178489,-0.7986412082540096,3
571,2024-09-25 22:39:41.594038086,0,018,0.658958932192098,-0.4544104498529613,0.45585750290722266,-0.2016007026288713,0.9396573021862761,-0.5250331793909588,1.0039777161463925,-0.7419973540256082,3
572,2024-09-25 22:39:42.539355957,0,018,0.6421367141103297,-0.44894444293627167,0.5025315958841498,-0.20060672196605217,0.9058494186968968,-0.5132918057137565,0.6647260455779591,-0.6831413706326104,3
573,2024-09-25 22:39:42.602323975,0,018,0.6167390133989737,-0.4390199062914624,0.5309607209571671,-0.19755160139791322,0.8596665505907888,-0.4968389083988352,0.3614736611269422,-0.6245769589884153,3
574,2024-09-25 22:39:42.680367920,0,018,0.5831625023988879,-0.4245721692772463,0.5368175393455148,-0.1924553497597317,0.8011502823605078,-0.47563295642893544,0.1046913645515787,-0.5685227338090243,3
575,2024-09-25 22:39:42.740552979,0,018,0.5420940271674988,-0.40566178877444,0.51780898252409,-0.1855608754641682,0.730853752372448,-0.4497806695749354,-0.09836290560054392,-0.5167801204553815,3
576,2024-09-25 22:39:42.803039062,0,018,0.4943962298200683,-0.382458800329546,0.47372208384710485,-0.17729579278821472,0.6499046634591836,-0.4195554195314823,-0.24384757402669785,-0.47063004082875143,3
577,2024-09-25 22:39:42.882671143,0,018,0.4410381715436437,-0.3552234134839738,0.4063025163831848,-0.16821681691594656,0.5600165873884778,-0.38539911674972704,-0.33141013253976576,-0.4307390878332348,3
578,2024-09-25 22:39:42.941632080,0,018,0.38308764001385515,-0.32429216288866664,0.3189577569474759,-0.15893120311502645,0.46343826266180327,-0.3479042909340135,-0.3641257131136469,-0.3970863914972991,3
579,2024-09-25 22:39:43.894048828,0,018,0.3217382982661996,-0.29007399513991494,0.21630497984366961,-0.15000061234459863,0.3628659569049686,-0.3077840175658148,-0.34809937896217336,-0.3689608975385192,3
580,2024-09-25 22:39:43.956463135,0,018,0.2583316033699264,-0.2530525645498179,0.10360584916376207,-0.14184625653141758,0.26133078750519584,-0.2658376593322605,-0.29164370363577735,-0.3450604093181791,3
581,2024-09-25 22:39:44.030438965,0,018,0.19436456854828432,-0.2137887423330428,-0.013802619334948233,-0.13468805609331572,0.162047112526209,-0.22291413994621107,-0.20426361016957764,-0.3236728040181822,3
582,2024-09-25 22:39:44.098220215,0,018,0.13150007166626557,-0.17292107055678863,-0.13087315802510252,-0.12855016312339201,0.06822441400458223,-0.17987321082969968,-0.09576216087414881,-0.3029077818191361,3
583,2024-09-25 22:39:44.166027100,0,018,0.0715748755110401,-0.13116304173898655,-0.24290626391179057,-0.12332092377919607,-0.01712781283666542,-0.1375486394362335,0.024410584448552857,-0.2809545694922303,3
584,2024-09-25 22:39:44.233824951,0,018,0.01656612597253696,-0.08929326449525829,-0.3454628803581516,-0.11881283026793872,-0.09137640940611569,-0.09671891140080492,0.14759164991895754,-0.25631982874665027,3
585,2024-09-25 22:39:44.301675049,0,018,-0.03151659978475871,-0.04813286043849264,-0.4343514962981083,-0.1147894850344942,-0.1524013028506229,-0.0580900569611823,0.26617510646663645,-0.22798567142719145,3
586,2024-09-25 22:39:45.245017090,0,018,-0.07080475701943316,-0.008507926042529926,-0.5057222366867111,-0.11097280073023466,-0.19866283475448138,-0.022292955314081823,0.3737622376078543,-0.19545671730693875,3
587,2024-09-25 22:39:45.312364014,0,018,-0.09976492866761588,0.02879605268461216,-0.5561645077224401,-0.10705786661304426,-0.22919287193641286,0.01010725944638043,0.4651889314607918,-0.15870825942942335,3
588,2024-09-25 22:39:45.380624023,0,018,-0.11736085972148999,0.06307485486627006,-0.5827387325009377,-0.10275407469949543,-0.24355127408311641,0.03859699095637099,0.5363915243796207,-0.11807237391336212,3
589,2024-09-25 22:39:45.436354004,0,018,-0.12314419293485931,0.09373288799928209,-0.5829883240063544,-0.09785084367037687,-0.24179419013725972,0.06270369929142194,0.5841790722534618,-0.07410654132437239,3
590,2024-09-25 22:39:45.513521973,0,018,-0.11725677531835393,0.12029759205403821,-0.5550708380358952,-0.0922790539461624,-0.22446348129897187,0.08199640744862625,0.6061290807816805,-0.02748505249264711,3
591,2024-09-25 22:39:45.575583984,0,018,-0.10035488339398377,0.14242442334727606,-0.49809970590392794,-0.0861336497341032,-0.19257780544295874,0.09609989181901978,0.6007268293286366,0.021062321534475476,3
592,2024-09-25 22:39:45.636617920,0,018,-0.0734907287773487,0.15989426411428254,-0.4125846054469723,-0.07964732972606954,-0.14759607384737183,0.10471657898568247,0.5676174218661445,0.07075339553401967,3
593,2024-09-25 22:39:46.585362793,0,018,-0.03799389544992949,0.17260444698209526,-0.3007297802554856,-0.07312971288986328,-0.0913411438951539,0.10764724072901681,0.5077779425649188,0.12069908238286783,3
594,2024-09-25 22:39:46.662735840,0,018,0.00461616939031357,0.18055822988798853,-0.16647055639866173,-0.0668933116956726,-0.025911797677760386,0.10480934937426295,0.423496798646763,0.16982700731218445,3
595,2024-09-25 22:39:46.730532959,0,018,0.05267750387716481,0.18386095151893586,-0.015300598966481423,-0.061189158424786796,0.04638060071035234,0.09625767171374591,0.31807568431834016,0.21685980476648184,3
