,time,MARKER,pid,L_O_DSI,L_D_DSI,L_O_DSphi,L_D_DSphi,R_O_DSI,R_D_DSI,R_O_DSphi,R_D_DSphi,trial_id
0,2024-09-25 22:23:35.233375977,TASK_BEGIN,018,0.8909221237421343,-0.3323416915565048,-1.3695912543913322,0.22081664032687326,1.50920701626286,-0.3372321476719,1.2000912129505237,0.21587576649442114,1
1,2024-09-25 22:23:35.288506104,0,018,0.9088519777622686,-0.33496335200691024,-1.3939787549487335,0.21357089085357378,1.51990779818882,-0.3481776745696704,1.177844335002533,0.177872865984541,1
2,2024-09-25 22:23:36.219284912,0,018,0.9301416385007221,-0.33704451150312,-1.4599884805904406,0.21832651858608546,1.5255238640702327,-0.35825698106943,1.1686937887804756,0.1388186658669492,1
3,2024-09-25 22:23:36.276042969,0,018,0.9548681841659771,-0.3389869273346459,-1.5594504352235492,0.23408684295362317,1.5262580090702655,-0.36764300089210733,1.1683258541265984,0.10121589495619823,1
4,2024-09-25 22:23:36.354985107,0,018,0.9828430987428117,-0.34119811550576895,-1.6832762510539705,0.2593309150821227,1.522489163018185,-0.3764471842842007,1.1731478699867675,0.06741027509612957,1
5,2024-09-25 22:23:36.422776855,0,018,1.013603064724262,-0.3440686057440469,-1.821919528786131,0.29212581099984664,1.51476744481581,-0.38471357713890303,1.1804185149970174,0.03940283751015855,1
6,2024-09-25 22:23:36.478728027,0,018,1.046407388619186,-0.34794498836340454,-1.9658666590607867,0.33027110345750876,1.5038078399231245,-0.39242829536655754,1.188262968641656,0.01871988882653459,1
7,2024-09-25 22:23:36.558415771,0,018,1.0802475484209284,-0.3531003833976833,-2.1061433745798803,0.3714486940396451,1.490448022497436,-0.3995343614148268,1.1957135767238982,0.006316478305082486,1
8,2024-09-25 22:23:36.626228027,0,018,1.1138845487384412,-0.35970544934073223,-2.2347705384110106,0.41335953618145665,1.475564868640005,-0.40594252237071327,1.2028219151329604,0.0024965911360273437,1
9,2024-09-25 22:23:37.569312988,0,018,1.1459391043084088,-0.36780674734800956,-2.3450840587282364,0.4538393784842624,1.4599789208805498,-0.4115369965600063,1.2107383317341611,0.006869260826906693,1
10,2024-09-25 22:23:37.633160156,0,018,1.1750383993766012,-0.3773206105030973,-2.4318551893301428,0.4909485505753226,1.4443716938580526,-0.4161802125698229,1.2216064236555597,0.01837607565545985,1
11,2024-09-25 22:23:37.695229004,0,018,1.1999785759218198,-0.38804487253308656,-2.4912546342173836,0.5230365008443013,1.4292174411080896,-0.4197190668842071,1.2382558149935576,0.0354001803203879,1
12,2024-09-25 22:23:37.772463135,0,018,1.219841811398469,-0.3996821389901903,-2.5207863943296296,0.5487873811887738,1.414723301146625,-0.4219919656067353,1.263826135370075,0.05593615482648853,1
13,2024-09-25 22:23:37.834482910,0,018,1.2340390621540311,-0.4118663943615748,-2.5192689708981644,0.5672509591516283,1.4007799555120377,-0.42283537984196795,1.3014505170715163,0.07779008242031547,1
14,2024-09-25 22:23:37.908411133,0,018,1.242299254403048,-0.4241896963848107,-2.4868906057445623,0.5778676435070664,1.3869372873102566,-0.422090332981123,1.3539987040947867,0.0987800529226795,1
15,2024-09-25 22:23:37.976259033,0,018,1.2446395551265999,-0.4362290719662308,-2.4253564992714383,0.5805012551956658,1.3724211541293163,-0.4196093668420738,1.4238137295687923,0.11691189727782245,1
16,2024-09-25 22:23:38.917214111,0,018,1.2413242970650544,-0.4475714292346781,-2.338063142973487,0.5754684448281541,1.3561989482682297,-0.4152647676779502,1.5124639321460671,0.13051604759674068,1
17,2024-09-25 22:23:38.970258056,0,018,1.232797407339712,-0.4578310069074995,-2.2301284780958612,0.5635199292819696,1.3370951353188172,-0.40896068192501006,1.6205854802384498,0.1383471154099462,1
18,2024-09-25 22:23:39.046922119,0,018,1.2195914141083823,-0.466656571423495,-2.10811766195425,0.5457418703773799,1.3139473222452058,-0.4006500939977783,1.7477655449894431,0.139661450366313,1
19,2024-09-25 22:23:39.120628174,0,018,1.2022482079066805,-0.473732619173078,-1.9794248229332039,0.5233947814290187,1.2857786727163723,-0.39035359464793307,1.8923264717057768,0.1342861940113194,1
20,2024-09-25 22:23:39.188399902,0,018,1.1812813004038338,-0.4787819245558027,-1.8514124707491304,0.4977316527767586,1.251959002672011,-0.3781759105534012,2.0510243284342837,0.12266457765396294,1
21,2024-09-25 22:23:39.248135986,0,018,1.1571735996786208,-0.4815740702896137,-1.7305293813410654,0.4698349101321732,1.2123311616472296,-0.3643160152273277,2.2188725368888393,0.10583275671426683,1
22,2024-09-25 22:23:39.310250977,0,018,1.130390062074882,-0.4819410423809851,-1.621686986678253,0.4405156889805537,1.1672776330658103,-0.34906537616699146,2.3892503803834115,0.08530037180864838,1
23,2024-09-25 22:23:40.255779053,0,018,1.101402048085114,-0.47979831132213996,-1.5280887584660747,0.4103090186425126,1.11770303863971,-0.332790195129016,2.5542471142855567,0.06286126479482995,1
24,2024-09-25 22:23:40.336414062,0,018,1.0707277537326776,-0.47516619981986546,-1.4514888888855018,0.3795545506955079,1.0649282279774148,-0.3158985591826242,2.705153212901502,0.040389914717592304,1
25,2024-09-25 22:23:40.401259033,0,018,1.0389702810054913,-0.4681835637848682,-1.392664296305924,0.3485120723270805,1.0105204516905777,-0.2987993543779658,2.8331580880321563,0.019658363440083503,1
26,2024-09-25 22:23:40.470906982,0,018,1.0068158188619298,-0.45910742988955866,-1.3518437803782957,0.3174595689387555,0.9560968507472166,-0.2818626019035523,2.9302639609099264,0.002184263771976832,1
27,2024-09-25 22:23:40.539882812,0,018,0.9749721427768749,-0.4482966701729374,-1.328952687103615,0.2867474227115725,0.9031343944494016,-0.26538812062777,2.9901108501507845,-0.010867692582380116,1
28,2024-09-25 22:23:40.607249023,0,018,0.9440694691710019,-0.4361822953521069,-1.3236791033163806,0.2568061035769977,0.8528176628303589,-0.2495852491331107,3.0083496299736536,-0.01869976629001082,1
29,2024-09-25 22:23:40.675504882,0,018,0.9145734661237133,-0.4232308051707635,-1.3354194893118274,0.22811519061760557,0.8059569108032656,-0.23456570657786618,2.9825855121454947,-0.020825204030784906,1
30,2024-09-25 22:23:41.618625000,0,018,0.8867530900467026,-0.409907929348035,-1.363140382492053,0.20114992091936354,0.7629902295091727,-0.22035055706584455,2.9122084109826734,-0.01701221329797572,1
31,2024-09-25 22:23:41.686445068,0,018,0.860712826329377,-0.39664701895288845,-1.405191989398556,0.17633187689802088,0.7240480114435484,-0.20688778531273175,2.7982749910328324,-0.007271217362137015,1
32,2024-09-25 22:23:41.754295898,0,018,0.8364615821278512,-0.38382230948553503,-1.4591580831312199,0.15400740234479784,0.6890375154224133,-0.19407408745480006,2.643354173229305,0.008143448045574774,1
33,2024-09-25 22:23:41.817194092,0,018,0.8139729805576806,-0.3717254703074425,-1.5218574264558369,0.1344570586046926,0.6577163872243066,-0.18177556407004236,2.4513006315835493,0.02874587022268028,1
34,2024-09-25 22:23:41.876115967,0,018,0.793210058011824,-0.36054588492771383,-1.5895344947059498,0.11792103038718789,0.6297551835884564,-0.16984541837729228,2.227108633278117,0.05382175941770878,1
35,2024-09-25 22:23:41.957750977,0,018,0.7741240211667153,-0.3503592611510236,-1.6581574092915854,0.10462239969924964,0.6048056681109963,-0.1581401847953796,1.9769552093390859,0.08240204438179223,1
36,2024-09-25 22:23:42.025624023,0,018,0.756652659375482,-0.3411309413447968,-1.7237412452661074,0.09478051440485488,0.5825692778089389,-0.14653685562476781,1.7083271270863492,0.11323366021856514,1
37,2024-09-25 22:23:42.957082031,0,018,0.7407299159712996,-0.33273718466380686,-1.7827058219855798,0.0886177755799526,0.5628354388960222,-0.13495150139015155,1.4300170474123683,0.14479607965685157,1
38,2024-09-25 22:23:43.036448975,0,018,0.726298502551927,-0.32499987365920985,-1.832286661675718,0.08636080254802216,0.5454760963891186,-0.12335702844007741,1.1518604376733388,0.1753887706716034,1
39,2024-09-25 22:23:43.097404053,0,018,0.7133097103126026,-0.3177220157630993,-1.870924899074224,0.08822690577968115,0.530409615362764,-0.1117938468822108,0.8842771333491032,0.20326300815134082,1
40,2024-09-25 22:23:43.172183105,0,018,0.701699825646285,-0.3107120329825758,-1.8984949683454233,0.0943875801565843,0.5175451179927749,-0.10036460720945116,0.6377693563539569,0.2267433726411455,1
41,2024-09-25 22:23:43.239623047,0,018,0.6913504314807961,-0.3037956888443292,-1.9162751798123732,0.10491361180020996,0.506714140274705,-0.08920864971629647,0.4223832153490185,0.24432114588393997,1
42,2024-09-25 22:23:43.307764160,0,018,0.6820605104511223,-0.2968244931224742,-1.9266937440443719,0.11971596125402631,0.4976123903200114,-0.07846426860680211,0.24700004664726422,0.25474967977524804,1
43,2024-09-25 22:23:43.375623047,0,018,0.6735540082908829,-0.2896880064224638,-1.9329826921284485,0.13849873722598083,0.48978443251808174,-0.0682361816508983,0.11848341124028604,0.25715580933964693,1
44,2024-09-25 22:23:44.293225098,0,018,0.6655130110924594,-0.28232666761401026,-1.9388480214863435,0.16074426907497602,0.4826679530366648,-0.058581222841509996,0.04098108345116761,0.25112821053918677,1
45,2024-09-25 22:23:44.352058838,0,018,0.657608115699566,-0.27473483812674426,-1.948138757090367,0.1857480436712292,0.47568376555494096,-0.04951252991459445,0.01566503464210048,0.23673340403911466,1
46,2024-09-25 22:23:44.428857178,0,018,0.649518501529025,-0.2669505342715412,-1.9644468457772357,0.21270197859287346,0.4683343957634726,-0.04101361625995755,0.040931052197546135,0.21445745600972124,1
47,2024-09-25 22:23:44.493401123,0,018,0.6409537421361365,-0.2590397036099615,-1.9906741051706642,0.24080007327387687,0.46026604202959764,-0.03305225258441262,0.11288968870679446,0.1851189778988259,1
48,2024-09-25 22:23:44.564420898,0,018,0.6316765301375021,-0.25108304185291774,-2.028682492692608,0.26932844474599077,0.45126004741615916,-0.0255872503340296,0.2258996708667406,0.14980654295419285,1
49,2024-09-25 22:23:44.632191895,0,018,0.6215123883705955,-0.24316578487973536,-2.0790766029573016,0.297711165358075,0.44115567059167865,-0.018566613254728158,0.37287905370354857,0.10987302910718165,1
50,2024-09-25 22:23:44.699572998,0,018,0.6103475204382606,-0.2353695771929613,-2.141056557853205,0.3255041514585856,0.42974255286798846,-0.011920440882750783,0.5452865110597217,0.06698925569574243,1
51,2024-09-25 22:23:45.643848877,0,018,0.5981363739497344,-0.22776996272571862,-2.2122509843196747,0.35233883466998606,0.4166681313221228,-0.005554716025383713,0.7329712721410936,0.023218271199287863,1
52,2024-09-25 22:23:45.711746094,0,018,0.5849331725876341,-0.2204434876469616,-2.288538652051445,0.3778241759333959,0.40138752271705036,0.0006481398730109295,0.9242986739326973,-0.018971172166043104,1
53,2024-09-25 22:23:45.775738037,0,018,0.5709287154108204,-0.21348178007133056,-2.3640167814773063,0.40144017303086316,0.3831585016134252,0.006820727451968816,1.1068326742546657,-0.05682806173718173,1
54,2024-09-25 22:23:45.846448975,0,018,0.5564575306442802,-0.20700290830417892,-2.431293341534224,0.4224719712393726,0.3610694423642669,0.013098187184325089,1.268491192641743,-0.08758369040088414,1
55,2024-09-25 22:23:45.901559082,0,018,0.5419688924496814,-0.20115126788227908,-2.482145840597426,0.44001408313107754,0.3340963917554975,0.01960558724407028,1.3988462009228693,-0.1087921239406226,1
56,2024-09-25 22:23:45.983037842,0,018,0.5279904637590086,-0.19608558079442462,-2.5084816142404507,0.4530493301135207,0.30119205569697416,0.026446837398277086,1.490227399811573,-0.11866209384807212,1
57,2024-09-25 22:23:46.050902100,0,018,0.5151064702634256,-0.19196152157386032,-2.5034860191994737,0.46059920715615305,0.2613959767811555,0.03369640431122266,1.5383995902401548,-0.11631043151523812,1
58,2024-09-25 22:23:46.968846924,0,018,0.5039379901104111,-0.1889151003345974,-2.4627176985089267,0.4619206254612945,0.2139507512467954,0.04139178682651814,1.5427653529609433,-0.10189817157306275,1
59,2024-09-25 22:23:47.035528809,0,018,0.4951027561498325,-0.1870485954624952,-2.3847856808810852,0.4566809723212909,0.15842534338093092,0.049521442101612904,1.5061600797369743,-0.07663191388398856,1
60,2024-09-25 22:23:47.104469971,0,018,0.4891572729449885,-0.1864193478750044,-2.2713615822932356,0.4450360080882767,0.09485137838015228,0.05800866133839499,1.4343092893330533,-0.04262238890560122,1
61,2024-09-25 22:23:47.172243896,0,018,0.4865471256846205,-0.18703352211662772,-2.126621424256227,0.4275978100180896,0.023856190242898385,0.06670112731726058,1.3350286933103683,-0.0026224761087966716,1
62,2024-09-25 22:23:47.240087891,0,018,0.4875864437309806,-0.18884809614910125,-1.9564717431974228,0.4053487232593627,-0.05324283636043166,0.07537426186221453,1.217266434479475,0.040301958490383726,1
63,2024-09-25 22:23:47.307927002,0,018,0.4924637965342693,-0.1917821868412027,-1.7678463338169,0.3795488545820304,-0.13441111534999176,0.0837455753429087,1.0901080617563867,0.0831163191779924,1
64,2024-09-25 22:23:47.375754150,0,018,0.5012486143349577,-0.19573286968972378,-1.5680868757710256,0.3516288600249634,-0.21695070423034707,0.09149271282228824,0.9619013722910541,0.12313243230978858,1
65,2024-09-25 22:23:48.313288086,0,018,0.5138727327926629,-0.2005863904058065,-1.3643446360679847,0.3230542512201831,-0.29763684983614463,0.09827248734740965,0.8396110830709955,0.15825397425565133,1
66,2024-09-25 22:23:48.386825195,0,018,0.5300940541166359,-0.2062204398658576,-1.1631272816377063,0.29519360841919423,-0.37292376453622184,0.10374108121255932,0.728400433053982,0.18713128025529943,1
67,2024-09-25 22:23:48.454700928,0,018,0.5494768397834875,-0.2125026256463976,-0.970165933172661,0.269235063602495,-0.43920031444571284,0.10757532638001426,0.6313781354440551,0.20922687170799426,1
68,2024-09-25 22:23:48.522483154,0,018,0.5714081003007319,-0.21929179901754794,-0.7905611800737481,0.24615403184527535,-0.4930725283455946,0.10949494068961227,0.5494386494254019,0.22479651362999215,1
69,2024-09-25 22:23:48.590300049,0,018,0.5951353407726038,-0.2264416234644785,-0.6289909457244602,0.2266997226291075,-0.5316310223391224,0.10928254182264957,0.48114646430059776,0.23479456602231039,1
70,2024-09-25 22:23:48.650771973,0,018,0.6198034524264125,-0.23380182960257453,-0.4897951119242329,0.21137009411527657,-0.5526574892933768,0.10679515025531017,0.422731080226156,0.24072428559351083,1
71,2024-09-25 22:23:48.717180908,0,018,0.6444927152326546,-0.2412172448816443,-0.37687479235510557,0.2003658413038813,-0.5547499873702192,0.10196480778690359,0.368393853368888,0.24444580869291338,1
72,2024-09-25 22:23:49.669011963,0,018,0.668280083467435,-0.24852996992853968,-0.2934146513996972,0.19353008656903434,-0.5373683122349111,0.09479163915520902,0.3110732538554123,0.24793607804180384,1
73,2024-09-25 22:23:49.728575928,0,018,0.6903256258959021,-0.25558798278187866,-0.24144989220002924,0.19028757730488527,-0.5008148558634767,0.08533398136333287,0.24357574785628103,0.25300300226504346,1
74,2024-09-25 22:23:49.804704102,0,018,0.7099452795770185,-0.2622564667572861,-0.22138096128972687,0.18960930592899644,-0.4461794100877608,0.07370014567302763,0.15979190264724977,0.26098989300260206,1
75,2024-09-25 22:23:49.872494873,0,018,0.7266296417571452,-0.2684252784562406,-0.23167391386603498,0.19004984086944382,-0.3752673057519605,0.06004586944323894,0.05572409298725799,0.2725373136586904,1
76,2024-09-25 22:23:49.928719971,0,018,0.7400117665597531,-0.2740100767952758,-0.2689408232815147,0.18989671211605266,-0.29051157445070436,0.04457881238527115,-0.06981750270515255,0.287468347922299,1
77,2024-09-25 22:23:50.005023926,0,018,0.7498218631496155,-0.2789494299993562,-0.32835875513174223,0.1874117540362603,-0.19487114665255106,0.027567445714056515,-0.21490562915606448,0.304825797665989,1
78,2024-09-25 22:23:50.066614014,0,018,0.7558604193736571,-0.283200912448668,-0.40425420245660737,0.18109756932595664,-0.09172559952085083,0.009348530520823226,-0.3746411172724956,0.32304866229006296,1
79,2024-09-25 22:23:51.019702881,0,018,0.7579947024324456,-0.28673800889599865,-0.49071839776292764,0.16993330153537792,0.0152317130100064,-0.009672834507960571,-0.5418331211682114,0.34025146639986265,1
80,2024-09-25 22:23:51.083666992,0,018,0.7561758075802221,-0.2895496816043068,-0.5821177116680787,0.1535401194741915,0.12211855840537371,-0.029034449186124363,-0.7081920115968459,0.35455197538630256,1
81,2024-09-25 22:23:51.155365967,0,018,0.7504838663455898,-0.2916453725172705,-0.673348077672253,0.1322334807397451,0.22502455085460918,-0.04824018690974281,-0.8657970224086645,0.36437792673309155,1
82,2024-09-25 22:23:51.223153076,0,018,0.741202356168318,-0.29306705761651114,-0.7598246445189005,0.10694187538016593,0.32020004997407125,-0.06679048268698828,-1.0084432026221426,0.36869089281149925,1
83,2024-09-25 22:23:51.284034912,0,018,0.72888885432293,-0.29390368913031373,-0.8373832805634643,0.07902169761487714,0.40423363435796983,-0.08421031563452774,-1.132517658054653,0.3670996629381647,1
84,2024-09-25 22:23:51.346520020,0,018,0.7143867813456917,-0.29429559827673135,-0.9022694963775845,0.050025617292488084,0.47417910592457,-0.10006692533204493,-1.237245882812423,0.3598728586379328,1
85,2024-09-25 22:23:51.426611816,0,018,0.6987499020362332,-0.2944181085528559,-0.9512262628556908,0.021470828792367,0.5276373193004263,-0.11397907297365333,-1.324377081054472,0.3478821314655701,1
86,2024-09-25 22:23:52.369233887,0,018,0.6831101636420509,-0.2944468523443463,-0.9815701605176466,-0.005373103760693486,0.5628349923117077,-0.12562639098628542,-1.397546238466504,0.33251107015986586,1
87,2024-09-25 22:23:52.437094971,0,018,0.6685448765991584,-0.2945182874686554,-0.9911815600448901,-0.029669540811483718,0.5787279515316509,-0.13476517298478485,-1.4615495863836026,0.3155478404352071,1
88,2024-09-25 22:23:52.499623047,0,018,0.6559678128213172,-0.2946973820006854,-0.9784471001595317,-0.05114846058826919,0.5751130393521363,-0.1412496688964646,-1.5216240435296238,0.2990508959496126,1
89,2024-09-25 22:23:52.572710938,0,018,0.6460369058220303,-0.2949572081008139,-0.9422332388289129,-0.07014221219844322,0.5526956515609697,-0.14505030030593208,-1.582690997637187,0.2851647290448974,1
90,2024-09-25 22:23:52.640515136,0,018,0.6390833540036635,-0.2951715403928648,-0.8819420421520351,-0.08749311771347103,0.5130545631067541,-0.1462573913821619,-1.6485215996196305,0.27587742288137274,1
91,2024-09-25 22:23:52.700393066,0,018,0.6350846473741428,-0.29511994179478435,-0.7976957900194268,-0.10434986753373093,0.45849726845756716,-0.14506680862097607,-1.7208779316074636,0.272740740224919,1
92,2024-09-25 22:23:52.762876953,0,018,0.6336864968870016,-0.2945025919694613,-0.690667965635972,-0.12190543164102602,0.3918662617392136,-0.14175694103018524,-1.7988051934553588,0.2766034145322214,1
93,2024-09-25 22:23:53.719302979,0,018,0.6342531330075107,-0.29296153518647383,-0.5634710946670333,-0.14113198160853088,0.31635986951977096,-0.1366694157553615,-1.878307614795878,0.28741992877682865,1
94,2024-09-25 22:23:53.776541992,0,018,0.6359258635074038,-0.2901049752498954,-0.4204403364140454,-0.16255368284366653,0.23537999242240137,-0.13019603875627056,-1.9525280905524514,0.30417678860212555,1
95,2024-09-25 22:23:53.854951904,0,018,0.6376881981704776,-0.28553116826809705,-0.2676919995449539,-0.18609271797238086,0.15239353676145134,-0.12276617060782921,-2.012348940004211,0.32495098343885537,1
96,2024-09-25 22:23:53.916357910,0,018,0.6384508950334261,-0.2788530884965681,-0.11291601367659633,-0.211019420903126,0.07081020572662991,-0.11483061991542134,-2.0472428843424746,0.3470968857571612,1
97,2024-09-25 22:23:53.990608887,0,018,0.6371630447935489,-0.2697301476145935,0.03508736689932832,-0.23600974597032276,-0.006117487985165293,-0.10684362348965905,-2.0462433786651477,0.3675280211148415,1
98,2024-09-25 22:23:54.058415039,0,018,0.6329244949658542,-0.25790810866449587,0.16707760944594213,-0.2592801058203182,-0.07538591078173831,-0.09924622148845925,-1.9989994333575947,0.38303582844544404,1
99,2024-09-25 22:23:54.118062012,0,018,0.6250564375609864,-0.2432571476642449,0.274136015223726,-0.27876113542379044,-0.13434099031414987,-0.09245140236358972,-1.8969489184001727,0.39060427702194567,1
100,2024-09-25 22:23:55.043761963,0,018,0.6131118969681825,-0.22579494775271747,0.3483655296892034,-0.2922853736173001,-0.18078921604013365,-0.0868276745783049,-1.7345541061036824,0.38771013030377544,1
101,2024-09-25 22:23:55.111607178,0,018,0.5968519809037449,-0.2056904933571349,0.383466370848608,-0.29778771686196165,-0.21310987509690169,-0.08267883820821956,-1.510360929537454,0.3725992639789477,1
102,2024-09-25 22:23:55.169892090,0,018,0.5762257828152504,-0.18325516555316448,0.37526945031587083,-0.29353391554864733,-0.2303554598005498,-0.08022321545315798,-1.2276147023112798,0.3445075165242279,1
103,2024-09-25 22:23:55.246902100,0,018,0.5513629720110619,-0.15892955372341486,0.3222657479680208,-0.278368642085551,-0.23232095111981768,-0.07957879467751945,-0.8943359489563232,0.30378510170930945,1
104,2024-09-25 22:23:55.314956055,0,018,0.5225622305717379,-0.13326774314992174,0.2259592211786433,-0.2519224562020517,-0.219562238189113,-0.08075792981497518,-0.522942580598257,0.2519019615866753,1
105,2024-09-25 22:23:55.382733887,0,018,0.4902639724547915,-0.10691552328665926,0.09082227324598942,-0.21470392074322253,-0.19335626873590897,-0.08367016362218603,-0.12954644318661335,0.19133692309090602,1
106,2024-09-25 22:23:55.450607178,0,018,0.455013106181507,-0.08057985531558697,-0.0761494862827389,-0.1680517280015084,-0.1556077485846992,-0.08813086911252853,0.26706065300919923,0.12535550124273645,1
107,2024-09-25 22:23:56.391097168,0,018,0.4174247659573021,-0.054992029645748314,-0.2661053570396303,-0.11397050501869924,-0.1087119176944472,-0.09387590709346635,0.6468166971754814,0.05768348912258325,1
108,2024-09-25 22:23:56.453584961,0,018,0.3781594314650088,-0.030871856453446495,-0.46911448831033964,-0.054882042088810624,-0.05538933951623326,-0.1005822847641293,0.9901214661671057,-0.00786712768216193,1
109,2024-09-25 22:23:56.529160889,0,018,0.3378981127751463,-0.008899753061023388,-0.6750221492529407,0.006667195345688777,0.0014846638108558753,-0.1078918959491099,1.2795067350646872,-0.06771524314506139,1
110,2024-09-25 22:23:56.596981934,0,018,0.2973016795609666,0.010302624049791072,-0.8742688835248554,0.06826805378817576,0.05903462076308307,-0.11543381896342288,1.5008108240703222,-0.11870196430058103,1
111,2024-09-25 22:23:56.654284912,0,018,0.25695650586591345,0.026187305169021576,-1.0584656992914803,0.12780506771123706,0.11450751686913445,-0.12284085100009234,1.6437136256987044,-0.15817375189311997,1
112,2024-09-25 22:23:56.730968018,0,018,0.2173299130406487,0.03829270796624139,-1.2206476472294991,0.1834904033671487,0.16535523907821606,-0.12975758318277628,1.7018161317665779,-0.18402409629452018,1
113,2024-09-25 22:23:56.800471924,0,018,0.17875381547131053,0.04625246401886436,-1.35532266687841,0.23381846217881339,0.20928229173689622,-0.13584073368229393,1.6726075727480592,-0.1947557969250136,1
114,2024-09-25 22:23:57.719053955,0,018,0.14143069966828642,0.049801025700689054,-1.4584483624214515,0.27749606376931674,0.2442723265991627,-0.14075552960569052,1.5575987830920242,-0.1895889246345392,1
115,2024-09-25 22:23:57.786883057,0,018,0.10544386887538999,0.04878312135499008,-1.5273571149852083,0.31338170948866606,0.26860971800527805,-0.1441736472357561,1.362593713240137,-0.16858144724030613,1
116,2024-09-25 22:23:57.854692871,0,018,0.07077042937806986,0.04317243592015069,-1.5606383132599129,0.34045224163427784,0.28092177329667206,-0.1457795588063106,1.097762209199758,-0.13268913521375064,1
117,2024-09-25 22:23:57.914372803,0,018,0.03731184658174873,0.033093949634125486,-1.5580528012422212,0.35781232055353135,0.2802548946161545,-0.14528836151443889,0.7772262620690923,-0.08372019037276555,1
118,2024-09-25 22:23:57.976385010,0,018,0.004939253921264315,0.01883843202956907,-1.5205076900233347,0.36475027129026566,0.26614901474019204,-0.14246767451459236,0.41816956156605256,-0.024203324369004162,1
119,2024-09-25 22:23:58.058145996,0,018,-0.026470618089864537,0.0008631470157354366,-1.4500205403084658,0.3608235737234256,0.23865585089686994,-0.1371510528155524,0.039637910467257544,0.0427964327890227,1
120,2024-09-25 22:23:58.115847900,0,018,-0.05702131445836845,-0.02021792028434508,-1.34959580121072,0.3459443284349276,0.19829441250030472,-0.12923824516600374,-0.3387937420009981,0.11389703270486505,1
121,2024-09-25 22:23:59.063205078,0,018,-0.08679461051911766,-0.043647774036588954,-1.2229834374242776,0.32043192675023396,0.1459873111950702,-0.1186896008733559,-0.6982660545469024,0.1856236904249584,1
122,2024-09-25 22:23:59.125225098,0,018,-0.11584101514628636,-0.06854375799447843,-1.0743520492381915,0.28501125401823074,0.08302178711222533,-0.10552627613699839,-1.0215899308074061,0.2545946291291869,1
123,2024-09-25 22:23:59.201916992,0,018,-0.1441469012053805,-0.09392609845421226,-0.9079753013410117,0.24076359333971104,0.011045830205127857,-0.08984165532411409,-1.2939090371730109,0.31766230066854356,1
124,2024-09-25 22:23:59.271989990,0,018,-0.17158603097459996,-0.11876358107406085,-0.728023598019348,0.18906109762077128,-0.06792404387450218,-0.07181905788345341,-1.5032081071644,0.3720427719037056,1
125,2024-09-25 22:23:59.339790039,0,018,-0.1978865374674067,-0.1420336548104939,-0.5384965577785802,0.1315114815562803,-0.15151915557359968,-0.051745425439338695,-1.640738425982992,0.4154458142210002,1
126,2024-09-25 22:23:59.407601074,0,018,-0.22263284227452232,-0.16278930193586796,-0.34330868991473285,0.0699167198828345,-0.23708328104344303,-0.03001321815883477,-1.7013785466272409,0.4461838856221019,1
127,2024-09-25 22:23:59.462801025,0,018,-0.24529703766229743,-0.18022461162832515,-0.14649422006661067,0.0062278814338719984,-0.3217818648288659,-0.007109223166595037,-1.68393540780835,0.4632397779231612,1
128,2024-09-25 22:24:00.416885986,0,018,-0.26529664286048416,-0.1937297474128508,0.047594260420292286,-0.057526222652373726,-0.4027267428565116,0.016406207342665735,-1.5912300041082694,0.4662804866615188,1
129,2024-09-25 22:24:00.486510986,0,018,-0.28208240170757776,-0.20292617797838272,0.2342374852543517,-0.11933973158383976,-0.47709507994229067,0.03992595279126288,-1.4297112409668948,0.4556108927364176,1
130,2024-09-25 22:24:00.540466064,0,018,-0.2952343247349273,-0.20767824129224177,0.40850171408788183,-0.1773383291546061,-0.5422552651586832,0.0628290224994569,-1.208599008012176,0.432089799621693,1
131,2024-09-25 22:24:00.622081055,0,018,-0.30451769535093115,-0.20808353728715795,0.565518146165853,-0.22986648402720225,-0.5959236017667304,0.08452090612805366,-0.9389194427703176,0.3970501552560126,1
132,2024-09-25 22:24:00.680257079,0,018,-0.3098672828717565,-0.2044487609844636,0.700775857244868,-0.27553730848648184,-0.6363495823116299,0.10447786528614604,-0.6328283707565153,0.35224513096287247,1
133,2024-09-25 22:24:00.742269043,0,018,-0.3113144001044984,-0.19725807986309096,0.8103909334089422,-0.31325220132560755,-0.6624971762739457,0.12228636478016817,-0.3032803676124764,0.2998039861976731,1
134,2024-09-25 22:24:00.821354004,0,018,-0.30891040312533047,-0.1871358864105597,0.8913803675068227,-0.3422072338371896,-0.6741807799664746,0.13766984286115186,0.03622434705508582,0.24215367074358668,1
135,2024-09-25 22:24:01.768780029,0,018,-0.3027042492829574,-0.17479914687776682,0.9419185234971816,-0.3618909516357048,-0.6721238657890118,0.1504995501519597,0.3720240234050742,0.181877940532682,1
136,2024-09-25 22:24:01.836657959,0,018,-0.2927900921853405,-0.16099646906661574,0.9614779974854981,-0.3720689137057919,-0.6579182792371854,0.1607887983599663,0.6907639209455692,0.12154302852746753,1
137,2024-09-25 22:24:01.899919922,0,018,-0.2793864779943989,-0.14644127514150293,0.9507759826336345,-0.37276167555445794,-0.633871909025008,0.16867143232988438,0.9798538150669743,0.06354958517419189,1
138,2024-09-25 22:24:01.972256836,0,018,-0.26289445588346255,-0.13175350811086053,0.9115349142253426,-0.36423349592014376,-0.6027578305648585,0.17436891161721887,1.2279672608805543,0.010038483297639851,1
139,2024-09-25 22:24:02.040069092,0,018,-0.24390823072771892,-0.11742161751262398,0.846140745332596,-0.3469971113384327,-0.5675129323637855,0.17815457209575802,1.425728651954761,-0.03717521416685969,1
140,2024-09-25 22:24:02.100378906,0,018,-0.22317412485600674,-0.10378920624287065,0.7572908891772622,-0.32181765637735626,-0.5309511396279691,0.1803232584253125,1.5665869353800264,-0.07667711724091511,1
141,2024-09-25 22:24:02.162377197,0,018,-0.20149909176831166,-0.09106452405849154,0.6476712635241627,-0.2896922386767067,-0.49554149690731625,0.18116909844567702,1.6475907620112589,-0.10753537684263079,1
142,2024-09-25 22:24:03.103998779,0,018,-0.17962678728077788,-0.07934672638436532,0.519704294165078,-0.2518035482014495,-0.4632609294442221,0.18096896037267232,1.669752597911142,-0.12936264258954874,1
143,2024-09-25 22:24:03.181621094,0,018,-0.15812522483369182,-0.06866102716729933,0.3754836728807889,-0.20946953261813236,-0.4354925792208194,0.17996667814011144,1.637958364111983,-0.14234509159511619,1
144,2024-09-25 22:24:03.243219971,0,018,-0.13732733848428588,-0.05899535907354534,0.21695994421283848,-0.16409663848170164,-0.4129405556019164,0.17835340975887398,1.5605392703436283,-0.14722920219209726,1
145,2024-09-25 22:24:03.320038086,0,018,-0.11733409569319429,-0.05033114992218697,0.04625166955917223,-0.11712101142064842,-0.3955712201955313,0.17624457535837618,1.4485824310554385,-0.14525090687106018,1
146,2024-09-25 22:24:03.390019043,0,018,-0.09806574019481203,-0.04266132221544099,-0.134099471107293,-0.06994597911954739,-0.3826277624232273,0.17366263449372174,1.3150491741246653,-0.13801881361826168,1
147,2024-09-25 22:24:03.457874023,0,018,-0.07933836474846408,-0.035993492138145476,-0.3209850950749677,-0.02391156012207838,-0.37276313636287955,0.17053861525375003,1.1738038902857257,-0.1273898448314187,1
148,2024-09-25 22:24:03.525729004,0,018,-0.06093657791602303,-0.03034395169039212,-0.5106964758399968,0.019706004486197522,-0.36428846219453725,0.16673660005755,1.038619325626007,-0.11535217551733343,1
149,2024-09-25 22:24:04.468939941,0,018,-0.04265701623803773,-0.02573118055368176,-0.6990618680369505,0.05971630647410973,-0.3554636901684379,0.16208996575793796,0.9221602558755876,-0.10389465919122892,1
150,2024-09-25 22:24:04.536757080,0,018,-0.02432515155515821,-0.02217162958572501,-0.8817868400575338,0.0950887136163331,-0.3447241187214629,0.15643105254824194,0.8349683244805034,-0.09484942272636793,1
151,2024-09-25 22:24:04.604594971,0,018,-0.0058144359897968345,-0.01967186786974411,-1.054869838470736,0.12504765782586238,-0.3307888933123335,0.14960618428114075,0.7845968498565877,-0.08973303612475879,1
152,2024-09-25 22:24:04.671218018,0,018,0.012917140801996966,-0.018212344990199653,-1.2148761164667723,0.1491340435663565,-0.31269084773880923,0.1414837042360548,0.775098472562625,-0.08962708553731277,1
153,2024-09-25 22:24:04.735219971,0,018,0.03179749668001968,-0.017727556432011765,-1.358960000747474,0.1672036540898244,-0.28979096138797567,0.1319625731649706,0.8068962801742661,-0.0951080925633876,1
154,2024-09-25 22:24:04.794272949,0,018,0.05064717030807616,-0.018090642943416505,-1.4847193992015635,0.17937642092355702,-0.2617847776368598,0.12097682223904478,0.8769061580136951,-0.10620893920354857,1
155,2024-09-25 22:24:04.871910156,0,018,0.06921274446698102,-0.019104657533614844,-1.5900416829427637,0.1859698542248678,-0.22867510492459506,0.10849002042372269,0.9788863910385693,-0.12241149389561512,1
156,2024-09-25 22:24:05.793210938,0,018,0.08719162851002216,-0.020499327613694416,-1.6730225947398825,0.18743629967307857,-0.19071321583187076,0.0944863085093572,1.1041290678606743,-0.14269388012144246,1
157,2024-09-25 22:24:05.861231201,0,018,0.10422779768878752,-0.021934315999513163,-1.7319659460888044,0.18430920500465542,-0.1483395776422789,0.07897139019325958,1.2424772993510795,-0.16564625175928263,1
158,2024-09-25 22:24:05.927752930,0,018,0.11988883703732227,-0.023011941560466098,-1.7654387365969233,0.17716378475869038,-0.10214390760396486,0.06198756649426787,1.3834253739980524,-0.1896408151760771,1
159,2024-09-25 22:24:05.996843994,0,018,0.13365191958473263,-0.023301587926676484,-1.77230956093032,0.1665907126709444,-0.052837997821527746,0.04363183507084609,1.5170212376123462,-0.21301515587099537,1
160,2024-09-25 22:24:06.051889893,0,018,0.14491278586259287,-0.022373331730653676,-1.7517326092313117,0.1531702392856585,-0.0012367924975300267,0.024064334074486833,1.634441801773273,-0.23422246402557334,1
161,2024-09-25 22:24:06.132593018,0,018,0.1530037034392189,-0.01983149191877894,-1.7031534502324412,0.13744320868575158,0.05174410676086046,0.0035061120456817826,1.7283312523996353,-0.2519402032137139,1
162,2024-09-25 22:24:06.189729980,0,018,0.15720380227284333,-0.015337832274397292,-1.626414564669176,0.11989585910568601,0.1050918081029364,-0.01776921473429709,1.7931534910767701,-0.26517902832682905,1
163,2024-09-25 22:24:07.136218018,0,018,0.15674611948727685,-0.008621168940567336,-1.521946205435229,0.10097841624648206,0.1577486068760732,-0.03944999884592107,1.825700890409429,-0.273416492182205,1
164,2024-09-25 22:24:07.197774902,0,018,0.15083652933352287,0.0005218875661791393,-1.391008719547372,0.081157046558135,0.20872980554806206,-0.06120734801791746,1.8255468499028078,-0.27669813233424145,1
165,2024-09-25 22:24:07.275373047,0,018,0.13869457003982336,0.012227183024193955,-1.2359509039574559,0.06097548592039222,0.2572545335378262,-0.08271547648058056,1.7950718495818814,-0.2756219809540467,1
166,2024-09-25 22:24:07.347424072,0,018,0.11961637675633155,0.026559266894701502,-1.0603763948451315,0.041099801880184826,0.3028187003993898,-0.10366327720928048,1.738923910845166,-0.27119581905399054,1
167,2024-09-25 22:24:07.414324951,0,018,0.09304922566129759,0.04350481881981222,-0.8690912090369763,0.02232967234087789,0.34518301180322336,-0.12375415243740899,1.663047980422301,-0.2646266068083788,1
168,2024-09-25 22:24:07.476972168,0,018,0.05866349193091584,0.06296755567770125,-0.6678171582937277,0.005565488149658287,0.38429655071074126,-0.14269733693461634,1.5735307569713313,-0.25710133309724253,1
169,2024-09-25 22:24:07.550717041,0,018,0.01641883493661643,0.08476557339608475,-0.46277455271392304,-0.008267644654066106,0.4202039174779207,-0.160199272168234,1.4755725333811718,-0.24959306358931735,1
170,2024-09-25 22:24:08.468343018,0,018,-0.03336901855977404,0.10862849331551525,-0.26024397151649864,-0.018321553752770788,0.45298179028174024,-0.17596335576375527,1.3728948754742216,-0.2427216653807583,1
171,2024-09-25 22:24:08.530412109,0,018,-0.08996801022846085,0.13419545498791377,-0.06613980484775314,-0.023932521008910808,0.48269653286688347,-0.18969542716485865,1.2677195092170401,-0.23670022751273453,1
172,2024-09-25 22:24:08.605304932,0,018,-0.15220624098927532,0.1610212961278663,0.11440322560760963,-0.024716897154852258,0.5093305826176381,-0.20110412955699225,1.1612017024252401,-0.2313771098493994,1
173,2024-09-25 22:24:08.673110840,0,018,-0.21851799029079882,0.1885978841499116,0.27738856520274,-0.02063336321745687,0.5326739617794518,-0.20989485815554337,1.0540480488150443,-0.22634915442658704,1
174,2024-09-25 22:24:08.731606934,0,018,-0.28706492259209876,0.21639019116590247,0.4202215548983737,-0.011999497064709921,0.5522499904026965,-0.21576963427456838,0.9470487207304195,-0.22109836347854045,1
175,2024-09-25 22:24:08.808718018,0,018,-0.35589996819809455,0.2438775297898964,0.5418886717931396,0.0005282971080007449,0.567328297972934,-0.21844186011782626,0.8413437684764942,-0.21510347347101633,1
176,2024-09-25 22:24:08.871267090,0,018,-0.42313093203189134,0.2705863384097307,0.643043493914481,0.01599756348564047,0.5770025677531321,-0.2176601794906967,0.738361803096674,-0.207898208557923,1
177,2024-09-25 22:24:09.811244873,0,018,-0.4870642009705534,0.29610725089444934,0.7259065039550391,0.033227918383133166,0.5802797950317777,-0.21322967613062566,0.639476594467794,-0.19907681886064268,1
178,2024-09-25 22:24:09.873275146,0,018,-0.5463199104827365,0.32009956817119095,0.7938738754010269,0.05091774402563382,0.5761698301941389,-0.20502726590496442,0.5455167977456146,-0.1882787334442441,1
179,2024-09-25 22:24:09.950418945,0,018,-0.5998989254331203,0.34229005719640854,0.8508547191953036,0.0677910893806569,0.5638096672046383,-0.1930187046273714,0.4563654774225414,-0.17520439487231868,1
180,2024-09-25 22:24:10.022646973,0,018,-0.6471894034877022,0.36246974483410616,0.9005079829620275,0.08276007263670535,0.5426366238964602,-0.17728292793376704,0.3709122376151966,-0.15968989271377554,1
181,2024-09-25 22:24:10.090176025,0,018,-0.6879281655881196,0.3804879981826416,0.9456057622680882,0.0950548537072223,0.512557881048274,-0.15803786039333542,0.2874597323297761,-0.1418124460200451,1
182,2024-09-25 22:24:10.158176025,0,018,-0.7221433288146076,0.3962423504792726,0.9876962359370786,0.10428144383966859,0.474028379640662,-0.13565407496917342,0.20442183840126688,-0.12196883038006934,1
183,2024-09-25 22:24:10.212919922,0,018,-0.7500908660965407,0.4096660788058178,1.0271089574705106,0.11040964133368629,0.4279864269691595,-0.11064525131685252,0.12098171093612575,-0.10088033960440546,1
184,2024-09-25 22:24:11.163585938,0,018,-0.7721835782012391,0.4207192613513893,1.063205708753896,0.11372175447032552,0.3756848983747179,-0.08363545770710107,0.03744183380240071,-0.07951207187094153,1
185,2024-09-25 22:24:11.237101074,0,018,-0.7889133709527073,0.42938745401969325,1.0947251931772,0.11474007326820455,0.3185260855971369,-0.05531644774765993,-0.044769010345599394,-0.058931931405037344,1
186,2024-09-25 22:24:11.304930908,0,018,-0.8007787631847174,0.43568605841629987,1.1201141546863216,0.11413225624441904,0.25798726548011974,-0.0264113417335269,-0.12330331170786737,-0.04015580353181331,1
187,2024-09-25 22:24:11.364427979,0,018,-0.8082378740827373,0.43966528316866205,1.137798213056201,0.11260486899453968,0.19562797726192377,0.0023501195428009282,-0.19523304368270764,-0.024020623371822994,1
188,2024-09-25 22:24:11.440586182,0,018,-0.8117044587376174,0.44141314901863277,1.1463646865367543,0.11081866447330857,0.13310291557331977,0.030252146658014917,-0.25753533752563323,-0.011108075611335496,1
189,2024-09-25 22:24:11.504812012,0,018,-0.8115838658261275,0.4410570323845995,1.1446573430818878,0.10935129333325419,0.07212158172813989,0.05661816043721178,-0.307644165312674,-0.0017333460181988157,1
190,2024-09-25 22:24:11.576201904,0,018,-0.8083211687923642,0.43876420077289374,1.1318550407086136,0.10869202810499558,0.01435431521272298,0.0808413589252593,-0.34380751460258613,0.00399271801931587,1
191,2024-09-25 22:24:12.510575928,0,018,-0.8024305951464454,0.4347400248795995,1.107628399116376,0.10922798336251054,-0.03867377441862,0.1024114346108369,-0.36510159177540696,0.006057099898017219,1
192,2024-09-25 22:24:12.587251952,0,018,-0.7944929598761785,0.42922153843384386,1.072350891445198,0.11120614828688391,-0.08565901265517192,0.1209262010708625,-0.3712466406893659,0.004457821857498674,1
193,2024-09-25 22:24:12.644644043,0,018,-0.7851254384083202,0.42246552914659347,1.0271761176053815,0.11470153574142804,-0.12555264965260526,0.1360858022794693,-0.3624391325715461,-0.0008189519383744698,1
194,2024-09-25 22:24:12.722750977,0,018,-0.7749380214900314,0.4147334762733834,0.9738091114201298,0.11963111117316262,-0.15756370508892134,0.14767871714133657,-0.33932748567896376,-0.009753328141399772,1
195,2024-09-25 22:24:12.790766846,0,018,-0.7644945315795887,0.40627718246072253,0.9140362733497353,0.12581634694265698,-0.18114103616757526,0.15557090738797136,-0.30322985215599796,-0.022195250110630317,1
196,2024-09-25 22:24:12.846743896,0,018,-0.7542883062869811,0.3973275682071904,0.8492509566777052,0.13306514592637284,-0.1959248235152905,0.1596993510297575,-0.2565672660382805,-0.037764265084817436,1
197,2024-09-25 22:24:12.923479980,0,018,-0.7447268734322302,0.38808643639245677,0.78014416833093,0.14124587617464002,-0.2016687092769693,0.160063617830974,-0.2032375265846711,-0.05581433665779748,1
198,2024-09-25 22:24:13.858831787,0,018,-0.736115599904979,0.37871971214105643,0.7066025506902777,0.15033466330685932,-0.19818111874036837,0.15671623115821012,-0.14863979740508926,-0.07549226166902132,1
199,2024-09-25 22:24:13.930438965,0,018,-0.7286443727477003,0.3693521687495047,0.6278069672663195,0.16041648835854908,-0.18534153108054077,0.1497600387265349,-0.09933306129835849,-0.09584455688433782,1
200,2024-09-25 22:24:13.991976074,0,018,-0.7223900958108322,0.3600655858520361,0.5424842632987266,0.17163596109653334,-0.1632002503340815,0.13935661327850854,-0.06249847538688109,-0.11590600678032713,1
201,2024-09-25 22:24:14.069644043,0,018,-0.7173375715652397,0.3509017367842967,0.44923321056862975,0.1841220069752611,-0.13213507133329225,0.12574333492943776,-0.045309663615412075,-0.13474348894723445,1
202,2024-09-25 22:24:14.138582031,0,018,-0.7134097765427158,0.341869318752525,0.3468946265469772,0.1979105094408143,-0.09302223318788444,0.10925269554306492,-0.0542000833167378,-0.15147397740287688,1
203,2024-09-25 22:24:14.206396973,0,018,-0.7104931891502637,0.3329519501862098,0.23499023408740122,0.2128628317632327,-0.04736340484783006,0.09032419836338813,-0.09404174795812499,-0.16528883090318397,1
204,2024-09-25 22:24:14.274241943,0,018,-0.7084407640252417,0.3241143569232075,0.11420055646316861,0.2285774473379278,0.0026820028225693136,0.069501789311945,-0.16735564792266666,-0.175497804386043,1
205,2024-09-25 22:24:15.212999023,0,018,-0.707043834483121,0.31530600019150024,-0.013248019269346344,0.24432440276279466,0.05438056018652549,0.04741638108949978,-0.27375009058880656,-0.18157195033884455,1
206,2024-09-25 22:24:15.274673096,0,018,-0.7059850265671886,0.3064635460784114,-0.14342830796257916,0.2590477236426228,0.10461944915408401,0.024756764556325313,-0.4098148271006523,-0.1831408654485313,1
207,2024-09-25 22:24:15.354581055,0,018,-0.7047965870664513,0.29751392169606056,-0.2708363618438565,0.2714484833303304,0.150180538076872,0.0022331742540454926,-0.5695823989260258,-0.17992082343807453,1
208,2024-09-25 22:24:15.414825928,0,018,-0.7028454031748145,0.28837849145176514,-0.38873018718042407,0.2801105429668258,0.1880379754932779,-0.019461240937249186,-0.7453815844258365,-0.17161082617263324,1
209,2024-09-25 22:24:15.490199951,0,018,-0.6993620618976966,0.2789788929982671,-0.4896026382677974,0.2836185606573289,0.21562002837582164,-0.03968565341011474,-0.9287637729589127,-0.15782410034916608,1
210,2024-09-25 22:24:15.558044922,0,018,-0.6935245529875006,0.26924702018838226,-0.5657726460186246,0.2806550556826863,0.23099599965533155,-0.05788028713208837,-1.1113264872793545,-0.13809425062544722,1
211,2024-09-25 22:24:15.615177002,0,018,-0.684587402520488,0.25914101129744865,-0.610074352690443,0.2700965694136247,0.2329882492099261,-0.07359036966499315,-1.2853946352868302,-0.11196470866313277,1
212,2024-09-25 22:24:16.542545166,0,018,-0.6720281356165605,0.24866408794304595,-0.6165631666333754,0.2511242015102526,0.22125031926951103,-0.08649116109728823,-1.4444815553002799,-0.0791605456162871,1
213,2024-09-25 22:24:16.611462158,0,018,-0.6556755633515617,0.23787896616470397,-0.5811774755383852,0.2233421055299187,0.19633997539340103,-0.09641492856736798,-1.583422153238396,-0.039815598900569474,1
214,2024-09-25 22:24:16.673639160,0,018,-0.6357871343729052,0.22691257662433534,-0.5023187393329345,0.1868805430709173,0.1597435308146828,-0.1033687948868799,-1.6982143816234296,0.005319218893340943,1
215,2024-09-25 22:24:16.747083008,0,018,-0.6130599543276248,0.21595177975591023,-0.3812484511896484,0.142455938860572,0.11377217228379774,-0.10752897773664785,-1.7858153926805527,0.054784056969292075,1
216,2024-09-25 22:24:16.814898926,0,018,-0.5885787464021421,0.2052330212277845,-0.22218070923742533,0.09137033800746322,0.06131384248581217,-0.1092077195792359,-1.8441380645990098,0.10649361675517541,1
217,2024-09-25 22:24:16.873916016,0,018,-0.5637057076613927,0.19502572375331956,-0.032053467759007366,0.035450281322700165,0.005507761517959613,-0.10880264233662441,-1.8722266414350748,0.1579648168339151,1
218,2024-09-25 22:24:16.935436035,0,018,-0.5399179046607141,0.18560788350285964,0.17993720687876236,-0.02305612521560766,-0.050577293629596995,-0.1067431361820269,-1.8703496060241926,0.20658288543112185,1
219,2024-09-25 22:24:17.893704102,0,018,-0.5186157127129669,0.17723668108475063,0.4029600514538557,-0.08160165555531061,-0.10420823547403986,-0.10344568700959166,-1.8397955657824985,0.24980966500601512,1
220,2024-09-25 22:24:17.954971191,0,018,-0.5009415956314599,0.1701208717717262,0.6252979895988376,-0.13747895346262978,-0.1531624894999182,-0.09928513884952482,-1.7824486713688943,0.2853237505838017,1
221,2024-09-25 22:24:18.028062988,0,018,-0.48763945101477146,0.16439997726144961,0.8351905791961559,-0.18798461761103896,-0.195808581092433,-0.09458165431385984,-1.7004678445157946,0.3111552477002627,1
222,2024-09-25 22:24:18.097204102,0,018,-0.4789646117898977,0.16013138875357802,1.0216940394584264,-0.23059958682475187,-0.23113040960048606,-0.08959588784840596,-1.5963080404381331,0.3258588168940182,1
223,2024-09-25 22:24:18.150795898,0,018,-0.4746466678838414,0.15728503480136916,1.175489471321053,-0.26316278022522416,-0.25872921171713553,-0.08452581344924946,-1.4729649241517802,0.3286850222159461,1
224,2024-09-25 22:24:18.228943115,0,018,-0.4739103855211808,0.1557459662255414,1.2896305253507088,-0.28402829028545856,-0.2787950276091377,-0.07950590427687272,-1.334124938393895,0.3196695881313669,1
225,2024-09-25 22:24:18.290951904,0,018,-0.4755625916935948,0.1553260531870611,1.3602280949796606,-0.2922082918534451,-0.29202882724637497,-0.07461127691711218,-1.1840650319326416,0.2996001767709825,1
226,2024-09-25 22:24:19.235158936,0,018,-0.4781443592442277,0.15578486448835865,1.3869637190943653,-0.2874892965724062,-0.29952010291330156,-0.06986499022937344,-1.0273815264486061,0.2698742741872896,1
227,2024-09-25 22:24:19.311853027,0,018,-0.48012429980974713,0.1568563492131894,1.3732270709724108,-0.27049202136499734,-0.30259580522317914,-0.06524526466440929,-0.8686570903855535,0.23228807414646593,1
228,2024-09-25 22:24:19.373944092,0,018,-0.4800887064604117,0.15827474105760544,1.325757617821482,-0.24265436415248084,-0.30265619865202953,-0.06069323651137833,-0.7121059409867283,0.18881062418522568,1
229,2024-09-25 22:24:19.435937012,0,018,-0.476888710463664,0.15979281154458444,1.2538629106450137,-0.2061377429832431,-0.3010195594491099,-0.05612489700127924,-0.5612590517536035,0.14139425508608566,1
230,2024-09-25 22:24:19.512635010,0,018,-0.4697259995082399,0.16118942805794195,1.168348093848519,-0.16366366782440359,-0.29879998142897285,-0.0514486648516427,-0.41877185874502226,0.09183472611779302,1
231,2024-09-25 22:24:19.583135010,0,018,-0.45817835178299127,0.16226905981813483,1.0802543105311744,-0.11829745269725848,-0.2968326391764527,-0.04658529505302985,-0.2863261195470433,0.041659496077182716,1
232,2024-09-25 22:24:19.636635010,0,018,-0.4421805026526888,0.16285847249374252,0.999583307362929,-0.07322073618562656,-0.29563915961898385,-0.041486436122516714,-0.16449774788974117,-0.007965388639505983,1
233,2024-09-25 22:24:20.593256836,0,018,-0.4219823300920028,0.16280451380725006,0.9343094240387787,-0.03153510530370457,-0.2954051422993856,-0.03615292604386846,-0.052558520047013835,-0.056281387090982675,1
234,2024-09-25 22:24:20.654314941,0,018,-0.39810033605139133,0.1619750867859193,0.8898924094954719,0.0038989929085263006,-0.2959509159948538,-0.030655594818219573,0.05159223864565146,-0.10289841336259915,1
235,2024-09-25 22:24:20.716792969,0,018,-0.37126839212189505,0.16026425302316014,0.8692384761438475,0.03061506364685217,-0.29670840430449874,-0.02515485317440242,0.1510894974069338,-0.14767130639763582,1
236,2024-09-25 22:24:20.794902100,0,018,-0.34238477992461697,0.1576001898691315,0.8728984973293902,0.04670232811484438,-0.2967296354670383,-0.019908194379493233,0.24933751100848384,-0.19054380502271148,1
237,2024-09-25 22:24:20.856447021,0,018,-0.31244418098105,0.15395263399773348,0.899351856684732,0.05096045487473085,-0.29474562265698234,-0.015255599781071683,0.34914377629228943,-0.23142266266145078,1
238,2024-09-25 22:24:20.918934082,0,018,-0.28245105188776026,0.14933791971356958,0.945348305256886,0.04301071408673876,-0.28929717109603054,-0.011579696780566032,0.4521069356378514,-0.27010781958645286,1
239,2024-09-25 22:24:20.996572998,0,018,-0.2533341189646681,0.1438220924125282,1.0063180770665179,0.023334985372716124,-0.27894796261263105,-0.009246890173699866,0.5583607996029425,-0.30626314321643433,1
240,2024-09-25 22:24:21.943165039,0,018,-0.22588709003414353,0.13752025314237037,1.0768180284907316,-0.00676604498956696,-0.2625332169690009,-0.00854599275728727,0.6665886289068067,-0.33940483934488963,1
241,2024-09-25 22:24:22.005194824,0,018,-0.20074166360458987,0.13058788678585406,1.1509515009381763,-0.04529495994228884,-0.23935173657571282,-0.009644020484349227,0.7742342329808033,-0.3689044986572306,1
242,2024-09-25 22:24:22.066756104,0,018,-0.17836348345774955,0.12320471090704324,1.2227322425750096,-0.08975252868296117,-0.20924420896260731,-0.012569439435799983,0.8779273603086433,-0.39402177979062686,1
243,2024-09-25 22:24:22.143955078,0,018,-0.1590568474148086,0.11555696083621173,1.2864244082226042,-0.13737818388437975,-0.17257113375934194,-0.017219698030698206,0.9741263997208995,-0.4139834073633617,1
244,2024-09-25 22:24:22.205972900,0,018,-0.14296569678826934,0.10782195578421017,1.3369092116208636,-0.1853911989298744,-0.13012720945185788,-0.02338374893645794,1.0598001228837517,-0.42809648555681784,1
245,2024-09-25 22:24:22.282927979,0,018,-0.1300730794815187,0.10015515142091583,1.3700448362417725,-0.2311872337174853,-0.08301606240805273,-0.030772552789263954,1.1328563476352929,-0.43584483182679173,1
246,2024-09-25 22:24:22.350907959,0,018,-0.12021188615910954,0.0926801352592596,1.382881336965987,-0.27246167962611334,-0.03251104096800279,-0.039053080505155637,1.1922054182051718,-0.43693423070328663,1
247,2024-09-25 22:24:23.255354004,0,018,-0.11308366818257176,0.08548187478437907,1.3736507487065366,-0.30726688218955917,0.020059442994184613,-0.0478789815097705,1.2375708596106834,-0.4313076309851571,1
248,2024-09-25 22:24:23.336944092,0,018,-0.10826381989418533,0.07860147074870354,1.3416271454890079,-0.3340405469945604,0.07337567591604807,-0.05691114070686542,1.2691159643634906,-0.4191508779715166,1
249,2024-09-25 22:24:23.404716064,0,018,-0.10518616891134516,0.07203092245288521,1.2870173967473495,-0.3516362766231218,0.12614804338059038,-0.06582941885413497,1.2868556985331554,-0.40086750073376226,1
250,2024-09-25 22:24:23.472469971,0,018,-0.10313439174899369,0.06570942349218531,1.21098816884755,-0.35936649782953134,0.17711703827570513,-0.07434242361800905,1.2899510816746094,-0.3769928265140987,1
251,2024-09-25 22:24:23.532821045,0,018,-0.10127679906234513,0.05952446910760307,1.1158548213827433,-0.3570599763328144,0.2250392058612104,-0.08219769083175146,1.2761803738036424,-0.3480494153974013,1
252,2024-09-25 22:24:23.594814941,0,018,-0.09875113661378054,0.05332021849891259,1.0053210686093494,-0.34511683655436187,0.26867028346255417,-0.08918912703332266,1.2418812710270537,-0.3143972959813056,1
253,2024-09-25 22:24:23.673824951,0,018,-0.09476960370517676,0.0469134632450846,0.8845127674105732,-0.32451419894009226,0.3067717296762474,-0.09515930227583291,1.1824658567595354,-0.27616996019665885,1
254,2024-09-25 22:24:24.619125000,0,018,-0.08870373794193027,0.04011403335479445,0.7596043188935211,-0.2967250514557228,0.3381586645343451,-0.09999808781435367,1.0934164558788757,-0.2333544792972407,1
255,2024-09-25 22:24:24.686975098,0,018,-0.08012349458162699,0.03274334492010094,0.6371130483346698,-0.26356107368993426,0.36178390429468626,-0.10364064368158601,0.971558912562313,-0.18598259362328853,1
256,2024-09-25 22:24:24.748568115,0,018,-0.0687897768118851,0.024646726477790742,0.5231606440639038,-0.2269836383606048,0.37683413847289,-0.1060648134792252,0.8163289913429672,-0.13434148388387937,1
257,2024-09-25 22:24:24.822632080,0,018,-0.054622195504476875,0.015701111155863215,0.422947977874881,-0.18892654298151113,0.38280943054108807,-0.10728505095949874,0.6306996507849605,-0.07913173613138529,1
258,2024-09-25 22:24:24.890467041,0,018,-0.037668252172207886,0.005822727786982832,0.34045343217291907,-0.1511554801777221,0.37957562470806394,-0.10734396615285394,0.42144826868048796,-0.021532571589252054,1
259,2024-09-25 22:24:24.958285156,0,018,-0.018085487139761162,-0.005022953657512506,0.2782338039904505,-0.11517335021497929,0.3674078365949695,-0.10631029226539429,0.19859153284984388,0.03685376653069916,1
260,2024-09-25 22:24:25.026104980,0,018,0.0038641610239971602,-0.016810371258968712,0.23729520631138704,-0.08217777531870808,0.3470346628083638,-0.10428898647745521,-0.025831288548844318,0.09416623302316232,1
261,2024-09-25 22:24:25.963927979,0,018,0.02781110746213767,-0.029445123153814173,0.21712284652904612,-0.053076841288361716,0.3196489082748969,-0.10143459577044438,-0.23915038927267873,0.14848748444128584,1
262,2024-09-25 22:24:26.025567139,0,018,0.05327240892330229,-0.04276043200540681,0.21593085105382662,-0.028554944917253605,0.28685124401518763,-0.09795442302930932,-0.42922625313231605,0.19800819870039332,1
263,2024-09-25 22:24:26.102757812,0,018,0.0796538119386505,-0.05652093431262538,0.231043340651482,-0.00915286625649191,0.25054761988831636,-0.09410011246805937,-0.5852883227720198,0.24111988570971646,1
264,2024-09-25 22:24:26.172699951,0,018,0.10626898670285818,-0.0704350221427237,0.25921682818368696,0.004688477677534256,0.21284005041344298,-0.09015550365491287,-0.6986163500553789,0.2764496553716058,1
265,2024-09-25 22:24:26.240565918,0,018,0.13237963769029396,-0.08417696321711746,0.29681050612381277,0.0126440754917906,0.17591460618984042,-0.08642452186293499,-0.7632274599099823,0.3028764019101631,1
266,2024-09-25 22:24:26.308351074,0,018,0.157253775028819,-0.0974180802278682,0.33991407354663383,0.014556023827472276,0.1419132398050645,-0.08321544320633473,-0.7764807515887817,0.3195571514312836,1
267,2024-09-25 22:24:26.364389893,0,018,0.18023641037351845,-0.10986153424075551,0.3846137437238344,0.010474626807097506,0.11280305527196963,-0.08081745489037176,-0.7393247886962743,0.32595809428593964,1
268,2024-09-25 22:24:27.284845947,0,018,0.20082223580329,-0.1212724523201145,0.42744488184799984,0.0006638290210458656,0.09027488409103765,-0.07947209675637032,-0.656019500575061,0.32186861808136413,1
269,2024-09-25 22:24:27.346850098,0,018,0.21871074739866067,-0.13149737056775054,0.46587388755365733,-0.014418741466498049,0.07567999174929467,-0.07934827997781567,-0.5333678824422482,0.3073898291525163,1
270,2024-09-25 22:24:27.423564941,0,018,0.2338210858059965,-0.14047118871041717,0.49857380196716583,-0.03413979444986202,0.06998178276249781,-0.0805280292969015,-0.3796065913048241,0.2829047752127259,1
271,2024-09-25 22:24:27.497749023,0,018,0.24625564065604963,-0.1482120805495991,0.5254082640421641,-0.057699167973351714,0.07370132869127226,-0.08300382972639528,-0.20317405421387666,0.24903317105106157,1
272,2024-09-25 22:24:27.562326904,0,018,0.25622411343348134,-0.15480528668730983,0.5472478316662859,-0.08415155823915045,0.08687335315856567,-0.08668632327445033,-0.011619882230669102,0.20656229691019865,1
273,2024-09-25 22:24:27.633341064,0,018,0.26395917398686675,-0.1603779392652945,0.5657632738836237,-0.11245771175351224,0.10905688838414915,-0.09142251207638216,0.1890528223134247,0.15636640738445626,1
274,2024-09-25 22:24:27.701193115,0,018,0.2696593086079431,-0.1650705437883669,0.5832024085354858,-0.14154782808892935,0.13942051516422188,-0.09702243374081106,0.3943616640409143,0.09936779548503644,1
275,2024-09-25 22:24:28.644325928,0,018,0.2734767500119888,-0.16901357325840274,0.6021131874701149,-0.17037117821897943,0.1768722614538369,-0.10328841647221454,0.6006732557737432,0.036580729289723814,1
276,2024-09-25 22:24:28.703030029,0,018,0.2755319857133007,-0.17231313349111096,0.6250720452186093,-0.19793462883719712,0.22018819201187367,-0.11004199288523642,0.8043455241839421,-0.030799244686296707,1
277,2024-09-25 22:24:28.764562988,0,018,0.2759178401119138,-0.17504045260264636,0.6544664678741772,-0.2233450985490667,0.26811929553958025,-0.11714698918814467,1.0012771644501082,-0.10135955511336919,1
278,2024-09-25 22:24:28.841808105,0,018,0.2746834762359919,-0.17721940922222504,0.6922379746095186,-0.2458455489727799,0.3194757342587953,-0.12452628469561715,1.1871273131963782,-0.17355105207454516,1
279,2024-09-25 22:24:28.915623047,0,018,0.2718216532964297,-0.17881578832754155,0.739522258715661,-0.26482588133932633,0.37317792112182446,-0.13216617243776596,1.3579568628350778,-0.24584003808060464,1
280,2024-09-25 22:24:28.982625977,0,018,0.2672773364625672,-0.17973686336775344,0.7963349606176401,-0.2798173474645984,0.42826148677990633,-0.14010493482516087,1.5108301001877724,-0.31683646267050924,1
281,2024-09-25 22:24:29.042697998,0,018,0.2609722212547915,-0.17984386958556978,0.8615046205616254,-0.2904905896474053,0.4838475759956796,-0.14841079587644096,1.6440983345121147,-0.3853551734287164,1
282,2024-09-25 22:24:29.994406006,0,018,0.252829899604186,-0.17897199688145327,0.9329074454955109,-0.2966663188167654,0.5391081612191423,-0.1571587607069128,1.7573058137670599,-0.4504224126890546,1
283,2024-09-25 22:24:30.062242920,0,018,0.24279661087940985,-0.1769516181220195,1.007954233391385,-0.2983464614333235,0.5932503884651914,-0.16641234959321993,1.8508029894226925,-0.5112486876674022,1
284,2024-09-25 22:24:30.117125000,0,018,0.23087311272008867,-0.17362988963127612,1.0842548219649202,-0.2957713648997152,0.6455322143609847,-0.17621152270361845,1.9253283382925137,-0.5671945806405685,1
285,2024-09-25 22:24:30.197892822,0,018,0.21717354472609102,-0.16889606296385623,1.160291862824942,-0.2894834458072399,0.6953080261027336,-0.1865672304293694,1.9818373436320795,-0.6177571541913316,1
286,2024-09-25 22:24:30.265697998,0,018,0.20199265130315427,-0.16271035399078107,1.2357985581354944,-0.28034694780029373,0.7420785719666106,-0.1974622020588999,2.0215959659331935,-0.662578908007177,1
287,2024-09-25 22:24:30.332127197,0,018,0.1858365693867584,-0.15512820505485456,1.3116257514159073,-0.269482822778687,0.7855025048533695,-0.20885319756844065,2.046299385978905,-0.7014533010202926,1
288,2024-09-25 22:24:30.401402100,0,018,0.16939540216174298,-0.1463097377934943,1.3892622179801084,-0.25814253784832103,0.8253474755418928,-0.22066803620293599,2.0579604487519756,-0.7342978242563942,1
289,2024-09-25 22:24:31.343620117,0,018,0.15347780866218289,-0.1365114553868055,1.470395162569941,-0.24759121046871516,0.861409598688081,-0.2327975601363616,2.0584596259223424,-0.7610802510630822,1
290,2024-09-25 22:24:31.411438965,0,018,0.13893507242106573,-0.1260655519615244,1.5566654128125337,-0.23902666214253482,0.8934571522817834,-0.24509104033355078,2.0488373196318035,-0.7817060894161234,1
291,2024-09-25 22:24:31.471888916,0,018,0.1265784301197297,-0.1153537062373849,1.6494546720498968,-0.2334907299768978,0.921215390985195,-0.25736022558926785,2.028606295758976,-0.7959087478752429,1
292,2024-09-25 22:24:31.547052002,0,018,0.117083935481244,-0.10477794937129566,1.7495575670894348,-0.2317395064700331,0.9443495619238305,-0.2693854152930247,1.9954633891426574,-0.8032076366638806,1
293,2024-09-25 22:24:31.610688965,0,018,0.11089728111969942,-0.09472805606300791,1.8567867872196537,-0.23410762401129065,0.9624072713092184,-0.28091465191695647,1.9456124173545437,-0.8029737854663103,1
294,2024-09-25 22:24:31.672354980,0,018,0.10816920221996484,-0.08554776775126464,1.969612581773186,-0.24042799034139073,0.9747433278084285,-0.29165821512509765,1.8745649965541111,-0.794584361516302,1
295,2024-09-25 22:24:31.750077881,0,018,0.10874445610120798,-0.07750626920653031,2.084869967205975,-0.2500340818120903,0.9804828140606594,-0.3012879223410024,1.7781172919336903,-0.7776111324958708,1
296,2024-09-25 22:24:32.684052002,0,018,0.11219897945675883,-0.07077933913297844,2.197569460667579,-0.2618376662574965,0.9785449869614232,-0.3094444506021761,1.6532725853909853,-0.7519798037485658,1
297,2024-09-25 22:24:32.760862061,0,018,0.11790181193141597,-0.06543970297431892,2.3009277992005095,-0.27446558534083265,0.9677098089623336,-0.31574770678578357,1.4989267374000064,-0.7180486275998369,1
298,2024-09-25 22:24:32.822424805,0,018,0.1250840474357337,-0.06145482980448769,2.386752949421516,-0.28643050144499155,0.9467112991055328,-0.31980704747087096,1.3161110279107264,-0.6765918342832067,1
299,2024-09-25 22:24:32.897166016,0,018,0.13290707387340828,-0.05869158026210752,2.446215961393397,-0.29630045349751877,0.9143554571549181,-0.32123338324846135,1.1077036056388685,-0.628713720118234,1
300,2024-09-25 22:24:32.962020020,0,018,0.1405275851780595,-0.05692871329947697,2.470890987079476,-0.3028394286249303,0.8696468689784391,-0.3196542776031803,0.8778013978482443,-0.57573822805826,1
301,2024-09-25 22:24:33.032803955,0,018,0.14716286753175886,-0.055879340196630274,2.453822120556632,-0.3051079658787926,0.8118951845367988,-0.3147296353452322,0.6311247267107531,-0.5191152239627695,1
302,2024-09-25 22:24:33.090749023,0,018,0.15215654633493444,-0.055221938953863396,2.3903511082987605,-0.3025208996170683,0.7407884963291625,-0.30616533524899137,0.3727064171692351,-0.46035619946801176,1
303,2024-09-25 22:24:34.043179932,0,018,0.15502822952073353,-0.05463190746399337,2.278545180101396,-0.2948599556144187,0.6564424540962359,-0.29372475103564677,0.10781595739958633,-0.4009772642398185,1
304,2024-09-25 22:24:34.105145996,0,018,0.15548703574787762,-0.0538055239670573,2.119219352230028,-0.28224503135861784,0.5594435200243119,-0.2772409288919605,-0.1581122335532376,-0.3424269265169878,1
305,2024-09-25 22:24:34.167156982,0,018,0.1534112971902556,-0.05247674851243892,1.9156785784491532,-0.2650830989251708,0.4509029607808813,-0.25663167292782263,-0.41969176799822694,-0.2860055229543764,1
306,2024-09-25 22:24:34.244333984,0,018,0.14881380739109684,-0.05043293854350988,1.6733847159158208,-0.24401878372435243,0.33251192144705644,-0.23191556173187527,-0.6718792400899922,-0.2327965828895505,1
307,2024-09-25 22:24:34.315556152,0,018,0.1418057134600954,-0.04753136139116746,1.3996976194990867,-0.21989514558148085,0.20655071149226875,-0.2032242377562346,-0.9101856906273661,-0.18362511677385376,1
308,2024-09-25 22:24:34.383298096,0,018,0.132564727568885,-0.04371256165416498,1.1036500902927593,-0.19371475278640554,0.07580957280109867,-0.1708078613999398,-1.130707289112061,-0.13905526329553175,1
309,2024-09-25 22:24:34.451145996,0,018,0.12131544818056854,-0.03900653505848721,0.7956030128306248,-0.1665881303886492,-0.056573879594734915,-0.1350330030747953,-1.330041194542399,-0.09942584883268098,1
310,2024-09-25 22:24:35.364082031,0,018,0.10832607023456474,-0.03353078704209598,0.4867212893699694,-0.13967234604978934,-0.18731952788086845,-0.09637268757439305,-1.5052376419149525,-0.0648950420912679,1
311,2024-09-25 22:24:35.427048828,0,018,0.09391535986798497,-0.027482185917915507,0.18834077552642195,-0.11411313941736106,-0.3132109090151065,-0.0553884821231104,-1.653884320151551,-0.035461678000446965,1
312,2024-09-25 22:24:35.504237793,0,018,0.07846381231403644,-0.021125844294590697,-0.08870507545671992,-0.09098610300219809,-0.4312756143042396,-0.012706848001384585,-1.77431416236856,-0.010962080001411814,1
313,2024-09-25 22:24:35.572885986,0,018,0.06243305524350334,-0.014783638271946436,-0.33476857619496336,-0.07121876999377892,-0.5389214881608513,0.031004340737710995,-1.8658033349882606,0.008925055013119855,1
314,2024-09-25 22:24:35.628385986,0,018,0.046394423535956665,-0.008822631750092147,-0.5420152991321129,-0.05550120136321275,-0.6340109492413033,0.07505192402159158,-1.9285239110406047,0.02462699136356333,1
315,2024-09-25 22:24:35.705233154,0,018,0.031050517931118845,-0.0036409916689490226,-0.7048608043862962,-0.04422593496402802,-0.7148657543874272,0.11872348207782482,-1.9631003707682169,0.03657028843883225,1
316,2024-09-25 22:24:35.776412109,0,018,0.017231015700240125,0.00035016967665419546,-0.8200929087796248,-0.03749200217416164,-0.780232313430562,0.16128906516569114,-1.9698977468461294,0.04506071710321402,1
317,2024-09-25 22:24:36.718219971,0,018,0.005860550085180824,0.0027461855267202373,-0.8867290868900879,-0.03515883043105508,-0.8292712346385996,0.2020097073404115,-1.9484089164664213,0.050222007320553014,1
318,2024-09-25 22:24:36.784459229,0,018,-0.002095661617116826,0.0031668903504782934,-0.905836156458979,-0.03689280613523358,-0.8616101384438012,0.2401597584755314,-1.8971098486904299,0.05204566693167088,1
319,2024-09-25 22:24:36.853905029,0,018,-0.005711670554787186,0.0012770663721934179,-0.8804540804998319,-0.04216992091341986,-0.8774365565963549,0.2750605484962973,-1.8138878157514018,0.050533761169914614,1
320,2024-09-25 22:24:36.921735107,0,018,-0.004206057490286581,-0.003187025778089759,-0.8155370217456115,-0.05025635807370866,-0.8775740058197046,0.30611727643273867,-1.6968309746222718,0.04585078015063972,1
321,2024-09-25 22:24:36.984321045,0,018,0.0029512839451178432,-0.010390131895957805,-0.7177841714312079,-0.06020258292658389,-0.863494113418199,0.3328514564073339,-1.5450962614874302,0.03840855132457721,1
322,2024-09-25 22:24:37.057418213,0,018,0.015958803480404685,-0.020377238578974267,-0.595360312380644,-0.07085442487808105,-0.8372501104552729,0.3549239690987862,-1.3597147211543412,0.028876525697691183,1
323,2024-09-25 22:24:37.123617920,0,018,0.03463078669769499,-0.03306015917397977,-0.4575830068728004,-0.08087287515696294,-0.8013529190484896,0.37214770259426466,-1.1442652477090507,0.01815637521523952,1
324,2024-09-25 22:24:38.035168945,0,018,0.05836534491680647,-0.048209097841463995,-0.3146188293636462,-0.0887727368555515,-0.7586247691112393,0.3844921468731261,-0.9052691998438804,0.007342628411512332,1
325,2024-09-25 22:24:38.101305908,0,018,0.0861501921698209,-0.06545267805504613,-0.1771517233431486,-0.09299660644711016,-0.7120502142041942,0.3920817473094509,-0.6521154075592427,-0.0023481828944051588,1
326,2024-09-25 22:24:38.179550781,0,018,0.11663512630984763,-0.08429411424163465,-0.055955928182107095,-0.09202734430084847,-0.6646259538755633,0.3951876310745935,-0.3964821087276298,-0.009693397563021358,1
327,2024-09-25 22:24:38.236551025,0,018,0.1482720354597697,-0.1041462820498224,0.03867310603566395,-0.08453260492519103,-0.6192035967528929,0.3942121512340578,-0.15144605529973273,-0.013596058650620567,1
328,2024-09-25 22:24:38.314173828,0,018,0.1794859391801448,-0.12437900509888901,0.09765755491083065,-0.06952460749425018,-0.5783188702923222,0.3896657879935763,0.0695273797359279,-0.013192183635358765,1
329,2024-09-25 22:24:38.376174805,0,018,0.20883238974890608,-0.14436686703936627,0.11400665106542801,-0.04650143302762387,-0.5440115804048089,0.38213564152202095,0.253688609905896,-0.007928279141166757,1
330,2024-09-25 22:24:38.437941895,0,018,0.23511580634170232,-0.1635279726189444,0.08365223432835425,-0.015540119170313983,-0.51766730301552,0.3722474245490719,0.39021794415026156,0.0023742397732743987,1
331,2024-09-25 22:24:39.393981934,0,018,0.2574641278006278,-0.1813501832746136,0.006046768130117981,0.022663031804359055,-0.4999332344817053,0.3606277414861823,0.47144232956991733,0.01746215921214839,1
332,2024-09-25 22:24:39.461864014,0,018,0.2753655083823754,-0.19740702291471324,-0.1155872261811953,0.06679856302026442,-0.4907460971054222,0.3478744339806109,0.4938369690886211,0.03660865958680423,1
333,2024-09-25 22:24:39.529708984,0,018,0.28867426707029925,-0.21136612616268852,-0.2743883827412492,0.11499736068885445,-0.48945765642744554,0.3345372812375473,0.4585329133942267,0.05861228622137936,1
334,2024-09-25 22:24:39.597549072,0,018,0.2975882655200349,-0.22298937795188498,-0.4604011286246387,0.16493996247068263,-0.4949954290795892,0.3211046229368443,0.37108840723160813,0.08188046601682572,1
335,2024-09-25 22:24:39.656356934,0,018,0.302594324234274,-0.23212329312496527,-0.6615385225519437,0.21403005452547275,-0.5059996260392793,0.3079905905761179,0.2405209125413782,0.10461605296049598,1
336,2024-09-25 22:24:39.733063964,0,018,0.30438041415076,-0.2386836368480289,-0.8648388071987261,0.25961874292458853,-0.520923766621819,0.295522168767434,0.0778874574272032,0.125071200980935,1
337,2024-09-25 22:24:39.801023926,0,018,0.3037244515063189,-0.24264185778533995,-1.0577386055090305,0.29923039855373135,-0.5381253401203459,0.28392916203202934,-0.10517733888190652,0.1418020762537913,1
338,2024-09-25 22:24:40.744040039,0,018,0.3013821960993323,-0.2440170739518509,-1.2290589063100672,0.3307398515717351,-0.5559714271587962,0.2733409853107936,-0.2976012726594007,0.15385649422175818,1
339,2024-09-25 22:24:40.797958984,0,018,0.29800048404487683,-0.2428722725435492,-1.3695495303590755,0.35248800414971815,-0.5729502349504907,0.26379341412017976,-0.48954776445366815,0.16085368310447398,1
340,2024-09-25 22:24:40.879308838,0,018,0.2940690820198263,-0.23931242440580178,-1.4720452449330794,0.36334770349473217,-0.5877547190218202,0.2552458731842853,-0.6727623222691358,0.16296305262192243,1
341,2024-09-25 22:24:40.937614014,0,018,0.28990254860477455,-0.2334825831505484,-1.531419404200425,0.36275448227157003,-0.5993166155575512,0.24760534434556516,-0.8407709967556788,0.1608178999317538,1
342,2024-09-25 22:24:41.014794189,0,018,0.28563741125549064,-0.2255646138536845,-1.5445312520601857,0.35071953383798116,-0.6068009972237015,0.24075017863896594,-0.988966984243503,0.15540006955653904,1
343,2024-09-25 22:24:41.075840088,0,018,0.28124353156008036,-0.21577325105394043,-1.5102889245211852,0.3278437855798525,-0.6095945291608867,0.23454932745483814,-1.114588254207713,0.1479157831747662,1
344,2024-09-25 22:24:41.151120850,0,018,0.2765533449343052,-0.20435297855042914,-1.4298697462388044,0.2953406130121755,-0.6073174916349927,0.22887694728532154,-1.2165918700436207,0.13966335922804674,1
345,2024-09-25 22:24:42.093214111,0,018,0.27130015362850635,-0.19157514827822783,-1.3070221859013282,0.2550454449906939,-0.5998630063893644,0.22362481817890392,-1.2953554811254975,0.1318983191965315,1
346,2024-09-25 22:24:42.159457031,0,018,0.26514916043011555,-0.1777331516229594,-1.1482074095390404,0.20936375301858737,-0.5874453491042825,0.21871461705512743,-1.3521457926352267,0.1257209446409105,1
347,2024-09-25 22:24:42.216334961,0,018,0.25771622481802064,-0.1631348659612829,-0.9623200540822526,0.16112432829606324,-0.5706371467227676,0.21410842058369112,-1.3884477738357075,0.12199712737364864,1
348,2024-09-25 22:24:42.297684814,0,018,0.24858900908555062,-0.14809431464296458,-0.7599578277452872,0.11335734748459071,-0.5503780315421299,0.20981177167806692,-1.405360801888153,0.12129125748984951,1
349,2024-09-25 22:24:42.354726074,0,018,0.23736771635603135,-0.13292445444187714,-0.5524471180635333,0.06904941048836491,-0.5279420147869242,0.20586631231190278,-1.4032572333788602,0.12380671454563826,1
350,2024-09-25 22:24:42.431544922,0,018,0.22372214497134962,-0.11792958835554264,-0.3508356028400991,0.030914148855961675,-0.5048592639172315,0.20233620551275758,-1.381824490258174,0.1293766720758472,1
351,2024-09-25 22:24:42.492701904,0,018,0.20744605051541518,-0.10339463686334421,-0.1649526306141651,0.0011960901925835018,-0.4827897919116541,0.199293041890875,-1.34043420099329,0.13753288236560293,1
352,2024-09-25 22:24:43.430553955,0,018,0.18849605435450595,-0.0895727855905159,-0.002651745969735749,-0.018475975300014897,-0.4633581194104348,0.19679967017326008,-1.2785748685919311,0.14761375504175567,1
353,2024-09-25 22:24:43.512100830,0,018,0.167013720180227,-0.07667678602000547,0.1306009463479913,-0.02717407644210625,-0.4479887750723685,0.1948951022714901,-1.1961458226656403,0.15886074373833944,1
354,2024-09-25 22:24:43.569669922,0,018,0.14332523808482397,-0.06487538326373642,0.23174650987719247,-0.024695069137375493,-0.4377832266211686,0.19358524526549536,-1.093701417568862,0.17049419587930656,1
355,2024-09-25 22:24:43.647793945,0,018,0.1179044469158253,-0.05428962035988272,0.2998903312205074,-0.011530192111141086,-0.43343575976164544,0.1928396287542839,-0.9727982000437201,0.18177647280180106,1
356,2024-09-25 22:24:43.715607910,0,018,0.09129944974532028,-0.04498480962875702,0.3359520361635666,0.011208328705815656,-0.4351652549354918,0.19259019074729206,-0.8363162277803045,0.1920570480818736,1
357,2024-09-25 22:24:43.770910889,0,018,0.0640501510442517,-0.03696237228894614,0.3422705431758091,0.041891038673430386,-0.4426655649946807,0.19272995197924322,-0.6884361501118057,0.20078930317328714,1
358,2024-09-25 22:24:43.851269043,0,018,0.036626039612612016,-0.030160061530698848,0.3221665917773048,0.07850215840636113,-0.45510436643334107,0.19311205609148652,-0.5341880693325055,0.20752736019709173,1
359,2024-09-25 22:24:44.794820068,0,018,0.009394997453864627,-0.02446398737330658,0.27949696381467176,0.11879455088919329,-0.47120462439011546,0.1935527733018711,-0.3788700412974762,0.21193640654690352,1
360,2024-09-25 22:24:44.862668945,0,018,-0.017371282330202045,-0.01972889171190207,0.2182864608324479,0.16045295952469438,-0.4894167929597452,0.19384430713494466,-0.22765413000994195,0.21383109608242823,1
361,2024-09-25 22:24:44.928913086,0,018,-0.0434453539916542,-0.015802169293726038,0.14249429838714467,0.20125090520487976,-0.5081326296790337,0.19377691160931038,-0.08537744591111406,0.21319971639020385,1
362,2024-09-25 22:24:44.990981934,0,018,-0.06855259587087416,-0.012549114298212446,0.05588669295295087,0.23919492382983157,-0.5258570578419562,0.19315962862875158,0.043686316496844714,0.2101586543586122,1
363,2024-09-25 22:24:45.053064209,0,018,-0.0922816764684885,-0.009875437329319751,-0.03803185662119477,0.2726360303249552,-0.5412939084914276,0.19182953708343733,0.15618204700639207,0.20483945637826828,1
364,2024-09-25 22:24:45.133867920,0,018,-0.11404867114036506,-0.007740629636837527,-0.13603465601102085,0.3003162005477027,-0.5533659581984468,0.18964963136726742,0.25003613426497817,0.1972745528710749,1
365,2024-09-25 22:24:45.191838867,0,018,-0.13313736097558518,-0.006157300786964828,-0.23514436315748571,0.3213439039003692,-0.5612045744716446,0.18650169015473042,0.32455008009505704,0.18735847800041208,1
366,2024-09-25 22:24:46.106688965,0,018,-0.14879866712497314,-0.005176335133815469,-0.33259164297906557,0.3351292846777971,-0.564124035473648,0.18227918605411036,0.38003687969204536,0.17491944633607584,1
367,2024-09-25 22:24:46.183871094,0,018,-0.16036883688530215,-0.004862866467994206,-0.4257731254552916,0.34131706359860187,-0.5615906458833997,0.17688218531639457,0.4171357792612325,0.15987110129058638,1
368,2024-09-25 22:24:46.245417236,0,018,-0.1673645926939137,-0.005271222335869914,-0.5122139339910583,0.33974180374457275,-0.5532029330075783,0.17021413515970663,0.43616273191879373,0.1423670607962168,1
369,2024-09-25 22:24:46.322545898,0,018,-0.16952935518044865,-0.006426778642069806,-0.5895753086756483,0.33041549870825593,-0.5386902946049613,0.16217995574143,0.4367978904042508,0.12288423827026097,1
370,2024-09-25 22:24:46.384574951,0,018,-0.16682756047114708,-0.008320114110362806,-0.6557659035547687,0.31354994941307374,-0.5179220681327092,0.1526876359039508,0.4182658977159518,0.10219771251473124,1
371,2024-09-25 22:24:46.457552979,0,018,-0.15940343641738355,-0.010913702564403945,-0.7091831075899735,0.28961384312912747,-0.490917248809051,0.14165871708634545,0.3800071556803358,0.0812473349666711,1
372,2024-09-25 22:24:46.525271973,0,018,-0.14752229477153356,-0.014155952595302218,-0.7490058430689372,0.2594066576693256,-0.45785059927519284,0.1290489075437414,0.32260719120908066,0.06093562148903365,1
373,2024-09-25 22:24:47.468822021,0,018,-0.1314994142129314,-0.017997589412248743,-0.7753460513425467,0.22410199322362467,-0.4190582572749991,0.11487171507042257,0.24855491371380284,0.04193359650647527,1
374,2024-09-25 22:24:47.536668945,0,018,-0.11162629900089238,-0.022407360111979833,-0.7891311059721917,0.18521673184566168,-0.3750561205945727,0.09921718016972116,0.1624109537201697,0.024575589248069126,1
375,2024-09-25 22:24:47.601229980,0,018,-0.0881287045219356,-0.027380290825427193,-0.7918163394096422,0.1445085755956469,-0.3265729438544635,0.08226224817047852,0.07022179792743628,0.008886791690335254,1
376,2024-09-25 22:24:47.672370117,0,018,-0.061190997974098375,-0.03292949551214296,-0.7851373332907896,0.10384182416034084,-0.27456928888002985,0.06427039742820911,-0.021636400464878518,-0.005265441686870194,1
377,2024-09-25 22:24:47.740217041,0,018,-0.031043057203767557,-0.039061160828233986,-0.7709916370566203,0.0650535802820442,-0.22020835921498755,0.04557857169373829,-0.10777634073661917,-0.01795177887916434,1
378,2024-09-25 22:24:47.802689941,0,018,0.0019329242566411232,-0.04574331774187242,-0.7513801501999592,0.029820477766032114,-0.1647724866889398,0.026572813708236137,-0.18484057959577402,-0.028975433947115856,1
379,2024-09-25 22:24:47.865175049,0,018,0.03712403073259055,-0.05288027720855287,-0.7283374608714631,-0.0004806974197202739,-0.10954981507539788,0.007658022257311939,-0.25195126401886586,-0.03775631274870957,1
380,2024-09-25 22:24:48.787456055,0,018,0.073662800339611,-0.06029931263550569,-0.703858538762062,-0.0248969365831888,-0.055725851010841175,-0.01077141562425186,-0.3105066034783537,-0.04333828795921142,1
381,2024-09-25 22:24:48.861375977,0,018,0.11046042627818814,-0.06775180482617445,-0.6797980412650857,-0.04297516318757829,-0.00429307336758629,-0.028356738074725503,-0.3635267331537281,-0.04450290472868012,1
382,2024-09-25 22:24:48.929224854,0,018,0.14628337815505993,-0.07492742700397788,-0.6576639080604981,-0.05478526345423105,0.04403300429653666,-0.04479611474230579,-0.4148575439697382,-0.039939443277985244,1
383,2024-09-25 22:24:48.997020020,0,018,0.17984720137674756,-0.0814769363734554,-0.6383137450600675,-0.06090196025851073,0.08888925764570907,-0.05986122117009974,-0.4684327762509578,-0.028425525812830414,1
384,2024-09-25 22:24:49.064847900,0,018,0.20990097818202835,-0.08703925256533873,-0.6216817130111253,-0.06234663058927829,0.13029569976944622,-0.07340407209322455,-0.527613026265512,-0.009009916336100491,1
385,2024-09-25 22:24:49.127781006,0,018,0.23529151378283686,-0.09127013301547919,-0.6066750715714619,-0.060482946979930445,0.16860764985797713,-0.08534975825125052,-0.5945628218195557,0.01879081607535127,1
386,2024-09-25 22:24:49.195229980,0,018,0.2550105470654288,-0.09386942524066162,-0.5912968845625136,-0.05686808876392557,0.20440226218672863,-0.09567831474024886,-0.669734154728046,0.05480267052707596,1
387,2024-09-25 22:24:50.143534912,0,018,0.26823403330485396,-0.09460342449770179,-0.5729308835732863,-0.05307134826002429,0.23834850603894916,-0.10440539965605164,-0.7516491442331048,0.09807808863448055,1
388,2024-09-25 22:24:50.206067139,0,018,0.2743642806015642,-0.0933216335985397,-0.5486988820575257,-0.0504778031189482,0.27109380337717526,-0.1115689376371159,-0.8371315660291266,0.14691302183782617,1
389,2024-09-25 22:24:50.279187988,0,018,0.273076175990622,-0.08996866667248954,-0.5159023859163573,-0.050101205754206735,0.30316225400832314,-0.11722150231286647,-0.9219108468962584,0.19899503506604724,1
390,2024-09-25 22:24:50.346969971,0,018,0.2643507228592162,-0.08458796207209635,-0.47256982937228065,-0.052444388146613216,0.33485251911304054,-0.12142444178250097,-1.0013310032098892,0.2516300180685201,1
391,2024-09-25 22:24:50.408026855,0,018,0.2484794830222034,-0.07731253026940217,-0.4179875480522909,-0.05745074083996578,0.3661530014061892,-0.12424185618276624,-1.070925680664202,0.3019960792719044,1
392,2024-09-25 22:24:50.470042969,0,018,0.22604733402943675,-0.06834494745065973,-0.3530099083458648,-0.06456516022616757,0.39671593221116047,-0.12573696472662946,-1.1267753740187056,0.34738665588038564,1
393,2024-09-25 22:24:50.547249023,0,018,0.197914158087197,-0.057935083333855684,-0.28001506771710416,-0.07288212763028824,0.4259136778577694,-0.12597430949643088,-1.1656819006514176,0.3854050888180857,1
394,2024-09-25 22:24:51.494215088,0,018,0.16519969135408713,-0.04636220547608728,-0.20252227381470797,-0.08133020195340697,0.45295311887819933,-0.12502713682681052,-1.1852678705970539,0.41409228293453065,1
395,2024-09-25 22:24:51.548434082,0,018,0.12925351788935183,-0.0339224715176678,-0.12463182017518752,-0.08883951744119396,0.47699411564939953,-0.12298532553794331,-1.1841208982765552,0.4320060677050686,1
396,2024-09-25 22:24:51.626560059,0,018,0.09159189732819403,-0.02091935234453535,-0.050484288910205406,-0.09446298892810576,0.4972274521344087,-0.11995926642430738,-1.1620165381193985,0.4382847819567903,1
397,2024-09-25 22:24:51.689697021,0,018,0.053805495292911475,-0.007655367427896338,0.016167333419985087,-0.09745242512575077,0.5129073356684332,-0.11607895277918048,-1.1201672949233703,0.43271941688123616,1
398,2024-09-25 22:24:51.750675049,0,018,0.01746614411366201,0.0055727054212028355,0.07228451393295933,-0.0972976814536803,0.5233786839764949,-0.11149274728656679,-1.0614086706051187,0.415834037245218,1
399,2024-09-25 22:24:51.828352051,0,018,-0.015938982894193023,0.01847192285029884,0.11577872925149395,-0.09372510296090333,0.5281431827853269,-0.10637106937025667,-0.9901726969346918,0.3889226979330162,1
400,2024-09-25 22:24:51.890156006,0,018,-0.0450462285502948,0.0307470893356747,0.1456021667158588,-0.08665526221422873,0.5269555917158486,-0.10091396169261425,-0.9120902486570676,0.3539670146199927,1
401,2024-09-25 22:24:52.843799072,0,018,-0.06865636258420277,0.04209958154512717,0.16163044221239872,-0.07614001834908202,0.5198963915919167,-0.09535550727618951,-0.8332482760270717,0.31342006912136045,1
402,2024-09-25 22:24:52.911686035,0,018,-0.08579823142572338,0.052237899404285734,0.1643831307573662,-0.06230529078935222,0.5073846335446571,-0.08996002063743487,-0.7593880128948656,0.2699332913525928,1
403,2024-09-25 22:24:52.965681152,0,018,-0.0957988127130859,0.060897188075854085,0.15476756049862278,-0.04532112942769848,0.49013994960652024,-0.08501062330773808,-0.6953723154273362,0.22612838207773744,1
404,2024-09-25 22:24:53.047311035,0,018,-0.09833252173951183,0.06785987725080855,0.13402124777708993,-0.025416222954880684,0.4691129059130121,-0.08079180348191195,-0.644985698365577,0.1844580092886058,1
405,2024-09-25 22:24:53.115164062,0,018,-0.09345432073923968,0.07297405026358642,0.10384518395792292,-0.0029307953564328294,0.44538155289680115,-0.07756526831345853,-0.6108530319283285,0.1471221568824884,1
406,2024-09-25 22:24:53.182198975,0,018,-0.08163350901797564,0.0761703827050759,0.06656983634944606,0.02162882575319781,0.42001040600390577,-0.07554139091912006,-0.5943133432778986,0.11599326096977267,1
407,2024-09-25 22:24:53.243772949,0,018,-0.06376619202335342,0.07747409926355968,0.02524338577008693,0.04756025165739632,0.39390485995532654,-0.07485695060081285,-0.5953289698086485,0.09254359090649403,1
408,2024-09-25 22:24:54.193837891,0,018,-0.041120636814918676,0.07700451093462389,-0.016336273682073583,0.07394882454015335,0.3677211313422678,-0.07557104353083517,-0.6125422834619169,0.07778432490238686,1
409,2024-09-25 22:24:54.261739990,0,018,-0.01521108988492201,0.07496085569234891,-0.05361429329333509,0.09965347000668298,0.341865133605665,-0.07767952428665979,-0.6434507321466373,0.07221255158688986,1
410,2024-09-25 22:24:54.329593018,0,018,0.012354729943134683,0.07160064904292715,-0.08135054693929684,0.12331179459193366,0.3165629920101971,-0.08113707498196279,-0.6846519633300033,0.07576625052904092,1
411,2024-09-25 22:24:54.397387939,0,018,0.0400167102582127,0.06721587565345692,-0.09384046393440208,0.1433853784736841,0.29196714743074215,-0.08587643099308664,-0.7321305239358195,0.08779789911137509,1
412,2024-09-25 22:24:54.460179199,0,018,0.06638920284373293,0.06210825304973687,-0.0852958572250743,0.1582470470204664,0.26827486442510023,-0.09182163108860963,-0.7815079640095667,0.10707768181510197,1
413,2024-09-25 22:24:54.533044189,0,018,0.0903784156741467,0.056564252038305084,-0.05034509867619828,0.16629960892082968,0.24583376197808535,-0.09889590314114306,-0.8282276537133513,0.13183972107017428,1
414,2024-09-25 22:24:54.598560059,0,018,0.11128205701761835,0.05083194697921872,0.015435269434844056,0.16610423436586982,0.225189690576648,-0.10702309678627006,-0.867731477864255,0.1598748350021576,1
415,2024-09-25 22:24:55.530952881,0,018,0.12885684174971304,0.0451015656475893,0.11505337540229271,0.15649185457509712,0.20704685447884277,-0.11612092979912395,-0.895637815271724,0.18865239472822606,1
416,2024-09-25 22:24:55.608617920,0,018,0.14334276097993995,0.03949042379585452,0.24971971538856713,0.13665414966744568,0.19215866844007104,-0.12608734605218824,-0.9078982321093708,0.21546407546208335,1
417,2024-09-25 22:24:55.679593018,0,018,0.155440669403354,0.03403317523349503,0.41852969232483594,0.10623349711000296,0.1811975882921641,-0.1367844010062509,-0.9009550694155873,0.23760285367789225,1
418,2024-09-25 22:24:55.747407959,0,018,0.1662472184104127,0.02867860559573298,0.6182416031862881,0.0654135563267157,0.17464632988198064,-0.14802530275500803,-0.8718870124980576,0.2525675213405811,1
419,2024-09-25 22:24:55.808931152,0,018,0.17715040259610557,0.023292740580164412,0.8432268693963408,0.014974586611794904,0.17272954868903428,-0.15956905745634173,-0.8184902066576157,0.2582551849065089,1
420,2024-09-25 22:24:55.871620850,0,018,0.18968245035824222,0.017668296324140357,1.0857038445101586,-0.04373309819096103,0.17538261857437465,-0.1711239374779873,-0.7393027958350895,0.25312129204709183,1
421,2024-09-25 22:24:55.948313965,0,018,0.2053336757214018,0.011542667416969963,1.336357727983183,-0.10891539456131032,0.18224795438593344,-0.18235837573750957,-0.6335929721343936,0.23630286658416771,1
422,2024-09-25 22:24:56.869019043,0,018,0.2253577416767217,0.004624242191261277,1.5852717881985927,-0.17852658732273485,0.19269474109545592,-0.19291638441409345,-0.5012894642380405,0.20768439926723295,1
423,2024-09-25 22:24:56.930037109,0,018,0.25061580703728964,-0.0033782870436297866,1.822862623960392,-0.2504484505246501,0.20585701983307914,-0.20243339431879642,-0.34287866188355026,0.1678830474193996,1
424,2024-09-25 22:24:56.992476074,0,018,0.28148756143721493,-0.012727242537619216,2.0405177567605843,-0.3225853860637932,0.22067796726125397,-0.21054895127370452,-0.15934534938166042,0.11816138994296221,1
425,2024-09-25 22:24:57.070550049,0,018,0.31784374894614015,-0.023625615844176707,2.230874374664701,-0.3928785408769689,0.23594967613027468,-0.2169150055183408,0.04779375541510661,0.06030364016562994,1
426,2024-09-25 22:24:57.132148926,0,018,0.35906375144706726,-0.0361839101847756,2.3878634415401576,-0.4593085059689034,0.25035026887738476,-0.22120147469497642,0.2763549629012533,-0.003518109338305899,1
427,2024-09-25 22:24:57.193652100,0,018,0.40408942493275024,-0.050390598083617164,2.5066591672271454,-0.5199451136668524,0.26249051513171356,-0.22310383128908354,0.523265743404179,-0.07088442586860855,1
428,2024-09-25 22:24:57.271311035,0,018,0.45150919850151233,-0.06609609801676963,2.583640960995893,-0.5730442515634764,0.27098133748344916,-0.22235771997909254,0.7842572624777155,-0.13926151080820146,1
429,2024-09-25 22:24:58.212927002,0,018,0.4996614044713327,-0.08301521519808415,2.6164294242212325,-0.6171562324809865,0.27452322118088573,-0.21876127307779428,1.0534441895091462,-0.20608720498892008,1
430,2024-09-25 22:24:58.274614014,0,018,0.5467440348596839,-0.10074459653463434,2.603954696648229,-0.6512096184328592,0.2720094836896414,-0.21220141798741587,1.3228716969572827,-0.26879718717904777,1
431,2024-09-25 22:24:58.354162109,0,018,0.590922442031941,-0.11878700658648496,2.546430677267996,-0.6745422113785827,0.26263538746475457,-0.20267928454658146,1.5823178247112388,-0.32483914244969747,1
432,2024-09-25 22:24:58.413811035,0,018,0.6304320216832107,-0.1365771734240789,2.445157252578982,-0.6868692352257998,0.24599851221733368,-0.1903287679243632,1.8196527307659902,-0.3717342844735071,1
433,2024-09-25 22:24:58.489808105,0,018,0.6636754300577136,-0.15351115633538673,2.302238638579993,-0.6882146987473261,0.22215799564118813,-0.17542139678708274,2.02180831455291,-0.40719590432325964,1
434,2024-09-25 22:24:58.557614014,0,018,0.6893081057746974,-0.16898228388610648,2.1204264736305047,-0.6788547625038975,0.19162272155582855,-0.15835369429812995,2.176178729914509,-0.42927824965783246,1
435,2024-09-25 22:24:58.625399170,0,018,0.7062959046606186,-0.1824193808676969,1.9031999954191738,-0.6593030368317271,0.15527174440762534,-0.13961856744665943,2.2722071152319074,-0.43654222239787016,1
436,2024-09-25 22:24:59.534117920,0,018,0.713932221495325,-0.19331802758507818,1.6549653081190578,-0.6303272887675055,0.11423815212448354,-0.11976545431064936,2.3028874943221846,-0.4282332306072486,1
437,2024-09-25 22:24:59.610875000,0,018,0.7118208867007916,-0.20125871723410396,1.3811781058802308,-0.5929656709858295,0.06978365154693443,-0.09935496595135646,2.265835793551729,-0.40443011040828175,1
438,2024-09-25 22:24:59.679739014,0,018,0.6998430217398027,-0.20591219679072817,1.0883127784498925,-0.5485187509470042,0.023173817558798857,-0.07891484044122989,2.1635891122026343,-0.3660881998084803,1
439,2024-09-25 22:24:59.747582031,0,018,0.6781187935932474,-0.20703699139825552,0.783685464148896,-0.4985111959161087,-0.024436131872913096,-0.05890469128829307,2.003010920976377,-0.3149273602940302,1
440,2024-09-25 22:24:59.811670166,0,018,0.6469639006428812,-0.20447408934745437,0.47512058603792356,-0.4446266552420685,-0.07208106383889244,-0.03969465732049328,1.7940446942793091,-0.25320014039858907,1
441,2024-09-25 22:24:59.883128906,0,018,0.6068409212121865,-0.19814007254983967,0.17047210166634783,-0.38862389035698003,-0.11901001772428443,-0.021557573133033067,1.5483605191677712,-0.18345165590705148,1
442,2024-09-25 22:24:59.935735107,0,018,0.5583130394726915,-0.18801803458319802,-0.1228832401588931,-0.3322514827474337,-0.1646623600027686,-0.004669703509546194,1.278426453418872,-0.10838366914072366,1
443,2024-09-25 22:25:00.894179199,0,018,0.5020148110467165,-0.1741470955533,-0.3983987116274791,-0.2771825699307394,-0.20862735328372514,0.010884370555523657,0.9971190373961843,-0.03084480098391338,1
444,2024-09-25 22:25:00.957267090,0,018,0.4386525378328399,-0.15661365949463066,-0.6504623176507919,-0.22497211134107775,-0.2506098292787813,0.025102449859706492,0.7175292984334483,0.04613544138377106,1
445,2024-09-25 22:25:01.029864014,0,018,0.36902578582790246,-0.13554863762961247,-0.8743475056610137,-0.1770129720524621,-0.290399972975765,0.03804868184012459,0.45260528964851177,0.11936771625019166,1
446,2024-09-25 22:25:01.089026855,0,018,0.2940419180235498,-0.11113277932097326,-1.066211248616974,-0.1344684847527132,-0.32783696720487715,0.049832228042676195,0.2145998659628537,0.18561224048999478,1
447,2024-09-25 22:25:01.153023926,0,018,0.21470509715659594,-0.0836070440445038,-1.2232529086925026,-0.09818721977993922,-0.36276673600988346,0.060585748300856404,0.014456441780195997,0.2417542797357758,1
448,2024-09-25 22:25:01.227072998,0,018,0.13208428159292004,-0.05328076900821137,-1.3439701519373055,-0.06862319932362992,-0.3950022226872434,0.07044827574862642,-0.13882767819524847,0.2850167394778783,1
449,2024-09-25 22:25:01.289983154,0,018,0.04727478350339996,-0.020531874256752534,-1.4283630829627327,-0.0457788218224437,-0.4242917872077666,0.07955468454914301,-0.23885356334670296,0.31318070585263535,1
450,2024-09-25 22:25:02.244519043,0,018,-0.03863317156310799,0.014199897772827128,-1.4779838015433462,-0.029184598303449178,-0.45029770954634757,0.08803044449715781,-0.28240250292975566,0.32477669080274335,1
451,2024-09-25 22:25:02.312385986,0,018,-0.12457464046686799,0.050420099775220155,-1.495838775149294,-0.017930492225307935,-0.4725896732511468,0.09598650909069481,-0.26982181286068524,0.31921573471838244,1
452,2024-09-25 22:25:02.380243896,0,018,-0.20952792851665494,0.08758268791898251,-1.4862270252013583,-0.010747410375742892,-0.4906607397989076,0.10351000700716621,-0.20507757592821532,0.2968365219802361,1
453,2024-09-25 22:25:02.445489014,0,018,-0.2925390669448966,0.12509342678713922,-1.4545608030311998,-0.00612363865777809,-0.5039686341465889,0.11065235888663406,-0.09539822929023896,0.25884869462754106,1
454,2024-09-25 22:25:02.512809082,0,018,-0.37275023432393567,0.1623231338908974,-1.4071388476744047,-0.0024442330877356,-0.51199402623478,0.11742055203382942,0.04940229461405082,0.20718030335685392,1
455,2024-09-25 22:25:02.569736084,0,018,-0.4494259173657028,0.19863514075263974,-1.3508316617764209,0.001862049009555966,-0.5142996263631315,0.1237757578738639,0.21774209199997488,0.14427668483573097,1
456,2024-09-25 22:25:02.646519043,0,018,-0.5219714215573871,0.23342105096687507,-1.2926542802186496,0.008186041986241692,-0.5105833370949178,0.1296398228171205,0.39704226318478386,0.07292200970422573,1
457,2024-09-25 22:25:03.594629150,0,018,-0.5899363327422583,0.26613465414761484,-1.239234653813877,0.017614411527698867,-0.5007373912769066,0.13490866888640535,0.5742551583836368,-0.0038575360113613775,1
458,2024-09-25 22:25:03.661474121,0,018,-0.6529996421387398,0.2963182199429189,-1.1962853230966708,0.030820885015266926,-0.4849191919144064,0.13947122486163846,0.7361082937233089,-0.0828187864472705,1
459,2024-09-25 22:25:03.722644043,0,018,-0.7109434796730847,0.3236208138268607,-1.168231942659574,0.04799699774805778,-0.463601028629526,0.1432289471736367,0.8693357799938376,-0.16054071320658803,1
460,2024-09-25 22:25:03.798175049,0,018,-0.7636224911716301,0.34780881592660323,-1.158047902480384,0.06885253988737562,-0.43754719880864673,0.14610740703160158,0.9612645693425543,-0.2335578212257213,1
461,2024-09-25 22:25:03.866010010,0,018,-0.8109262526845075,0.36876634061814123,-1.1672509027298392,0.09269314787601912,-0.4077120943277112,0.14805644592888448,1.0008334085572486,-0.29858246029615015,1
462,2024-09-25 22:25:03.922882080,0,018,-0.8527387513865559,0.3864842304935576,-1.1960096447825947,0.1185488942739421,-0.3751175560579936,0.14904570242040568,0.9797639281512327,-0.3527381362449087,1
463,2024-09-25 22:25:04.000092041,0,018,-0.8889227984454984,0.40104208281700615,-1.243279350309827,0.14530031542105076,-0.34077674506677824,0.1490651396363581,0.8935245092313319,-0.3937346239283331,1
464,2024-09-25 22:25:04.929760986,0,018,-0.9193588506877578,0.41259082884464965,-1.3068899066437838,0.17175922487136883,-0.30568323352178656,0.1481336726681979,0.7418758390403811,-0.41997425329195265,1
465,2024-09-25 22:25:05.012332031,0,018,-0.9440295163418725,0.42133960764436845,-1.3836227649086617,0.19671384946800569,-0.2708347212783741,0.14631229765385734,0.5289285277589981,-0.4306119858906969,1
466,2024-09-25 22:25:05.080167969,0,018,-0.9630981625054619,0.4275448858684604,-1.469394063547454,0.21898425590901216,-0.23724775128733586,0.14371648303567364,0.2627669838424079,-0.42559023531170675,1
467,2024-09-25 22:25:05.144515136,0,018,-0.9769319373018238,0.43149682784745935,-1.5596164574620124,0.2375180556612496,-0.20594134491091917,0.14052416996661196,-0.045171750459589495,-0.4056624453905217,1
468,2024-09-25 22:25:05.215831055,0,018,-0.9860701989311571,0.4334999248054509,-1.6496730243965427,0.25151430058193996,-0.17790017403301467,0.13697750379002274,-0.38079659570385294,-0.37239546161918546,1
469,2024-09-25 22:25:05.282960938,0,018,-0.991182000549964,0.43385163915054453,-1.7353005508207415,0.26053642970412466,-0.15404357256147436,0.13337727364896768,-0.7281431218252975,-0.328103943679714,1
470,2024-09-25 22:25:05.344844971,0,018,-0.9930454214976847,0.4328281465502445,-1.8127162952853586,0.26457761202595337,-0.1352196332276014,0.13007101455711398,-1.0702863077663836,-0.27567657009273094,1
471,2024-09-25 22:25:06.283666992,0,018,-0.9925413431825287,0.4306828544990529,-1.878546616763107,0.26406336254678386,-0.12222863873238932,0.12743880175830016,-1.3903535681406418,-0.21830804305296578,1
472,2024-09-25 22:25:06.360821045,0,018,-0.9906317905092216,0.42765357319577724,-1.9297932908681588,0.25980510829448344,-0.1158603157731561,0.12587928983717286,-1.6726308688519733,-0.15919051220860936,1
473,2024-09-25 22:25:06.429513916,0,018,-0.9883007122835635,0.4239680533334182,-1.964003479942787,0.25293371026346256,-0.11690937681696088,0.12579319767742006,-1.903746445342215,-0.10122547910388907,1
474,2024-09-25 22:25:06.485930908,0,018,-0.9864602586792444,0.41984056233296096,-1.9795594348753274,0.24481987973479566,-0.12614110113147922,0.127561449984154,-2.0737117412342956,-0.046816005550404834,1
475,2024-09-25 22:25:06.565167969,0,018,-0.9858500969707092,0.41546063298631397,-1.9758602740251558,0.2369633360518416,-0.14421260562619045,0.13151980763587376,-2.1765483830948087,0.0022335438640690894,1
476,2024-09-25 22:25:06.632980957,0,018,-0.9869627925288295,0.4109814206319232,-1.9532839556488562,0.23085555704607436,-0.17157092569492147,0.1379326114248166,-2.210476827596012,0.0447487838217318,1
477,2024-09-25 22:25:06.686194824,0,018,-0.9900122784795907,0.40651387432080544,-1.912999474298553,0.22785127673075128,-0.2083421580331524,0.14696807114191726,-2.1777371718170517,0.0801952462861683,1
478,2024-09-25 22:25:07.613135986,0,018,-0.9949424776276373,0.4021259232311264,-1.8567392013374184,0.22906601297165413,-0.25423693633198674,0.15868069196030188,-2.0839851990514164,0.1086493425035756,1
479,2024-09-25 22:25:07.686511962,0,018,-1.0014630526632344,0.397841134563061,-1.7865878686400758,0.23529130203878942,-0.3085141576386308,0.17300612779684296,-1.9373312041333814,0.13069949861881167,1
480,2024-09-25 22:25:07.754324951,0,018,-1.009096221019789,0.3936341553834931,-1.704810736687825,0.24692814929038376,-0.3700223359831027,0.18976756004375964,-1.747390486361365,0.1473139961803113,1
481,2024-09-25 22:25:07.822133057,0,018,-1.017219364096075,0.3894269013247741,-1.6137366742024652,0.2639519318237418,-0.43729174677835037,0.20868814724828644,-1.5246496195782726,0.15973004277315808,1
482,2024-09-25 22:25:07.876446045,0,018,-1.02509559543854,0.3850922467620778,-1.515691385801062,0.28591322821705756,-0.5086341954639791,0.22940463139462824,-1.2801022297027773,0.16935849061327266,1
483,2024-09-25 22:25:07.953591064,0,018,-1.0318941876804157,0.3804680315371602,-1.4129483138848957,0.31196968664626695,-0.5822333588126906,0.2514803404728652,-1.0249633680085075,0.17766918621352612,1
484,2024-09-25 22:25:08.015135010,0,018,-1.036710997608847,0.37537800607764843,-1.307678264346374,0.34095120271780477,-0.6562381907492081,0.2744195410317547,-0.7703844966680474,0.1860588862594144,1
485,2024-09-25 22:25:08.968676025,0,018,-1.0386067317616399,0.36965466668194097,-1.2019216237725836,0.37146259740414234,-0.7288649264328902,0.29768602811729566,-0.5271960755578583,0.19573672486385374,1
486,2024-09-25 22:25:09.036570068,0,018,-1.036676298202357,0.36316122192006,-1.097597471786363,0.40200489038334364,-0.7984831734817561,0.3207250553231653,-0.3056726589787329,0.20764458138852257,1
487,2024-09-25 22:25:09.104382080,0,018,-1.0301386613256924,0.3558097332263488,-0.9964856838301692,0.43107589526001716,-0.8636607925731321,0.3429854272082341,-0.11520627178075729,0.22239124955569883,1
488,2024-09-25 22:25:09.164406982,0,018,-1.018416204608589,0.3475706176745073,-0.9001154085886933,0.4572305478772383,-0.9231740526643325,0.3639411428003865,0.03627629325624624,0.24017039578848143,1
489,2024-09-25 22:25:09.225939941,0,018,-1.001180614889966,0.33847176746310603,-0.8096437459945759,0.4791259248092983,-0.9759987930916817,0.38311186012342413,0.14314917349412776,0.2606704097772946,1
490,2024-09-25 22:25:09.303114014,0,018,-0.978370194841975,0.32859149146587596,-0.725893269696734,0.4955903053795182,-1.021282483465902,0.4000783977159883,0.202829094567769,0.2830369205734925,1
491,2024-09-25 22:25:09.375666016,0,018,-0.9501970204383738,0.31805025921871316,-0.6495850917089788,0.5057235179705998,-1.0583051213969854,0.4144923902616941,0.21598525641507857,0.30594640507025256,1
492,2024-09-25 22:25:10.287661133,0,018,-0.9171459470396501,0.3070021349665989,-0.5816416748204263,0.509002661983839,-1.0864528309957533,0.42608417919573627,0.18614990624657193,0.32778276743842044,1
493,2024-09-25 22:25:10.350148926,0,018,-0.8799469177086062,0.29562438781403433,-0.5233850407537458,0.5053605015918338,-1.1052129212060158,0.43467055944843935,0.11901756081611378,0.34686113977092625,1
494,2024-09-25 22:25:10.427326904,0,018,-0.8395059416610295,0.28410417386715175,-0.4764823569592035,0.49520284777864254,-1.1141872767664605,0.4401602484260142,0.021706179782345368,0.3616475220752218,1
495,2024-09-25 22:25:10.497196045,0,018,-0.7968032368134174,0.2726220453955785,-0.44260104692436225,0.4793380889659152,-1.113136510044888,0.442558182470937,-0.0979138680334447,0.3709357893438916,1
496,2024-09-25 22:25:10.564948975,0,018,-0.7527872234578064,0.26133432777638455,-0.4229046285330048,0.45882604872010885,-1.1020626517616874,0.44197172164840204,-0.23184446890914023,0.37396259318266084,1
497,2024-09-25 22:25:10.632792969,0,018,-0.7082951661846218,0.25035990041055534,-0.4176064345052945,0.43479168195007645,-1.0812968521644286,0.4386145467832934,-0.3726087238596332,0.370470212500977,1
498,2024-09-25 22:25:10.700575195,0,018,-0.664015508270007,0.23977624905041692,-0.42576872775731633,0.4082640047701742,-1.0515362646504378,0.43279753192750214,-0.5138968965531986,0.36072657570912825,1
499,2024-09-25 22:25:11.633714844,0,018,-0.6204888984750221,0.22962338769612253,-0.4454450281664406,0.38008744624290114,-1.0138067913480142,0.42490153867159086,-0.6510586037981662,0.34548889366905683,1
500,2024-09-25 22:25:11.706979980,0,018,-0.5781331126492517,0.2199095160616507,-0.47409345696096916,0.3509116668470786,-0.969383064013339,0.41533882056804405,-0.7813391725049665,0.32590746505482426,1
501,2024-09-25 22:25:11.776387939,0,018,-0.5372689304346495,0.2106138014586557,-0.5090191439990828,0.32122749900190123,-0.9197153079610375,0.4045141591906248,-0.9038401233732394,0.30339500034623795,1
502,2024-09-25 22:25:11.836597900,0,018,-0.4981279730969768,0.2016864408532055,-0.5476265378736754,0.29141653785791083,-0.8663774001269425,0.3927919951416135,-1.0191287203583226,0.2794864439195977,1
503,2024-09-25 22:25:11.915191895,0,018,-0.4608407450514491,0.19304975187866932,-0.5874553944557328,0.2618031108639993,-0.8110086435284286,0.3804707233501394,-1.128465805239844,0.25570251616922846,1
504,2024-09-25 22:25:11.975318115,0,018,-0.42541387274503967,0.1846038518633936,-0.6261199767792976,0.23270859662325324,-0.7552234526712048,0.3677649978031675,-1.2328735958167567,0.23343035145150567,1
505,2024-09-25 22:25:12.050827148,0,018,-0.39170705104426345,0.17623713555919507,-0.6612709967883896,0.20450498605781803,-0.7005009839770815,0.3547981830804362,-1.3323627492956074,0.2138254439333405,1
506,2024-09-25 22:25:12.993834961,0,018,-0.35942379695941207,0.16783895866476642,-0.690612716076559,0.17765047815026877,-0.6480955523459708,0.34160696175635336,-1.4254502158359754,0.197729577120551,1
507,2024-09-25 22:25:13.054986084,0,018,-0.3281256961391818,0.1593114450875928,-0.7119218306405996,0.15267916878585658,-0.5989967512259732,0.32815850736640323,-1.508944016612326,0.18561434300599977,1
508,2024-09-25 22:25:13.117505127,0,018,-0.29726243324854146,0.150578229866541,-0.7230191692395048,0.13013420292660516,-0.5539322955651317,0.3143787935639911,-1.5780021762217533,0.17757399025233458,1
509,2024-09-25 22:25:13.197362061,0,018,-0.266205561271194,0.14158950336464166,-0.7217281602745586,0.11046417139468388,-0.5133893753548651,0.30018880757806204,-1.6265467696544995,0.1733834851848781,1
510,2024-09-25 22:25:13.265196045,0,018,-0.23429199613360893,0.13232334770704532,-0.7058958288963518,0.0939134924475898,-0.4776357335099727,0.2855422509118056,-1.6480728766008292,0.17261912069776256,1
511,2024-09-25 22:25:13.333009033,0,018,-0.20088847550031672,0.12278192222060583,-0.6735332389540737,0.08044135098407557,-0.44672520691494755,0.27045505377431983,-1.6367245271681397,0.1748121603622802,1
512,2024-09-25 22:25:13.400824951,0,018,-0.16546436873699613,0.11298145952174711,-0.6230826605209201,0.06970329126139548,-0.42047822951620967,0.2550185182099802,-1.5884242521240064,0.17959251895766234,1
513,2024-09-25 22:25:14.333949951,0,018,-0.1276464052362051,0.10294070265018894,-0.5537152132382508,0.061099255773315146,-0.3984464640472697,0.23939503403392942,-1.5019399858113343,0.18680215835119016,1
514,2024-09-25 22:25:14.411158936,0,018,-0.08724627620897264,0.09267638242990632,-0.4655048323181149,0.05385895432974311,-0.37988134760147274,0.22380084845362383,-1.3797786210274157,0.19657048227581053,1
515,2024-09-25 22:25:14.479691895,0,018,-0.044267224134100454,0.08220822544148922,-0.3594202227712427,0.04713684641381962,-0.36372288688734644,0.20848032980447448,-1.228603936739875,0.20931850460904547,1
516,2024-09-25 22:25:14.534284180,0,018,0.001106834082792844,0.07156678673730307,-0.23718475272157363,0.040098630308839804,-0.3486376483320693,0.1936777966515124,-1.058856453027032,0.2256625094128915,1
517,2024-09-25 22:25:14.611272217,0,018,0.04853601925569239,0.06079720643999112,-0.10105169168667626,0.03198455042831954,-0.33314639898301324,0.17961682735603043,-0.8836067251612199,0.24625041174772688,1
518,2024-09-25 22:25:14.683163818,0,018,0.09755667289038729,0.049958003298738875,0.04643588078989904,0.022156716756077884,-0.3158376944008704,0.16649281842935612,-0.7170170255947129,0.2715957153812766,1
519,2024-09-25 22:25:14.750788818,0,018,0.14761950367021262,0.03911700678379828,0.20254409695512207,0.010159001867145506,-0.2955976078496078,0.1544748310408287,-0.5727215871024803,0.30192553021133084,1
520,2024-09-25 22:25:15.681385010,0,018,0.19813399640499438,0.02834556707886218,0.36420840895619894,-0.004201664366193346,-0.27177913988590197,0.14370938144398807,-0.4622240709362509,0.337024269296219,1
521,2024-09-25 22:25:15.761958984,0,018,0.24850972739622337,0.017711037186706614,0.5277789731415364,-0.020783175180955474,-0.24428266832745196,0.13432248089115523,-0.3935178407018676,0.3761048994078476,1
522,2024-09-25 22:25:15.829585938,0,018,0.29817420573299297,0.0072686068881245205,0.6888750114323702,-0.03908818175426713,-0.21356078070769935,0.12641944369085975,-0.37033092747168544,0.41778953039758193,1
523,2024-09-25 22:25:15.885036865,0,018,0.34655329540551316,-0.0029447327224702002,0.8424354240629975,-0.05831336055180305,-0.18056666295450746,0.1200815472837713,-0.39217597766333556,0.4602349650502482,1
524,2024-09-25 22:25:15.964104004,0,018,0.3930249696965963,-0.0129123058183234,0.9828994346323676,-0.0774449938186783,-0.146646758637036,0.11535809670836135,-0.4549561907907625,0.501348775601816,1
525,2024-09-25 22:25:16.026112061,0,018,0.4368730584654431,-0.02263709382457895,1.104467265824894,-0.0953687145849459,-0.11337451738864751,0.11225489828779509,-0.5517666134306054,0.539011297984361,1
526,2024-09-25 22:25:16.099104980,0,018,0.47726499842193437,-0.03214205218997369,1.2014848814531658,-0.1109902410203535,-0.08234950205852881,0.11072289808375678,-0.6737178186450457,0.5712575587246264,1
527,2024-09-25 22:25:17.043024902,0,018,0.5132723802687081,-0.04147564629582248,1.2689741251421722,-0.12337070785259038,-0.05500840856902999,0.11065128745122502,-0.8107949757049826,0.5964183947303627,1
528,2024-09-25 22:25:17.105746094,0,018,0.5439426913170209,-0.05072291224888443,1.303188479489884,-0.13184835929982391,-0.03248443623141676,0.11186834886942958,-0.9528095396548212,0.6132281578505209,1
529,2024-09-25 22:25:17.168615967,0,018,0.5684085060140665,-0.060015907734199424,1.3019895102798227,-0.13610713196477797,-0.015530922950712681,0.11415086622303883,-1.0903828417007666,0.6208900506023144,1
530,2024-09-25 22:25:17.247324951,0,018,0.5860068559148048,-0.06953495774259569,1.264907516836836,-0.13618099024593996,-0.004507344032529081,0.11723987514514021,-1.2157166845603973,0.6190821530298227,1
531,2024-09-25 22:25:17.309463135,0,018,0.5963849554457273,-0.0794964198574811,1.1929298121211929,-0.1324143205139778,0.0005966263283101506,0.12085853312067979,-1.3228534310165696,0.6078906974946995,1
532,2024-09-25 22:25:17.372807129,0,018,0.5995684235705524,-0.0901290501158946,1.0882495180846856,-0.12541591585463696,0.0001323818468655254,0.12472670256472886,-1.407349480045594,0.587677210611127,1
533,2024-09-25 22:25:17.444625977,0,018,0.5959666683223211,-0.10164390605414793,0.9542291176898059,-0.11603784262520848,-0.005228242362819728,0.12856817158132383,-1.4656549667759806,0.5589346477798175,1
534,2024-09-25 22:25:18.368568848,0,018,0.5863117295878879,-0.11420251426745145,0.795594345397592,-0.10536897967198791,-0.014522016097068154,0.1321131200175376,-1.494630409066748,0.5222164970474683,1
535,2024-09-25 22:25:18.437060059,0,018,0.5715618537105307,-0.12788747355832394,0.6186252843533964,-0.09469661745527336,-0.026550884816454342,0.1351033064507338,-1.4913968834586768,0.47817375219320873,1
536,2024-09-25 22:25:18.503992188,0,018,0.5528096555421836,-0.142679157416209,0.43112725440212435,-0.08541087205292248,-0.03995410674345589,0.13730155212661416,-1.4534241867726623,0.42764917394231955,1
537,2024-09-25 22:25:18.565099121,0,018,0.5312086306156073,-0.15844200078827583,0.2421315896965039,-0.07887812236237775,-0.05326745038864495,0.13849934827246405,-1.378705816705317,0.371747588169682,1
538,2024-09-25 22:25:18.640074951,0,018,0.5079078927233944,-0.17492387125066236,0.06139359384639958,-0.07632948931377012,-0.06497251330122356,0.13851986975047603,-1.2659866014301413,0.31183920206366056,1
539,2024-09-25 22:25:18.708374023,0,018,0.48398782986350647,-0.19176975196518298,-0.10118973275488863,-0.07878995565235576,-0.0735672432698127,0.13722225199966684,-1.115079765584512,0.249497666631133,1
540,2024-09-25 22:25:18.775291992,0,018,0.4603997342906529,-0.2085459821603324,-0.23614194373613484,-0.08704176513408178,-0.07766747035668697,0.13451331109840042,-0.9272368970904642,0.18638758172214326,1
541,2024-09-25 22:25:19.719285889,0,018,0.43791118985778216,-0.22476815107687195,-0.33496483028150914,-0.10159559130727731,-0.07611917251964936,0.13036475170498968,-0.7054128259802193,0.12412089694782949,1
542,2024-09-25 22:25:19.783120117,0,018,0.4170598128319305,-0.23992884503477396,-0.3907586203255107,-0.12265010267548462,-0.06810294436580944,0.12482667967402401,-0.4542996277641666,0.06412127449353867,1
543,2024-09-25 22:25:19.854965088,0,018,0.3981297569992445,-0.25352790149953885,-0.39886241053959587,-0.15004929637275943,-0.053215138057573656,0.11802714927116326,-0.1801882194590939,0.007544646288238756,1
544,2024-09-25 22:25:19.922774170,0,018,0.38116607451261475,-0.2651089836879801,-0.3573901481634678,-0.18325801533306812,-0.03148730195644267,0.11015088043286857,0.10921376280442131,-0.04472257775358087,1
545,2024-09-25 22:25:19.976325928,0,018,0.36602294588448064,-0.2742994419841501,-0.26759425852490953,-0.22135521607484057,-0.0033062842404257262,0.10139752598827528,0.40498017018545307,-0.09200623508571164,1
546,2024-09-25 22:25:20.058496094,0,018,0.3524270124822519,-0.2808433134448813,-0.13401993555496863,-0.2630300535454654,0.0307374231168221,0.09193177793715711,0.6972345339239298,-0.13377314409564076,1
547,2024-09-25 22:25:20.116643066,0,018,0.3400407010917084,-0.28461858523128963,0.035652160367546114,-0.306582561304555,0.06998436570455033,0.08184618819171949,0.9755532056513595,-0.1695923368263992,1
548,2024-09-25 22:25:21.034324951,0,018,0.3285232223807354,-0.28563867342479743,0.23118136003685227,-0.3499590312961494,0.11375885662692091,0.07115142971157193,1.2295050352037646,-0.19913517306043596,1
549,2024-09-25 22:25:21.101882080,0,018,0.3175970814174314,-0.2840456181440744,0.4407000892829831,-0.3908533359486396,0.16134541783256348,0.05979248599097042,1.4492103742599318,-0.22217572926436707,1
550,2024-09-25 22:25:21.180011963,0,018,0.3071246073910763,-0.2801019388934115,0.6517671343366204,-0.4268721852495268,0.21193045246884468,0.04767882507391642,1.6257958696929067,-0.23856803913946203,1
551,2024-09-25 22:25:21.234977051,0,018,0.2971792824086942,-0.274180832076837,0.8523807619712763,-0.45574045530198504,0.26455203210370654,0.03471642804834054,1.7517364155811492,-0.24821984083311238,1
552,2024-09-25 22:25:21.312591064,0,018,0.2880836881949301,-0.2667493448927669,1.0320074178223604,-0.47553222704187437,0.3181042186848338,0.020831669447183548,1.8211897865507203,-0.2510958771783955,1
553,2024-09-25 22:25:21.375267090,0,018,0.28039966996689203,-0.2583415862490555,1.1826732496511858,-0.4849142383124651,0.3714249905750192,0.0059789095599313245,1.8305202906006979,-0.24728301706540506,1
554,2024-09-25 22:25:21.437752930,0,018,0.2748733409443698,-0.24952232591580137,1.2999446380278141,-0.483360937469248,0.42343755756193063,-0.00986910502515271,1.7790976143344717,-0.23712331581299836,1
555,2024-09-25 22:25:22.380791992,0,018,0.2723366995852936,-0.2408412091096209,1.3834706593943502,-0.4712732941116082,0.4732776922109109,-0.026738277931254096,1.670053318806791,-0.22135021711842684,1
556,2024-09-25 22:25:22.461698975,0,018,0.27357384325909495,-0.23278075253665867,1.4367901776760272,-0.4499430741406201,0.5203715836812329,-0.04466491332299715,1.510442280347115,-0.20112819403058793,1
557,2024-09-25 22:25:22.519105957,0,018,0.27918425239832334,-0.22570833907907187,1.4663436417167128,-0.42136211003264884,0.5644743496846503,-0.06369605683492163,1.310576625798251,-0.17796044726612156,1
558,2024-09-25 22:25:22.597936035,0,018,0.28948428276536675,-0.21984445621044374,1.4800001880640068,-0.3879469504055287,0.6056774015895219,-0.08387827291681772,1.0828267314332172,-0.15352209467165312,1
559,2024-09-25 22:25:22.657826904,0,018,0.3044679740980768,-0.21525345541329496,1.4856124935623145,-0.35226935094090145,0.6443617850663215,-0.1052356685691896,0.8403888861002112,-0.1295041331214046,1
560,2024-09-25 22:25:22.719395020,0,018,0.32382920244030533,-0.21185666517825613,1.48997704738732,-0.31684267386461373,0.6810751307295176,-0.12774015087022994,0.5963575777995856,-0.10751230248109085,1
561,2024-09-25 22:25:22.801491943,0,018,0.3470380872788791,-0.2094643123398604,1.4983034232699122,-0.2839687077525132,0.7163560572106292,-0.15128261188396827,0.36316715972040714,-0.08901150232376358,1
562,2024-09-25 22:25:23.743209961,0,018,0.3734441493801746,-0.2078177568042373,1.5140973522002603,-0.25562878964364766,0.7505718010342188,-0.17565698243071093,0.15227663312404488,-0.07528718675662006,1
563,2024-09-25 22:25:23.802191895,0,018,0.4023605096440156,-0.2066291943240909,1.53927169971925,-0.23339987957159494,0.7838356336615975,-0.20056611793501214,-0.026055555752417855,-0.06741067235290926,1
564,2024-09-25 22:25:23.864854980,0,018,0.43310386877236856,-0.2056108661313224,1.574305198768658,-0.21839040820937472,0.8160343192731208,-0.22565042966752816,-0.162982363931522,-0.06621165487614707,1
565,2024-09-25 22:25:23.942308105,0,018,0.4650008792478871,-0.20449545988938572,1.618356890985027,-0.21120933037601797,0.8469350207144756,-0.25052921740967843,-0.2512796401537737,-0.07226172867117071,1
566,2024-09-25 22:25:24.004626953,0,018,0.4973739679769528,-0.20305182140479106,1.6693513640574147,-0.2119798429986781,0.8762882902491449,-0.2748367066970354,-0.28553091672873065,-0.0858753129227824,1
567,2024-09-25 22:25:24.067114990,0,018,0.529509111952326,-0.20109656327315284,1.7241253685828963,-0.22039593062200608,0.903849882778236,-0.2982379084859319,-0.2622507727768085,-0.10713638919275226,1
568,2024-09-25 22:25:24.150393066,0,018,0.5606241839250873,-0.1985007833207611,1.7787504999670793,-0.2358126104031349,0.929317174458461,-0.3204237432446661,-0.17998142996382663,-0.1359437343959979,1
569,2024-09-25 22:25:25.093586914,0,018,0.5898709323147459,-0.19519224857428585,1.8290467471720242,-0.25734507161575615,0.9522560406173336,-0.341100045233356,-0.039405556768465425,-0.17205837721497172,1
570,2024-09-25 22:25:25.161489014,0,018,0.6163781696000631,-0.19115292390246205,1.871108520354036,-0.2839352057326127,0.9721037865762626,-0.3599875709964736,0.15657434616426522,-0.21514219234094809,1
571,2024-09-25 22:25:25.229222168,0,018,0.6393064981138835,-0.1864093048938582,1.9016240137764755,-0.3143648277544588,0.988262323949425,-0.3768370994110929,0.4028195567328167,-0.2647630737819187,1
572,2024-09-25 22:25:25.296073975,0,018,0.6578846279110925,-0.18101353051546046,1.9179608943404731,-0.3472408653519037,1.0002255000256723,-0.39144990776591665,0.6919207599048827,-0.3203361061478074,1
573,2024-09-25 22:25:25.358105957,0,018,0.6714307948455694,-0.17502015076320607,1.9181709657082213,-0.38099682140422947,1.0076845832856582,-0.40369319657062425,1.014151652136862,-0.38101668942261685,1
574,2024-09-25 22:25:25.432691162,0,018,0.6793834526237631,-0.16847044232101407,1.9010364880499926,-0.413930692138125,1.0105906021732678,-0.41350665605127757,1.357619266321545,-0.44560675328886973,1
575,2024-09-25 22:25:25.500549072,0,018,0.6813484693509461,-0.1613931810982377,1.8661144491827355,-0.4442614834056413,1.0091627510525927,-0.42089810314396653,1.7087814501288685,-0.5125181422053754,1
576,2024-09-25 22:25:26.435071045,0,018,0.6771424300368148,-0.15381920643827868,1.8136675355366423,-0.47017905793619313,1.0038325136780057,-0.42592554362796786,2.0532648451959687,-0.5798011865091209,1
577,2024-09-25 22:25:26.511587891,0,018,0.6668073522315174,-0.1457987360730692,1.7444855969274318,-0.48989161277759574,0.9951343677921713,-0.4286688284653368,2.3767497461321954,-0.6452296285010898,1
578,2024-09-25 22:25:26.579478027,0,018,0.6505906156860625,-0.1374118088664237,1.659694039253337,-0.5016985798813014,0.9835780711749692,-0.429200920743921,2.665676976233496,-0.7064134441617156,1
579,2024-09-25 22:25:26.636487061,0,018,0.6289024809707654,-0.12876907953958713,1.560600572396194,-0.5041087093293413,0.9695423347026906,-0.42756793582567443,2.907701863747071,-0.7609047289007795,1
580,2024-09-25 22:25:26.715093994,0,018,0.6022655433407563,-0.12000477331921224,1.4485953701588472,-0.49599510671075797,0.9532212618247843,-0.4237829580156055,3.092017694455149,-0.8062917076154913,1
581,2024-09-25 22:25:26.775552002,0,018,0.5712616752820836,-0.11126390460490661,1.3251488298475997,-0.476750917021138,0.9346361877813554,-0.4178354335806656,3.209640094038871,-0.8403008033971379,1
582,2024-09-25 22:25:26.837593994,0,018,0.5364775830379508,-0.10268528669658475,1.191936410868653,-0.4464068795282874,0.9136959987105352,-0.409711592615685,3.2536528523303248,-0.8609202849972187,1
583,2024-09-25 22:25:27.784631104,0,018,0.49845576582049217,-0.09438307759453402,1.0510409240725749,-0.40569628438313715,0.8902740742500347,-0.3994155758768829,3.219521674922545,-0.8665466487124595,1
584,2024-09-25 22:25:27.847119141,0,018,0.4576689033506352,-0.08643167924891912,0.9051050040817645,-0.3560632908759884,0.8642873124106304,-0.3869855072287048,3.105658183974969,-0.856149564429873,1
585,2024-09-25 22:25:27.926194824,0,018,0.41453218261675767,-0.07885788496358007,0.7572909659318289,-0.299598510713867,0.8357732695157024,-0.3725067011103803,2.9141890382459312,-0.8294359780123077,1
586,2024-09-25 22:25:27.997358154,0,018,0.3694417174897476,-0.07163976079382073,0.6110309898147311,-0.23889460108851363,0.8049367220458543,-0.35612156621771945,2.651534313657223,-0.7869611566312117,1
587,2024-09-25 22:25:28.064917969,0,018,0.32281117856166125,-0.0647092120748705,0.46974060758887237,-0.17684732097298664,0.7721264555998639,-0.3380287612583941,2.328340751010135,-0.7301239321030192,1
588,2024-09-25 22:25:28.127109131,0,018,0.2750926045031558,-0.057956208176701635,0.33665628524691515,-0.1164348142291276,0.7377421508016457,-0.3184660730524988,1.9586687972219432,-0.6610321584326658,1
589,2024-09-25 22:25:28.200871094,0,018,0.2267829505534849,-0.051234241784662446,0.21475238690132317,-0.06048583171468956,0.7021094427811586,-0.29767993709148066,1.5587469189540537,-0.5822862835645911,1
590,2024-09-25 22:25:29.143847900,0,018,0.17841603030351325,-0.04436856711806603,0.1066275577973049,-0.011446981674115963,0.6653612969351905,-0.2758910756036186,1.1457150609268085,-0.4967432093338411,1
591,2024-09-25 22:25:29.200861084,0,018,0.13053598902661007,-0.037169933253969153,0.014365167898088829,0.028814843100550953,0.6273563844001696,-0.2532671601291819,0.7365784025372432,-0.4073044871956847,1
592,2024-09-25 22:25:29.278650879,0,018,0.08365413863980509,-0.029453560998114147,-0.060590811121726505,0.05913378048046501,0.5876608611577181,-0.22990924025410522,0.3473286329048819,-0.31675563716995886,1
593,2024-09-25 22:25:29.339172119,0,018,0.038198848839496924,-0.02105862871321633,-0.11754842061589181,0.0790767616499853,0.5456008393252613,-0.20585297887688753,-0.007893775642710937,-0.22766747566601794,1
