,time,MARKER,pid,L_O_DSI,L_D_DSI,L_O_DSphi,L_D_DSphi,R_O_DSI,R_D_DSI,R_O_DSphi,R_D_DSphi,trial_id
0,2024-09-25 22:29:04.169153024,TASK_BEGIN,018,-0.8316551779206918,0.7158477347968278,-2.821932099649042,0.9054870248845783,-1.1085276858468696,0.6700173709193528,-4.11570899901162,1.3825474269142946,2
1,2024-09-25 22:29:04.232357888,TASK_BEGIN,018,-0.833823850354662,0.7315625258284855,-3.4334423912795216,1.0563878732137681,-1.2406018716012766,0.705777613501728,-4.079321866055755,1.3878915618600167,2
2,2024-09-25 22:29:04.294672128,TASK_BEGIN,018,-0.836824462155549,0.747114825683672,-4.030897901071753,1.2031621055424322,-1.3685844759183783,0.7409902627570867,-4.054832883781976,1.3962759163035812,2
3,2024-09-25 22:29:04.371716096,TASK_BEGIN,018,-0.8404139267373073,0.7621496682336769,-4.598079616892846,1.3414819355238985,-1.4884844412651554,0.7748378803518007,-4.043471896477938,1.407952325541234,2
4,2024-09-25 22:29:04.432823040,TASK_BEGIN,018,-0.8443470373217653,0.7763599428322521,-5.120531828214719,1.4674333294668245,-1.597173531460502,0.8066536175810226,-4.045967487345487,1.4230200897143905,2
5,2024-09-25 22:29:04.494332928,TASK_BEGIN,018,-0.8484502711110503,0.7895102171138638,-5.58603808348261,1.5776430868466773,-1.692568373646507,0.8359692737101009,-4.062406586980694,1.4413554119750729,2
6,2024-09-25 22:29:04.571951872,TASK_BEGIN,018,-0.8526808215611009,0.8014550954092906,-5.9849296389986355,1.669388039576653,-1.773606168674294,0.8625339664015489,-4.091780545111232,1.4624612509089119,2
7,2024-09-25 22:29:05.519542016,TASK_BEGIN,018,-0.8571392960265212,0.8121441972105738,-6.310361938353056,1.740702903644981,-1.8400754362799896,0.8863081708492718,-4.131416127443727,1.4853109382505603,2
8,2024-09-25 22:29:05.587428096,TASK_BEGIN,018,-0.8620487915874423,0.8216115643914781,-6.558522730511764,1.790469559655712,-1.8924100297390236,0.9074393711611831,-4.176555328526052,1.508271943252907,2
9,2024-09-25 22:29:05.655266048,TASK_BEGIN,018,-0.8677250670479327,0.8299537955789955,-6.72862334661787,1.818452511983403,-1.9315341396107268,0.9262254085676805,-4.220208877831421,1.5291632380036555,2
10,2024-09-25 22:29:05.715665152,TASK_BEGIN,018,-0.8745304968433707,0.8373003210864993,-6.822566147041493,1.8252502255582506,-1.958766997813344,0.9430688992715297,-4.253306458730411,1.5454495330769755,2
11,2024-09-25 22:29:05.790906112,TASK_BEGIN,018,-0.8827995261721486,0.8437780977463727,-6.844397245950971,1.8121723469128206,-1.975741077308914,0.9584226154064499,-4.2652151975169135,1.5545350755431426,2
12,2024-09-25 22:29:05.858764800,TASK_BEGIN,018,-0.8927583761044842,0.8494766403347057,-6.799813553112418,1.781096296115068,-1.9843076305864038,0.9727299142549192,-4.2447173023893425,1.55410051317317,2
13,2024-09-25 22:29:05.926614016,TASK_BEGIN,018,-0.9044703249085173,0.8544207986933741,-6.695838763671355,1.7343444744989902,-1.9864510907659907,0.9863732341415304,-4.181368685990319,1.5424240658964155,2
14,2024-09-25 22:29:06.831591936,TASK_BEGIN,018,-0.9178105017394579,0.858554677906405,-6.540537843073879,1.6745745026245125,-1.9842302845583244,0.999641406601543,-4.066902455549495,1.5186316494016645,2
15,2024-09-25 22:29:06.908823040,TASK_BEGIN,018,-0.9324635382578924,0.8617376162889756,-6.342701829542778,1.6046673902130884,-1.9797106080861255,1.0127125723194708,-3.8962756220404713,1.4828252832186166,2
16,2024-09-25 22:29:06.972794880,TASK_BEGIN,018,-0.9479420831804806,0.863753183353243,-6.1116207308485855,1.5276237810950555,-1.9748397476188035,1.0256424611112738,-3.6682296433026087,1.4360659113260166,2
17,2024-09-25 22:29:07.046063872,TASK_BEGIN,018,-0.9636160347502195,0.8643296073320084,-5.856979519413847,1.4464769814154697,-1.9712820246401241,1.038354567286491,-3.385583635444309,1.3802519071646686,2
18,2024-09-25 22:29:07.114643968,TASK_BEGIN,018,-0.9787453955692486,0.8631695278603082,-5.588719809019634,1.364213015471164,-1.9702706444732425,1.0506368354353344,-3.055454965217558,1.3179726138888763,2
19,2024-09-25 22:29:07.173082112,TASK_BEGIN,018,-0.9925316614741437,0.8599903600749961,-5.316728001016173,1.283681187124081,-1.972513695289762,1.0621513402766956,-2.689258031650821,1.252362314544422,2
20,2024-09-25 22:29:07.249821952,TASK_BEGIN,018,-1.0042032040145694,0.8545731770282926,-5.0503862007260905,1.20748749845382,-1.978158143474532,1.0724620454826752,-2.3022572864505824,1.186922917028605,2
21,2024-09-25 22:29:08.194198016,TASK_BEGIN,018,-1.0131245117228154,0.8468091043654784,-4.798146967430383,1.1378892406602412,-1.9868184636683652,1.0810818980134176,-1.9127443473776804,1.1253176684654331,2
22,2024-09-25 22:29:08.249922048,TASK_BEGIN,018,-1.0188957859219079,0.8367314245997881,-4.56724059661357,1.076724770541268,-1.9976798489453675,1.0875322827901874,-1.5409964889669068,1.0711695706456272,2
23,2024-09-25 22:29:08.327197952,TASK_BEGIN,018,-1.021399530137733,0.8245270244536379,-4.363445361133384,1.0253905032730626,-2.0096472432194306,1.0913973688897598,-1.2079521191375326,1.027849446516491,2
24,2024-09-25 22:29:08.389686016,TASK_BEGIN,018,-1.0207654093804694,0.8105224052156866,-4.1907988178601006,0.9848520252055847,-2.0214741229444693,1.0923559755101753,-0.9334972598999681,0.9982163866930881,2
25,2024-09-25 22:29:08.452186112,TASK_BEGIN,018,-1.0172679653447747,0.7951432851701319,-4.0513107210346,0.9556816017271669,-2.0318472881559924,1.090192164084179,-0.7344991882369833,0.9843344023138099,2
26,2024-09-25 22:29:08.529027072,TASK_BEGIN,018,-1.0112113779935832,0.7788593910600495,-3.9448885641895894,0.9381167512228803,-2.039470066777603,1.0848016338211548,-0.6229613622732574,0.9872402788470245,2
27,2024-09-25 22:29:08.600997120,TASK_BEGIN,018,-1.0028516944593975,0.7621327101132765,-3.8695836084918165,0.9321135981566487,-2.04316829631986,1.0762031300580492,-0.6047488800840078,1.0068302829277882,2
28,2024-09-25 22:29:09.535739904,TASK_BEGIN,018,-0.9923684618015847,0.7453781314783262,-3.8220630081299403,0.9373644994075265,-2.041988224103187,1.0645491092813522,-0.6791771161719512,1.0418911725611957,2
29,2024-09-25 22:29:09.612669952,TASK_BEGIN,018,-0.9798696492392568,0.7289350357702254,-3.7981312347153446,0.9532793007530092,-2.035260163302656,1.0501289269883485,-0.8394000542087982,1.0902384214957899,2
30,2024-09-25 22:29:09.680441856,TASK_BEGIN,018,-0.9654104795683601,0.7130480821150275,-3.793208102212632,0.978962762614309,-2.0226363668291585,1.0333617849690349,-1.0732473598866452,1.1488873945469245,2
31,2024-09-25 22:29:09.748256000,TASK_BEGIN,018,-0.9490137453775175,0.697857645617048,-3.8028094482976647,1.0132264627459822,-2.0041068436451437,1.0147740192460712,-1.3642200646416347,1.2142225183097382,2
32,2024-09-25 22:29:09.814435072,TASK_BEGIN,018,-0.9306900401623681,0.6833994558653504,-3.8230613811147243,1.0546437747360706,-1.9799619072554007,0.9949528154459109,-1.6926938391600699,1.2822012378217815,2
33,2024-09-25 22:29:09.883830016,TASK_BEGIN,018,-0.9104604870661406,0.6696112116671278,-3.8511237493781896,1.1016240989081152,-1.950667357560399,0.974475399822684,-2.0375566844372917,1.3486446497238291,2
34,2024-09-25 22:29:09.938714112,TASK_BEGIN,018,-0.8883790876904684,0.6563437488630703,-3.8853588006947053,1.1524881578811235,-1.9166767585255404,0.9538283570067853,-2.3782695680313806,1.4096146622675954,2
35,2024-09-25 22:29:10.867321088,TASK_BEGIN,018,-0.8645531958064073,0.6433770837762407,-3.925219910362065,1.2055504498130618,-1.8782653359287913,0.9333426536573285,-2.6969969595236183,1.4618176805262442,2
36,2024-09-25 22:29:10.929356288,TASK_BEGIN,018,-0.8391642948915133,0.6304445675029345,-3.970977982512956,1.2592125982313946,-1.835459145511173,0.9131636776852632,-2.9803608064450926,1.5029510187516362,2
37,2024-09-25 22:29:10.990523136,TASK_BEGIN,018,-0.8124803699812099,0.6172648864626307,-4.023429277314845,1.3120524144747971,-1.788066225054292,0.8932586791119287,-3.220477717326595,1.5319190888618084,2
38,2024-09-25 22:29:11.067727104,TASK_BEGIN,018,-0.7848410151751843,0.603573590901629,-4.0836406640699305,1.3628922363139557,-1.735761582111036,0.8734517138023778,-3.4151084392588333,1.5488734243564766,2
39,2024-09-25 22:29:11.137014016,TASK_BEGIN,018,-0.7566097776640337,0.589144276686649,-4.15267114587635,1.4108366249330673,-1.6781801467831574,0.8534734834184009,-3.5669214159034826,1.555066047032038,2
40,2024-09-25 22:29:11.206601984,TASK_BEGIN,018,-0.7281153183671137,0.5737969937053248,-4.231215555195883,1.455268052188056,-1.615010741768031,0.83301617277833,-3.6819897983076517,1.552536864000474,2
41,2024-09-25 22:29:11.269495040,TASK_BEGIN,018,-0.6996151887805981,0.5573990332302713,-4.31924624511967,1.4957946811353746,-1.5460970547489004,0.811786301292178,-3.767776948165247,1.5436789067911425,2
42,2024-09-25 22:29:12.218941952,TASK_BEGIN,018,-0.6712948575863207,0.5398642910152889,-4.415772240279683,1.532160568241033,-1.4715237057122215,0.789548388764383,-3.83112639807663,1.5307747559790152,2
43,2024-09-25 22:29:12.284492032,TASK_BEGIN,018,-0.6432821351117042,0.5211541214541344,-4.518777695169154,1.5641407960101739,-1.3916524442616482,0.7661515836036258,-3.8769238083534763,1.5156476346304042,2
44,2024-09-25 22:29:12.354532864,TASK_BEGIN,018,-0.6156577167344169,0.5012813852352596,-4.625377682049178,1.5914465706390637,-1.3071125947476017,0.7415373781066434,-3.9077614275284533,1.4995139619403526,2
45,2024-09-25 22:29:12.407136000,TASK_BEGIN,018,-0.5884600690130315,0.4803182655214076,-4.732176084371453,1.6136657283013236,-1.218792091469598,0.7157351336040122,-3.924326961410732,1.4829876591848623,2
46,2024-09-25 22:29:12.490192896,TASK_BEGIN,018,-0.5616763979364955,0.45840160220448956,-4.83569853755479,1.630261752961697,-1.1278554638605325,0.688851762587125,-3.9260507431300478,1.4661486768638872,2
47,2024-09-25 22:29:12.546473216,TASK_BEGIN,018,-0.5352106344913405,0.4357256218311259,-4.932736645768628,1.6406327949067052,-1.0357589666712412,0.6610573202793673,-3.91182611463977,1.448665484380642,2
48,2024-09-25 22:29:12.624196096,TASK_BEGIN,018,-0.5088432196566163,0.4125200137023396,-5.020500152929714,1.6441979116630188,-0.9442143336095784,0.6325706750695977,-3.8807216908722704,1.4299752202924985,2
49,2024-09-25 22:29:13.568435712,TASK_BEGIN,018,-0.4822042910350611,0.38902165746889317,-5.096583163164338,1.6404688951999933,-0.8550852977518132,0.603651408250374,-3.8324519486900237,1.409456314392324,2
50,2024-09-25 22:29:13.630498816,TASK_BEGIN,018,-0.4547729209331478,0.36545126512860443,-5.158873789861581,1.6290959240197183,-0.770239184882792,0.5745956404822409,-3.7674518529854906,1.386534593384569,2
51,2024-09-25 22:29:13.692983808,TASK_BEGIN,018,-0.4259159677765702,0.3420029771404771,-5.205548715837427,1.609909238394304,-0.6913813740542292,0.5457248988702488,-3.6866353441399564,1.3607409662101555,2
52,2024-09-25 22:29:13.770486016,TASK_BEGIN,018,-0.39497246356336385,0.3188476818556116,-5.235180582834542,1.5829820603141502,-0.6198956364532174,0.5173631846881445,-3.590985996748907,1.3317573532684688,2
53,2024-09-25 22:29:13.832974080,TASK_BEGIN,018,-0.3613696724323754,0.2961448202710022,-5.24692517624531,1.5487167634079881,-0.5567300929526625,0.48981234375730165,-3.4811660540770046,1.299456023940074,2
54,2024-09-25 22:29:13.908189952,TASK_BEGIN,018,-0.3247471414464092,0.2740585149516795,-5.2407631321575465,1.507932211831034,-0.5023630536284743,0.46333909308579874,-3.3573382357219117,1.2639226941468549,2
55,2024-09-25 22:29:13.975948032,TASK_BEGIN,018,-0.28506104940313576,0.2527763959512602,-5.217716730538387,1.4619181021267147,-0.4568345051277579,0.4381752325823379,-3.2192117273046006,1.2254527007325873,2
56,2024-09-25 22:29:14.919049984,TASK_BEGIN,018,-0.24263998238163276,0.23252573433793075,-5.179895538262982,1.4124214375650892,-0.4198123448035695,0.41452514189368983,-3.066219548994003,1.184523305370286,2
57,2024-09-25 22:29:14.986884096,TASK_BEGIN,018,-0.19818089195005553,0.21357730763316263,-5.130286259776174,1.361544330042048,-0.3906868475860195,0.39257667103942256,-2.897901958653686,1.1417751442148312,2
58,2024-09-25 22:29:15.046395136,TASK_BEGIN,018,-0.15269556993386452,0.19623136413644998,-5.072357169106727,1.311564114586862,-0.36867435640168067,0.3725086326708682,-2.714636842030166,1.0980351130451158,2
59,2024-09-25 22:29:15.122423808,TASK_BEGIN,018,-0.10742066549910803,0.1807889501759729,-5.009629903225324,1.2647183416582743,-0.35288104666842846,0.3544832663822718,-2.51852383573704,1.0543575834673562,2
60,2024-09-25 22:29:15.190248960,TASK_BEGIN,018,-0.06370938968779709,0.1675192853241993,-4.945342463807329,1.2230021202212964,-0.34231493668723895,0.33862170369435407,-2.3138848957795246,1.012016320486388,2
61,2024-09-25 22:29:15.258018048,TASK_BEGIN,018,-0.0229330070996029,0.15663585315651482,-4.8822774922795125,1.1880031924306065,-0.3359055127387958,0.3249791321251629,-2.1070517965705653,0.9724165996425699,2
62,2024-09-25 22:29:15.325783040,TASK_BEGIN,018,0.013595761506094635,0.14828721555001814,-4.822761907907633,1.1607827404918272,-0.33259271955300496,0.31354107136703135,-1.9056408765547708,0.9369672335863427,2
63,2024-09-25 22:29:16.269618944,TASK_BEGIN,018,0.04468538494388183,0.14255824665166714,-4.768747631988219,1.141816787361779,-0.33148257255681407,0.30424630109418277,-1.7177058040167692,0.9069631195692363,2
64,2024-09-25 22:29:16.336749056,TASK_BEGIN,018,0.06931578048559238,0.1394735900746509,-4.72184131603328,1.1310079438071083,-0.33200821548547144,0.2970220255655144,-1.5509713568667571,0.8834898346221289,2
65,2024-09-25 22:29:16.405251072,TASK_BEGIN,018,0.08667404400925978,0.13899844672535586,-4.683189034698166,1.1277402083316748,-0.33402228515527094,0.2918110650741731,-1.4121819977508352,0.867336302521541,2
66,2024-09-25 22:29:16.460414720,TASK_BEGIN,018,0.0961854748134205,0.1410362178571137,-4.653218511770177,1.1309432180801549,-0.3377867742990934,0.2885822026107736,-1.3065819215371803,0.8589109831894064,2
67,2024-09-25 22:29:16.538521088,TASK_BEGIN,018,0.09754822439207299,0.14542541874227832,-4.631363785991283,1.1391718897110477,-0.3438790565257078,0.2873284735185209,-1.237553237810337,0.8581755786324337,2
68,2024-09-25 22:29:16.601007104,TASK_BEGIN,018,0.09075913052369489,0.15194043216016587,-4.615912894543769,1.1507162344340627,-0.35304107259565237,0.2880587568053038,-1.2063799786888496,0.8646050722395028,2
69,2024-09-25 22:29:16.663491840,TASK_BEGIN,018,0.07610515179250572,0.16030126814310017,-4.6040026364608,1.1637295856743746,-0.36599079832392606,0.290781723509673,-1.212059539709848,0.8771757784946964,2
70,2024-09-25 22:29:17.593612800,TASK_BEGIN,018,0.054114478845685945,0.17019266774896605,-4.591742754819084,1.1763605688261212,-0.3832390416034179,0.29548346896033384,-1.2511836798812086,0.8944117534785123,2
71,2024-09-25 22:29:17.650479104,TASK_BEGIN,018,0.025493524532200426,0.18128546780860127,-4.574525223973852,1.1868850272950209,-0.40497191621718753,0.3021076557343589,-1.31804054780518,0.9145343362750965,2
72,2024-09-25 22:29:17.727808000,TASK_BEGIN,018,-0.008924753859325056,0.19325293808559016,-4.5475222608498616,1.1938230672143433,-0.43102153122078674,0.3105464828571523,-1.4049992006911813,0.9356986536153038,2
73,2024-09-25 22:29:17.797095936,TASK_BEGIN,018,-0.04821873564266235,0.20578000844052446,-4.506195028202932,1.1960123136700107,-0.46088911034124563,0.3206418785758914,-1.5030554320367309,0.9562328816841741,2
74,2024-09-25 22:29:17.864931840,TASK_BEGIN,018,-0.09141254884684225,0.21856636268006038,-4.446632175862415,1.1926250122566586,-0.49377239381904753,0.3321887280721703,-1.6024684773852675,0.9748159641516015,2
75,2024-09-25 22:29:17.927670784,TASK_BEGIN,018,-0.13752098122172832,0.231328521833109,-4.365779829774748,1.1831569888462983,-0.5285969753546189,0.344934965777475,-1.693574205378008,0.9905937987131588,2
76,2024-09-25 22:29:17.989684992,TASK_BEGIN,018,-0.18560230188105933,0.24380950163023243,-4.261808309972282,1.1674377787461727,-0.5640950822238958,0.35858354204736537,-1.767819938846899,1.003250264948948,2
77,2024-09-25 22:29:18.938607872,TASK_BEGIN,018,-0.2347846999196232,0.25579753552274126,-4.134736429072823,1.1456824391662424,-0.5989448466452695,0.3728021647293411,-1.8188963206730642,1.013021171671509,2
78,2024-09-25 22:29:19.000154112,TASK_BEGIN,018,-0.2842444047497264,0.26714532339291336,-3.9871035743131937,1.1185542586178694,-0.6319193578713167,0.3872373314555782,-1.8436883005975344,1.0206246370803624,2
79,2024-09-25 22:29:19.076445184,TASK_BEGIN,018,-0.333170237470849,0.2777835129698427,-3.8242918984283505,1.0871904534415546,-0.6619847952735753,0.4015252554693843,-1.842738392121907,1.0271137484593242,2
80,2024-09-25 22:29:19.147247104,TASK_BEGIN,018,-0.3807606843076078,0.28772804188652845,-3.654271834232286,1.053170036081668,-0.6883249577688537,0.41529698032509177,-1.8201381779352144,1.0337096903470975,2
81,2024-09-25 22:29:19.200154112,TASK_BEGIN,018,-0.4262481335650503,0.2970769579381875,-3.4868838914867673,1.0184329424322556,-0.7103097617365398,0.4281807841324761,-1.7830161658624615,1.0416772684579119,2
82,2024-09-25 22:29:19.282928896,TASK_BEGIN,018,-0.4689215055553672,0.3059914755363565,-3.3329027421612776,0.9851606137249325,-0.7274465520446401,0.43980736077756044,-1.740769065120017,1.0522518315346312,2
83,2024-09-25 22:29:19.339675136,TASK_BEGIN,018,-0.5081528810461609,0.31466980735206357,-3.2029834089663884,0.9556130994980349,-0.739343450847163,0.4498212143237634,-1.704045973491006,1.0665806854875506,2
84,2024-09-25 22:29:20.281072128,TASK_BEGIN,018,-0.5434497182406034,0.3233300728297849,-3.106472580704998,0.9319236866321532,-0.7456937994955677,0.4578985597689154,-1.68346970008892,1.0856342654893205,2
85,2024-09-25 22:29:20.361677056,TASK_BEGIN,018,-0.5745201160894592,0.3322043882212235,-3.050189484297259,0.9158861987014077,-0.7462865769787963,0.46376994483023665,-1.6881640133371216,1.1100660701711476,2
86,2024-09-25 22:29:20.429494016,TASK_BEGIN,018,-0.6013152444717929,0.34153054340268413,-3.0374523652190533,0.9087851090777208,-0.7410507970922271,0.46724392619989197,-1.7243429326121469,1.1400447214223017,2
87,2024-09-25 22:29:20.497272064,TASK_BEGIN,018,-0.6240302457767837,0.3515305487243517,-3.067609498689542,0.911288783168878,-0.7301382691881572,0.46822801343771026,-1.7943806625471859,1.1751137277212191,2
88,2024-09-25 22:29:20.565048832,TASK_BEGIN,018,-0.6430672875373239,0.36237837110815835,-3.136149910307419,0.9233947286855735,-0.71402597992978,0.46674467897051497,-1.8966658933141503,1.2141350197114167,2
89,2024-09-25 22:29:20.629293824,TASK_BEGIN,018,-0.6589735887043519,0.374168088618199,-3.235286190385363,0.9444186043931807,-0.6935881393952129,0.46294166343987003,-2.0261832716856802,1.2553489005175602,2
90,2024-09-25 22:29:20.698853888,TASK_BEGIN,018,-0.6723646080180532,0.38689257902964286,-3.3548614857832746,0.9730414240586108,-0.670098463854161,0.4570967270721974,-2.175449140716913,1.2965425626083407,2
91,2024-09-25 22:29:21.644519936,TASK_BEGIN,018,-0.6838349609220101,0.4004350273384829,-3.483490108805808,1.0074391648680325,-0.6451683572990461,0.4496142900756134,-2.3353776041938796,1.335287700072701,2
92,2024-09-25 22:29:21.712374016,TASK_BEGIN,018,-0.6938709272322157,0.4145727371781568,-3.6098096631438246,1.0454966216952244,-0.6206436405555076,0.44100748420222124,-2.495880207126223,1.3692001264767935,2
93,2024-09-25 22:29:21.780239872,TASK_BEGIN,018,-0.7027952096213815,0.4289948868423147,-3.7236271611780873,1.0850702530178489,-0.5984704292633288,0.43186417902026736,-2.6463080885972907,1.3961704587084909,2
94,2024-09-25 22:29:21.841871104,TASK_BEGIN,018,-0.7107555923915447,0.4433312866103564,-3.816788978000696,1.1242472854291015,-0.5805423227340134,0.4228061764743559,-2.775968649985037,1.4145232634100169,2
95,2024-09-25 22:29:21.915887104,TASK_BEGIN,018,-0.7177380070348213,0.4571828881659004,-3.8837622339532287,1.161558300202099,-0.5685595141181272,0.4144541168539543,-2.8748021893222084,1.4230951813420252,2
96,2024-09-25 22:29:21.981179904,TASK_BEGIN,018,-0.7235886739857365,0.4701490842516339,-3.9219817731618183,1.196119623155296,-0.5639320178650185,0.4074056137462697,-2.9340627086900146,1.421245060796702,2
97,2024-09-25 22:29:22.051515136,TASK_BEGIN,018,-0.7280499449194688,0.4818538495841064,-3.9319794828111285,1.227695051499594,-0.5677258657093174,0.4022242059311186,-2.946757727499741,1.4088031240810925,2
98,2024-09-25 22:29:22.969521920,TASK_BEGIN,018,-0.7308160282006291,0.4919717258288905,-3.9172523726456614,1.2566667097689694,-0.5806220692819485,0.3994273468058852,-2.9077751689709976,1.3859713299662577,2
99,2024-09-25 22:29:23.037398272,TASK_BEGIN,018,-0.7316064574614541,0.5002518763953522,-3.8837724764913863,1.2838956108623858,-0.602878022697604,0.39946511686595376,-2.813975390654233,1.3532279642018459,2
100,2024-09-25 22:29:23.105238016,TASK_BEGIN,018,-0.7302490411847224,0.5065391267199908,-3.839098999136667,1.3104725692429569,-0.6343151858970596,0.40269423236204965,-2.6646535777699762,1.3113138740093946,2
101,2024-09-25 22:29:23.162642944,TASK_BEGIN,018,-0.7267564723002892,0.5107906157303499,-3.791288210699673,1.3374323880286154,-0.6743440291187406,0.40935529497054474,-2.462364961352628,1.2613271782858169,2
102,2024-09-25 22:29:23.240824064,TASK_BEGIN,018,-0.7213722040792289,0.5130851982494626,-3.7479907026654473,1.3655537987600699,-0.7219954869445732,0.4195549892361225,-2.2135865115814894,1.2048582773678247,2
103,2024-09-25 22:29:23.301039104,TASK_BEGIN,018,-0.7145642637632953,0.5136232416543695,-3.715989801857944,1.3953085008890989,-0.7759257821536493,0.4332538188188977,-1.9287348305565362,1.14405276117982,2
104,2024-09-25 22:29:23.363665152,TASK_BEGIN,018,-0.7069720487564908,0.5127160309389317,-3.7010709278195724,1.4269066698254353,-0.8344114138082258,0.4502650220681176,-1.6215498127948451,1.0815471837310322,2
105,2024-09-25 22:29:24.319703040,TASK_BEGIN,018,-0.6993388408578233,0.5107652832241875,-3.70790032604554,1.4603390658221869,-0.8953962802061952,0.47027249995433523,-1.308111798617333,1.0203045507714588,2
106,2024-09-25 22:29:24.387556096,TASK_BEGIN,018,-0.6924559626048662,0.5082344826784314,-3.73969778536167,1.4953651639363872,-0.9566372442803648,0.49286950000466395,-1.005600196077748,0.9633870447255193,2
107,2024-09-25 22:29:24.444787968,TASK_BEGIN,018,-0.6871190079835507,0.5056150509497334,-3.797792153743525,1.531474478619063,-1.0159246310087149,0.517607008877629,-0.7307817120951453,0.9136868253448339,2
108,2024-09-25 22:29:24.523236096,TASK_BEGIN,018,-0.6840934926951004,0.5033922861384791,-3.8813684986011525,1.5678861423826045,-1.071305721501633,0.5440339615315293,-0.4984061428380096,0.873658736059589,2
109,2024-09-25 22:29:24.591052032,TASK_BEGIN,018,-0.6840961460599819,0.5020164937495731,-3.987581882281863,1.6036174818577087,-1.121262846351186,0.5717205042570904,-0.3199035564248865,0.845116243372611,2
110,2024-09-25 22:29:24.645146112,TASK_BEGIN,018,-0.6877878477766051,0.5018804122129534,-4.111897578953143,1.6375845106731317,-1.1648377541791708,0.600268738525879,-0.20271000831253305,0.829127769005811,2
111,2024-09-25 22:29:24.726679808,TASK_BEGIN,018,-0.6957628474236821,0.5032997842398805,-4.248484964933373,1.6686821855014073,-1.2016903553089227,0.6293167085434734,-0.1502706031476992,0.8260227551793918,2
112,2024-09-25 22:29:25.669667072,TASK_BEGIN,018,-0.7085318375954053,0.5064973820018477,-4.390708701932783,1.6958390961105807,-1.2320708395837032,0.6585368221996033,-0.16252231361078473,0.8354922644893057,2
113,2024-09-25 22:29:25.728214016,TASK_BEGIN,018,-0.7265077047602967,0.5115955503100312,-4.531755204551966,1.7180688618005966,-1.2567119015918156,0.687631151065131,-0.23656773688482183,0.8567328012272235,2
114,2024-09-25 22:29:25.789798144,TASK_BEGIN,018,-0.7499880528627368,0.5186178670863199,-4.665215768011874,1.7345241813592702,-1.2766735944977419,0.7163265380078115,-0.3672923022695279,0.8885713668706077,2
115,2024-09-25 22:29:25.867443200,TASK_BEGIN,018,-0.7791160545288619,0.5274934721577149,-4.78547261543091,1.7445534161597105,-1.2931673090495446,0.7443667901503142,-0.5477681190009314,0.9295405010028492,2
116,2024-09-25 22:29:25.929979904,TASK_BEGIN,018,-0.8138196622291504,0.5380604557438403,-4.887964555125984,1.7477655954413513,-1.3073769831581228,0.7714994828291285,-0.7694395748568076,0.9779084066282924,2
117,2024-09-25 22:29:26.006087936,TASK_BEGIN,018,-0.8537528118743566,0.5500720345271558,-4.969413014276881,1.7440887071345585,-1.3202942320918154,0.7974616642190374,-1.0223028569488488,1.0316967504605494,2
118,2024-09-25 22:29:26.068081920,TASK_BEGIN,018,-0.8982512076060536,0.563206769432328,-5.02790979906044,1.7337887186415344,-1.3325777098026297,0.8219682808527746,-1.2953044519528387,1.088722399900146,2
119,2024-09-25 22:29:27.008187136,TASK_BEGIN,018,-0.9462949027565111,0.5770765745695206,-5.0628170463226265,1.7174485685445648,-1.3444478166480123,0.8447016371392208,-1.5769164820614734,1.14666858028329,2
120,2024-09-25 22:29:27.085372160,TASK_BEGIN,018,-0.9964897333952376,0.591230542549665,-5.074645339702521,1.6959394804679948,-1.3556364100297669,0.8653008803421838,-1.8557237518346597,1.2031740676884912,2
121,2024-09-25 22:29:27.154675968,TASK_BEGIN,018,-1.0471064626515363,0.6051636491261944,-5.065038812167811,1.6703920190242019,-1.3654078343912508,0.8833555420762763,-2.121004516578154,1.2559491376074234,2
122,2024-09-25 22:29:27.209558016,TASK_BEGIN,018,-1.0961910099146264,0.618338160570494,-5.036787898439258,1.6421393142403187,-1.3726486488226122,0.8984085051665148,-2.3633471577209675,1.3029351872110009,2
123,2024-09-25 22:29:27.291173120,TASK_BEGIN,018,-1.141714272097467,0.6302139930981487,-4.993769863677142,1.6126194993924274,-1.3760052811490002,0.9099724128127197,-2.575258429080353,1.3425012586089868,2
124,2024-09-25 22:29:27.359008000,TASK_BEGIN,018,-1.1817274639061581,0.6402789394974631,-4.940786116772244,1.5832549684271422,-1.3740510769133687,0.9175641185680862,-2.7516748799165485,1.3736408846571788,2
125,2024-09-25 22:29:27.425426944,TASK_BEGIN,018,-1.2145134003716036,0.6480742998088787,-4.883228527130676,1.5553344748706395,-1.3654751878371525,0.9207579502848454,-2.8902636304689717,1.3961092648755258,2
126,2024-09-25 22:29:28.343930880,TASK_BEGIN,018,-1.2387269464393627,0.6532164115787742,-4.826509942549861,1.5299157767914373,-1.349269339867685,0.9192453590583496,-2.9913667535678004,1.4104370255615477,2
127,2024-09-25 22:29:28.396295168,TASK_BEGIN,018,-1.2534993279073876,0.6554129896819749,-4.775351039701072,1.5077486350276443,-1.324860074403092,0.9128796138211475,-3.057475940945637,1.4177892119733586,2
128,2024-09-25 22:29:28.479618048,TASK_BEGIN,018,-1.2584793793145355,0.6544701621350127,-4.733183373772713,1.4892150359518377,-1.292148138926038,0.9016918285986609,-3.092252500358904,1.4196935198493477,2
129,2024-09-25 22:29:28.535480064,TASK_BEGIN,018,-1.2538094157227897,0.6502893129080529,-4.701908118852356,1.4743029067534452,-1.251464470144855,0.8858793002297733,-3.0993305347862474,1.4177108207359117,2
130,2024-09-25 22:29:28.615264768,TASK_BEGIN,018,-1.2400503186930627,0.6428568696670278,-4.682031588145078,1.4626284551141244,-1.2034774911706385,0.8657742749361298,-3.0812742580833996,1.413135494948357,2
131,2024-09-25 22:29:28.674258944,TASK_BEGIN,018,-1.2180666286634947,0.6322283410471493,-4.67299709028907,1.4534929920232151,-1.1490789813290416,0.841800609640672,-3.0389339187205895,1.4067864658421398,2
132,2024-09-25 22:29:28.736745216,TASK_BEGIN,018,-1.1888906567580613,0.6185091975342569,-4.67350425732403,1.4459459532999197,-1.089268043365919,0.8144273795566846,-2.9712865717639816,1.3989215219825064,2
133,2024-09-25 22:29:29.682135040,TASK_BEGIN,018,-1.1536062830364382,0.6018423141985257,-4.68171113349556,1.4388469449579855,-1.0250573559676845,0.7841337777059123,-2.8758562718326757,1.389300383918332,2
134,2024-09-25 22:29:29.759329024,TASK_BEGIN,018,-1.1132807635290478,0.5824086278444586,-4.695350328668144,1.4309512665924786,-0.9574198171390802,0.7513957044701285,-2.7497860091544726,1.3774020469405943,2
135,2024-09-25 22:29:29.823885056,TASK_BEGIN,018,-1.068932097784631,0.5604329722250553,-4.711839343065042,1.4210360669850954,-0.8872716243510129,0.7166900444209862,-2.5914222091242403,1.3627497666483397,2
136,2024-09-25 22:29:29.883296000,TASK_BEGIN,018,-1.0215093364174572,0.5361823318143762,-4.7283943849547665,1.4080332428101114,-0.8154794134615682,0.6805049857884261,-2.4019565843677446,1.345235324437054,2
137,2024-09-25 22:29:29.960937984,TASK_BEGIN,018,-0.9718811708307755,0.5099554673128767,-4.742120053982202,1.391117295122935,-0.7428771894315389,0.6433463563762483,-2.1864598460339604,1.3253090816663171,2
138,2024-09-25 22:29:30.022949888,TASK_BEGIN,018,-0.9208309362813121,0.48207263173835874,-4.750123844238585,1.3697483125374164,-0.6702543178964473,0.6057306063285691,-1.95381660642055,1.3039578505842278,2
139,2024-09-25 22:29:30.100328960,TASK_BEGIN,018,-0.8690520289700367,0.45287091778401245,-4.749739885177726,1.3437098578570952,-0.5982740348335671,0.5681596755048491,-1.7156184683839972,1.2824978592799998,2
140,2024-09-25 22:29:31.036297984,TASK_BEGIN,018,-0.81714392891652,0.4227036888274399,-4.738833370387124,1.3131491446794168,-0.5273548650838185,0.5310868597528865,-1.4845134301404168,1.2622837508139262,2
141,2024-09-25 22:29:31.111233792,TASK_BEGIN,018,-0.7656098337861875,0.39194085280141194,-4.716041613879036,1.278583916300341,-0.4576165633979492,0.49489215080570886,-1.2724898356428347,1.2444463903430454,2
142,2024-09-25 22:29:31.175086848,TASK_BEGIN,018,-0.7148532354261833,0.3609674943056161,-4.680862176046734,1.240849491825719,-0.3889482220173732,0.4598774192323606,-1.0893390330495842,1.229732966774052,2
143,2024-09-25 22:29:31.246851072,TASK_BEGIN,018,-0.6651773414674415,0.33017706646089473,-4.633624983244415,1.2009938829837103,-0.32114844779106366,0.4262753097222392,-0.9415176798586735,1.2184556344618294,2
144,2024-09-25 22:29:31.314685952,TASK_BEGIN,018,-0.6167991740638162,0.2999566454085887,-4.575393213027418,1.1601492169544254,-0.25404865387987074,0.3942595635778513,-0.8317705092325902,1.2105086413087425,2
145,2024-09-25 22:29:31.382522112,TASK_BEGIN,018,-0.5698794000142979,0.27066795483971723,-4.50778929264271,1.1194155347250676,-0.18757547963814697,0.3639507671964062,-0.7597123171825177,1.2054130511219963,2
146,2024-09-25 22:29:31.436103936,TASK_BEGIN,018,-0.5245434344338744,0.24262980801951167,-4.432757633407555,1.0797839499170188,-0.12175894170222165,0.3354181771427082,-0.7230309982527086,1.2023731957251733,2
147,2024-09-25 22:29:32.394166016,TASK_BEGIN,018,-0.4808695329993217,0.21610272545098433,-4.35229565188628,1.042091168948347,-0.05672109034184459,0.3086823764786017,-0.718693617882102,1.200359536528931,2
148,2024-09-25 22:29:32.462003968,TASK_BEGIN,018,-0.4388594279261019,0.19127539014542325,-4.268193652663226,1.0069771517102586,0.0073069397543210415,0.28372746541249727,-0.7437984641766675,1.198229381701582,2
149,2024-09-25 22:29:32.529783040,TASK_BEGIN,018,-0.39842691677061093,0.16825700427283627,-4.1818613409954875,0.974846822065537,0.06991507714887074,0.260528066326434,-0.7959751146474235,1.1948430374508694,2
150,2024-09-25 22:29:32.589966080,TASK_BEGIN,018,-0.3594077089912698,0.1470787060717676,-4.094306921033758,0.9458665209806094,0.13042265318220128,0.23908372025406094,-0.8732409795478819,1.1891129036375019,2
151,2024-09-25 22:29:32.651165952,TASK_BEGIN,018,-0.32157161418754054,0.12770057634985443,-4.00623947702827,0.920006032664273,0.1878310704043932,0.21944519503963086,-0.9733756271681994,1.1799913137886018,2
152,2024-09-25 22:29:32.728398848,TASK_BEGIN,018,-0.2846357773845341,0.11001912490370974,-3.9181897126955274,0.897099551407688,0.24087282504484997,0.20172270047891486,-1.0932455674023034,1.1664706472220137,2
153,2024-09-25 22:29:32.790412800,TASK_BEGIN,018,-0.2482808253751935,0.09387369093859321,-3.830563190417462,0.876892223845983,0.28815307243315297,0.18607750575585327,-1.2285888497579938,1.1476497073027978,2
154,2024-09-25 22:29:33.713718016,TASK_BEGIN,018,-0.21215423263087654,0.07905129602439379,-3.74362344645257,0.8590617097007887,0.32831591563036183,0.1727057696655078,-1.3743225742100342,1.1228468509712333,2
155,2024-09-25 22:29:33.787002112,TASK_BEGIN,018,-0.17585844660833597,0.06529031201833078,-3.657478728693739,0.8432330152898949,0.3601540990574874,0.1618232177014821,-1.5249851121340303,1.0916955914854427,2
156,2024-09-25 22:29:33.854801152,TASK_BEGIN,018,-0.13895080320490033,0.052288436786522036,-3.572148636611261,0.8290138577885636,0.3826385941249441,0.15365269539959567,-1.6750045919999803,1.0541789805405928,2
157,2024-09-25 22:29:33.922594048,TASK_BEGIN,018,-0.10097655011258756,0.03972347418936332,-3.4876903051056933,0.8160457603930386,0.39491548591268005,0.1484093861267282,-1.8188634848465215,1.0106096840311212,2
158,2024-09-25 22:29:33.976467968,TASK_BEGIN,018,-0.06152708551018736,0.027289351327999575,-3.404274823489826,0.8040275276150859,0.3963229917553806,0.14628126374950712,-1.9513385469030697,0.9615904988961921,2
159,2024-09-25 22:29:34.054132992,TASK_BEGIN,018,-0.02030369377014771,0.014740014890224903,-3.322153320043791,0.792685887678409,0.38642454526333175,0.14741439813299406,-2.067841541594429,0.9079926999042438,2
160,2024-09-25 22:29:34.115216128,TASK_BEGIN,018,0.022825711118863393,0.0019293456159081652,-3.241558851018114,0.7817242719241198,0.3650246428061093,0.15191447923701476,-2.1648305468203373,0.850979560281589,2
161,2024-09-25 22:29:35.069222912,TASK_BEGIN,018,0.06778200600204018,-0.011162783069775643,-3.1626109204535324,0.770807056836023,0.3321680972081367,0.15986043898176774,-2.2402610211454457,0.7920649601946103,2
162,2024-09-25 22:29:35.125897984,TASK_BEGIN,018,0.11423986694941095,-0.024421504934307465,-3.0852731267912716,0.7596194786896088,0.2881555690790248,0.1713151614565161,-2.293909509783881,0.7331489658788556,2
163,2024-09-25 22:29:35.203581952,TASK_BEGIN,018,0.16159316235726814,-0.03759966235146767,-3.009445618472173,0.7479990603714586,0.2335887547431372,0.18632668795797128,-2.3273157444169144,0.6764655451222896,2
164,2024-09-25 22:29:35.265636096,TASK_BEGIN,018,0.20892541255741404,-0.05032620955838649,-2.9352414602811687,0.7360813297760745,0.16940974362658298,0.20492666935998152,-2.3432284098143086,0.6244207778847495,2
165,2024-09-25 22:29:35.327218944,TASK_BEGIN,018,0.2550121802847684,-0.062124071224947924,-2.8633160695509896,0.7243863029539754,0.09688730189728434,0.22713190144461687,-2.3446604310426737,0.5793548676858877,2
166,2024-09-25 22:29:35.404875008,TASK_BEGIN,018,0.2983755724030341,-0.07244455714622736,-2.7950257413544928,0.7138121974753892,0.01755172503871879,0.2529442398210996,-2.333855110428055,0.5432955515163729,2
167,2024-09-25 22:29:35.467333120,TASK_BEGIN,018,0.33738348940280694,-0.0807140925151931,-2.732367164609959,0.7055500991555194,-0.06688570341320511,0.28234426657189504,-2.311607693671368,0.5177722012367373,2
168,2024-09-25 22:29:36.413409792,TASK_BEGIN,018,0.37037273566330553,-0.08638094474924118,-2.6778271578162482,0.7009437447544417,-0.15461298037046442,0.3152823263673978,-2.277296460950762,0.5037301623830748,2
169,2024-09-25 22:29:36.475897088,TASK_BEGIN,018,0.39577599778747913,-0.08895575926260896,-2.63419835123138,0.7013060030391206,-0.24379591617698476,0.3516674285785619,-2.2296014105096784,0.5015386066342096,2
170,2024-09-25 22:29:36.555030016,TASK_BEGIN,018,0.41222922436117926,-0.08804431947947712,-2.60429137113864,0.7077060666782233,-0.3326453550152417,0.39134672600694803,-2.1675301091892902,0.5110497045663944,2
171,2024-09-25 22:29:36.622828800,TASK_BEGIN,018,0.41863907008624396,-0.08336668555237678,-2.590554222698918,0.7207743823089358,-0.4194732986782424,0.43407449093506767,-2.091310201752227,0.5316653653836231,2
172,2024-09-25 22:29:36.676891136,TASK_BEGIN,018,0.41421941677458207,-0.07475934169967519,-2.5947821804092692,0.740598367199697,-0.5027542533509247,0.4794828579410608,-2.0028521776774517,0.5623900229702187,2
173,2024-09-25 22:29:36.754074880,TASK_BEGIN,018,0.3985262605238722,-0.06216745785207303,-2.618073495717731,0.7667482935246752,-0.5812031645415584,0.5270703913417829,-1.905646186613015,0.6018668582318235,2
174,2024-09-25 22:29:36.816108032,TASK_BEGIN,018,0.37149235620288873,-0.04563543456592966,-2.6609533155855876,0.7983992511335434,-0.6538653488039318,0.5762161308729304,-1.8041892708786569,0.6484143320550726,2
175,2024-09-25 22:29:37.765129984,TASK_BEGIN,018,0.3334346703642201,-0.025295868337108604,-2.723462114893126,0.8344770199104045,-0.7201910248233482,0.6262129000730053,-1.7032663151425091,0.7000964398601384,2
176,2024-09-25 22:29:37.827138048,TASK_BEGIN,018,0.2850276752126028,-0.001354638313909018,-2.8051169992647136,0.8737832437765187,-0.7800468717618921,0.6763048061837197,-1.6073106449069217,0.7548312858769545,2
177,2024-09-25 22:29:37.905590016,TASK_BEGIN,018,0.22725462676422276,0.02592707857089026,-2.9048079510162603,0.9151064155145142,-0.8336465650973562,0.7257194385035788,-1.5197936139488957,0.8104937608717486,2
178,2024-09-25 22:29:37.966652160,TASK_BEGIN,018,0.16132700635646888,0.05625282568976129,-3.0207125727983515,0.957333033470888,-0.8814447382930855,0.773697357088216,-1.4426628772644579,0.8649906313501445,2
179,2024-09-25 22:29:38.041219072,TASK_BEGIN,018,0.08855261523890127,0.08931285996898689,-3.1502391521339574,0.9995300968703633,-0.9240415543252045,0.8195210486626537,-1.3761696441935187,0.9163529223575557,2
180,2024-09-25 22:29:38.105494016,TASK_BEGIN,018,0.01017017662932617,0.12480499649616368,-3.290024585713529,1.0409628107836166,-0.9620978931732683,0.8625361103221675,-1.3193651145872787,0.9628883057723622,2
181,2024-09-25 22:29:38.166577152,TASK_BEGIN,018,-0.07279287468860274,0.16244597988085055,-3.436154108491338,1.0810798456125703,-0.9962508519587332,0.9021584633705751,-1.2710866456759273,1.0033747535633757,2
182,2024-09-25 22:29:39.094396928,TASK_BEGIN,018,-0.15958258745928575,0.20196583276043953,-3.584736418315999,1.1195354713542254,-1.0270341319227458,0.9378709306409746,-1.230981023024359,1.037240697635494,2
183,2024-09-25 22:29:39.162251008,TASK_BEGIN,018,-0.2496771005186278,0.24308855134334076,-3.7326468846694305,1.1562524039830289,-1.054805379327609,0.9692158216415853,-1.200208512124164,1.064674881947503,2
184,2024-09-25 22:29:39.229039872,TASK_BEGIN,018,-0.34266190409000874,0.28551274080087136,-3.878035566805633,1.1914577086794194,-1.079690269996955,0.9957900623760568,-1.1816503619184568,1.086610952145581,2
185,2024-09-25 22:29:39.297837824,TASK_BEGIN,018,-0.43807372453001214,0.32890187015265065,-4.020375352331933,1.2256408022573113,-1.101580090304738,1.0172535347152072,-1.1795394500891456,1.1045422847862032,2
186,2024-09-25 22:29:39.365688064,TASK_BEGIN,018,-0.535270288499092,0.3728815671933549,-4.160138235297513,1.2594453245073722,-1.1202128145468517,1.0333583741551342,-1.1985458733848793,1.1201708930164782,2
187,2024-09-25 22:29:39.433535232,TASK_BEGIN,018,-0.6333599984675999,0.4170375700083267,-4.2982705615611545,1.2935366395840369,-1.13530872968591,1.0439891472134233,-1.2425814550012448,1.1349817579283452,2
188,2024-09-25 22:29:39.501347072,TASK_BEGIN,018,-0.7311935129657846,0.4609159616206359,-4.435535670569505,1.328473432732184,-1.1466921801317271,1.049192111079173,-1.3137728964113267,1.1498908152125669,2
189,2024-09-25 22:29:40.431058176,TASK_BEGIN,018,-0.827403258816316,0.5040330344401095,-4.571771403715647,1.3645851374328273,-1.1543658678535436,1.0491827115448007,-1.4119484681382866,1.1650810126789144,2
190,2024-09-25 22:29:40.499481856,TASK_BEGIN,018,-0.9204741308083169,0.5458951659469239,-4.7052304833021354,1.4018487222805052,-1.1585547871319184,1.0443369784654901,-1.5346726533996173,1.1800536100744345,2
191,2024-09-25 22:29:40.566297088,TASK_BEGIN,018,-1.0088281192988862,0.5860197243011906,-4.83227891192223,1.4397890735057755,-1.1597323900334535,1.035175690825206,-1.6776329975009054,1.1938436358553288,2
192,2024-09-25 22:29:40.635154944,TASK_BEGIN,018,-1.090908498185615,0.6239498091067237,-4.947653683142217,1.4774603018333363,-1.1586081999847846,1.022344303725087,-1.8351948855431186,1.2053139734401754,2
193,2024-09-25 22:29:40.702897920,TASK_BEGIN,018,-1.1652533754823262,0.6592622017097874,-5.045205112725144,1.5135415859425911,-1.1560596530825398,1.006587581790722,-2.001067549349715,1.2134542199663898,2
194,2024-09-25 22:29:40.770738944,TASK_BEGIN,018,-1.2305587565788911,0.6915701655070817,-5.118807988444251,1.546524082623144,-1.1530375953148062,0.9887199006498459,-2.168963080257313,1.2176123989813812,2
195,2024-09-25 22:29:40.838526976,TASK_BEGIN,018,-1.2857520337355868,0.7205266621125141,-5.163145498609394,1.574935083110164,-1.150503215856702,0.9695967426431094,-2.3329433988031805,1.2175708385497848,2
196,2024-09-25 22:29:41.793832960,TASK_BEGIN,018,-1.3300946573451566,0.7458372561437618,-5.174230006161664,1.5975378884598712,-1.1494164071893922,0.9500915892052018,-2.4872960646735747,1.2134333384827591,2
197,2024-09-25 22:29:41.861907968,TASK_BEGIN,018,-1.3632870114288698,0.7672831998865209,-5.149648867024471,1.6134562228078642,-1.1507290103782257,0.9310741751073432,-2.6262481856950255,1.2054171646770655,2
198,2024-09-25 22:29:41.929753088,TASK_BEGIN,018,-1.3855158874197935,0.7847424444613689,-5.088630798082677,1.6222237264887234,-1.1553296296830655,0.9133827945938569,-2.7440158844603864,1.1936951870192445,2
199,2024-09-25 22:29:41.989409024,TASK_BEGIN,018,-1.3974131501883333,0.7981975080752581,-4.992071955409377,1.6238057163289468,-1.1639582492567442,0.8977913742028717,-2.835353351108676,1.178359423218419,2
200,2024-09-25 22:29:42.065443072,TASK_BEGIN,018,-1.399939181455805,0.8077287622032724,-4.862573100810638,1.6186173682864549,-1.1771617624456001,0.8849797849315247,-2.8963381705472613,1.1594877093267197,2
201,2024-09-25 22:29:42.133280000,TASK_BEGIN,018,-1.394226267163404,0.8134970662877069,-4.704459344044215,1.6075143031321548,-1.195315833213686,0.8755125326790988,-2.9249996042972124,1.1372614381590715,2
202,2024-09-25 22:29:42.200634112,TASK_BEGIN,018,-1.3814339389666266,0.8157231821874121,-4.523757682387884,1.5917289221081374,-1.2186561442426052,0.8698229204820509,-2.9215301859143685,1.1120778198590846,2
203,2024-09-25 22:29:43.144654080,TASK_BEGIN,018,-1.3626695074884867,0.8146742741306554,-4.328075033014116,1.5727508089641802,-1.247257197097046,0.8681994858503711,-2.8880910992634643,1.084621815612875,2
204,2024-09-25 22:29:43.209947904,TASK_BEGIN,018,-1.338986410813558,0.8106629171655878,-4.126259730721015,1.55216500529793,-1.2809641348973335,0.8707782171116354,-2.828503477013893,1.0559084752905814,2
205,2024-09-25 22:29:43.280281856,TASK_BEGIN,018,-1.3114275281994814,0.8040531623033462,-3.9277507314500997,1.5314654314158436,-1.3193215314492048,0.8775446485140194,-2.7480717647496418,1.027307086764834,2
206,2024-09-25 22:29:43.339379200,TASK_BEGIN,018,-1.2810719579534031,0.7952624315282135,-3.741635773149859,1.511860181277322,-1.3615323872974832,0.8883444337807682,-2.653388643513297,1.0005071954058693,2
207,2024-09-25 22:29:43.415929088,TASK_BEGIN,018,-1.2490577809170715,0.7847521262319445,-3.5756441194349713,1.4941004224897414,-1.4064778951487744,0.9029029770715974,-2.5518950469740465,0.9773896701424253,2
208,2024-09-25 22:29:43.483781888,TASK_BEGIN,018,-1.2165665409126443,0.7730077629626331,-3.435425317966288,1.4783827049680742,-1.4528155416649917,0.9208571338088243,-2.4514016668442498,0.9598477673549028,2
209,2024-09-25 22:29:43.551625984,TASK_BEGIN,018,-1.184767800521958,0.7605130626816295,-3.324272947367202,1.464350591443364,-1.4991116252775543,0.9417898716224213,-2.359906986048975,0.949642938057717,2
210,2024-09-25 22:29:44.469774848,TASK_BEGIN,018,-1.1547362181807155,0.7477216692876293,-3.243117669404069,1.4511690990353732,-1.5439306188557855,0.9652492670204899,-2.2855923689819337,0.9483221682865485,2
211,2024-09-25 22:29:44.537673216,TASK_BEGIN,018,-1.127361741420496,0.7350306854518276,-3.1905601762532845,1.4376266213920024,-1.585860308896496,0.9907463727840337,-2.2366000217513258,0.9571591945501583,2
212,2024-09-25 22:29:44.605529088,TASK_BEGIN,018,-1.103272900543326,0.722761912162558,-3.162996141784803,1.4222572146511279,-1.6235163442900662,1.017743874495312,-2.220440256151595,0.9770768924560949,2
213,2024-09-25 22:29:44.673341184,TASK_BEGIN,018,-1.0827875667044826,0.7111543868216124,-3.155112349926185,1.4035152376067064,-1.655565681340795,1.0456458343902575,-2.243139500839545,1.0085325328979855,2
214,2024-09-25 22:29:44.731708928,TASK_BEGIN,018,-1.0658957760052858,0.7003659058994655,-3.1608222324314985,1.3799981000942523,-1.680775194098661,1.0737889323540903,-2.3082813150880908,1.0513768226563498,2
215,2024-09-25 22:29:44.793836288,TASK_BEGIN,018,-1.052268646341872,0.6904780268740082,-3.174242137852975,1.3506422453976625,-1.698079022496354,1.1014372034937052,-2.416136330797282,1.1047319596164717,2
216,2024-09-25 22:29:44.870149888,TASK_BEGIN,018,-1.0412864320026094,0.6815009373945452,-3.190197682132928,1.314822966813434,-1.7066554418745126,1.1277896213075855,-2.563205968895069,1.1669562141001155,2
217,2024-09-25 22:29:45.817642752,TASK_BEGIN,018,-1.0320864000574588,0.6733767021941643,-3.2041459834973,1.2723559632733803,-1.7059913646014433,1.152005816199052,-2.7424844701766427,1.235745525957045,2
218,2024-09-25 22:29:45.871574016,TASK_BEGIN,018,-1.023631051208375,0.6659787581721371,-3.2118489743064553,1.2234430966629846,-1.6959040863186696,1.1732430987410403,-2.944405297214599,1.308360332605386,2
219,2024-09-25 22:29:45.949050112,TASK_BEGIN,018,-1.0147868865738776,0.6591066343071187,-3.2092689198957083,1.1686171260449398,-1.67651560286231,1.1906953269058362,-3.1580608815692908,1.3819047595346143,2
220,2024-09-25 22:29:46.010835968,TASK_BEGIN,018,-1.0043988997166862,0.6524806654176198,-3.192944067261626,1.108725109969574,-1.6482174669747287,1.2036324183209375,-3.3723086526658377,1.4535830479971346,2
221,2024-09-25 22:29:46.087956736,TASK_BEGIN,018,-0.9913538510359137,0.6457453891886622,-3.160697312699187,1.0449393917400684,-1.6116545626420848,1.211441522751437,-3.576738836611527,1.5209069483746729,2
222,2024-09-25 22:29:46.156867840,TASK_BEGIN,018,-0.9746395709927693,0.6384865101942189,-3.112255252654731,0.9787412290159108,-1.5676963702115063,1.2136614140494566,-3.7626868916895555,1.581870197310632,2
223,2024-09-25 22:29:46.224701952,TASK_BEGIN,018,-0.9534107874332535,0.6302607559028051,-3.049443248976016,0.9118366663402923,-1.5173578110879218,1.2099991336531386,-3.9242751443983126,1.6350942867143692,2
224,2024-09-25 22:29:47.168965120,TASK_BEGIN,018,-0.9270554687943224,0.6206368073130077,-2.9759407132998272,0.8460243111980962,-1.461702464278367,1.2003322818085416,-4.059152490727241,1.679896106785253,2
225,2024-09-25 22:29:47.236146944,TASK_BEGIN,018,-0.8952442092920035,0.6092441961992812,-2.8968042059298194,0.7830721277093412,-1.40179621181623,1.1847107123429554,-4.16858855143067,1.716213875361419,2
226,2024-09-25 22:29:47.304651008,TASK_BEGIN,018,-0.8579553725246722,0.5958221174969194,-2.817893283887575,0.7246282242402426,-1.3387178519798772,1.163360735585929,-4.256880378082696,1.744395488129139,2
227,2024-09-25 22:29:47.372432896,TASK_BEGIN,018,-0.8154723430950738,0.5802559569262986,-2.745102404976131,0.6721342212109661,-1.2735621495737692,1.1366797168554184,-4.33028781332415,1.7649320073746337,2
228,2024-09-25 22:29:47.433474048,TASK_BEGIN,018,-0.7683412359065996,0.5625910837878442,-2.683347555131296,0.6267157833027334,-1.2073872343955019,1.10521111962132,-4.395716300291075,1.7782287428438166,2
229,2024-09-25 22:29:47.508145920,TASK_BEGIN,018,-0.7172942193923885,0.5430220022838754,-2.6356293158897026,0.5890869647123017,-1.1411248889967862,1.0696031101969627,-4.459321555886205,1.7844701630354003,2
230,2024-09-25 22:29:47.575862784,TASK_BEGIN,018,-0.6631742191274205,0.5218650574282326,-2.602601286528387,0.5595220615241239,-1.0755027968972,1.030560797164684,-4.525351355790119,1.7836171339627267,2
231,2024-09-25 22:29:48.513499136,TASK_BEGIN,018,-0.6068909924533329,0.49952707230141924,-2.5827023880903734,0.5378877150318603,-1.0110250688121745,0.9888036913892575,-4.595631149244671,1.775554153588443,2
232,2024-09-25 22:29:48.575043840,TASK_BEGIN,018,-0.5494017664242715,0.47647803764809865,-2.572607454841889,0.5236813710136416,-0.9480408010880543,0.945038908721518,-4.669809424333414,1.7603280122566363,2
233,2024-09-25 22:29:48.652175104,TASK_BEGIN,018,-0.4916911046389762,0.45322678831617386,-2.567823348302162,0.5160535574338884,-0.8868766627479441,0.8999503731204003,-4.746013744473348,1.7383518740897739,2
234,2024-09-25 22:29:48.714228992,TASK_BEGIN,018,-0.434740673207538,0.4302929570903257,-2.5634463817106417,0.5138488520498752,-0.8279538381510098,0.8541914993665639,-4.821405256578197,1.7104784751251514,2
235,2024-09-25 22:29:48.776717056,TASK_BEGIN,018,-0.37950504981995514,0.4081735587820339,-2.5551148360362865,0.5157150302424333,-0.7718261311687544,0.8083708262575064,-4.892380218949491,1.6779331291159862,2
236,2024-09-25 22:29:48.853904128,TASK_BEGIN,018,-0.3269124881776879,0.38731183159980487,-2.540008815276029,0.5202911916786915,-0.7191440193494385,0.763033385306133,-4.954563528752181,1.6421600756795902,2
237,2024-09-25 22:29:48.926052864,TASK_BEGIN,018,-0.2778787743287395,0.3680748942782866,-2.517575148858864,0.5264286784956627,-0.6705872587079481,0.7186462391131622,-5.002899384054854,1.6046525022073235,2
238,2024-09-25 22:29:49.830449152,TASK_BEGIN,018,-0.2332938670246655,0.3507365606963382,-2.4897023061847996,0.5333719021672254,-0.6267945015007805,0.6755915494148953,-5.031971516855999,1.5668153414386021,2
239,2024-09-25 22:29:49.908558080,TASK_BEGIN,018,-0.19396165832354825,0.3354594831357932,-2.4603018549825344,0.5408458974305286,-0.5882995135866502,0.634167344649195,-5.036471566819531,1.5298760064437746,2
240,2024-09-25 22:29:49.979845888,TASK_BEGIN,018,-0.16052208658297937,0.3222813381796165,-2.434479884262436,0.5490415475699661,-0.5554924911965303,0.5945982156757839,-5.011745365369774,1.494839713599057,2
241,2024-09-25 22:29:50.047386880,TASK_BEGIN,018,-0.13339826598206558,0.3111164876734359,-2.4175900628931695,0.5585290858317687,-0.5286234041970636,0.5570560713624054,-4.954393104312263,1.4624711686398224,2
242,2024-09-25 22:29:50.115459840,TASK_BEGIN,018,-0.1127795861827938,0.30177624201349135,-2.4144214053921687,0.570135201715241,-0.5078287295284128,0.5216837453327104,-4.862826157294756,1.4332759103634207,2
243,2024-09-25 22:29:50.183275008,TASK_BEGIN,018,-0.09862560406542617,0.2939995827626048,-2.428624901200598,0.5847915176714704,-0.4931474867506781,0.4886120002374517,-4.737728660376946,1.4074848688883415,2
244,2024-09-25 22:29:50.248753152,TASK_BEGIN,018,-0.09068113211897119,0.28748618609232385,-2.4623481485768264,0.6033536992395805,-0.4845123670099365,0.4579649466976709,-4.582436904778689,1.3850710688618864,2
245,2024-09-25 22:29:51.179109120,TASK_BEGIN,018,-0.0884998954417382,0.2819287818046429,-2.5160048823996717,0.6264145919457196,-0.4817084788525461,0.4298522025944269,-4.403093347518837,1.365803219963013,2
246,2024-09-25 22:29:51.256301056,TASK_BEGIN,018,-0.09146651604690986,0.27704161044362896,-2.5881284054384817,0.6541534546639588,-0.48429366705465554,0.4043477679296835,-4.208386771125986,1.349317935644053,2
247,2024-09-25 22:29:51.318385920,TASK_BEGIN,018,-0.09880641215614105,0.27257949572404777,-2.6753534808873227,0.6862634668595133,-0.49150926227728015,0.38146187719887487,-4.008881169922361,1.335188256864359,2
248,2024-09-25 22:29:51.395512832,TASK_BEGIN,018,-0.1095866101399369,0.26834555421499523,-2.7726967302438132,0.7219785084222948,-0.502241510504362,0.3611195716716201,-3.816037671830125,1.3229699717751124,2
249,2024-09-25 22:29:51.457998080,TASK_BEGIN,018,-0.12272426665205137,0.26419331378291305,-2.8742295955776975,0.760172538552112,-0.5150657588870372,0.3431561386176598,-3.6410371099420686,1.3122357906806505,2
250,2024-09-25 22:29:51.532624128,TASK_BEGIN,018,-0.13702061780286137,0.26003184164520227,-2.9739324003136725,0.7994728297989301,-0.5283551805369633,0.3273280113415953,-3.4934665234313025,1.30260151153296,2
251,2024-09-25 22:29:51.600397312,TASK_BEGIN,018,-0.1512241026017642,0.25583613151034,-3.066382165863724,0.8383545257605597,-0.5404259521279678,0.31333444493808565,-3.3798596309565085,1.293690450554069,2
252,2024-09-25 22:29:52.537793024,TASK_BEGIN,018,-0.164116418541576,0.2516571261257545,-3.1471361767732775,0.8752298412452326,-0.54969379659059,0.30084858132238407,-3.302285186096317,1.285005984661528,2
253,2024-09-25 22:29:52.611546880,TASK_BEGIN,018,-0.1746111603646294,0.247623463020297,-3.212882061615138,0.9085513734605866,-0.5548015816440846,0.2895541023751785,-3.2575324015279516,1.2757907861035698,2
254,2024-09-25 22:29:52.679333120,TASK_BEGIN,018,-0.18184516825297145,0.24392931470947904,-3.2614448493964634,0.9369252145618894,-0.5546948592761748,0.2791809457631101,-3.2373595488098124,1.2649779803095327,2
255,2024-09-25 22:29:52.747238912,TASK_BEGIN,018,-0.18524822030556518,0.24080904175331871,-3.291725418854114,0.9592178034575178,-0.5486761809154104,0.26953847933759745,-3.229770392549859,1.2512616596118975,2
256,2024-09-25 22:29:52.799736064,TASK_BEGIN,018,-0.18459973197643922,0.23850759679716466,-3.303626250227836,0.974649286067138,-0.5364757604346287,0.2605480618920359,-3.2208973561782708,1.2332526900582077,2
257,2024-09-25 22:29:52.878117888,TASK_BEGIN,018,-0.18007794981657627,0.23725717688104647,-3.297943193845189,0.9828683532239672,-0.5183251128166897,0.2522723767807535,-3.197032453356607,1.2096876835062629,2
258,2024-09-25 22:29:52.939660032,TASK_BEGIN,018,-0.17227386092378594,0.23726286219712298,-3.2761721867790734,0.9839887149741856,-0.4949863597189529,0.2449333974892816,-3.1464926024004622,1.1796732172390347,2
259,2024-09-25 22:29:53.893794816,TASK_BEGIN,018,-0.16213165410492922,0.23869191260576222,-3.2402990759262376,0.978573223099385,-0.4677005571106177,0.2389101326772671,-3.061120155408848,1.1429242686286787,2
260,2024-09-25 22:29:53.962232064,TASK_BEGIN,018,-0.15081369518024454,0.24166146975379932,-3.1927313487937634,0.9675844576898472,-0.4380574905714395,0.23471128849354134,-2.937257291684569,1.0999198466154332,2
261,2024-09-25 22:29:54.018400000,TASK_BEGIN,018,-0.13953383233363484,0.24622578841916215,-3.1363666639868795,0.9523227220834428,-0.40783165476132077,0.23292547238903694,-2.776039413703662,1.0519039571371878,2
262,2024-09-25 22:29:54.096137984,TASK_BEGIN,018,-0.12941134324433437,0.25236789125270775,-3.074562816868776,0.9343335312062173,-0.37883170999740884,0.23415793494743525,-2.58290157346422,1.000712428476583,2
263,2024-09-25 22:29:54.157736960,TASK_BEGIN,018,-0.12137012058183835,0.25999747776797355,-3.0108639926715424,0.9152602258499936,-0.35277678256931444,0.23896438043294813,-2.3663881760822574,0.9484778868450843,2
264,2024-09-25 22:29:54.233501952,TASK_BEGIN,018,-0.116086526677731,0.2689528025097069,-2.948697340040558,0.8966781352949401,-0.33119802254967423,0.247792462353272,-2.1366529945063726,0.8973222290353866,2
265,2024-09-25 22:29:54.296456960,TASK_BEGIN,018,-0.11398332150049999,0.2790040736795634,-2.8913638419858074,0.8799889971542331,-0.3153795048684964,0.2609421402675951,-1.9041907581108444,0.849145713421548,2
266,2024-09-25 22:29:55.220269056,TASK_BEGIN,018,-0.11524912226944446,0.28985765746886977,-2.8422864910866017,0.8663994097346294,-0.306361463799483,0.2785521011082836,-1.6791321259338823,0.8055423102325122,2
267,2024-09-25 22:29:55.277502976,TASK_BEGIN,018,-0.11985064362808386,0.30116183091962995,-2.805138095835367,0.8569248041747475,-0.3050016836469038,0.30060785798384315,-1.4709519340980162,0.76777385802896,2
268,2024-09-25 22:29:55.355907840,TASK_BEGIN,018,-0.12753560022027882,0.3125163695906961,-2.7835594805327104,0.8523536439950057,-0.31203718558749227,0.3269548549950437,-1.2881611419131767,0.7367249133850245,2
269,2024-09-25 22:29:55.423665152,TASK_BEGIN,018,-0.13786561294471208,0.3234898992814008,-2.780478351597008,0.8531631248675088,-0.3280688884821815,0.35729924903225824,-1.137763802502507,0.7128286927993728,2
270,2024-09-25 22:29:55.477302016,TASK_BEGIN,018,-0.15030718912676932,0.33364843843915426,-2.797295258728415,0.8594278055431928,-0.35344156904191815,0.3911916260243992,-1.0246505588066124,0.6960074269785637,2
271,2024-09-25 22:29:55.554043904,TASK_BEGIN,018,-0.16435386963902524,0.34259401291490094,-2.833355307099381,0.8707715693137186,-0.3880606072997621,0.4280033063259785,-0.9512654854208451,0.6856796460005855,2
272,2024-09-25 22:29:55.627136000,TASK_BEGIN,018,-0.17962679791030664,0.3500064994710884,-2.8860218868320198,0.8863892985643729,-0.43122213355773126,0.46691185774257554,-0.9177385324707901,0.6808657315510768,2
273,2024-09-25 22:29:56.569503232,TASK_BEGIN,018,-0.19593089719469403,0.3556798139590643,-2.9512967747192875,0.9051313177645163,-0.4815293935953794,0.5069102002453281,-0.92236882617408,0.6803723872862832,2
274,2024-09-25 22:29:56.637361152,TASK_BEGIN,018,-0.2132745446485725,0.3595460301659654,-3.0246315363186085,0.9256244262204861,-0.5369392128892353,0.5468461275584874,-0.9621636819378259,0.6829897875395194,2
275,2024-09-25 22:29:56.705207040,TASK_BEGIN,018,-0.2318535257831676,0.3616840451379889,-3.101617922748745,0.9464065889170131,-0.5949349518096041,0.5854904579572936,-1.033241999405145,0.687631050791044,2
276,2024-09-25 22:29:56.772812032,TASK_BEGIN,018,-0.25199314566302095,0.3623107163583807,-3.178473842934689,0.9660583572201512,-0.6527687563274756,0.6216218820945536,-1.131115629347057,0.6933804881763503,2
277,2024-09-25 22:29:56.840427008,TASK_BEGIN,018,-0.2740655717449386,0.36175523470771115,-3.2523703179173786,0.9833144459532761,-0.7077001657886905,0.654110112312123,-1.2509434591520787,0.6994727510552834,2
278,2024-09-25 22:29:56.905136896,TASK_BEGIN,018,-0.2984151075143926,0.3604232461587902,-3.3216348913477844,0.9971536920073936,-0.7571980252719336,0.6819853912751462,-1.387814209055627,0.7052691386764377,2
279,2024-09-25 22:29:56.968039168,TASK_BEGIN,018,-0.32530506255826314,0.35876023595356016,-3.3858364995199994,1.0068843460981132,-0.799118534287631,0.7044960805564742,-1.537050367295728,0.7102936247392018,2
280,2024-09-25 22:29:57.919133184,TASK_BEGIN,018,-0.3548746772222633,0.35721870076634543,-3.4457046101684674,1.0122238801163275,-0.8318823541344986,0.7211609864858153,-1.694471378836553,0.7143366564221926,2
281,2024-09-25 22:29:57.972950016,TASK_BEGIN,018,-0.38708962440133077,0.35622529816142917,-3.502781306125404,1.0133381177864045,-0.8546509235597358,0.7318144363494757,-1.8565135418239525,0.7175752230168226,2
282,2024-09-25 22:29:58.051055872,TASK_BEGIN,018,-0.42168508580675457,0.35614424038814585,-3.5588395077393074,1.0108197687163247,-0.8674643882589399,0.7366306797064055,-2.0201153013122695,0.720633011352599,2
283,2024-09-25 22:29:58.123132160,TASK_BEGIN,018,-0.4581239765303625,0.35724420621428693,-3.615321262727311,1.0056304126574114,-0.8712738177248245,0.7361115971231244,-2.182419783504457,0.7245325313378346,2
284,2024-09-25 22:29:58.190644992,TASK_BEGIN,018,-0.49560041123787835,0.35968350888942957,-3.6729931169646166,0.9990227287333286,-0.8678076352347288,0.7310299320832673,-2.3405744572533997,0.7305678927495907,2
285,2024-09-25 22:29:58.258754816,TASK_BEGIN,018,-0.5330973908360422,0.3635197351530402,-3.731793900191065,0.9924234753744504,-0.8592748667011341,0.7223360299112828,-2.4919228973358405,0.7401728397416795,2
286,2024-09-25 22:29:58.326582016,TASK_BEGIN,018,-0.5694807187932964,0.3687349062614063,-3.790805740621647,0.9872697467820019,-0.8479900997754901,0.7110515970937052,-2.634535864882721,0.7548053940248549,2
287,2024-09-25 22:29:59.269910272,TASK_BEGIN,018,-0.6036074605571192,0.37526342944574553,-3.84832202300956,0.9848320555381506,-0.836033763425857,0.6981780548346656,-2.76766900386446,0.7758016297293341,2
288,2024-09-25 22:29:59.331196160,TASK_BEGIN,018,-0.6344414572402987,0.3830181441771882,-3.9019793379999723,0.986068195664912,-0.8250247145828843,0.6846371318497968,-2.891765283997873,0.8041691823205662,2
289,2024-09-25 22:29:59.405546752,TASK_BEGIN,018,-0.6611752751019149,0.39191518315169815,-3.9489640254767187,0.9915364554688694,-0.8160325633185106,0.6712456246149008,-3.007977405309475,0.8403566226171563,2
290,2024-09-25 22:29:59.473325824,TASK_BEGIN,018,-0.6833513740499104,0.401895897028542,-3.9863482429794,1.0013753322340375,-0.8096220511278729,0.6587144274594235,-3.1174981451818704,0.8840743839041567,2
291,2024-09-25 22:29:59.541193728,TASK_BEGIN,018,-0.7009620770872176,0.41294157369729767,-4.0115245578237975,1.015333056089097,-0.8059951967186395,0.6476599711066398,-3.2210057809795822,0.9342397071275692,2
292,2024-09-25 22:29:59.608974080,TASK_BEGIN,018,-0.7144898683100385,0.42507798388009327,-4.0226134160409055,1.0328262179609604,-0.8051730628728219,0.6386197461100958,-3.3183128217363382,0.9890632002248757,2
293,2024-09-25 22:29:59.676840192,TASK_BEGIN,018,-0.72484605218109,0.4383684811223349,-4.018804872600622,1.0530308360291871,-0.8071450503460931,0.632063365185016,-3.40813273120718,1.0462223637316408,2
294,2024-09-25 22:30:00.594674944,TASK_BEGIN,018,-0.7332061684348984,0.4528960275663995,-4.000728878812205,1.0750184330938102,-0.8119391783974732,0.6283912747701117,-3.487986972689317,1.1030651802426843,2
295,2024-09-25 22:30:00.662539008,TASK_BEGIN,018,-0.7408017616561545,0.4687380591801397,-3.970836834489147,1.0979115013086087,-0.8196266566144197,0.6279226763166275,-3.554488589922959,1.1568453760451556,2
296,2024-09-25 22:30:00.730289152,TASK_BEGIN,018,-0.7487479729053524,0.4859420916996518,-3.9335826811606065,1.121001141742435,-0.8303056008431366,0.6308819880306554,-3.6041271976704334,1.2050011715653082,2
297,2024-09-25 22:30:00.798129152,TASK_BEGIN,018,-0.7579455514583714,0.5045100457063,-3.8952758654619184,1.1438027477619421,-0.8440916356224754,0.6373890784193152,-3.634280028901501,1.2454410046896818,2
298,2024-09-25 22:30:00.865849088,TASK_BEGIN,018,-0.7690397296596154,0.5243925360700906,-3.8636573431360133,1.1660632142217806,-0.861109401180928,0.6474509233863806,-3.6440024966210802,1.2767769062485907,2
299,2024-09-25 22:30:00.920327936,TASK_BEGIN,018,-0.7824047272840852,0.5454856700302496,-3.847223845119974,1.1877172959318545,-0.8814539933806518,0.6609517297876651,-3.634325102240838,1.2984564619328502,2
300,2024-09-25 22:30:01.001408256,TASK_BEGIN,018,-0.7981474774690797,0.5676217685124771,-3.8542929761207856,1.2087860650280726,-0.9051086812793455,0.6776453507943039,-3.6079459772699844,1.310753588862082,2
301,2024-09-25 22:30:01.939688960,TASK_BEGIN,018,-0.8161366628411229,0.5905543722474038,-3.891940039237985,1.2292541760851001,-0.9318590540135843,0.6971594362905035,-3.5683185902354073,1.3146018586489783,2
302,2024-09-25 22:30:02.012128256,TASK_BEGIN,018,-0.8360555245686289,0.6139487782556321,-3.9650290267725334,1.2489788110838713,-0.9612597419025639,0.7190156111820547,-3.518406303539588,1.311303956899554,2
303,2024-09-25 22:30:02.079059968,TASK_BEGIN,018,-0.8574685197330812,0.6373889126614241,-4.075447540325772,1.267633391600446,-0.9926648996175874,0.7426588431560589,-3.459681612364591,1.302213173156084,2
304,2024-09-25 22:30:02.146850048,TASK_BEGIN,018,-0.8798819533091728,0.6603981695548964,-4.221526680750478,1.284652259914273,-1.0252914224325813,0.7674858118816015,-3.3918957954226405,1.2885115905070106,2
305,2024-09-25 22:30:02.215417088,TASK_BEGIN,018,-0.9027803792232459,0.6824641311907363,-4.397699525753097,1.2991828858998327,-1.0582851869836967,0.7928681667126306,-3.3136239468120303,1.2711409738786326,2
306,2024-09-25 22:30:02.278395904,TASK_BEGIN,018,-0.9256392349475091,0.7030629693248938,-4.594642275228523,1.3101121953031158,-1.0907771396636132,0.8181713595338542,-3.2230464556781087,1.2508230705940766,2
307,2024-09-25 22:30:02.339003136,TASK_BEGIN,018,-0.9479189704238568,0.7216836748354563,-4.8001594691017635,1.3162244745137972,-1.121916393486525,0.8427679392861248,-3.1184117358509402,1.2280733822279524,2
308,2024-09-25 22:30:03.285809152,TASK_BEGIN,018,-0.9690373274450158,0.7378492810164071,-5.000749381933684,1.3164648994482142,-1.1508627596222023,0.866042133848226,-2.9981273260289,1.203185320421036,2
309,2024-09-25 22:30:03.361686016,TASK_BEGIN,018,-0.9883303808053748,0.7511329045740586,-5.183337643641371,1.3101965727890752,-1.1767391942738334,0.8873863054571126,-2.8608659711091446,1.1762274242120208,2
310,2024-09-25 22:30:03.429398016,TASK_BEGIN,018,-1.0050400704443536,0.7611712338545502,-5.3365691167446645,1.2973341390252227,-1.1985901421228644,0.9061971361101804,-2.705941190453297,1.147083453876105,2
311,2024-09-25 22:30:03.486347776,TASK_BEGIN,018,-1.0183576591889278,0.7676774702291588,-5.45143477344109,1.2783204134877981,-1.2154143756782723,0.9218829944942871,-2.533753757881905,1.1155153886616476,2
312,2024-09-25 22:30:03.563555840,TASK_BEGIN,018,-1.0275067693375108,0.770450877828358,-5.521483142484534,1.2540026979602075,-1.2262902396371436,0.933888482543191,-2.346026244254718,1.0812226895616877,2
313,2024-09-25 22:30:03.630743040,TASK_BEGIN,018,-1.0318212104130557,0.7693788800771644,-5.543008074468171,1.2255003920241827,-1.2305360615068517,0.9417305983388662,-2.1458382864125998,1.0439091843263393,2
314,2024-09-25 22:30:03.687629824,TASK_BEGIN,018,-1.0307898025183468,0.7644298432591334,-5.515352243254296,1.1941247470879277,-1.2278311460838207,0.945033106841018,-1.9375658478974618,1.0033825522637907,2
315,2024-09-25 22:30:04.643981824,TASK_BEGIN,018,-1.0240709650902984,0.755637523550793,-5.4411119211863195,1.1613386231974112,-1.2182586118521248,0.9435477408953645,-1.7266540364443663,0.9596783191009465,2
316,2024-09-25 22:30:04.711776768,TASK_BEGIN,018,-1.0114935764510449,0.7430832530565391,-5.325976694852596,1.12869957338972,-1.2022713288317493,0.9371590088176676,-1.5191503759685994,0.913165335792964,2
317,2024-09-25 22:30:04.779687936,TASK_BEGIN,018,-0.9930587851898902,0.7268854866811052,-5.1781793185403595,1.097755051455764,-1.1806062256162817,0.9258754353643074,-1.321157060311946,0.8645954759032182,2
318,2024-09-25 22:30:04.847033856,TASK_BEGIN,018,-0.9689441498119636,0.7072002286592269,-5.007691149364132,1.0699038894539192,-1.1541729371815628,0.9098108914313984,-1.1384728202129444,0.8150968431422456,2
319,2024-09-25 22:30:04.915299840,TASK_BEGIN,018,-0.9394966964555737,0.6842263431524024,-4.825276438914346,1.0462541420031815,-1.1239256118944374,0.8891594471937985,-0.976497798583292,0.7661245770007864,2
320,2024-09-25 22:30:04.982587136,TASK_BEGIN,018,-0.9052071371171473,0.6582104612024398,-4.641500207732528,1.02750999564156,-1.0907247460265477,0.8641697591433402,-0.8402074518830347,0.7193653728276882,2
321,2024-09-25 22:30:05.050960896,TASK_BEGIN,018,-0.8666772624652995,0.6294524360880616,-4.465799974311163,1.013916823494685,-1.0552178606990388,0.8351279979800627,-0.7339883891802174,0.6765908541905337,2
322,2024-09-25 22:30:05.986779904,TASK_BEGIN,018,-0.8245931033739703,0.5983101548598798,-4.305694699331781,1.0052593456516958,-1.0177740641315371,0.8023558769670759,-0.6612931126995483,0.639478969051116,2
323,2024-09-25 22:30:06.047822080,TASK_BEGIN,018,-0.7796991812753565,0.565196171885883,-4.166162647160724,1.0008753062249067,-0.9784786767620539,0.7662202792093913,-0.6241267539897535,0.6094234807199526,2
324,2024-09-25 22:30:06.129747968,TASK_BEGIN,018,-0.7327684456384825,0.5305618003329742,-4.049240489094646,0.9996679691583416,-0.9371622682157197,0.7271417082630927,-0.6224047486115545,0.5873328074821824,2
325,2024-09-25 22:30:06.187714048,TASK_BEGIN,018,-0.6845782060828751,0.49487468227208403,-3.9539285323390585,1.000141071424594,-0.8934341694470893,0.685591290565397,-0.6534486199393574,0.5734402709271822,2
326,2024-09-25 22:30:06.264399872,TASK_BEGIN,018,-0.6359015655400131,0.45859978933775963,-3.876491470417293,1.0004915049841767,-0.8467134360025003,0.6420771116035733,-0.7120602866056721,0.56720159404316,2
327,2024-09-25 22:30:06.333188096,TASK_BEGIN,018,-0.5875023562140098,0.42218655477683853,-3.8111868620031717,0.9987781918667964,-0.7962835982630369,0.5971279435502178,-0.7913141025469479,0.5673546480678723,2
328,2024-09-25 22:30:06.400999936,TASK_BEGIN,018,-0.5401121729573111,0.38605605772420737,-3.751308522506205,0.9931442625377266,-0.7414095604143239,0.5512812327276236,-0.8836933669030037,0.5721388297079513,2
329,2024-09-25 22:30:07.338806016,TASK_BEGIN,018,-0.4943882038825897,0.3505843457656727,-3.6903083811642747,0.982038126737623,-0.6815206918467446,0.5050760673271091,-0.9821026704461356,0.5796022062733023,2
330,2024-09-25 22:30:07.412120064,TASK_BEGIN,018,-0.45086842727141113,0.3160874691628227,-3.6227594505516842,0.9643951122429936,-0.6164085515026319,0.45904567451084616,-1.0805914967524266,0.5879094069483147,2
331,2024-09-25 22:30:07.479875072,TASK_BEGIN,018,-0.409930291326925,0.28281512751033394,-3.5450116021332647,0.9397637111344613,-0.5463629914888639,0.4137021914753846,-1.1747928246270667,0.5955695006948942,2
332,2024-09-25 22:30:07.547651072,TASK_BEGIN,018,-0.37175244665989865,0.2509527327704625,-3.455516578027893,0.9083547931701302,-0.4721964429195383,0.369511735043984,-1.262043053895021,0.6015369486502515,2
333,2024-09-25 22:30:07.615461120,TASK_BEGIN,018,-0.33629892451355475,0.2206296879391675,-3.3549153127532256,0.8710036383111049,-0.39515731825478734,0.3268670000647474,-1.3412362506220177,0.605214968967174,2
334,2024-09-25 22:30:07.683245824,TASK_BEGIN,018,-0.3033566595555062,0.1919365678402429,-3.246030637808449,0.8290781688078086,-0.316765238513915,0.2860674138402967,-1.4125835339586206,0.6064365766893278,2
335,2024-09-25 22:30:07.749155072,TASK_BEGIN,018,-0.27263152954547404,0.16495417924865766,-3.133842945597344,0.7843813390086615,-0.23860404563192814,0.24730994796792477,-1.4773504206835266,0.6054640068787978,2
336,2024-09-25 22:30:08.692110080,TASK_BEGIN,018,-0.24386189625578558,0.13978759758887477,-3.0253697984965426,0.7390544273775772,-0.16211633534672393,0.21068846583648096,-1.5375076928199056,0.6029871231750089,2
337,2024-09-25 22:30:08.762119168,TASK_BEGIN,018,-0.21689014561740952,0.11658923681214134,-2.929242069724875,0.6954442263220995,-0.0884552194565084,0.176201118330441,-1.5952349751603605,0.6000703033467347,2
338,2024-09-25 22:30:08.814398976,TASK_BEGIN,018,-0.19167004558906195,0.09556107845496983,-2.854793346648276,0.6559032863634481,-0.01843115886140163,0.14376597829753152,-1.652328961657023,0.5980126804619634,2
339,2024-09-25 22:30:08.892508160,TASK_BEGIN,018,-0.16823693804733592,0.0769415776793862,-2.8107074941835473,0.6225454671803625,0.04745155421115333,0.11324342622465414,-1.7097420964837764,0.5981443634743578,2
340,2024-09-25 22:30:08.965537024,TASK_BEGIN,018,-0.1466739562834159,0.060987838798359534,-2.80359672531223,0.5970370736600836,0.10890815650431196,0.08446411078686945,-1.7674422582339673,0.601617055304261,2
341,2024-09-25 22:30:09.033370112,TASK_BEGIN,018,-0.12708784171480259,0.04795630714222904,-2.837036302657383,0.5805119116931313,0.16577438770178393,0.0572626483660836,-1.8244314855923298,0.6092197341405529,2
342,2024-09-25 22:30:09.093745920,TASK_BEGIN,018,-0.10960146967756089,0.038082520754061266,-2.9113836823388493,0.5736326921979116,0.21790505626146492,0.03151630595058208,-1.8786655178633178,0.621231730591918,2
343,2024-09-25 22:30:10.019270912,TASK_BEGIN,018,-0.09436711095607109,0.031565718787979244,-3.0243082952315485,0.5767353158506588,0.2650761838346085,0.007183086419639771,-1.9270094282819275,0.637354946367354,2
344,2024-09-25 22:30:10.077915904,TASK_BEGIN,018,-0.0815846764499917,0.02856206837266244,-3.1716567210593527,0.5899637586392679,0.30691863696629423,-0.01567135091600055,-1.9655630668068773,0.6567642595525209,2
345,2024-09-25 22:30:10.154984960,TASK_BEGIN,018,-0.07149772604983527,0.02918055814002449,-3.3482084183076943,0.6133238962508062,0.34290488151799614,-0.03686670984965494,-1.9903932828636512,0.6782608790449143,2
346,2024-09-25 22:30:10.222776832,TASK_BEGIN,018,-0.06436873361380374,0.033475543518010735,-3.5479998171525287,0.6466119811321239,0.37237821642426994,-0.05612131864046716,-1.9984374614032572,0.7004772752383078,2
347,2024-09-25 22:30:10.279565312,TASK_BEGIN,018,-0.0604707433385884,0.04143977344357913,-3.7641762836958597,0.6892304147823548,0.3945968476029924,-0.07307752195290107,-1.9883638082105788,0.7220805723657554,2
348,2024-09-25 22:30:10.357266176,TASK_BEGIN,018,-0.06011464027638888,0.05300434947656117,-3.9886774675299455,0.7399929397029691,0.40876923697726314,-0.08732934247559368,-1.961238648700493,0.7419404161437395,2
349,2024-09-25 22:30:10.426251008,TASK_BEGIN,018,-0.06368151806255504,0.0680443835327542,-4.212202696863798,0.7970502942685828,0.41407300607853487,-0.09844720238398222,-1.9208291362117114,0.7592608303835058,2
350,2024-09-25 22:30:11.344524032,TASK_BEGIN,018,-0.07162381161464942,0.0863832324822658,-4.424662333263068,0.8579814502229709,0.40966632611207227,-0.10599729913540809,-1.8734020026079958,0.7736839147495449,2
351,2024-09-25 22:30:11.412826880,TASK_BEGIN,018,-0.08443733232634275,0.10779140718261733,-4.615974282378772,0.9199912554649704,0.39471413333952027,-0.10955461391477372,-1.8270214610716415,0.7853467690754748,2
352,2024-09-25 22:30:11.480620032,TASK_BEGIN,018,-0.10262081255048638,0.13198365357257572,-4.776982602704902,0.9801417719542795,0.3684628154912689,-0.10871637197801348,-1.790505714054633,0.7948577487695567,2
353,2024-09-25 22:30:11.548424192,TASK_BEGIN,018,-0.12660986464906096,0.1586176747336345,-4.90033592746995,1.0355866263595097,0.3303825987147824,-0.10312798644127469,-1.7723110945913312,0.8031776276273257,2
354,2024-09-25 22:30:11.616204032,TASK_BEGIN,018,-0.15665946567949815,0.1872901769917668,-4.981124751257249,1.0837915098693391,0.28034553300964177,-0.09252287225185056,-1.779620230797501,0.8114285009204382,2
355,2024-09-25 22:30:11.683983872,TASK_BEGIN,018,-0.19269832957625244,0.21752578314098206,-5.01709765801114,1.122714121195503,0.21876138181478333,-0.07676189486803549,-1.8177721573727754,0.820678963987827,2
356,2024-09-25 22:30:11.751798016,TASK_BEGIN,018,-0.23422871500243803,0.2487651269089956,-5.008511567779968,1.1509263508211165,0.1466140626390723,-0.055857795344279225,-1.8899792453412254,0.8317534412249827,2
357,2024-09-25 22:30:12.694432000,TASK_BEGIN,018,-0.28031711602414583,0.28036360589509585,-4.957864303159108,1.1676850483190713,0.06542032497421431,-0.029984972282859144,-1.9971426682843032,0.8450966877003198,2
358,2024-09-25 22:30:12.761783040,TASK_BEGIN,018,-0.32965368676526013,0.31160572665522657,-4.8696737233994,1.1729670223473747,-0.02283061745522683,0.00051508520869724,-2.1376025390973052,0.8607113655725273,2
359,2024-09-25 22:30:12.830113024,TASK_BEGIN,018,-0.38063690199269584,0.3417324025712276,-4.750262755422487,1.167476959404846,-0.11574873270324304,0.0351310048991069,-2.306910998702008,0.8781875055766556,2
360,2024-09-25 22:30:12.893511936,TASK_BEGIN,018,-0.43146470332251324,0.3699763693261653,-4.607405997596974,1.1526177791322214,-0.21066560383431918,0.07319213638362634,-2.497937906794858,0.8968278758359775,2
361,2024-09-25 22:30:12.955094016,TASK_BEGIN,018,-0.48023527182495096,0.39560235200409394,-4.449739341538692,1.1303893004609047,-0.3048273547416096,0.11390060485404746,-2.701450769625132,0.9158195580266717,2
362,2024-09-25 22:30:13.033211904,TASK_BEGIN,018,-0.5250652377208274,0.41794982298902367,-4.28599186032178,1.1031897888478739,-0.39564274296587126,0.15638098538793102,-2.9069546456875828,0.9343716694822894,2
363,2024-09-25 22:30:13.101277952,TASK_BEGIN,018,-0.5642290023445944,0.43647357839205275,-4.12424191412446,1.073549875389206,-0.48095819042889526,0.19973798678668966,-3.1035059868380563,0.951781870889654,2
364,2024-09-25 22:30:14.044481024,TASK_BEGIN,018,-0.5963105518485337,0.45077488326649945,-3.971401588530722,1.0438763165303815,-0.5593112618823046,0.24311250058831138,-3.2804425936257444,0.9674495166278526,2
365,2024-09-25 22:30:14.112370176,TASK_BEGIN,018,-0.620343699795746,0.46062100871576267,-3.833001430723806,1.0162682335954034,-0.6300880465563967,0.28572614915402295,-3.4281617504558466,0.9808669279759923,2
366,2024-09-25 22:30:14.180201984,TASK_BEGIN,018,-0.6359100367185222,0.4659576896414575,-3.7131737166689516,0.9924076930962288,-0.6935252194354344,0.326906990537061,-3.53902449647852,0.9916190190128189,2
367,2024-09-25 22:30:14.240287232,TASK_BEGIN,018,-0.643169061996164,0.4669162429743821,-3.614673088706576,0.97349350817753,-0.7505541019648336,0.3660960692231628,-3.6082664148414776,0.9994224043309466,2
368,2024-09-25 22:30:14.302774016,TASK_BEGIN,018,-0.6428141188076367,0.4638116211705022,-3.5389181598831634,0.9602170381945047,-0.802533994168399,0.4028400985234363,-3.634692964086135,1.0042171894295548,2
369,2024-09-25 22:30:14.383672064,TASK_BEGIN,018,-0.6359768272477824,0.4571308459379269,-3.486203384199753,0.9528142162633358,-0.8509423173646473,0.4367765411121412,-3.6209876677102577,1.006288751464493,2
370,2024-09-25 22:30:14.442021888,TASK_BEGIN,018,-0.624112985675963,0.447515382738471,-3.4561486895657425,0.9512009880921497,-0.8970867732425623,0.46761704859047204,-3.5735197869308273,1.0063621715059636,2
371,2024-09-25 22:30:15.390764032,TASK_BEGIN,018,-0.6088801644146732,0.435736218349621,-3.448195840367438,0.9551371222023298,-0.9418914736246251,0.4951359543604785,-3.5015899736857508,1.0056008681003683,2
372,2024-09-25 22:30:15.462502912,TASK_BEGIN,018,-0.591999421747724,0.42265470814042727,-3.4618771702283344,0.9643452322938365,-0.9857912150966427,0.5191698371586382,-3.416220532435588,1.005483038781215,2
373,2024-09-25 22:30:15.529862912,TASK_BEGIN,018,-0.5751144611497806,0.4091673593761903,-3.4967742847745145,0.9785479719757889,-1.0287415165554818,0.5396290784918708,-3.328791954628381,1.0075989842322384,2
374,2024-09-25 22:30:15.598169088,TASK_BEGIN,018,-0.5596876695812671,0.39614484409043776,-3.5522883592298666,0.9974283916223964,-1.0703100660009037,0.5565130780944071,-3.2498487403779315,1.0134405257933796,2
375,2024-09-25 22:30:15.653027072,TASK_BEGIN,018,-0.5469536569117112,0.3843804585402272,-3.6273561224321313,1.0205379219437674,-1.1097759049203564,0.5699134441569488,-3.188281334679077,1.0242387413774037,2
376,2024-09-25 22:30:15.730369024,TASK_BEGIN,018,-0.537907746483508,0.37455549803818006,-3.7201582051071704,1.047181236651157,-1.1461743230416226,0.5799944653235427,-3.150920765481939,1.0408715832208368,2
377,2024-09-25 22:30:15.801671168,TASK_BEGIN,018,-0.533299291455345,0.36721775047253424,-3.8278895463791747,1.0763247915612044,-1.1782937434957865,0.5869559550685978,-3.1423572895838894,1.0638070733048657,2
378,2024-09-25 22:30:16.744648960,TASK_BEGIN,018,-0.5336233761972436,0.36276501747785245,-3.9467461062731304,1.106587944359079,-1.2046830002719522,0.5909931828659668,-3.164749797943859,1.0930337611677723,2
379,2024-09-25 22:30:16.812548096,TASK_BEGIN,018,-0.5391078681814123,0.3614291503208162,-4.072198867137189,1.1363331442903468,-1.223718940284535,0.5922661468282414,-3.2176686173047067,1.1279961931800029,2
380,2024-09-25 22:30:16.877253888,TASK_BEGIN,018,-0.5496817677917476,0.36326200324575975,-4.199438008319767,1.1638095080275375,-1.2337461361134892,0.5908857075318489,-3.2981970433970886,1.167592875860549,2
381,2024-09-25 22:30:16.939742208,TASK_BEGIN,018,-0.5649242878158913,0.3681277625630007,-4.323789258675265,1.1872904741559667,-1.233259476220288,0.5869191226098587,-3.4013505032926306,1.2102528470565161,2
382,2024-09-25 22:30:17.001754880,TASK_BEGIN,018,-0.5840179182498746,0.3757046188310112,-4.44094780718359,1.2051757930138265,-1.2210797131127749,0.5804097294242697,-3.5206601405750626,1.2540658479483,2
383,2024-09-25 22:30:17.078990848,TASK_BEGIN,018,-0.6057367712407641,0.3854968752677771,-4.546990015111671,1.2160620257839139,-1.196499261835041,0.5714023765585434,-3.6487318022874544,1.2969307455102947,2
384,2024-09-25 22:30:17.141267968,TASK_BEGIN,018,-0.6285006289385503,0.3968607822663602,-4.638260394298734,1.2188004341680407,-1.1594066560914564,0.5599707261455183,-3.7776981436835646,1.3366840631708925,2
385,2024-09-25 22:30:18.090872064,TASK_BEGIN,018,-0.6505066105003291,0.409047371246413,-4.7113009119171805,1.2125564561261721,-1.1103752663041755,0.546244569390598,-3.8996621887444163,1.3711938079166546,2
386,2024-09-25 22:30:18.152913152,TASK_BEGIN,018,-0.669909029520856,0.4212569025765784,-4.762929641581869,1.1968789708562184,-1.0506752245693296,0.5304315497035176,-4.00731696879488,1.3984469370792165,2
387,2024-09-25 22:30:18.230443776,TASK_BEGIN,018,-0.6849986111303806,0.43269265531994233,-4.790459475608084,1.1717825746454908,-0.9821955080111867,0.5128261406939996,-4.094768372680731,1.4166685035772788,2
388,2024-09-25 22:30:18.291633920,TASK_BEGIN,018,-0.6943497733005073,0.44260640598753015,-4.792018973752653,1.1378314445643154,-0.9072935725225426,0.49380163284362205,-4.158305941862237,1.4244768777599004,2
389,2024-09-25 22:30:18.353233152,TASK_BEGIN,018,-0.6969169653992618,0.4503352906333677,-4.766940536830015,1.096194615811087,-0.8285854686176897,0.4737860556423705,-4.196740843953067,1.4210459649719211,2
390,2024-09-25 22:30:18.433274880,TASK_BEGIN,018,-0.6920652432550153,0.4553297891639916,-4.7160887099063125,1.0486370647723182,-0.7486971198811926,0.4532290711818065,-4.211116982800254,1.4062356828182818,2
391,2024-09-25 22:30:18.501744896,TASK_BEGIN,018,-0.67954332080626,0.45716885580477334,-4.641947309129856,0.9974265724116855,-0.6700210301877555,0.43256932246393853,-4.203962290555734,1.3806474895505685,2
392,2024-09-25 22:30:19.435828736,TASK_BEGIN,018,-0.6594315209400352,0.4555601124784455,-4.548394516524135,0.9451589899841732,-0.5945267570100488,0.4122096161297013,-4.1784510757719255,1.3455619787620865,2
393,2024-09-25 22:30:19.512720896,TASK_BEGIN,018,-0.6320912753339868,0.4503316724775848,-4.440241037135881,0.8945222417996074,-0.5236619171536261,0.3925033080010574,-4.13774792192828,1.3027577184047463,2
394,2024-09-25 22:30:19.574233088,TASK_BEGIN,018,-0.5981130787284845,0.44142593978662914,-4.32266473748537,0.8480333700852463,-0.45834956923651193,0.37374813535757917,-4.084607682208983,1.2542796155807086,2
395,2024-09-25 22:30:19.636164096,TASK_BEGIN,018,-0.5582378795278761,0.4288962284391464,-4.200665529857622,0.8077886305080978,-0.3990451833213801,0.3561782980089186,-4.021231442644895,1.2022425900027538,2
396,2024-09-25 22:30:19.713340160,TASK_BEGIN,018,-0.5132437660154012,0.41289620689873935,-4.078653054880813,0.775268513046161,-0.34581743304788404,0.3399511603359553,-3.9493737226868766,1.148709640920553,2
397,2024-09-25 22:30:19.784103936,TASK_BEGIN,018,-0.46383631954967014,0.39365788757563197,-3.9602610266345057,0.751235881679018,-0.2984577232276018,0.3251366412775098,-3.87063311217959,1.095641038707661,2
398,2024-09-25 22:30:19.837214208,TASK_BEGIN,018,-0.41059545312154816,0.371469426697805,-3.8483666129175487,0.7357295818919705,-0.25662613276614926,0.3117198665968247,-3.7867485851680285,1.044896705905115,2
399,2024-09-25 22:30:20.757103104,TASK_BEGIN,018,-0.35398550520436056,0.34666497012045777,-3.7451119757321196,0.7281063426150857,-0.21999566007489382,0.2996169365474979,-3.6996795772432582,0.9982522533670695,2
400,2024-09-25 22:30:20.834737152,TASK_BEGIN,018,-0.29439165266033257,0.3196239765231671,-3.6517118909627184,0.7270910935438116,-0.1883368289247345,0.28869286325068483,-3.6113561497703546,0.9573667081060512,2
401,2024-09-25 22:30:20.903428096,TASK_BEGIN,018,-0.23216165343959141,0.2907705521802109,-3.568127598352876,0.7308654074555277,-0.16152189142192527,0.2787728631955571,-3.523202788135665,0.9236638494041933,2
402,2024-09-25 22:30:20.970603008,TASK_BEGIN,018,-0.16766684056049297,0.26057059475522265,-3.4929963343613806,0.7372552288646883,-0.13947252575375194,0.2696488608073129,-3.435694290362328,0.8981525079628206,2
403,2024-09-25 22:30:21.036830720,TASK_BEGIN,018,-0.10138215216757648,0.22952812269120676,-3.4240650299576245,0.7440079525712596,-0.12209620653112109,0.2610897771929648,-3.3481587848536702,0.8812520322650301,2
404,2024-09-25 22:30:21.106930944,TASK_BEGIN,018,-0.033943241239969765,0.1981767190349745,-3.3589117672872093,0.749064472352965,-0.10925992277470611,0.2528628623015829,-3.2588479420349175,0.8726855059793444,2
405,2024-09-25 22:30:21.174731008,TASK_BEGIN,018,0.033856092605409664,0.16706228649707808,-3.295565381485788,0.7507442834666139,-0.10082021686065307,0.24476615063143323,-3.1651730376105864,0.8714818965470976,2
406,2024-09-25 22:30:22.118962176,TASK_BEGIN,018,0.10111239039940922,0.1367239260581726,-3.23286327366188,0.7478343595146085,-0.0966853300103743,0.23666548561396533,-3.0641132081501286,0.8761070839240485,2
407,2024-09-25 22:30:22.182542848,TASK_BEGIN,018,0.1668639154390219,0.10768635643300965,-3.1705762501838857,0.7396103875565636,-0.09688204457193228,0.22852905921752792,-2.952896662287544,0.8847191027830694,2
408,2024-09-25 22:30:22.244160768,TASK_BEGIN,018,0.23012042396161322,0.08046797725319797,-3.1093572859375413,0.7258204236798163,-0.10161100493693599,0.22045175461614214,-2.8298475913138303,0.8954970342698915,2
409,2024-09-25 22:30:22.322478080,TASK_BEGIN,018,0.2898787527721194,0.05559148877982072,-3.050614977535798,0.7066607764122464,-0.11126097099870134,0.2126582699342415,-2.695040687606167,0.9069397626860519,2
410,2024-09-25 22:30:22.382656000,TASK_BEGIN,018,0.3451322865391608,0.033580877039493674,-2.9964065542298712,0.682760707972478,-0.12635795183036996,0.2054801822967488,-2.550470936393508,0.918029760637512,2
411,2024-09-25 22:30:22.445095936,TASK_BEGIN,018,0.3948663198185631,0.014943479667292254,-2.9493558769254813,0.6551734245823706,-0.1474658285853009,0.19931717275967464,-2.399709824417289,0.9282226821900155,2
412,2024-09-25 22:30:22.525926144,TASK_BEGIN,018,0.43804774011088615,0.00014620630867454476,-2.9125854357738428,0.6253675324338931,-0.17507222064455374,0.19459752103394862,-2.2472010412588737,0.9372971851150095,2
413,2024-09-25 22:30:23.438723072,TASK_BEGIN,018,0.47364185891326477,-0.010409434407359707,-2.8896567453754622,0.5952002571326521,-0.2094670809434455,0.19174211573908917,-2.0973580790564124,0.9451316270305118,2
414,2024-09-25 22:30:23.500299008,TASK_BEGIN,018,0.5006712984027214,-0.016413718376459614,-2.884446934960586,0.5668333528509306,-0.2506055567792861,0.19112597480965549,-1.953627048477066,0.9514778002135178,2
415,2024-09-25 22:30:23.579785984,TASK_BEGIN,018,0.518301939332434,-0.017673836718602707,-2.900877772902527,0.5425736301935155,-0.2979780093270036,0.1930352105706709,-1.8177822482067256,0.955802404254,2
416,2024-09-25 22:30:23.647591168,TASK_BEGIN,018,0.5259392634277221,-0.01413167929931215,-2.942481920161848,0.5246659819674627,-0.3505445927503063,0.19762903265969672,-1.6896659556942393,0.9572476097911411,2
417,2024-09-25 22:30:23.700687104,TASK_BEGIN,018,0.5233241663842357,-0.005871343246971992,-3.01185387388444,0.5150784698588715,-0.40677050883410837,0.20491947345079048,-1.5673505581538403,0.9547180423609182,2
418,2024-09-25 22:30:23.777884160,TASK_BEGIN,018,0.5106099349671382,0.006879175227258116,-3.110108092522688,0.5153032153235594,-0.46474899355084665,0.2147723170226099,-1.4476856477379068,0.9470689825557768,2
419,2024-09-25 22:30:23.840370176,TASK_BEGIN,018,0.488397672539049,0.023746172724103617,-3.236499256671227,0.5261928749432373,-0.5223836851064766,0.2269238268999825,-1.3272816345935936,0.9333564573890597,2
420,2024-09-25 22:30:24.793266176,TASK_BEGIN,018,0.4577213570094478,0.04421016798954016,-3.3882495857087656,0.5478519547978065,-0.577606453102789,0.24100816065821287,-1.2037425256590009,0.9130862615603658,2
421,2024-09-25 22:30:24.861684992,TASK_BEGIN,018,0.41999360189578455,0.06761467050020072,-3.5604985273057355,0.5795895914189891,-0.6285915432346236,0.25659325240945735,-1.0766191897401547,0.8863762287603403,2
422,2024-09-25 22:30:24.929929984,TASK_BEGIN,018,0.37692845399925234,0.09318520591372281,-3.7463400367566044,0.6199449291903641,-0.6739135216150747,0.27322065240095067,-0.9476790587710888,0.8539786928042915,2
423,2024-09-25 22:30:24.990359040,TASK_BEGIN,018,0.3304488002443411,0.12005334156472529,-3.9370685209086775,0.6668143475443064,-0.7126211370132901,0.29044171285060266,-0.82058111347107,0.817189889625579,2
424,2024-09-25 22:30:25.065530880,TASK_BEGIN,018,0.28257890245515,0.14728397118147157,-4.1227473914099635,0.7176819273348144,-0.7442428586185746,0.30784583712930513,-0.7002639909999369,0.7777053670515881,2
425,2024-09-25 22:30:25.133363968,TASK_BEGIN,018,0.23532530280030745,0.17391173265961898,-4.293001783304289,0.7698896693640621,-0.7687519618114309,0.3250817277222261,-0.5922077952170454,0.7374476419369622,2
426,2024-09-25 22:30:25.192270080,TASK_BEGIN,018,0.1905567859100041,0.19899089896839228,-4.437765625848142,0.8208567646424528,-0.7864942222001516,0.34187065205347617,-0.5017137390294574,0.6983876642380826,2
427,2024-09-25 22:30:26.144188928,TASK_BEGIN,018,0.14989625160888886,0.2216524580722852,-4.547786147460112,0.8681933261281086,-0.7980758923519915,0.3580064240739079,-0.4334545553439238,0.6624127853719167,2
428,2024-09-25 22:30:26.212096000,TASK_BEGIN,018,0.11463015367244048,0.2411560316105981,-4.614975084952117,0.9097299015081056,-0.8042393933671788,0.37334050789451817,-0.3913428019232863,0.631265705127864,2
429,2024-09-25 22:30:26.271503872,TASK_BEGIN,018,0.08563267790285739,0.25692995593905654,-4.632914357594916,0.9435481473288874,-0.8057619155549566,0.38775895544257705,-0.37841036782645654,0.6064968876546424,2
430,2024-09-25 22:30:26.333067008,TASK_BEGIN,018,0.06330625197272005,0.2686002517603848,-4.597690138886835,0.9680896069858,-0.8033891137413749,0.401160384998283,-0.3964577432682078,0.5893580391399407,2
431,2024-09-25 22:30:26.415554048,TASK_BEGIN,018,0.047558803187094226,0.27600701622502494,-4.508850039770906,0.9823432835799661,-0.7978055559136608,0.41343897540308333,-0.4456313912017618,0.5806467658155623,2
432,2024-09-25 22:30:26.472094976,TASK_BEGIN,018,0.03784837541947774,0.2792007712901292,-4.370039701157674,0.9860392359172664,-0.7896417092052953,0.42447100845498803,-0.5241985113374663,0.5805695083939177,2
433,2024-09-25 22:30:26.549805056,TASK_BEGIN,018,0.03330508391790428,0.2784144463083139,-4.188983382526287,0.979760067775707,-0.7795036682381221,0.4341048664421624,-0.6285466901542787,0.5886574749598775,2
434,2024-09-25 22:30:27.492498944,TASK_BEGIN,018,0.03290738593906663,0.27401645709476885,-3.976783523549783,0.9649159681301637,-0.7679964333844219,0.4421588782201742,-0.7533728849825356,0.6037463032755309,2
435,2024-09-25 22:30:27.552419840,TASK_BEGIN,018,0.03567641225082293,0.2664548781685412,-3.746739810219617,0.9435734084645528,-0.7557105857100822,0.44843123651984107,-0.8921666732897079,0.6240533113649152,2
436,2024-09-25 22:30:27.629595904,TASK_BEGIN,018,0.04084672500024558,0.2562031193573187,-3.5129237028395166,0.918171577360792,-0.7431704215936765,0.4527214245573075,-1.0379986000527814,0.6473731588160878,2
437,2024-09-25 22:30:27.691716864,TASK_BEGIN,018,0.04795885753261804,0.24372062596382377,-3.2887049130853474,0.8911929705097044,-0.730786512457543,0.4548584256721754,-1.1843691149609274,0.6713544858246936,2
438,2024-09-25 22:30:27.753246976,TASK_BEGIN,018,0.056835921522286684,0.22944036795059927,-3.0854156578605973,0.8648499454188604,-0.7188590442312615,0.45473025185811905,-1.3257992422903648,0.6937764106609864,2
439,2024-09-25 22:30:27.830094080,TASK_BEGIN,018,0.06746904272099011,0.21378030522867197,-2.9113442917047387,0.8408266406209859,-0.7076208752031177,0.4523088906793284,-1.457953331294144,0.7127398590189193,2
440,2024-09-25 22:30:27.901353984,TASK_BEGIN,018,0.07988108876826466,0.1971615627974353,-2.771214377680554,0.8201096387997792,-0.6972701664167611,0.4476630014580942,-1.5773024180989865,0.7267347674333159,2
441,2024-09-25 22:30:28.833445120,TASK_BEGIN,018,0.09402238568626006,0.18001761690963689,-2.6661906152718933,0.8029365656864546,-0.6879722034344653,0.4409530495109778,-1.6805942652986983,0.7346173932780485,2
442,2024-09-25 22:30:28.912318208,TASK_BEGIN,018,0.10971292018402604,0.16279136507168962,-2.5943098304627026,0.788869247820501,-0.679842278767468,0.4324102716345476,-1.7645060251387117,0.7355772707296312,2
443,2024-09-25 22:30:28.980155904,TASK_BEGIN,018,0.126627304870939,0.1459247385127511,-2.551193565335097,0.7769683476700514,-0.672918676484967,0.4223059501912589,-1.825739984612546,0.7291658274679745,2
444,2024-09-25 22:30:29.033763840,TASK_BEGIN,018,0.14432621861428074,0.1298429806695467,-2.5309465581609603,0.766026019674404,-0.6671431288259193,0.4109211226129952,-1.8615054915402998,0.7153924215901593,2
445,2024-09-25 22:30:29.115781888,TASK_BEGIN,018,0.16233535587562645,0.11493257218384455,-2.527111468112366,0.754802367985327,-0.6623782518609475,0.3985291054156544,-1.8699594842603358,0.6947997448038725,2
446,2024-09-25 22:30:29.173250048,TASK_BEGIN,018,0.18023029060557497,0.10151720159074777,-2.5334567956952116,0.7422047561032384,-0.6584642760540907,0.3853978592333228,-1.850208100053022,0.6684163989524732,2
447,2024-09-25 22:30:29.252015104,TASK_BEGIN,018,0.1976572671993951,0.08984344645471326,-2.5444158723022263,0.7273646670791982,-0.655279320850668,0.3718055625257581,-1.8020020478176997,0.6375927369043275,2
448,2024-09-25 22:30:30.189367808,TASK_BEGIN,018,0.21427239035037546,0.0800845756086389,-2.5551745907151955,0.7096214756741701,-0.6527649493192498,0.3580518179967192,-1.7255757931400864,0.6038221779179754,2
449,2024-09-25 22:30:30.252028928,TASK_BEGIN,018,0.22966190987189838,0.07235693390656261,-2.561599875845635,0.6884826492882099,-0.650911339351968,0.3444509406420757,-1.6217560124956858,0.5686114686803078,2
450,2024-09-25 22:30:30.329564928,TASK_BEGIN,018,0.2433139086157229,0.06673313584469874,-2.5603001534547443,0.6636394269823883,-0.6497374651091103,0.33131013150416055,-1.4920720785010413,0.5333745415579806,2
451,2024-09-25 22:30:30.397993216,TASK_BEGIN,018,0.25465033904726114,0.06324280949460462,-2.548971226667299,0.6350568580768486,-0.6493079963742424,0.31890644022355935,-1.3387231251596965,0.499327123708131,2
452,2024-09-25 22:30:30.465841920,TASK_BEGIN,018,0.2630815562764531,0.06186703599028589,-2.5268827879814406,0.6030813987864859,-0.6497800377881063,0.3074720437524557,-1.1646346032891937,0.46742057599148673,2
453,2024-09-25 22:30:30.530839808,TASK_BEGIN,018,0.2680507335066443,0.06253776796696468,-2.4952331303008983,0.5684980545962193,-0.6514217774587365,0.29718728534529276,-0.973864656654672,0.4383548156159031,2
454,2024-09-25 22:30:30.601524224,TASK_BEGIN,018,0.26906236400381184,0.0651452193428545,-2.457204283439523,0.532513825999487,-0.6545566084589748,0.2881780342994221,-0.7721776395133456,0.41264722194281217,2
455,2024-09-25 22:30:31.544629760,TASK_BEGIN,018,0.2657038536615354,0.06954844726711917,-2.4176620406639087,0.49667335375826904,-0.6594501854435106,0.2805176513689939,-0.5672162930583476,0.3906935079325142,2
456,2024-09-25 22:30:31.607139072,TASK_BEGIN,018,0.25766434657217036,0.07558558491162663,-2.3824979591025173,0.4627177166056302,-0.666200660222612,0.27423595125201444,-0.3678782590839631,0.3727777112867873,2
457,2024-09-25 22:30:31.668248832,TASK_BEGIN,018,0.2447456194511347,0.08308336603519136,-2.357677650420938,0.43241120776545466,-0.6746729018346916,0.2693338995808315,-0.18307396353080943,0.3590361582379364,2
458,2024-09-25 22:30:31.745088000,TASK_BEGIN,018,0.2268623819688636,0.09186435086253182,-2.3481904235060465,0.407374777314439,-0.6844844223015767,0.2657978514041044,-0.020470088120411296,0.34941477141175487,2
459,2024-09-25 22:30:31.815879168,TASK_BEGIN,018,0.20403652409497308,0.10175050904659971,-2.35723275344855,0.38895745668368514,-0.6950473497825379,0.2636079661148627,0.11424581343388533,0.3436609326544003,2
460,2024-09-25 22:30:31.883723008,TASK_BEGIN,018,0.17639392008125532,0.11256629258982001,-2.3858847346085073,0.3781540400577527,-0.7056627695183912,0.26274051515497254,0.21752334112961452,0.34135531952261294,2
461,2024-09-25 22:30:31.951552000,TASK_BEGIN,018,0.14417272876756046,0.12414591295013931,-2.43321649037909,0.3755515021834438,-0.7156377890649771,0.26316673926934564,0.28783486974305406,0.3419591421133262,2
462,2024-09-25 22:30:32.869618944,TASK_BEGIN,018,0.10773640483851926,0.1363462340408531,-2.49655130451822,0.3812786872587631,-0.7243872194177308,0.264849881317297,0.3255038078114628,0.3448648930288075,2
463,2024-09-25 22:30:32.937493248,TASK_BEGIN,018,0.0675639621568073,0.1490623018110912,-2.57174723225024,0.3949623005635497,-0.7314923377534384,0.2677393608483789,0.33249347070060237,0.34945419197561883,2
464,2024-09-25 22:30:33.005338880,TASK_BEGIN,018,0.024201509801884204,0.1622385797442081,-2.6535685258492823,0.4157286679953182,-0.7367006090660034,0.27176019444522154,0.3121740566992129,0.35515665578920413,2
465,2024-09-25 22:30:33.065571072,TASK_BEGIN,018,-0.021801106800227527,0.17586812958387854,-2.736219042500823,0.44228958972526977,-0.7398594637091148,0.2767960310511508,0.26908858786777856,0.36150418948156704,2
466,2024-09-25 22:30:33.140903168,TASK_BEGIN,018,-0.06992129794547805,0.18997626111724408,-2.8139898644480725,0.4731112039651584,-0.7407909445452765,0.2826650143139852,0.20865581160557906,0.3681866911413472,2
467,2024-09-25 22:30:33.208745728,TASK_BEGIN,018,-0.11963863334722825,0.20459219532222092,-2.8818956967592944,0.5066190904097048,-0.7391474670306805,0.28909511496690793,0.13673551636574313,0.3751010158151765,2
468,2024-09-25 22:30:33.265957888,TASK_BEGIN,018,-0.1703816214044687,0.21971873558971308,-2.93619545129899,0.5413805924116963,-0.7343180722007987,0.2957143820839764,0.05902984409652534,0.3823700748706614,2
469,2024-09-25 22:30:34.194648064,TASK_BEGIN,018,-0.2214924900000903,0.23531080190678796,-2.974764840130502,0.5762326772060937,-0.7254281312127359,0.30206576254835593,-0.01964459149004324,0.39032782465401533,2
470,2024-09-25 22:30:34.252496128,TASK_BEGIN,018,-0.27222066333775713,0.2512670101483749,-2.9972699135547574,0.610343271426013,-0.7114213410723426,0.307641842580384,-0.09604886205186478,0.3994781323044821,2
471,2024-09-25 22:30:34.330331136,TASK_BEGIN,018,-0.32172693311931194,0.2674321918818036,-3.005034190638215,0.6431946512398076,-0.6911985806158386,0.31193038111713034,-0.16892353197954113,0.4104209495162099,2
472,2024-09-25 22:30:34.398145024,TASK_BEGIN,018,-0.36909519111041983,0.2836088430558074,-3.000589450247854,0.6744989356726746,-0.6637983243266231,0.31446351405670875,-0.23892300261651248,0.42373469325244806,2
473,2024-09-25 22:30:34.452168960,TASK_BEGIN,018,-0.4133666582981224,0.2995769888967276,-2.9870604967133727,0.7040884999733504,-0.6285949449901801,0.3148631102859025,-0.3080445831985033,0.4398135289377681,2
474,2024-09-25 22:30:34.528818176,TASK_BEGIN,018,-0.4535967462975016,0.3151188545047479,-2.9675610806612207,0.7318261734909827,-0.5854726851825106,0.3128760631198148,-0.3786452332234264,0.4586697430930584,2
475,2024-09-25 22:30:34.601496832,TASK_BEGIN,018,-0.4889087140799374,0.3300390948034152,-2.944709714931039,0.7575549725111973,-0.5349194294496551,0.30839572704102786,-0.4523093644541013,0.47973673756823765,2
476,2024-09-25 22:30:35.544786944,TASK_BEGIN,018,-0.5185243187341531,0.3441713769550745,-2.9203388309289946,0.7810837163238038,-0.47799869671750495,0.3014655412793067,-0.5289659882672462,0.5017475642524415,2
477,2024-09-25 22:30:35.598337024,TASK_BEGIN,018,-0.5417859218484645,0.3573713561759964,-2.895465009754917,0.8021950313543916,-0.41622745752684476,0.2922652175126413,-0.6066164569968897,0.5227827815575229,2
478,2024-09-25 22:30:35.675080192,TASK_BEGIN,018,-0.5581914116141701,0.3695057276813488,-2.870502993393556,0.8206594113253523,-0.35145000467153314,0.28108855937758825,-0.6818433580815003,0.5405349575780509,2
479,2024-09-25 22:30:35.748240896,TASK_BEGIN,018,-0.5674312403645225,0.38044604789557585,-2.845553623698269,0.8362358914828077,-0.2857629999615499,0.26832182033688684,-0.7510098234828672,0.5527355777741534,2
480,2024-09-25 22:30:35.814894080,TASK_BEGIN,018,-0.5694057297041438,0.39006729455290196,-2.8205707663853734,0.8486497413683171,-0.22146093107155876,0.2544228686777318,-0.8117529996894826,0.5576137371814168,2
481,2024-09-25 22:30:35.876307200,TASK_BEGIN,018,-0.5642303516793534,0.39824784356993986,-2.7953805287111937,0.8575695244430542,-0.16094741241252156,0.23989703718251132,-0.8641565457475598,0.5542534765454038,2
482,2024-09-25 22:30:35.937832960,TASK_BEGIN,018,-0.5522507410188005,0.4048720343601994,-2.769678865102156,0.862624488329242,-0.1065984569061493,0.22526834279077035,-0.9110827642817053,0.5427631011744071,2
483,2024-09-25 22:30:36.894853120,TASK_BEGIN,018,-0.5340641921758295,0.40983843313324875,-2.7431028784623357,0.8634764914308728,-0.06060173560026196,0.2110501153096001,-0.9575624838341739,0.5242415039611019,2
484,2024-09-25 22:30:36.962708992,TASK_BEGIN,018,-0.5105237836546593,0.41307323692374964,-2.7153384973751935,0.859916403122288,-0.024801451082759423,0.19772165042075215,-1.0095570882490874,0.5005922269595144,2
485,2024-09-25 22:30:37.025739008,TASK_BEGIN,018,-0.48270668723689,0.41454405186954907,-2.686149338501136,0.8519329723941261,-0.0005640733062069337,0.18571282858593868,-1.0725008412303652,0.474238605290983,2
486,2024-09-25 22:30:37.098331904,TASK_BEGIN,018,-0.45184091081349304,0.4142669223994888,-2.65524706638404,0.839710712570747,0.011324827833461068,0.17539128479587035,-1.149917287176246,0.447766099590583,2
487,2024-09-25 22:30:37.164072960,TASK_BEGIN,018,-0.4191970872418606,0.41230213059054677,-2.6220326443723536,0.8235489912321574,0.01071374931541016,0.16704689178815113,-1.242406915496197,0.42354747841282747,2
488,2024-09-25 22:30:37.233926912,TASK_BEGIN,018,-0.385963550324328,0.40874229343508384,-2.5853246975998374,0.8037388848326544,-0.0019210343203808547,0.16087594335462047,-1.3473451787830473,0.4034466540657931,2
489,2024-09-25 22:30:37.286684160,TASK_BEGIN,018,-0.35312888096667405,0.4037001179860169,-2.5431965037808366,0.7804514982351518,-0.025528995334982613,0.15697195609138606,-1.4594325434012492,0.38866308962375096,2
490,2024-09-25 22:30:38.239610112,TASK_BEGIN,018,-0.32140008940742054,0.39729718721006974,-2.4930158736899104,0.7536754830905116,-0.05857688878761598,0.1553262869047514,-1.5718471148038509,0.3797131072803837,2
491,2024-09-25 22:30:38.301615872,TASK_BEGIN,018,-0.29118395175974154,0.38964873085960955,-2.4317603596458377,0.7232243846830684,-0.09917510308164251,0.1558354455644968,-1.6774334924374616,0.3765059723259104,2
492,2024-09-25 22:30:38.379691776,TASK_BEGIN,018,-0.2626374893186688,0.3808420839532184,-2.3565971624869406,0.6888215823649619,-0.14521357778556293,0.15831009698080903,-1.7694079791972364,0.37845613221928937,2
493,2024-09-25 22:30:38.440950016,TASK_BEGIN,018,-0.23575575481193703,0.37091408222983996,-2.2655798511232526,0.6502405814905705,-0.19446934167700122,0.16248429763616246,-1.8415150314903717,0.3845802948355821,2
494,2024-09-25 22:30:38.515325952,TASK_BEGIN,018,-0.2104489351134702,0.35983623045726615,-2.1582537738678758,0.6074523033174823,-0.2446770131797533,0.1680272126357136,-1.8879757607878063,0.39356502009416844,2
495,2024-09-25 22:30:38.583147008,TASK_BEGIN,018,-0.1865916994004632,0.34751537343839617,-2.0360149236463365,0.5607430993468993,-0.2935965580582513,0.1745591344027681,-1.9035112566909922,0.40382554001459176,2
496,2024-09-25 22:30:38.650955776,TASK_BEGIN,018,-0.16407001549805447,0.3338145228579864,-1.9021636360107839,0.5107907425213911,-0.33912633935683867,0.1816726358995165,-1.8834894526601043,0.4135872945017057,2
497,2024-09-25 22:30:39.593955072,TASK_BEGIN,018,-0.14284187187304512,0.31859203353520743,-1.7616629410141031,0.4586814610889021,-0.3794763759632033,0.18896041139893036,-1.8242668798785742,0.42102621776843985,2
498,2024-09-25 22:30:39.661827072,TASK_BEGIN,018,-0.12297630723017018,0.30174710699597773,-1.6206134639131224,0.40584588229844504,-0.4133608287959757,0.19604848147169415,-1.723791531835932,0.42448629976919633,2
499,2024-09-25 22:30:39.729475072,TASK_BEGIN,018,-0.10462126786152658,0.28325417440803646,-1.485483608333367,0.3539256911370281,-0.4401394163384767,0.2026263494445056,-1.5821914239354473,0.42272653628392515,2
500,2024-09-25 22:30:39.788809984,TASK_BEGIN,018,-0.08791037933646854,0.2631772696972102,-1.3622580964440492,0.3046225207589666,-0.4598573547836305,0.20846341940624566,-1.401950548472251,0.4151090746533745,2
501,2024-09-25 22:30:39.865293824,TASK_BEGIN,018,-0.07288045986137177,0.2416710966165416,-1.2557168884930083,0.25956796200645305,-0.4731809703724382,0.2134086131661593,-1.1876946285220586,0.40169050676272156,2
502,2024-09-25 22:30:39.927596288,TASK_BEGIN,018,-0.05945034022417065,0.2189793629704844,-1.1689093241919777,0.22020464393230302,-0.4812564101873459,0.21737897273770437,-0.9458865105899551,0.38323310437714486,2
503,2024-09-25 22:30:40.000939008,TASK_BEGIN,018,-0.047433630980671916,0.19542968143294395,-1.1027838354165322,0.18765151322393525,-0.48551368002665224,0.2203439473559913,-0.6845265112722074,0.36114038942084004,2
504,2024-09-25 22:30:40.939577856,TASK_BEGIN,018,-0.036534136650228886,0.17141707360621664,-1.0560471508940228,0.16256473944203387,-0.48744077377211226,0.22231007581012432,-0.4128134561211439,0.33730435744773685,2
505,2024-09-25 22:30:41.011979008,TASK_BEGIN,018,-0.026327569741392675,0.147376064255974,-1.025411167798219,0.1450478412311129,-0.48838218955457974,0.22331106116072705,-0.14086575290347975,0.31388296099856794,2
506,2024-09-25 22:30:41.078323968,TASK_BEGIN,018,-0.016270143286904466,0.12375103056764666,-1.0062109981362006,0.13465251160275246,-0.48941584357692935,0.22340604037526354,0.12036097013738288,0.29307081895395914,2
507,2024-09-25 22:30:41.147603968,TASK_BEGIN,018,-0.005743444144533092,0.10097212959861292,-0.99312773180799,0.1304549266423123,-0.49131274502766914,0.2226832267679837,0.35906315675121786,0.2769267148770034,2
508,2024-09-25 22:30:41.202941952,TASK_BEGIN,018,0.005890590578886999,0.07943447412479712,-0.9807622681207661,0.1311634307280812,-0.49454018883095807,0.22126100240512092,0.562816587300134,0.2672643114872469,2
509,2024-09-25 22:30:41.280196096,TASK_BEGIN,018,0.019238930240161912,0.059473858275690246,-0.9640756918639541,0.13524383732796477,-0.4992707080435372,0.2192780701738758,0.7192827786829761,0.2655595508116774,2
510,2024-09-25 22:30:41.341323008,TASK_BEGIN,018,0.034820285055636654,0.041338143549791026,-0.9388499322014389,0.14107472318106173,-0.5053936577837943,0.21687301067030554,0.8173384605499945,0.27283935543975285,2
511,2024-09-25 22:30:42.280404992,TASK_BEGIN,018,0.05299832419940987,0.025162954666207916,-0.9021796588343302,0.14712687677951253,-0.5125478270971061,0.21416445823804647,0.8483879988124186,0.2895573412166999,2
512,2024-09-25 22:30:42.357786880,TASK_BEGIN,018,0.07392245182597568,0.010964495294194111,-0.8528692562109313,0.15214377608024018,-0.5201730732959373,0.21124224104133701,0.8075662411517205,0.3154869208233481,2
513,2024-09-25 22:30:42.419848960,TASK_BEGIN,018,0.09749007908751593,-0.0013430000048163706,-0.7916342460331046,0.15530181290342418,-0.5275538875971447,0.208169247146086,0.6945479088056066,0.34967596918780736,2
514,2024-09-25 22:30:42.497341952,TASK_BEGIN,018,0.12332993113767339,-0.011909210309387016,-0.7210712685531759,0.15631963063741103,-0.5338411690212483,0.20498713018985754,0.513858351446391,0.390497430617299,2
515,2024-09-25 22:30:42.565514240,TASK_BEGIN,018,0.15080202339318308,-0.020901642364041614,-0.6454066343519683,0.15547950072520744,-0.5380786776517847,0.20172351868468646,0.27476910530139387,0.4357906784393978,2
516,2024-09-25 22:30:42.621630976,TASK_BEGIN,018,0.1790138127567796,-0.028464766364213787,-0.5700717727240934,0.15355299318132687,-0.5392823635008442,0.1984068370608326,-0.00924311974140496,0.48307372276589255,2
517,2024-09-25 22:30:42.697851904,TASK_BEGIN,018,0.20686073798549987,-0.03469398078243473,-0.5011519009684348,0.1516606019191503,-0.5365825241430667,0.19509087462197083,-0.3216340898050495,0.5298189592450057,2
518,2024-09-25 22:30:43.614300160,TASK_BEGIN,018,0.23310446970195683,-0.03962954780590272,-0.44475305950009825,0.15109917461484787,-0.5293713776059806,0.19187595586633455,-0.6444408784027691,0.5737527935560991,2
519,2024-09-25 22:30:43.687133184,TASK_BEGIN,018,0.2564841785863446,-0.04327058251197362,-0.4063795792561016,0.15315660822913943,-0.5173929982133192,0.18891006931594237,-0.9599890286866712,0.6130883417378312,2
520,2024-09-25 22:30:43.754928896,TASK_BEGIN,018,0.27582854633219056,-0.04560322081934052,-0.3904395297006318,0.15893513143308904,-0.5007723182153179,0.1863692869318876,-1.2522330253530614,0.6466295231921275,2
521,2024-09-25 22:30:43.814191104,TASK_BEGIN,018,0.29014448580221164,-0.04663290665722651,-0.3999730708656604,0.16921888498945764,-0.48001505996319915,0.18443289888670206,-1.5076848328438397,0.6737659191432587,2
522,2024-09-25 22:30:43.876429824,TASK_BEGIN,018,0.2986927181892462,-0.04641067864260708,-0.43663507002354535,0.1844093421515741,-0.4559959446680491,0.18326975503494472,-1.7161495853989737,0.694408785151829,2
523,2024-09-25 22:30:43.954110208,TASK_BEGIN,018,0.3010628534648014,-0.045046257048539866,-0.5008215194899549,0.20450816799628047,-0.4299401176626856,0.18304102351220813,-1.8713489154314686,0.7088942261284764,2
524,2024-09-25 22:30:44.015696128,TASK_BEGIN,018,0.297233656291351,-0.04270700625687846,-0.5917374207763162,0.22911359386020902,-0.40339847567977655,0.18390934425997163,-1.9712021482477777,0.7178509303127979,2
525,2024-09-25 22:30:44.943523840,TASK_BEGIN,018,0.28759196542066573,-0.03960889889770339,-0.7073357185889688,0.2574368115067129,-0.3781976528458104,0.18603626354477054,-2.0175215525513512,0.7220245536799196,2
526,2024-09-25 22:30:44.997905152,TASK_BEGIN,018,0.2728940090167122,-0.036006087830094465,-0.8442531222478283,0.28836763197404114,-0.35634074196595816,0.18955917232538225,-2.015155445528783,0.7220784701765727,2
527,2024-09-25 22:30:45.075927040,TASK_BEGIN,018,0.25417072969140087,-0.03217934753120356,-0.9978792927609605,0.3205844984694075,-0.3398576615749779,0.19455681916019926,-1.9708118256786493,0.7184298318782611,2
528,2024-09-25 22:30:45.136964096,TASK_BEGIN,018,0.23259701511252953,-0.028418566771459347,-1.16258393747614,0.3526685729255942,-0.3306053769337568,0.201015977043172,-1.8919019449139185,0.7111864797631463,2
529,2024-09-25 22:30:45.215072000,TASK_BEGIN,018,0.20935902796178685,-0.024997632455432347,-1.332085318138039,0.3831988447656032,-0.33001327729163366,0.20880182556794435,-1.7858108338479186,0.7002051603484585,2
530,2024-09-25 22:30:45.283822080,TASK_BEGIN,018,0.1855495549345637,-0.022148051629548183,-1.4999859930581247,0.41085084312327247,-0.33881672782970224,0.21763488698989286,-1.6597680467128213,0.6852304961688603,2
531,2024-09-25 22:30:45.351635968,TASK_BEGIN,018,0.16209503628748131,-0.020038845758592414,-1.660458865349393,0.4345257276799396,-0.3568733165882213,0.22708797712353085,-1.5210561525311428,0.6660557706256731,2
532,2024-09-25 22:30:46.294395136,TASK_BEGIN,018,0.13970207280233335,-0.01876281828502464,-1.8089054137837053,0.4534903323663833,-0.38312853613363496,0.2366140317134538,-1.3771775060715676,0.6426722299725133,2
533,2024-09-25 22:30:46.362259968,TASK_BEGIN,018,0.11882321416481312,-0.018324835389778946,-1.9423712294327935,0.4674769244122864,-0.41572578204036137,0.24559956017123197,-1.2358585362830432,0.6153976016662506,2
534,2024-09-25 22:30:46.430069760,TASK_BEGIN,018,0.09965158729373977,-0.018632097643135087,-2.0596458415808176,0.4767018785792025,-0.45222084870078894,0.25342893463310084,-1.104950196070715,0.5849716985610216,2
535,2024-09-25 22:30:46.494038016,TASK_BEGIN,018,0.082139594529477,-0.019491400993796714,-2.161054102157857,0.48179235785651026,-0.4898637203889658,0.259545994937512,-0.9922424049010292,0.5525896307041733,2
536,2024-09-25 22:30:46.556121088,TASK_BEGIN,018,0.06602013157576471,-0.020616388669028502,-2.2479742833751937,0.483644662792628,-0.5259095205986399,0.26350451734938407,-0.9051982817224972,0.5198524103176976,2
537,2024-09-25 22:30:46.633451008,TASK_BEGIN,018,0.050821276225815386,-0.021643408503553303,-2.3222404546302715,0.48325764475554833,-0.5579073160392561,0.2650036380416337,-0.8506105172962873,0.4886491210068587,2
538,2024-09-25 22:30:46.694897920,TASK_BEGIN,018,0.03590078264127593,-0.022154983947292168,-2.3856361281413165,0.48157450389793244,-0.5839027463477825,0.263904276094848,-0.834065961419253,0.4609900603071993,2
539,2024-09-25 22:30:47.632910848,TASK_BEGIN,018,0.020534814020564274,-0.02171184444552028,-2.43956190638482,0.47935642031775333,-0.602506071124598,0.26022241463125506,-0.8591228841445203,0.4388009854796264,2
540,2024-09-25 22:30:47.710069760,TASK_BEGIN,018,0.004045997398827293,-0.019890661630953377,-2.484895797279653,0.47712221492448464,-0.6128388285264682,0.2541029703799528,-0.9263891233421158,0.42371397669315974,2
541,2024-09-25 22:30:47.771575040,TASK_BEGIN,018,-0.014099380616827603,-0.016317399179824596,-2.5220999198678453,0.4751755212510061,-0.6144328896966673,0.2457869888191069,-1.0329095665713814,0.4169119032389705,2
542,2024-09-25 22:30:47.833132032,TASK_BEGIN,018,-0.03427679282510589,-0.010685589433918714,-2.551558845990666,0.4736876026102547,-0.607156525533793,0.23558369558071915,-1.1721702587981888,0.41905406079030094,2
543,2024-09-25 22:30:47.915764224,TASK_BEGIN,018,-0.05674389557394736,-0.0027584043479469645,-2.5739848710344537,0.4727730455930555,-0.5911931661715439,0.22385050763564593,-1.3347467353026954,0.4302689695432549,2
544,2024-09-25 22:30:47.971602176,TASK_BEGIN,018,-0.08167077264969262,0.0076361183489733735,-2.5906626286977517,0.4725198621423708,-0.5670540069370811,0.21097861565156326,-1.5094362478238839,0.45020248102538174,2
545,2024-09-25 22:30:48.048816896,TASK_BEGIN,018,-0.10914293565787889,0.020607796632508592,-2.6033945533942053,0.4729789234593785,-0.5355993157386713,0.1973823062753826,-1.6846684565709587,0.47813311279640935,2
546,2024-09-25 22:30:48.994509056,TASK_BEGIN,018,-0.1391714060967181,0.03620535639768931,-2.614181221301613,0.4741431423826954,-0.4980522612587615,0.18349184013606834,-1.8498955977091411,0.5131332809906013,2
547,2024-09-25 22:30:49.062362880,TASK_BEGIN,018,-0.17172307875563184,0.05441920431108781,-2.624760140036202,0.47593477376332394,-0.45598385816517834,0.1697490429605345,-1.9965142959397968,0.5541802335897551,2
548,2024-09-25 22:30:49.128134912,TASK_BEGIN,018,-0.20673537463871322,0.07518219729352928,-2.636109512485553,0.47818934652510786,-0.4112481626896811,0.15660275507164528,-2.118022288398121,0.6001327845637938,2
549,2024-09-25 22:30:49.190972160,TASK_BEGIN,018,-0.2440829881795232,0.09836104360123732,-2.6480608422255387,0.4806319763295807,-0.36586658853388365,0.14449839809866535,-2.2096333275393425,0.649613025085977,2
550,2024-09-25 22:30:49.265690112,TASK_BEGIN,018,-0.283517812312443,0.12373849070520596,-2.6592161148286095,0.4828801153812437,-0.32187943412125514,0.13385624509792168,-2.2679037309286976,0.700915384516661,2
551,2024-09-25 22:30:49.330681856,TASK_BEGIN,018,-0.3246338477231302,0.15099622663157336,-2.667222744734409,0.4845082537380238,-0.28119133317453193,0.1250415638352046,-2.2906681437151124,0.7520080517433892,2
552,2024-09-25 22:30:49.401248000,TASK_BEGIN,018,-0.3668813282751635,0.17970960220706675,-2.6692329724605064,0.4851653476467483,-0.24543877489807886,0.11833953435996271,-2.2771353611382943,0.8005922986549722,2
553,2024-09-25 22:30:50.339785984,TASK_BEGIN,018,-0.40960825673985635,0.20935695133937415,-2.662354432835615,0.4847018563731825,-0.21590388553180878,0.11394615194953403,-2.2278933197536697,0.8441832888879668,2
554,2024-09-25 22:30:50.401841920,TASK_BEGIN,018,-0.4520932945117912,0.23933668383980528,-2.6440275446133628,0.4832629964610216,-0.19348050838874828,0.11197302403830113,-2.1447597687482283,0.8802393299374096,2
555,2024-09-25 22:30:50.479064064,TASK_BEGIN,018,-0.49356007120652134,0.26898518068007177,-2.6123217152682976,0.4813139472027897,-0.17867138001722316,0.11245374000822422,-2.0306062042791484,0.9063727776583427,2
556,2024-09-25 22:30:50.548129792,TASK_BEGIN,018,-0.5331909763476518,0.29759670828922014,-2.5661635646297998,0.4795766461027082,-0.17159427242419714,0.11534535012103239,-1.8893416762786388,0.9206182014198361,2
557,2024-09-25 22:30:50.615931136,TASK_BEGIN,018,-0.5701441345708974,0.32444934830559174,-2.505571369069854,0.47889261834967467,-0.1719977586110585,0.1205311068180032,-1.7260970359780785,0.9216894921627999,2
558,2024-09-25 22:30:50.679375104,TASK_BEGIN,018,-0.6035498874528755,0.34883448181694465,-2.431922179858278,0.4800630494343213,-0.17929302522751997,0.12783190338724731,-1.5474214571416287,0.9091541667072806,2
559,2024-09-25 22:30:50.751545856,TASK_BEGIN,018,-0.6324858764744417,0.3700826517262146,-2.3481078238471755,0.48371661241784725,-0.19260841622575797,0.13702753233821546,-1.3612197059298787,0.8834780351039019,2
560,2024-09-25 22:30:51.694716160,TASK_BEGIN,018,-0.6559788447117086,0.3875824109173815,-2.2584255132420634,0.4902243601624911,-0.21088626322879978,0.14788547067398022,-1.1762584519087622,0.8459418859481108,2
561,2024-09-25 22:30:51.762566144,TASK_BEGIN,018,-0.6730752314845772,0.40079527327339004,-2.168219280631647,0.4996565158976954,-0.23302354540138862,0.16018922787999945,-1.0012985540798702,0.7984782146317408,2
562,2024-09-25 22:30:51.822152192,TASK_BEGIN,018,-0.6829566880719451,0.4092710105561965,-2.0833472794565306,0.5117688101097004,-0.2580097201081266,0.17375225916934556,-0.8441356913373497,0.7434828151457701,2
563,2024-09-25 22:30:51.898152192,TASK_BEGIN,018,-0.6850325572562888,0.4126636053064549,-2.0095115315718117,0.526013432309475,-0.2850098564723388,0.18841073558450114,-0.7108714260102256,0.6836361665194648,2
564,2024-09-25 22:30:51.965939968,TASK_BEGIN,018,-0.6789637100518527,0.4107439482764725,-1.9515339630418154,0.5415821353367517,-0.3133785155351527,0.2040023665110749,-0.6056365183774228,0.6217616903170226,2
565,2024-09-25 22:30:52.022899968,TASK_BEGIN,018,-0.664620132753199,0.40340427591355416,-1.9127210401006012,0.5574806345043618,-0.342603179996089,0.22033988596336315,-0.530828122395628,0.5607367514207185,2
566,2024-09-25 22:30:52.101615872,TASK_BEGIN,018,-0.6420036128860772,0.3906546613241428,-1.894454362693073,0.572612994002788,-0.3721771967694453,0.2371813939859717,-0.48768190423127544,0.5034327803100296,2
567,2024-09-25 22:30:53.040268032,TASK_BEGIN,018,-0.6111755617342842,0.37261995103374285,-1.8961013360420569,0.5858600852625246,-0.4014430479756639,0.25420193699741517,-0.47687749238193594,0.452636700929074,2
568,2024-09-25 22:30:53.102401024,TASK_BEGIN,018,-0.5722243543791458,0.34954421518737094,-1.9152430006393266,0.5961583102218811,-0.4294922703937624,0.2709768209193093,-0.4989792994539089,0.41092737080260894,2
569,2024-09-25 22:30:53.179243264,TASK_BEGIN,018,-0.5252805051718462,0.3217981482517343,-1.9481311784264004,0.6025853945840837,-0.45518673280436495,0.2869837439175047,-0.5545798971962481,0.38050792183490784,2
570,2024-09-25 22:30:53.248245760,TASK_BEGIN,018,-0.47055588363440204,0.2898791241738329,-1.9902797491934805,0.6044415398873975,-0.47729386726819306,0.3016239929141244,-0.6440446628494464,0.36302044298515634,2
571,2024-09-25 22:30:53.316060160,TASK_BEGIN,018,-0.40837897813590496,0.2544008001033092,-2.0370827682049306,0.6013074315822614,-0.4946789992717468,0.3142624468465885,-0.7670098541285678,0.35940999280654123,2
572,2024-09-25 22:30:53.379464960,TASK_BEGIN,018,-0.3392171443778924,0.21607596700472295,-2.0843120471673733,0.5930705546143691,-0.506493898082763,0.3242837708369362,-0.9219516740903062,0.3698916928261151,2
573,2024-09-25 22:30:53.441461248,TASK_BEGIN,018,-0.2636826531985795,0.17569371737959139,-2.1283988766477244,0.579921334387074,-0.512322526161482,0.3311548306762233,-1.1058600276773778,0.3939749979596714,2
574,2024-09-25 22:30:54.365238016,TASK_BEGIN,018,-0.1825166161686115,0.1340889668780007,-2.166573549006967,0.5623322683459192,-0.5122751243735537,0.3344819602853575,-1.3138254856636717,0.4304482814265372,2
575,2024-09-25 22:30:54.437742848,TASK_BEGIN,018,-0.09655870152108796,0.09210681023477686,-2.19703565307623,0.5410447099960122,-0.5070357186902148,0.3340552569703807,-1.5386324187089886,0.47732039736626897,2
576,2024-09-25 22:30:54.505568000,TASK_BEGIN,018,-0.0067258987854386665,0.05056924643170997,-2.2191700030062433,0.5170649533950884,-0.4978540995041705,0.3298722334303038,-1.7707277612157926,0.5318279591997833,2
577,2024-09-25 22:30:54.573383936,TASK_BEGIN,018,0.08598491568422172,0.010249308742365166,-2.2335723317912315,0.49162453434228875,-0.4864579346138845,0.3221344292708639,-1.9987266066126632,0.5905906629064026,2
578,2024-09-25 22:30:54.641189120,TASK_BEGIN,018,0.18047953989623844,-0.028149312268345897,-2.2417167693517794,0.4660721944377534,-0.4748731951681616,0.3112178150316991,-2.2102765930224986,0.649879451951892,2
579,2024-09-25 22:30:54.708034048,TASK_BEGIN,018,0.2755547669184449,-0.06401219893924787,-2.245429787985197,0.44173606432243256,-0.4651776272748695,0.29762491241785655,-2.393036438507963,0.7059078019844227,2
