,time,MARKER,pid,L_O_DSI,L_D_DSI,L_O_DSphi,L_D_DSphi,R_O_DSI,R_D_DSI,R_O_DSphi,R_D_DSphi,trial_id
0,2024-09-26 21:18:10.867965088,TASK_BEGIN,019,0.6436527764301545,0.03501639289359163,0.9477409595194762,-1.6642343785326223,-0.2723754140593781,0.11581949764042958,-1.5253325572179206,-0.36132376485807577,1
1,2024-09-26 21:18:10.930293945,0,019,0.636191807686561,0.04548738472057224,0.9890508755500593,-1.6787253104278923,-0.33247964849789013,0.1374124412687104,-1.3151695560387464,-0.41284168858194764,1
2,2024-09-26 21:18:11.002727051,0,019,0.6359703994872937,0.05451297147047646,1.0405430356293317,-1.6965568552021966,-0.3807976529010135,0.15586268131715753,-1.014854554689372,-0.47378014216763303,1
3,2024-09-26 21:18:11.069513184,0,019,0.6427882493531236,0.0619651883252731,1.0874941277858952,-1.713550726046515,-0.41446713487993336,0.17066158850290913,-0.6409803443848777,-0.5412688543064954,1
4,2024-09-26 21:18:11.136315186,0,019,0.6561369851715358,0.0678820910815963,1.1177110223812918,-1.7261406396927073,-0.43213593574050224,0.18162157289048142,-0.21237820981942132,-0.6126919480324996,1
5,2024-09-26 21:18:12.061764893,0,019,0.6752184106793985,0.07245067338213237,1.1231732859472832,-1.7315632514578976,-0.43392097461936363,0.18885141892352575,0.250810499887818,-0.6856497161133701,1
6,2024-09-26 21:18:12.128747070,0,019,0.69907668799026,0.07595518107659381,1.100847765023997,-1.7279145013880766,-0.4212346163184042,0.19270896029554876,0.7282919416191033,-0.7579011758752896,1
7,2024-09-26 21:18:12.189400879,0,019,0.7267903307000659,0.07870726053582786,1.0523252254964275,-1.7141317684316246,-0.3965046202504322,0.19374071787063074,1.2011882972451684,-0.8274040700043234,1
8,2024-09-26 21:18:12.253403809,0,019,0.7575803308980563,0.08098888633044504,0.9824698392758675,-1.6899769974040166,-0.3628403592021498,0.19261610685793343,1.6537503799458872,-0.8924746427772142,1
9,2024-09-26 21:18:12.328875977,0,019,0.7907586919493915,0.08302630221233842,0.8977160371971631,-1.6560349496362932,-0.3236913071131454,0.19006004691386713,2.0748215773181315,-0.9520183466494633,1
10,2024-09-26 21:18:12.389988037,0,019,0.8255701472174516,0.08499189844703142,0.8045803603947471,-1.6136633306132973,-0.2825205180327588,0.18678502179343767,2.45862654903647,-1.005716010342944,1
11,2024-09-26 21:18:12.462732910,0,019,0.861023268102081,0.08702313103028098,0.7086569513492509,-1.5648335076946855,-0.2425070643153689,0.18342763046706895,2.804522453724907,-1.054037693686492,1
12,2024-09-26 21:18:13.403711182,0,019,0.8957843856085356,0.08924658338110074,0.6141627439243595,-1.511880250000764,-0.20629855063407723,0.1804989146110984,3.115721928692245,-1.0980438649188073,1
13,2024-09-26 21:18:13.465432861,0,019,0.9281842493636983,0.09179212012577753,0.5238938556874185,-1.4572221380551016,-0.1758489018294031,0.1783561341831377,3.397466791505228,-1.13904567239574,1
14,2024-09-26 21:18:13.543049072,0,019,0.9563532306268373,0.09478622338468837,0.4392462496944176,-1.4030791872884163,-0.15236699821824368,0.17719846899587796,3.6552447239200476,-1.1782470007446109,1
15,2024-09-26 21:18:13.604659180,0,019,0.9784537188524067,0.09832855495459528,0.36001205399770164,-1.3511876022793805,-0.1363379293249702,0.17707699900355062,3.89325119306791,-1.2164558241055552,1
16,2024-09-26 21:18:13.678272949,0,019,0.9929592463298449,0.10246504380123013,0.28408907683267637,-1.302559843954145,-0.1275403637038644,0.17789939507228816,4.113005357364668,-1.2538903363592957,1
17,2024-09-26 21:18:13.745815918,0,019,0.9989429150391061,0.1071649732575577,0.20762171057805345,-1.2573994553985395,-0.12505576981098762,0.17942398787020894,4.31223798143516,-1.2900821252677843,1
18,2024-09-26 21:18:13.812658936,0,019,0.9963314556772727,0.11230349817634357,0.1258626823421481,-1.215237858219118,-0.12733005920593113,0.18125975925779172,4.48433473901814,-1.3238652562828948,1
19,2024-09-26 21:18:14.761929932,0,019,0.9860437792414855,0.11765432767633481,0.03441244855045903,-1.1752287608650904,-0.13229398944576343,0.1828844425675326,4.618574752480445,-1.353439281304742,1
20,2024-09-26 21:18:14.822327881,0,019,0.9699361835775993,0.12289809810302886,-0.06978133496805061,-1.1364516320283748,-0.13748882296363157,0.1836761246217338,4.701430035047805,-1.3765347231584235,1
21,2024-09-26 21:18:14.895513916,0,019,0.9505523042092551,0.1276463260044873,-0.18800749351586682,-1.0981059884097266,-0.14017641642458373,0.18295224074110256,4.718891274411766,-1.3907022959652493,1
22,2024-09-26 21:18:14.961823975,0,019,0.9307450654939942,0.131477799116386,-0.31991244764568305,-1.0595692905813736,-0.1374672766906764,0.18001538792969865,4.659208655457047,-1.3936748679741056,1
23,2024-09-26 21:18:15.017750977,0,019,0.9132578532497367,0.1339811256430006,-0.46396194591332124,-1.020362940194911,-0.12650080292918758,0.17420404706485282,4.515449219862359,-1.3837522728887146,1
24,2024-09-26 21:18:15.095853027,0,019,0.9003642785842801,0.13479106870843205,-0.6180349269492863,-0.9801034245896472,-0.10468420644712581,0.16494508350992518,4.287692210353975,-1.3602114895073336,1
25,2024-09-26 21:18:15.156558105,0,019,0.8936543955336707,0.13360900560425396,-0.7798184991811562,-0.9385213393935288,-0.06997287875710517,0.151807108813962,3.9845807728057787,-1.32368650620927,1
26,2024-09-26 21:18:16.112533936,0,019,0.8939831731451846,0.13021058975679276,-0.9466553923327659,-0.8955810145349881,-0.02113704056897042,0.13455096188881377,3.6235461491997385,-1.276346982298416,1
27,2024-09-26 21:18:16.179328857,0,019,0.9015165860898585,0.12445226354714382,-1.1149160296569127,-0.8516359326164191,0.04205899580666357,0.11317048107074931,3.2292712494564864,-1.2217346364678416,1
28,2024-09-26 21:18:16.246117188,0,019,0.9157859323344056,0.11628704088138907,-1.2794593527875942,-0.8075071934036006,0.11880194889392048,0.08791926360064607,2.8308825319498725,-1.1642953568923573,1
29,2024-09-26 21:18:16.312521973,0,019,0.93570185522005,0.10579050254582217,-1.4337009207051388,-0.7644220989489948,0.20730220824783177,0.059315928339719055,2.4589059462077807,-1.1087719413212378,1
30,2024-09-26 21:18:16.365900879,0,019,0.9595519137021002,0.0931848655315737,-1.5703151520157062,-0.7238373834724695,0.3049730623319223,0.02811684398128678,2.142589287023885,-1.0595973735067754,1
31,2024-09-26 21:18:16.446497070,0,019,0.9850502572906749,0.07884498314787367,-1.682191516283374,-0.6872256801980541,0.4086537435981717,-0.004741021973615254,1.9075789584246075,-1.0203702133278705,1
32,2024-09-26 21:18:16.513260986,0,019,1.0095013615109185,0.06327725321633568,-1.7631857351123428,-0.6558968199982339,0.5148135036801399,-0.03820849660944763,1.7739232363475619,-0.9934809712197279,1
33,2024-09-26 21:18:17.435257812,0,019,1.0300924326758918,0.04706874651902265,-1.808462051088581,-0.6308666051854089,0.6197182702244874,-0.0711886443516366,1.7544438460196612,-0.9799112051065115,1
34,2024-09-26 21:18:17.495409912,0,019,1.044258710338117,0.03081059261819711,-1.8146764725723683,-0.6127253403294344,0.719564858371525,-0.10259422031778173,1.8533475809712712,-0.9791538319826267,1
35,2024-09-26 21:18:17.570653809,0,019,1.050019338933888,0.015014845415735181,-1.7803885149415901,-0.6014742354149594,0.810606269361997,-0.13139945482346368,2.0651593184182966,-0.9892258712478216,1
36,2024-09-26 21:18:17.637364990,0,019,1.0461898783955992,5.5870025714756556e-05,-1.7065937749746904,-0.5964003575303981,0.8893190295907185,-0.15668652637125838,2.374567801007288,-1.0068304283706666,1
37,2024-09-26 21:18:17.704177002,0,019,1.0324160200121715,-0.013841902701508568,-1.596774133841939,-0.5961306028967778,0.9526488305981121,-0.17768803467114258,2.75771330024393,-1.0277242500197423,1
38,2024-09-26 21:18:17.770951904,0,019,1.0090244253847174,-0.026572482667068034,-1.4561103880573973,-0.5989353077165712,0.9983000842035032,-0.19382565041918134,3.184742974529538,-1.0472507838262346,1
39,2024-09-26 21:18:17.836235107,0,019,0.9767562796571688,-0.038093945228359856,-1.2901853838273765,-0.6032080049655084,1.0249641183764342,-0.2047370122363461,3.6229145776981735,-1.0609183893375698,1
40,2024-09-26 21:18:18.783725098,0,019,0.9364933210009906,-0.04837232452482019,-1.1038092766457488,-0.6079665842057275,1.0323870116715002,-0.21027983055611277,4.03964637040514,-1.0649075595894886,1
41,2024-09-26 21:18:18.851051025,0,019,0.8890488901555622,-0.05733407158919398,-0.9004085311520629,-0.6132224550385598,1.0212680802268665,-0.2105133459687107,4.4052937361701545,-1.0564517971392422,1
42,2024-09-26 21:18:18.920177002,0,019,0.8350362007110921,-0.06483215104400061,-0.6821472746203824,-0.6200958582250666,0.9930566664477358,-0.20566747739510974,4.695409526305277,-1.0340638484844409,1
43,2024-09-26 21:18:18.982114014,0,019,0.7748348181014368,-0.07063729434609614,-0.4506492209071866,-0.6306277285434743,0.9497138621637464,-0.19610785803599093,4.892063492316727,-0.9975578266901702,1
44,2024-09-26 21:18:19.044126953,0,019,0.7086941857889886,-0.0744672634045953,-0.20791524961455368,-0.6473388799903473,0.8934705988219972,-0.18230121575129796,4.984122896055149,-0.9478545569313681,1
45,2024-09-26 21:18:19.120554932,0,019,0.6369495846333789,-0.07604955419351092,0.0428549202982012,-0.672643248605252,0.8265907945427922,-0.16478411033237542,4.966843532240531,-0.8866571300996716,1
46,2024-09-26 21:18:19.187351074,0,019,0.5602593760715534,-0.07519332627516322,0.29655863764129625,-0.7082425637301063,0.7511511769621614,-0.14413479134250948,4.841080464021749,-0.8161228718468838,1
47,2024-09-26 21:18:20.121572021,0,019,0.47979038735773244,-0.07184619477171839,0.5457192382254434,-0.7546384269959165,0.6688908234848407,-0.1209509915020871,4.612365882238926,-0.7386284609824345,1
48,2024-09-26 21:18:20.203650879,0,019,0.3973226727751642,-0.06612537035979171,0.7805565484401479,-0.810852321454832,0.5812048832449547,-0.09584218411639796,4.290363382754606,-0.6566981327103728,1
49,2024-09-26 21:18:20.270062988,0,019,0.31525061371215385,-0.05832169098180675,0.9897316375645161,-0.8743637655475376,0.48927223479111687,-0.06943345482056508,3.889138663553598,-0.5731106539541785,1
50,2024-09-26 21:18:20.337243896,0,019,0.23645185232008428,-0.048875595513992225,1.161472498239767,-0.9412262637409458,0.3942031434721376,-0.04236159862872969,3.427926052110686,-0.4910838077565914,1
51,2024-09-26 21:18:20.404030029,0,019,0.16402982324597845,-0.038328231683104175,1.2845604872096115,-1.0063194397940467,0.29711944013493347,-0.015252660199301358,2.931334297352242,-0.4143498000381273,1
52,2024-09-26 21:18:20.470812012,0,019,0.10098408470557114,-0.027259226684947187,1.348956113356694,-1.063733681731242,0.19917355733155354,0.011308485397165117,2.4280359891092695,-0.34698214732583077,1
53,2024-09-26 21:18:20.537641113,0,019,0.049866057451344745,-0.01622158031271964,1.3463742528078264,-1.107313295826144,0.10154774265058265,0.036801906143936226,1.9478560837332577,-0.2929705714505317,1
54,2024-09-26 21:18:21.482009033,0,019,0.012475556783754326,-0.005679968299704575,1.2711761128397898,-1.1313493413310391,0.005466058867740077,0.060783271257699924,1.5181114673174907,-0.2556610130105586,1
55,2024-09-26 21:18:21.554096924,0,019,-0.010330348195827196,0.004036606316746148,1.1214874324141606,-1.131325644681556,-0.08778249687597581,0.08288153431474637,1.1604486628282003,-0.2372404086234192,1
56,2024-09-26 21:18:21.611648926,0,019,-0.018693526067766395,0.012758147704934168,0.9001029277577234,-1.1045461101612803,-0.17685232843530502,0.10278959725529807,0.8890423317129786,-0.23842073516595721,1
57,2024-09-26 21:18:21.674577881,0,019,-0.013725717706830742,0.020475626515239192,0.6148077250358017,-1.0504812517023323,-0.2603805274930193,0.12025330486967999,0.7101132332406425,-0.2583518342922431,1
58,2024-09-26 21:18:21.751827881,0,019,0.0025977340480523676,0.027325621936490532,0.27804317038014986,-0.9707924232918126,-0.3369774929170416,0.1350570219785601,0.6221319564336358,-0.29468183603025244,1
59,2024-09-26 21:18:21.821270996,0,019,0.027686299826132934,0.03355230751761205,-0.0939962308121333,-0.8691161750358,-0.40512911764172443,0.14700557340826684,0.616409086052005,-0.3437199424484174,1
60,2024-09-26 21:18:21.875456055,0,019,0.05872467018004445,0.03944703881243862,-0.4827634231245542,-0.7507009950456585,-0.46308431131872546,0.15591218916202576,0.6784496829488647,-0.40076301260171915,1
61,2024-09-26 21:18:22.812891846,0,019,0.09307727719556072,0.04528469659954092,-0.8690142437574903,-0.6219499943550792,-0.50882724371166,0.1616025377660369,0.790316107268073,-0.4606217236412647,1
62,2024-09-26 21:18:22.879707031,0,019,0.12856032148342586,0.0512791041927259,-1.234231987217616,-0.48992269805191335,-0.5401523485987851,0.16393065100386572,0.9333758572724513,-0.5182174012053048,1
63,2024-09-26 21:18:22.946469971,0,019,0.16351992273567426,0.057563603608326804,-1.5615638673863481,-0.36183082684805834,-0.5547799993399268,0.16279075696093093,1.0904426001367722,-0.5690439423829647,1
64,2024-09-26 21:18:23.001233154,0,019,0.19675979897095913,0.06418772028076301,-1.8365751446244583,-0.24450242238106382,-0.5504669629149973,0.15811834068934788,1.2467585205629408,-0.6093943786096574,1
65,2024-09-26 21:18:23.078438965,0,019,0.22744202974916983,0.07111371344254658,-2.048273631765663,-0.14378887044422356,-0.5251350618573497,0.14989156702770448,1.389788292141536,-0.6363825666114175,1
66,2024-09-26 21:18:23.146863037,0,019,0.255080539914147,0.07819904407398295,-2.190356694966087,-0.06399690435563551,-0.47704722752406115,0.13814296923687336,1.5082482070868573,-0.6478534429697277,1
67,2024-09-26 21:18:23.213646973,0,019,0.27964260299177396,0.08516686216184627,-2.2621601966273626,-0.007506077106520146,-0.4050130523363457,0.12297716544238722,1.591223767004641,-0.6422950596216005,1
68,2024-09-26 21:18:24.161208984,0,019,0.30166462614112843,0.09158502983108263,-2.268838292696073,0.02532635520916736,-0.30858298701421544,0.10458599047381024,1.6281239944253123,-0.618827868545544,1
69,2024-09-26 21:18:24.228500000,0,019,0.3222700714864956,0.09687623439962093,-2.2205748846938795,0.03597115592856369,-0.18820318975350517,0.08325770330330634,1.6095687234234775,-0.5772777659420546,1
70,2024-09-26 21:18:24.296017822,0,019,0.3430489680820334,0.10036596948499757,-2.130951927069685,0.027312146949635605,-0.045340899157665246,0.05938252634963875,1.5287563676637639,-0.5183058575334928,1
71,2024-09-26 21:18:24.356956055,0,019,0.365849423857318,0.10135654701368388,-2.0149342232005587,0.003144721439796595,0.11740019524968358,0.03345701504571784,1.3827281953604826,-0.4435504558449623,1
72,2024-09-26 21:18:24.418645020,0,019,0.39256551587222466,0.09920872605594841,-1.8868915041242993,-0.032287381929714545,0.2962096906669823,0.006084590336762413,1.1731669372938422,-0.35570456188871014,1
73,2024-09-26 21:18:24.496426025,0,019,0.4249602626600466,0.09342003930444323,-1.7588267152410184,-0.07469285101253466,0.4861033815128249,-0.02203135274491573,0.906659779371267,-0.2584332546028883,1
74,2024-09-26 21:18:24.563236084,0,019,0.46448692752328763,0.08369963549282897,-1.6390280474535355,-0.12009311457479328,0.6810694518228083,-0.05010181559218549,0.5943759249477742,-0.1560731975415601,1
75,2024-09-26 21:18:25.512505127,0,019,0.5120537430026386,0.07003965937201244,-1.5314628163529511,-0.16511972783914516,0.8743217619381284,-0.07727639635408273,0.25109168947207916,-0.053172919252676754,1
76,2024-09-26 21:18:25.579291016,0,019,0.5677591951604691,0.05276968455541672,-1.4360143665318144,-0.20720621553276902,1.0586705097166624,-0.10268357736508668,-0.10613375933285946,0.045945176557009096,1
77,2024-09-26 21:18:25.639879883,0,019,0.6307157451743131,0.03257005183343842,-1.3493606455900025,-0.24466421000553393,1.2269830756964581,-0.12548765128602082,-0.4590584498947738,0.13743937270129594,1
78,2024-09-26 21:18:25.701423828,0,019,0.699043799418388,0.010430664304140249,-1.2661838039513984,-0.2766460146128465,1.3726524204230242,-0.14495116925782753,-0.7890509226582352,0.21803063887670776,1
79,2024-09-26 21:18:25.778203125,0,019,0.7700087063703894,-0.01243593560252755,-1.1804764842649733,-0.3029823401904774,1.489988241235752,-0.16048637296817042,-1.078137294555216,0.2850649650453832,1
80,2024-09-26 21:18:25.839844971,0,019,0.8402504766065875,-0.0347086702819891,-1.0868370391038793,-0.32390762216462576,1.5744752020148045,-0.17168457746682111,-1.310747453495361,0.33667931087106906,1
81,2024-09-26 21:18:25.903808105,0,019,0.9060911413157753,-0.05508263672647368,-0.9816923876359597,-0.33973643798143754,1.6228913750603253,-0.17832394813401012,-1.4759711315060844,0.37204748913339447,1
82,2024-09-26 21:18:26.849164062,0,019,0.9638899767128486,-0.07238791852659936,-0.86429605046502,-0.35058144679463377,1.6333606490103934,-0.18036544815463926,-1.5696348025021691,0.3915627476661493,1
83,2024-09-26 21:18:26.926866943,0,019,1.010398055242007,-0.08569047834225928,-0.7371897178701307,-0.35620625577609777,1.6054397748332032,-0.17794670581016853,-1.595387914142469,0.3968188882247197,1
84,2024-09-26 21:18:26.988886963,0,019,1.043094089497789,-0.09437503472542055,-0.6057419186156051,-0.3560815325713367,1.5402448885316729,-0.17137340372854762,-1.564315860190968,0.3903657108880868,1
85,2024-09-26 21:18:27.063240967,0,019,1.0604899558741554,-0.09820959894872988,-0.47657614219969713,-0.34964141464904813,1.4405234106318638,-0.16109910273543793,-1.4932550471410437,0.37533555326893797,1
86,2024-09-26 21:18:27.128269043,0,019,1.062338461067531,-0.09737497076186759,-0.35531362413200396,-0.33663935961397895,1.3105947953879507,-0.147689900300909,-1.4024874370133444,0.35507780035268477,1
87,2024-09-26 21:18:27.196841064,0,019,1.0496464665169725,-0.09243605819696699,-0.24463341365433147,-0.3174403142056327,1.156156575802222,-0.13178539308639248,-1.3134372982174165,0.332884829855049,1
88,2024-09-26 21:18:27.251836914,0,019,1.0244710852401848,-0.08425217622050643,-0.14340408114344416,-0.29313307365919866,0.9839974515859901,-0.11407364271507467,-1.2465737212162329,0.3117984775068298,1
89,2024-09-26 21:18:28.174622070,0,019,0.9895828448150731,-0.07385249549319998,-0.04683878949042563,-0.26546954424150127,0.8016552078867699,-0.09528433623044907,-1.219427276255109,0.2944183956823726,1
90,2024-09-26 21:18:28.252283203,0,019,0.9480898171345455,-0.06231061291416849,0.05265597230632927,-0.23670074529403023,0.6170075611130014,-0.07618299868692026,-1.2446731390108987,0.28264534950678005,1
91,2024-09-26 21:18:28.314364014,0,019,0.9030557074912493,-0.05063778089631255,0.1639127634195294,-0.2093461367041784,0.43776641063093186,-0.05754416846397106,-1.3284692909527698,0.2773828921351857,1
92,2024-09-26 21:18:28.376357178,0,019,0.8571435765336831,-0.039702665812820656,0.29458967935886726,-0.1858921234770175,0.2709131117886902,-0.04009841946393813,-1.4693584403575415,0.27830214874530074,1
93,2024-09-26 21:18:28.453983887,0,019,0.8123779711540524,-0.030184200889956905,0.4483213408899467,-0.1684288151500599,0.12218518441344857,-0.024469102933001814,-1.657944852924573,0.28377369895603044,1
94,2024-09-26 21:18:28.520982910,0,019,0.770103115683146,-0.02255744509291826,0.622417084281752,-0.1582956601164911,-0.0042688543109877216,-0.011124600797340404,-1.8773650203162653,0.2909966040101347,1
95,2024-09-26 21:18:28.587795898,0,019,0.7310882466934588,-0.01709895094701058,0.8070365484294777,-0.15586651585915032,-0.10599842996437922,-0.00036590645656340513,-2.104400712959492,0.2962617805166808,1
96,2024-09-26 21:18:29.536773926,0,019,0.6956488421024088,-0.01389534606178864,0.9861752255212413,-0.16058252904226028,-0.18213002387242624,0.007651646083518966,-2.3111152575410796,0.2952710991158405,1
97,2024-09-26 21:18:29.598322021,0,019,0.6637070066677565,-0.012849453726783155,1.1402127454077304,-0.17122839951091612,-0.23310415119023134,0.012886259589801448,-2.467026268459384,0.2835045835603986,1
98,2024-09-26 21:18:29.659888916,0,019,0.6348022775125504,-0.013688792938453426,1.2494497156298925,-0.18634453435967527,-0.2604089383057387,0.015395171172541999,-2.541722746112015,0.256659171061982,1
99,2024-09-26 21:18:29.736129883,0,019,0.608102027548285,-0.015986288832381915,1.297845790502619,-0.20464522086950648,-0.26639818434577334,0.015345245774131357,-2.5076826261186533,0.21113492629648362,1
100,2024-09-26 21:18:29.798137939,0,019,0.5824707142943173,-0.019202975827885868,1.27614376938965,-0.22534221875331142,-0.2541527853676019,0.013028821947351391,-2.343074626019857,0.14449542854367695,1
101,2024-09-26 21:18:29.860132812,0,019,0.5566310870388624,-0.022753597436783856,1.1837518874771,-0.24829233609501988,-0.2273070122545975,0.00885986847611378,-2.0342749026464673,0.055816945748474504,1
102,2024-09-26 21:18:29.922213135,0,019,0.5293812422493255,-0.026081725127151928,1.0288953929182079,-0.27388651969766814,-0.18985208284286237,0.00334548514936364,-1.5776970823290837,-0.054129299933125624,1
103,2024-09-26 21:18:30.886843018,0,019,0.4997912160285843,-0.028724595184357198,0.8268209031235478,-0.30266064293854017,-0.14597243829578443,-0.002955305673991885,-0.9805758325167807,-0.18286909845647084,1
104,2024-09-26 21:18:30.953696045,0,019,0.46733114058989306,-0.030354318049362127,0.5965753825572853,-0.3347666457934788,-0.0999111651140438,-0.009474273313883503,-0.2605577647865026,-0.3263758425211664,1
105,2024-09-26 21:18:31.020452881,0,019,0.4319244005198143,-0.03079353694135441,0.35744839588063165,-0.3695288500472262,-0.05584191399397241,-0.015670494509557265,0.5557158520599704,-0.47935820145752017,1
106,2024-09-26 21:18:31.072882812,0,019,0.3939283629291824,-0.030011159535708532,0.1259979002483034,-0.4052267459887091,-0.017780161546929844,-0.021050125189359725,1.4345787433619603,-0.6356480579831187,1
107,2024-09-26 21:18:31.150165039,0,019,0.35405545641108405,-0.028105555920288915,-0.08571605657873405,-0.43916484102334896,0.010435951551254706,-0.025162928456074655,2.3375144539286485,-0.7886442700717495,1
108,2024-09-26 21:18:31.211378174,0,019,0.3132697975776829,-0.025280418313525517,-0.2702876244968488,-0.4680726358931957,0.02515897484271586,-0.027586135864291483,3.2235151330308796,-0.9317686091520645,1
109,2024-09-26 21:18:31.287635986,0,019,0.2726590876663945,-0.021811507577748825,-0.4237752458038783,-0.48876289674972523,0.023052866199076753,-0.027919517305634616,4.0516170430314995,-1.0588661531256371,1
110,2024-09-26 21:18:32.236668945,0,019,0.23322243954010294,-0.017997164283069963,-0.5440313357505757,-0.49882825553395094,0.0013674667058197409,-0.025810030996622203,4.78335883605721,-1.1644712166133386,1
111,2024-09-26 21:18:32.299155029,0,019,0.19557718015005748,-0.014095755466819973,-0.6292458158211219,-0.49717511017664956,-0.04169936802190371,-0.021003117385295762,5.3849694119084885,-1.2439441930730182,1
112,2024-09-26 21:18:32.370527100,0,019,0.1597132770896222,-0.010270398593875428,-0.6770708307573405,-0.4842837142052045,-0.10669521412186628,-0.013397013173298675,5.829402966490526,-1.2935939037695463,1
113,2024-09-26 21:18:32.422456055,0,019,0.1249144429210008,-0.006559505813168134,-0.6846047228744649,-0.46212037652975513,-0.1927853393507216,-0.0030760023344229824,6.098171060937694,-1.3108626129661627,1
114,2024-09-26 21:18:32.504104004,0,019,0.08985468364101354,-0.002874567392891202,-0.6491608103944434,-0.4337223271195853,-0.29781293992290797,0.009683604294627094,6.182386561149701,-1.2945087889709952,1
115,2024-09-26 21:18:32.562614990,0,019,0.05283453279474106,0.000980539999930866,-0.5694138786307904,-0.40259996697227024,-0.4184746579590617,0.02442895940606041,6.082602506815521,-1.2446929129074846,1
116,2024-09-26 21:18:32.637701904,0,019,0.012119879325305238,0.005270845162578202,-0.4467559640532773,-0.37208685224992444,-0.5505505078627154,0.04056195365475611,5.80788759012866,-1.1629709340386383,1
117,2024-09-26 21:18:33.586695068,0,019,-0.033696983526943704,0.010276750927024007,-0.28694379836611184,-0.3446920943270851,-0.6891550531661557,0.057380009628641614,5.374873165189124,-1.0522563456343368,1
118,2024-09-26 21:18:33.653793945,0,019,-0.0854118723020533,0.01623744600038586,-0.10181956893362458,-0.3215385065884702,-0.8290009466347708,0.07412092154358071,4.806961485739564,-0.9167752730359761,1
119,2024-09-26 21:18:33.708666992,0,019,-0.14302832304168045,0.02330131472714122,0.08957839777579459,-0.3020398184300979,-0.9646992408335817,0.09001220410932909,4.133408366465155,-0.7619838263392095,1
120,2024-09-26 21:18:33.785412109,0,019,-0.20564753014410733,0.03148441148633724,0.26132013500847895,-0.2839422309501749,-1.0911047210847118,0.10432559590428694,3.3880655121008014,-0.5944042883582275,1
121,2024-09-26 21:18:33.854201904,0,019,-0.2714167215379965,0.04063625618174826,0.3828297684918847,-0.26374486422350846,-1.2036530226096906,0.11643056200332222,2.607868878606394,-0.42136985517575465,1
122,2024-09-26 21:18:33.908813965,0,019,-0.33757643395283815,0.0504197957770384,0.4230319792924818,-0.23742467345287097,-1.2986167869883134,0.12583802797435314,1.83117333406109,-0.25067995905213886,1
123,2024-09-26 21:18:33.986434082,0,019,-0.4006305605709963,0.06031647388189155,0.35563820688541387,-0.20134300083060466,-1.373253985857107,0.1322285525979092,1.0957708993166928,-0.09014867468243612,1
124,2024-09-26 21:18:34.936624023,0,019,-0.45660606154318206,0.06966172651949688,0.1642073695108218,-0.15313911950979245,-1.4258713691239593,0.13546174774678002,0.4364081931840721,0.0529493706962495,1
125,2024-09-26 21:18:35.003947021,0,019,-0.5013716250113013,0.07770925877408533,-0.15447111643329317,-0.09235008869604164,-1.455835739915248,0.13556883802167993,-0.11800044628704837,0.17246731930587875,1
126,2024-09-26 21:18:35.060724854,0,019,-0.5310163756803524,0.08371802295079615,-0.589481861049791,-0.020568418889487686,-1.4635575887204417,0.13273926524150007,-0.5468410686599566,0.2638974606690453,1
127,2024-09-26 21:18:35.125257079,0,019,-0.5422478588399267,0.08704524255834176,-1.1172345504816605,0.05884111686252737,-1.450463827381514,0.1273109661220077,-0.8392625124303706,0.3247052963862265,1
128,2024-09-26 21:18:35.200820801,0,019,-0.5327073402589474,0.0872187657746282,-1.7045652234494573,0.14128506070908026,-1.4189510211670016,0.11975867333870774,-0.994279071879334,0.35443137146081566,1
129,2024-09-26 21:18:35.271101074,0,019,-0.5011372062285226,0.08397305599475209,-2.3127020004795056,0.22157031669030303,-1.372272133909078,0.11066539428188889,-1.0195149268156702,0.35454107933693646,1
130,2024-09-26 21:18:35.324497070,0,019,-0.4474146024007564,0.07725501967040467,-2.9013612019316892,0.2945272836285703,-1.3142989134006149,0.10066978837387791,-0.9288777887052663,0.3280423416176912,1
131,2024-09-26 21:18:36.287445068,0,019,-0.3725012803754245,0.0672131377651372,-3.4324784267351074,0.35558856584363585,-1.2491520578135866,0.09039681840921304,-0.7398185045686286,0.2789708901679957,1
132,2024-09-26 21:18:36.344812988,0,019,-0.2783788610901457,0.054180000760274655,-3.8734001709803847,0.40127866256195815,-1.1807827092260628,0.08039080371589297,-0.47097893420861087,0.2118978081867865,1
133,2024-09-26 21:18:36.421035156,0,019,-0.16802326991306568,0.03865455748235154,-4.199279647792421,0.42952324287603855,-1.112642821538358,0.07107265840472525,-0.14069357630229667,0.13157174030111152,1
134,2024-09-26 21:18:36.483252930,0,019,-0.045394100001820654,0.021283767256149295,-4.394223332638214,0.4396871177529232,-1.0475227308283535,0.06272960553808277,0.23360139234721405,0.04272928685638672,1
135,2024-09-26 21:18:36.544818115,0,019,0.084631267843204,0.002838679072848795,-4.451197859852299,0.4323659973107522,-0.9875029120333655,0.055523554481622356,0.6351740593779299,-0.04994107834622244,1
136,2024-09-26 21:18:36.621406982,0,019,0.21642483121581266,-0.01582023013482025,-4.371401079729125,0.40908789861092854,-0.9339224750574192,0.049500915993622274,1.0473507625827285,-0.14175487165248699,1
137,2024-09-26 21:18:36.684401123,0,019,0.3439156584866959,-0.0337959869096546,-4.1636263945357905,0.3720680371439031,-0.8873559996646903,0.04460537724611272,1.4530371172523222,-0.22804411743843886,1
138,2024-09-26 21:18:37.608434082,0,019,0.4610709892659955,-0.05023268542430877,-3.843314546834231,0.32401765025702994,-0.8476597999849875,0.040702202127776026,1.8349170047674566,-0.30433143506183585,1
139,2024-09-26 21:18:37.666940918,0,019,0.5624841324805661,-0.06440944445219597,-3.4307822368569383,0.26791808295874037,-0.8141075994099315,0.03760775006119784,2.1762994024028104,-0.36664303099746715,1
140,2024-09-26 21:18:37.744120117,0,019,0.6438864303233225,-0.07582387920142436,-2.948875916171568,0.20674828911727436,-0.785565044930553,0.03510972378120078,2.462216052840088,-0.41184251447530157,1
141,2024-09-26 21:18:37.806605957,0,019,0.7024171389425392,-0.08423339978554804,-2.4208650689373923,0.14325656335479414,-0.7606338937489255,0.032974310278513316,2.680444079375784,-0.4378750151667796,1
142,2024-09-26 21:18:37.869091064,0,019,0.7366102234973034,-0.08963824527169477,-1.8689884995940595,0.07983210555676871,-0.7377502373766477,0.03095021768955527,2.8222592134922224,-0.4438747338071079,1
143,2024-09-26 21:18:37.946257079,0,019,0.7461724475182223,-0.09221739013716207,-1.3134636736172796,0.018441027242705983,-0.7153027792561641,0.028783199001304327,2.882741569059211,-0.4301427792343461,1
144,2024-09-26 21:18:38.013048096,0,019,0.7316831879550987,-0.09224668898844134,-0.7716908573565274,-0.03942744619866099,-0.6918343284388172,0.026245678841673295,2.8605997012329194,-0.39802359319165154,1
145,2024-09-26 21:18:38.920733887,0,019,0.6943341357970351,-0.09002431536203999,-0.2574540655566266,-0.09284238783693538,-0.666295360885486,0.023173461570712442,2.7576606396721055,-0.3497018280044001,1
146,2024-09-26 21:18:39.002938965,0,019,0.6357613660532107,-0.0858139417878081,0.21998558614975666,-0.14155248965323597,-0.638275775074716,0.019499202771347167,2.578085393809071,-0.28792094087920866,1
147,2024-09-26 21:18:39.069751953,0,019,0.5579633350198789,-0.07981046497213239,0.6565268595901458,-0.18608573968874212,-0.6081884454994408,0.015279557514522757,2.3272811862318874,-0.21562824657932705,1
148,2024-09-26 21:18:39.120997070,0,019,0.46327791273540586,-0.07213313767402105,1.0528743541135916,-0.22769649203690817,-0.5773916633409671,0.010713866560490167,2.0107213089712306,-0.13560231430855016,1
149,2024-09-26 21:18:39.203308105,0,019,0.35439024872722785,-0.062844419743381,1.4130051887012531,-0.26807199273924887,-0.5481828550043846,0.0061438992480116585,1.6330363043600695,-0.05015729142362068,1
150,2024-09-26 21:18:39.264729980,0,019,0.23434775319028664,-0.05198394010532804,1.742129260271691,-0.30887483080947786,-0.5235948342114787,0.002023083387918359,1.1975921785418189,0.0390046098954332,1
151,2024-09-26 21:18:39.321785889,0,019,0.1065536951139585,-0.039605144399505784,2.045050585291239,-0.35133959223227,-0.5070259904066166,-0.0011426366268463299,0.7068127611680529,0.13075520179668298,1
152,2024-09-26 21:18:40.285697021,0,019,-0.025303543831206525,-0.025807286132339863,2.325364448211764,-0.3960867138870694,-0.5018143065657882,-0.002865654004508053,0.16354121816531883,0.22431360865411126,1
153,2024-09-26 21:18:40.345118896,0,019,-0.1574232048652916,-0.010760536694139698,2.5852595742972615,-0.44311605160546713,-0.5108276272138258,-0.0027424232159994665,-0.42688628742510165,0.31891462778362933,1
154,2024-09-26 21:18:40.406783203,0,019,-0.28617406749661056,0.005279327885541048,2.825422270490468,-0.4918507700088633,-0.5360822108793935,-0.000507912248714608,-1.0548624146514824,0.4135287916248683,1
155,2024-09-26 21:18:40.484069092,0,019,-0.40843349279864144,0.0219729726981986,3.0448083555910976,-0.5411784666377993,-0.5784229502135934,0.003921802718709243,-1.7057919108872022,0.506732838356495,1
156,2024-09-26 21:18:40.546554199,0,019,-0.5218604757289279,0.03891884228422445,3.2403513940068205,-0.5894921171931259,-0.6373196993637095,0.01042258055358218,-2.360420683479399,0.5967030157316756,1
157,2024-09-26 21:18:40.608624023,0,019,-0.6249850153658002,0.05568902710964528,3.4067434145099496,-0.6347243484701164,-0.7107866681535149,0.018656170981086097,-2.9958551237495223,0.6812664536402772,1
158,2024-09-26 21:18:40.685826172,0,019,-0.7170906844285978,0.07186598992002512,3.536559208331484,-0.674406789306226,-0.7954160824288148,0.028087565441115077,-3.5871702852992366,0.7580131027026015,1
159,2024-09-26 21:18:41.633567139,0,019,-0.7979413363238579,0.08706019146537769,3.621136805322777,-0.7058356905225354,-0.8865542339968938,0.038025069651868415,-4.109683041690878,0.8245068190527693,1
160,2024-09-26 21:18:41.695141113,0,019,-0.8674259962299387,0.1008989161954639,3.6523157750397335,-0.7263876164645762,-0.9786292605442152,0.047677737639457846,-4.541589124198938,0.8785623682065195,1
161,2024-09-26 21:18:41.757141113,0,019,-0.9252392381311149,0.11300080759878334,3.6244771886281226,-0.7339271451638428,-1.0655752983020335,0.05621903327977885,-4.866196814883036,0.9184791786499685,1
162,2024-09-26 21:18:41.834372070,0,019,-0.9707488435760636,0.12296413777048543,3.536002787007789,-0.7271611608953175,-1.141287608718287,0.06284612937781592,-5.0731297912024615,0.9431551780389036,1
163,2024-09-26 21:18:41.896895996,0,019,-1.0031117503935347,0.1303857156013602,3.389673871824982,-0.705819933285352,-1.200074416999514,0.06683235179376454,-5.158425354069248,0.9520926549150239,1
164,2024-09-26 21:18:41.970622070,0,019,-1.0215383074439106,0.1349047018946307,3.1922890918944002,-0.6706832607280319,-1.2370653310438027,0.06757303612011713,-5.123898574183821,0.9453630754976026,1
165,2024-09-26 21:18:42.036932861,0,019,-1.0255708814896343,0.13625355559562138,2.954053113196453,-0.6235298770832598,-1.2485309137509297,0.06462137819258425,-4.9763664406429795,0.9236037219096368,1
166,2024-09-26 21:18:42.986394043,0,019,-1.0153322983529343,0.13430175251579382,2.687867119784683,-0.5669993858514498,-1.2321261348454364,0.05771686422885656,-4.727132057824294,0.8880642177883692,1
167,2024-09-26 21:18:43.053185059,0,019,-0.9917210993459157,0.12908467629447617,2.408313289235269,-0.5043128417731622,-1.1871036704430038,0.04681721703097774,-4.391501289405829,0.8406286946390098,1
168,2024-09-26 21:18:43.105752930,0,019,-0.9564626260070651,0.12081161296053496,2.130285891144748,-0.4388800420747898,-1.1144875827481606,0.032135154951854226,-3.98777202245092,0.7837124530435878,1
169,2024-09-26 21:18:43.184143066,0,019,-0.91194304316518,0.1098486977707681,1.8674368571093527,-0.3738802126797363,-1.0171420830131153,0.014163891978513381,-3.535667526431829,0.7200392674030498,1
170,2024-09-26 21:18:43.253620117,0,019,-0.8609011186477892,0.09668388787927243,1.6306859042956545,-0.31189005844367707,-0.8996500733280552,-0.006330875583987778,-3.0550185425618346,0.6524488416973772,1
171,2024-09-26 21:18:43.319508057,0,019,-0.8061421793870127,0.08189213099978805,1.4271663172871931,-0.2546252723166607,-0.7679191061140097,-0.028368043453608868,-2.5654449730758273,0.5838581873440585,1
172,2024-09-26 21:18:43.386142090,0,019,-0.7503572277387063,0.06611228264536055,1.2599249734472981,-0.20285242846481724,-0.628531881756297,-0.050852729894558746,-2.086711647862913,0.5173054939190941,1
173,2024-09-26 21:18:44.336435059,0,019,-0.6960206999653059,0.05003014973371918,1.1283402033805139,-0.15649002918007485,-0.4880351211501475,-0.07269241206615229,-1.638654144081935,0.4559001734738216,1
174,2024-09-26 21:18:44.397804932,0,019,-0.6453354001989462,0.03435628648609679,1.0290225361957575,-0.11487316533713983,-0.3524016090299602,-0.0928928941267074,-1.2399407587513531,0.4026041525673797,1
175,2024-09-26 21:18:44.455233154,0,019,-0.6002184640555019,0.01979403989883758,0.9571261548853808,-0.07710865347698062,-0.2267248742806627,-0.11062238326774625,-0.9058978606762564,0.35991841143249365,1
176,2024-09-26 21:18:44.532711914,0,019,-0.562301246340171,0.006997341558103044,0.9080230677783396,-0.04241193209634608,-0.11504550799966388,-0.1252513521189254,-0.6463215986638359,0.32960194511378793,1
177,2024-09-26 21:18:44.593744873,0,019,-0.5329021204132207,-0.0034811412235821806,0.8788844990027557,-0.010327424163854163,-0.020240107347382744,-0.13637291670053545,-0.46419997635530597,0.31250715455451744,1
178,2024-09-26 21:18:44.670425049,0,019,-0.5129630955361064,-0.011242170174073184,0.8694264439033355,0.01921762497047317,0.056002829439133484,-0.14380191440075893,-0.3556511593635701,0.3085336447064452,1
179,2024-09-26 21:18:44.733860107,0,019,-0.5029748744981025,-0.016076984956014586,0.8815288019358245,0.04599980381719116,0.11309809841332048,-0.14755690789469247,-0.31071705417637363,0.31664664171792756,1
180,2024-09-26 21:18:45.681432861,0,019,-0.5029121550925634,-0.017984163622105212,0.9182577057607724,0.06962630896176955,0.15140507164753353,-0.14783791477383454,-0.31458321971821374,0.33493554442940016,1
181,2024-09-26 21:18:45.753923828,0,019,-0.512180487162488,-0.01717299014417564,0.9830698255455259,0.08960986555647561,0.17204943123253105,-0.1450088631816065,-0.34933968864567294,0.360778876199645,1
182,2024-09-26 21:18:45.806305908,0,019,-0.5295711262180418,-0.01405521868749936,1.0795009310181012,0.10538975985221347,0.17675179648968997,-0.1395792585098281,-0.3966746798098013,0.3911972157209217,1
183,2024-09-26 21:18:45.884000000,0,019,-0.553231883367698,-0.00921775999493135,1.2111168722504417,0.11635522201281477,0.16766144348278106,-0.13217111589221878,-0.4412839075002656,0.42336145914019085,1
184,2024-09-26 21:18:45.954275879,0,019,-0.5806736225916754,-0.003373861956887594,1.3813457640740552,0.12189727658261926,0.14720807727605212,-0.12346766884042043,-0.47398514111782175,0.4551121064532869,1
185,2024-09-26 21:18:46.021060059,0,019,-0.6088356854049192,0.0026969875399748475,1.5929734925269052,0.12145366139562189,0.11802250396582115,-0.11415988062685502,-0.49354230932708565,0.4853482855011065,1
186,2024-09-26 21:18:46.086013184,0,019,-0.6342294283485091,0.008207703243411588,1.8474417855583654,0.11449712584518269,0.08296301761020652,-0.10491200470373023,-0.5069262513326328,0.5142256669303457,1
187,2024-09-26 21:18:47.028569092,0,019,-0.6531675202142255,0.012414294763343735,2.144313026619429,0.1004618894920341,0.04518449761122075,-0.09634893919812765,-0.5282179751171711,0.5431463995571486,1
188,2024-09-26 21:18:47.090395996,0,019,-0.6620735107758083,0.014659226231674528,2.4811402410319845,0.0786507712103148,0.008087415866229726,-0.08904291627090974,-0.5761110116358846,0.5744819976790841,1
189,2024-09-26 21:18:47.167391113,0,019,-0.6578627603153804,0.014417952834337779,2.853670696679936,0.04819801385870944,-0.02496907166708159,-0.08347584890086192,-0.6698025317399152,0.610962690610413,1
190,2024-09-26 21:18:47.229384033,0,019,-0.6383634873767606,0.011360182271048284,3.256048426140502,0.00817807115184735,-0.05111684605752314,-0.07998231025456765,-0.8238568176498046,0.654820021485372,1
191,2024-09-26 21:18:47.302707031,0,019,-0.6026782826785276,0.005414785530084144,3.680737254880551,-0.042122747925239054,-0.06839149066402844,-0.07870190472046304,-1.043665144743905,0.70696364561814,1
192,2024-09-26 21:18:47.368638916,0,019,-0.5513501618878226,-0.003194490462649301,4.11825166374726,-0.10288352969197258,-0.07596126781834255,-0.0795615428078714,-1.3230726437969722,0.7664799731803721,1
193,2024-09-26 21:18:47.436278076,0,019,-0.4862753020808966,-0.013963867603062887,4.55692529070185,-0.17349658923323383,-0.07414097620390424,-0.08228591122996841,-1.6446191547595148,0.830554288027459,1
194,2024-09-26 21:18:48.361905029,0,019,-0.4104269671893385,-0.026168532680891088,4.982763451383768,-0.2523999386452034,-0.06420421218004682,-0.08642921332394768,-1.9818048968426547,0.894744815617926,1
195,2024-09-26 21:18:48.428680908,0,019,-0.32750430817027765,-0.03894866590460972,5.3794455130607695,-0.33697587570208865,-0.048021726782179794,-0.09142913884848276,-2.3025759711270974,0.9534974328996348,1
196,2024-09-26 21:18:48.487751953,0,019,-0.24159347841252904,-0.051407155455365824,5.728799747585105,-0.42359130126410005,-0.027617406202053572,-0.09667844009514594,-2.5734817032860686,1.000811758145318,1
197,2024-09-26 21:18:48.562240967,0,019,-0.15688293939491185,-0.06270197278239781,6.012029524808315,-0.5078874659076158,-0.004782108370900078,-0.1015952079238614,-2.763967706935741,1.0309613451923065,1
198,2024-09-26 21:18:48.621920166,0,019,-0.07743766508276148,-0.0721168916990784,6.211554242486641,-0.5852717040628427,0.019164743161529236,-0.10567626574115588,-2.850059596906226,1.0391550769592672,1
199,2024-09-26 21:18:48.684168945,0,019,-0.007026642487926194,-0.07910233689775292,6.313007872653568,-0.6514100252347436,0.04344901429560682,-0.10853096545475938,-2.8167617595811882,1.0220464826606497,1
200,2024-09-26 21:18:48.762278076,0,019,0.05099967831756665,-0.08328728476215859,6.306917548505233,-0.7025696224752249,0.067757980593648,-0.10989339900643028,-2.6588024222137485,0.9780145322253917,1
201,2024-09-26 21:18:49.701929932,0,019,0.09379908033329704,-0.08446993222475295,6.189752773370544,-0.7358054380507918,0.09203506057190976,-0.10961001513104497,-2.379713933687333,0.9071603755949543,1
202,2024-09-26 21:18:49.763982910,0,019,0.11910868294576085,-0.08259667715025794,5.964259452969852,-0.7490503218530501,0.11623887217771313,-0.10760988825493954,-1.989764644021259,0.8110697656930853,1
203,2024-09-26 21:18:49.841306885,0,019,0.12528538351366628,-0.0777347211679026,5.639050975162096,-0.7411487758106976,0.1401628570069896,-0.1038749258548022,-1.5036545455550665,0.6925094867604832,1
204,2024-09-26 21:18:49.912874023,0,019,0.11132893277260304,-0.07004343001594175,5.227266116699115,-0.7118100696652001,0.16338211836949962,-0.09842632487010813,-0.9387154753715248,0.5551956659295255,1
205,2024-09-26 21:18:49.965367188,0,019,0.07695866069166547,-0.05975592159158203,4.744160937358821,-0.661408754737586,0.1853505520110438,-0.09133354633120343,-0.31391062485395754,0.4036370299913678,1
206,2024-09-26 21:18:50.046447998,0,019,0.02277630709524523,-0.047177286072677134,4.204156147050842,-0.5906413170483547,0.20560428417141918,-0.08273828795636964,0.35041742835085143,0.24298534347089598,1
207,2024-09-26 21:18:50.104604004,0,019,-0.049573117002384516,-0.03268844079143421,3.6185292054578184,-0.5002073791669964,0.223972578692794,-0.07287824509175148,1.032403797891216,0.0788458348456825,1
208,2024-09-26 21:18:51.034792969,0,019,-0.1373879321450986,-0.016738757168824045,2.994665846259341,-0.3907000422364776,0.24072142720377487,-0.062100084775171455,1.708674106844683,-0.08296939004444022,1
209,2024-09-26 21:18:51.097475098,0,019,-0.23712656128000517,0.00017700192785102725,2.336849674829883,-0.262739369856494,0.25660455568599316,-0.05085688657663896,2.3549197312605448,-0.23674861086357063,1
210,2024-09-26 21:18:51.159011963,0,019,-0.3447833360860917,0.017545025312762398,1.6480604301519381,-0.11726687737683748,0.2727980464303875,-0.039685306894923805,2.9470622915024074,-0.37722332948988785,1
211,2024-09-26 21:18:51.237422852,0,019,-0.4562167817381949,0.03484203431734128,0.9322452891519978,0.044097731797883045,0.2907143360327458,-0.02916339377766556,3.462860135197715,-0.4998982276645107,1
212,2024-09-26 21:18:51.304228027,0,019,-0.5672823095226004,0.05151945112669708,0.1964433472342427,0.21873283844967437,0.3117573389858529,-0.01986170392170076,3.8838410463693664,-0.6013407806947613,1
213,2024-09-26 21:18:51.370993896,0,019,-0.673843721609161,0.06697900667936633,-0.5478602115654496,0.4028061326638126,0.33710834388670713,-0.012303295191318068,4.197200495997224,-0.6794098078406675,1
214,2024-09-26 21:18:51.437756104,0,019,-0.7718517224654066,0.08057161097812823,-1.28433808130902,0.591219974899362,0.36760816987238665,-0.00694023555938769,4.397003181034815,-0.7333652616626165,1
215,2024-09-26 21:18:52.387118164,0,019,-0.8575665733247493,0.09163638594405742,-1.9921417740281042,0.7777181168064677,0.40376475511574567,-0.004145080749014137,4.48432445733948,-0.7638125307368755,1
216,2024-09-26 21:18:52.453892090,0,019,-0.927843871348956,0.09956614562892965,-2.646858656731396,0.9551750968710467,0.44585878794300093,-0.004209917519002652,4.466493189650866,-0.7724950138771769,1
217,2024-09-26 21:18:52.520672119,0,019,-0.9803712061596577,0.10387359538514353,-3.2223454339988837,1.1160964923178032,0.49406194602276754,-0.00734382740509663,4.35563983104184,-0.7619636978969385,1
218,2024-09-26 21:18:52.586548096,0,019,-1.0138126032227806,0.10424657399781684,-3.6934131644737564,1.253299950665375,0.5484907921365355,-0.013665027498500544,4.166724251412423,-0.735160617338574,1
219,2024-09-26 21:18:52.654244873,0,019,-1.0278573827188617,0.10059204230437875,-4.038877755214127,1.3606897339191215,0.6091902516575622,-0.023192943631719955,3.9155848916900466,-0.6950158260492995,1
220,2024-09-26 21:18:52.706201904,0,019,-1.023156211174918,0.09306194916966196,-4.244475949173003,1.4340255402363657,0.6760888958823271,-0.03584597265763825,3.617588757719677,-0.6441606175844468,1
221,2024-09-26 21:18:52.784621094,0,019,-1.0011536463572726,0.08205160797126117,-4.305204679379738,1.4715437387004375,0.7489541966751961,-0.051442123117816534,3.28671494780318,-0.5847402254101,1
222,2024-09-26 21:18:53.725253174,0,019,-0.9638859385945258,0.06817342382412067,-4.226513149968677,1.4742442858081066,0.8273386779515013,-0.06969536693834406,2.9344743765890002,-0.5182508296205434,1
223,2024-09-26 21:18:53.804010986,0,019,-0.9138050151295916,0.05221291290397942,-4.023888206504414,1.4457286112584566,0.9104988906656984,-0.0902063109663639,2.56877818457459,-0.44544070695580407,1
224,2024-09-26 21:18:53.864738037,0,019,-0.8536338908946912,0.03506703147180681,-3.7207830845191987,1.391624027252655,0.9972989750792106,-0.11245418233947906,2.1935988727359996,-0.36640765187900626,1
225,2024-09-26 21:18:53.937606934,0,019,-0.7862352485295689,0.017669128663029526,-3.345259241570455,1.3187408662708728,1.086149349466577,-0.13580088187692926,1.8099056148215056,-0.28093053705308546,1
226,2024-09-26 21:18:53.988768066,0,019,-0.7144739599669949,0.0009129824484318429,-2.9261032036696513,1.2341567755855911,1.1750320586832985,-0.15951529228254407,1.4175357706447202,-0.1889141729703958,1
227,2024-09-26 21:18:54.064927002,0,019,-0.6410525162670632,-0.014417132527570344,-2.4894437398981824,1.1444069657499585,1.2616040261488428,-0.18281530453301253,1.0172552690917636,-0.09077290165117247,1
228,2024-09-26 21:18:54.137924072,0,019,-0.5683163502343423,-0.027708733178518134,-2.056679616909396,1.0548785562436511,1.3433121709071283,-0.20491340602453198,0.6123025208936744,0.01235594257297632,1
229,2024-09-26 21:18:55.087233154,0,019,-0.49806104040189736,-0.038569283173100946,-1.6438032782407797,0.969432860231162,1.4174899652107584,-0.22505570573240277,0.20900962655363342,0.11858697903409608,1
230,2024-09-26 21:18:55.148870850,0,019,-0.4314031678824044,-0.04684983508377679,-1.2615358902474807,0.8902512843756258,1.481483143990147,-0.24255922895705165,-0.18364556378683228,0.2254313298492409,1
231,2024-09-26 21:18:55.210010986,0,019,-0.3687809182660412,-0.05263694672649783,-0.9156986865377236,0.8178830339173853,1.532835758454986,-0.25685202315139655,-0.5555163192571084,0.33007609188469317,1
232,2024-09-26 21:18:55.287664795,0,019,-0.3100899769716007,-0.05621664891623141,-0.6077874082011983,0.7514635232829101,1.569481562031537,-0.2675054726448523,-0.8973296051885417,0.42972074450951997,1
233,2024-09-26 21:18:55.353956055,0,019,-0.25485943683291723,-0.058026526116241595,-0.33598840499429894,0.6890748449493571,1.5898803815175515,-0.2742473531188817,-1.202414138414245,0.5218656615152403,1
234,2024-09-26 21:18:55.410363037,0,019,-0.20235201628887536,-0.05860969620598748,-0.09663059426511304,0.6282143581198111,1.5931028920703734,-0.27695929088531585,-1.4673637084643378,0.6044766075615484,1
235,2024-09-26 21:18:55.487604004,0,019,-0.1515605895156374,-0.05857214122736022,0.11421319355541931,0.5663240936775421,1.5788836644819058,-0.2756683373428507,-1.6914928751935487,0.6760088322375161,1
236,2024-09-26 21:18:56.432295166,0,019,-0.10115977432041522,-0.058542312045635356,0.29937820442476426,0.5012981298600109,1.5476494137244743,-0.2705374326118696,-1.8755547116427365,0.7353303166117955,1
237,2024-09-26 21:18:56.504111084,0,019,-0.04950517304331218,-0.059133942744262424,0.4599617876955191,0.4318365655059422,1.5005414912227726,-0.26185788825701,-2.0204556839587298,0.7816119105505038,1
238,2024-09-26 21:18:56.570917969,0,019,0.005231519082001489,-0.060905489475582414,0.5956742409577565,0.35753342467616706,1.439443415687618,-0.2500446149245709,-2.126552017930454,0.8142483067574687,1
239,2024-09-26 21:18:56.634089844,0,019,0.06476160641606674,-0.06430448924515586,0.7060538378951243,0.27869927087157303,1.3669733051548076,-0.23562523464696827,-2.193663820037268,0.8328342024550303,1
240,2024-09-26 21:18:56.696094971,0,019,0.1302721989850926,-0.06959616702490036,0.7919379539830356,0.19604913100618238,1.2863757051523004,-0.2192117087772664,-2.2214851275237772,0.8371606604716941,1
241,2024-09-26 21:18:56.771292969,0,019,0.20201889935821424,-0.07679360289440526,0.8563997713753602,0.1104421002708834,1.201275076213741,-0.201455020669157,-2.2099903414703483,0.827183383601055,1
242,2024-09-26 21:18:56.834434082,0,019,0.2790171436012982,-0.08561569035140076,0.9047350596141527,0.022795670787194047,1.1152915986177265,-0.18299248158266979,-2.1596489581169083,0.8029521771595776,1
243,2024-09-26 21:18:57.783113037,0,019,0.3589148990119535,-0.09549268621923934,0.9437515058227423,-0.06583475366199552,1.0315712310910483,-0.16439604183916023,-2.0713410508719066,0.764516788154143,1
244,2024-09-26 21:18:57.845596924,0,019,0.438111162151871,-0.10562453337937878,0.9808425230183562,-0.15410544492004777,0.9523579927280248,-0.14613115763135068,-1.9459241818559085,0.7118435859280647,1
245,2024-09-26 21:18:57.920811035,0,019,0.5121287054398029,-0.11508393562602683,1.0229875954172083,-0.24025258826149118,0.8787611904050224,-0.12853786181789778,-1.7836790500005588,0.6448095788469367,1
246,2024-09-26 21:18:57.987802002,0,019,0.5761492165649302,-0.12294138128040977,1.0755987926883264,-0.3220321705993608,0.8107851517337092,-0.11183607385909376,-1.5840611321875613,0.5633332291636753,1
247,2024-09-26 21:18:58.054601074,0,019,0.6255490357979643,-0.1283756768553766,1.141393641188542,-0.3967688580852619,0.747575127696801,-0.09614596851898176,-1.3460007013586912,0.4676237968727742,1
248,2024-09-26 21:18:58.107386230,0,019,0.6563176175296076,-0.13074230171163115,1.2197567457221823,-0.4615423451556365,0.6877807287401635,-0.0815157629894736,-1.0685798042307004,0.35844299836531274,1
249,2024-09-26 21:18:58.184854980,0,019,0.6653501120258919,-0.1296023702986251,1.3068658401824598,-0.5134876843174366,0.6299214022115046,-0.06795020479989623,-0.7517154826657457,0.23727068815559743,1
250,2024-09-26 21:18:59.133693848,0,019,0.6506627906047895,-0.12473382155794555,1.3964380976817075,-0.550116320166989,0.5726553842001118,-0.05542932622576565,-0.39674036656785416,0.1063583990667723,1
251,2024-09-26 21:18:59.195508057,0,019,0.6115690017586691,-0.11614131455213121,1.4808129273130743,-0.5695701796822484,0.5149468966922409,-0.043917778040051265,-0.007065053112410229,-0.03127406529598615,1
252,2024-09-26 21:18:59.271662842,0,019,0.5488235394720484,-0.10407065456290396,1.552184944796978,-0.5707898640435521,0.45619906366171403,-0.03337856485561269,0.4110731501359923,-0.171863411817254,1
253,2024-09-26 21:18:59.334600098,0,019,0.4647033931938718,-0.08902243517360459,1.6038623579779938,-0.553615559198661,0.3963606187373366,-0.023793410508566596,0.8480915935322831,-0.310955759269792,1
254,2024-09-26 21:18:59.396637939,0,019,0.3629504305699441,-0.07174503362105861,1.6314497449367742,-0.5188326841391269,0.33593520376600877,-0.015172698370390795,1.2910434125776278,-0.44350986966767425,1
255,2024-09-26 21:18:59.459065918,0,019,0.2485182953482838,-0.05318746523413435,1.6337470605963378,-0.4681484805718843,0.27586807254575624,-0.007544061891785326,1.7241257899934994,-0.5640880428598544,1
256,2024-09-26 21:18:59.535847900,0,019,0.12716136636409267,-0.03441555537276694,1.6129431693294296,-0.4040530784630988,0.21737733753042532,-0.0009304805519425728,2.1296718223808657,-0.6671813743976666,1
257,2024-09-26 21:19:00.449414062,0,019,0.00497678421654577,-0.016512877574857785,1.5738408011857803,-0.3295295818849986,0.1618015415565498,0.0046649484407573945,2.4896324778563157,-0.7476786709015739,1
258,2024-09-26 21:19:00.527137939,0,019,-0.11202115610596465,-0.0004840131818567913,1.5224574677727047,-0.24765844055679495,0.11048750136786153,0.00926238867183262,2.7874458429717612,-0.8014008242557059,1
259,2024-09-26 21:19:00.588779053,0,019,-0.2182893914469888,0.01283155104393629,1.4647669422643543,-0.16124131698351238,0.06472177062535413,0.012900853217957312,3.009940788874514,-0.8255586170667284,1
260,2024-09-26 21:19:00.650818115,0,019,-0.30913194584495485,0.022829148554268333,1.4061235556850384,-0.0725626067086216,0.025693895171214932,0.015629980289171664,3.148885027565734,-0.8190323018636362,1
261,2024-09-26 21:19:00.730288086,0,019,-0.3810693206830865,0.02918855281372043,1.3513024964621823,0.016669512273265973,-0.0055442510344588,0.017503016574372546,3.2020489378672106,-0.7824742079057889,1
262,2024-09-26 21:19:00.790194092,0,019,-0.43216470160591486,0.03190190660156412,1.3047215173461482,0.10522175777347473,-0.02815030672669743,0.018577679250595974,3.1738120526138442,-0.7182815141176346,1
263,2024-09-26 21:19:00.863856934,0,019,-0.4622366374961645,0.031276419012845315,1.2705193197581703,0.19212463382564032,-0.04159350743815029,0.018925754672613843,3.075140847079989,-0.6304404892584353,1
264,2024-09-26 21:19:01.781595947,0,019,-0.4729011905173607,0.027907883138212415,1.2524937445240971,0.2764150146694028,-0.04577645431029722,0.018645235694809997,2.9225708765607186,-0.52419773752379,1
265,2024-09-26 21:19:01.843655029,0,019,-0.46742491746622794,0.022626679228645256,1.2541351627208868,0.3568731429103372,-0.041159618853534814,0.017870256468576397,2.736071019955515,-0.40556167651357683,1
266,2024-09-26 21:19:01.921337891,0,019,-0.4503955623091923,0.016422564188580357,1.2788351346140099,0.43179147976359356,-0.028844225844367282,0.016775573031793053,2.536208064915989,-0.28073437063962337,1
267,2024-09-26 21:19:01.983001953,0,019,-0.42723594057809766,0.010353336890755717,1.3299713017521433,0.4988576203414284,-0.010538863707656505,0.01556533242040235,2.3413076925117107,-0.15559918161729325,1
268,2024-09-26 21:19:02.045032959,0,019,-0.4035999525554016,0.005440205796833808,1.4106041836981766,0.5552230654430298,0.011642238865781333,0.014436181594730946,2.1650971324275115,-0.03532034311402195,1
269,2024-09-26 21:19:02.106595947,0,019,-0.3846973816543862,0.0025550975729467192,1.5229195528260573,0.5977459211194045,0.03551247962141035,0.013522099411554495,2.015001093864162,0.07596103877010972,1
270,2024-09-26 21:19:02.188302979,0,019,-0.3746161513129326,0.0023116133068738698,1.667631898714208,0.6233410074278436,0.05915838488910617,0.012843495771144511,1.8912090545171827,0.17535131626760575,1
271,2024-09-26 21:19:03.136758057,0,019,-0.37574655243295124,0.004977607935581479,1.8433539748751853,0.6293655976272423,0.08116986300701973,0.012281778744392683,1.7867079399604207,0.2613264624248181,1
272,2024-09-26 21:19:03.190685059,0,019,-0.3884327769397611,0.010429316000256032,2.04601909626454,0.613976074910422,0.10070857172280966,0.011587026013168968,1.688454473349757,0.33371010427091286,1
273,2024-09-26 21:19:03.270339844,0,019,-0.41095399354846723,0.018159867920694284,2.2686769605033557,0.5764174940755069,0.11747087359096134,0.01041115045501637,1.579617454551727,0.39349384954414995,1
274,2024-09-26 21:19:03.330816895,0,019,-0.43986148972849065,0.027339506381558513,2.5017263972218027,0.5172514009344358,0.13161174894887712,0.008354276189045499,1.442324364688051,0.4425561363190947,1
275,2024-09-26 21:19:03.391935059,0,019,-0.47058819224198556,0.03690934393876362,2.733194487019192,0.4385250599002508,0.14363945718297308,0.005016750679031214,1.260107146233852,0.4833690631202312,1
276,2024-09-26 21:19:03.469121826,0,019,-0.4981505711937852,0.04568443706259193,2.9489047767213137,0.34380954261250546,0.15428148438701678,5.2801494388094636e-05,1.0196909433594534,0.5187297660578615,1
277,2024-09-26 21:19:03.536721924,0,019,-0.5177555547533018,0.05245074733896322,3.133027435290665,0.23799223274697184,0.1643354236765234,-0.006776192085463703,0.7123008787685474,0.5515012535681073,1
278,2024-09-26 21:19:04.474187988,0,019,-0.5252265857514666,0.056058087520485876,3.2695186759066974,0.12680706795163912,0.17450101463107262,-0.015550778649274063,0.33466585944861765,0.5843490799740272,1
279,2024-09-26 21:19:04.551805908,0,019,-0.5172794128870366,0.05551892105607456,3.3443071102166217,0.01622741585959914,0.1852060361929845,-0.026153285400020647,-0.11029671699309793,0.6194595259004105,1
280,2024-09-26 21:19:04.620381104,0,019,-0.4917143380962744,0.05010992012968901,3.3475672877061906,-0.08812724862777223,0.1965053314407019,-0.03825360307201128,-0.6131948568889686,0.6582324405934379,1
281,2024-09-26 21:19:04.675023193,0,019,-0.4475609116137692,0.039454361354583495,3.2753478682307886,-0.1814779406485192,0.20813530873194605,-0.05133190879859952,-1.1584441733034376,0.7010095571491811,1
282,2024-09-26 21:19:04.752216064,0,019,-0.3851683737677418,0.02356345219984907,3.130063696007016,-0.26019785973318205,0.2197061284067233,-0.06473559169977103,-1.7253935675295682,0.7469659042570161,1
283,2024-09-26 21:19:04.814416016,0,019,-0.3062085805517016,0.002832678605364971,2.91979628875587,-0.32189400631878384,0.23092140985503218,-0.07775368807301013,-2.290345794279767,0.7942507637333996,1
284,2024-09-26 21:19:04.887592041,0,019,-0.21357879877449604,-0.021994765998728606,2.6568310170818092,-0.365297136780263,0.24172173980399236,-0.0896868159624271,-2.829028579539149,0.8403366988759059,1
285,2024-09-26 21:19:05.834783936,0,019,-0.11123405701868627,-0.049882679015471804,2.35613894978491,-0.39011485503637916,0.2523371747078983,-0.09990172120309922,-3.3188960554229294,0.8824411369522027,1
286,2024-09-26 21:19:05.903680176,0,019,-0.003953854562135651,-0.07957053389879802,2.0342343913319536,-0.3969714793243987,0.2633067797487971,-0.10787745434268979,-3.7408376278290616,0.9178656132543727,1
287,2024-09-26 21:19:05.959624023,0,019,0.10300112608865583,-0.1096602510876086,1.7081668609070948,-0.38739707766425446,0.27549361422137686,-0.1132497052210932,-4.079985714689395,0.9441385340105451,1
288,2024-09-26 21:19:06.037285156,0,019,0.2043492202999522,-0.13871682657326606,1.3942080401194024,-0.36375556304888107,0.29005839257367755,-0.11584357732296416,-4.325565496606864,0.9589777625173391,1
289,2024-09-26 21:19:06.099112061,0,019,0.29529870981044204,-0.16537082410468865,1.106346006537744,-0.3290793354586949,0.3083702353343093,-0.11568302702275861,-4.470345022161392,0.9602384569380835,1
290,2024-09-26 21:19:06.160728027,0,019,0.3719902352116748,-0.1884120336269252,0.8551215289803964,-0.2868405633112135,0.3318801944350867,-0.11297866721776396,-4.5104575303809105,0.9460063314075089,1
291,2024-09-26 21:19:06.237684082,0,019,0.4317090925438328,-0.20685832486095693,0.6470608575385028,-0.24066663528329318,0.3619651576562481,-0.10809878240709844,-4.445763248123991,0.9148403704446639,1
292,2024-09-26 21:19:07.182750977,0,019,0.4727925554371218,-0.2199869511754562,0.48459609838787515,-0.19401331276297007,0.3997217648807655,-0.1015224447650953,-4.280268569176768,0.8660430190270245,1
293,2024-09-26 21:19:07.253853027,0,019,0.4943754251532858,-0.22734119275759843,0.3664273058415069,-0.14987149785138004,0.4457216472375952,-0.09377702890093227,-4.022114231388712,0.7998430868615494,1
294,2024-09-26 21:19:07.320678955,0,019,0.4961804347524552,-0.22873334595797468,0.28831323903100825,-0.11058167091143063,0.4997565431617058,-0.08536718137097553,-3.6830745271829226,0.7174633801657839,1
295,2024-09-26 21:19:07.387478027,0,019,0.4783986931507839,-0.22424109047568705,0.24401310661074546,-0.07775024072761165,0.5605887255961339,-0.07670149581765157,-3.277797686362533,0.6210995248156927,1
296,2024-09-26 21:19:07.445498047,0,019,0.4416122338421092,-0.21418722741225538,0.2259764813914242,-0.052218769757422984,0.6257778875332334,-0.06803195950731515,-2.8229819564866125,0.5138251793817524,1
297,2024-09-26 21:19:07.507177002,0,019,0.38677875756287255,-0.19911297890126833,0.225644291363941,-0.03406528202575686,0.6917190875647102,-0.05943052694138935,-2.336636126117183,0.3994276590628889,1
298,2024-09-26 21:19:07.587878906,0,019,0.31529903129368503,-0.17975405589845203,0.23363449848432327,-0.022665254535907696,0.7539605611724317,-0.05081362189051879,-1.8375238655468809,0.2821860848483663,1
299,2024-09-26 21:19:08.521737061,0,019,0.22908248707525983,-0.1570060526481577,0.24023983597419266,-0.016852679863075537,0.8077424942670496,-0.0420033601354868,-1.3445932737841653,0.16659308906887527,1
300,2024-09-26 21:19:08.598902100,0,019,0.1305355125220586,-0.13187003477346138,0.236386767031986,-0.015173281260363313,0.8486248109191471,-0.03280563985009243,-0.8761044941913578,0.05702716355152023,1
301,2024-09-26 21:19:08.670492920,0,019,0.022510589387910132,-0.10539323283894093,0.2148141047608342,-0.016170245656466808,0.8730480431776678,-0.02308345722729328,-0.44864788797734434,-0.042556828763309386,1
302,2024-09-26 21:19:08.722893066,0,019,-0.09174799926271644,-0.0786177880920836,0.17108962749726253,-0.018642355843545417,0.8787039161601184,-0.012806366109272464,-0.0765215794298374,-0.1288229183348997,1
303,2024-09-26 21:19:08.800117920,0,019,-0.20871422231389,-0.05253315054528829,0.10412344880460497,-0.02182263585395141,0.8647006130145278,-0.0020719438979170473,0.22850178047818512,-0.19911233661934863,1
304,2024-09-26 21:19:08.862603027,0,019,-0.3247842127964881,-0.028030133011208335,0.015975569721704243,-0.025435077696358877,0.8315895900408797,0.008891240686010746,0.457463447568287,-0.2514401861897869,1
305,2024-09-26 21:19:08.924623047,0,019,-0.4365294803773113,-0.005864958283906237,-0.08895666445143717,-0.029639360815888582,0.7812753178118025,0.019737244449380336,0.6048934769598925,-0.2845279509831832,1
306,2024-09-26 21:19:09.874152100,0,019,-0.540927216314531,0.013360002195691903,-0.20503002351895663,-0.034914602398553825,0.7167480898447864,0.03004486639294263,0.6696234608709757,-0.2978922146043568,1
307,2024-09-26 21:19:09.952260010,0,019,-0.6355085912359698,0.029195090832603198,-0.3263425665895898,-0.041909025041101194,0.6416190062034938,0.03939075202846334,0.6549228730572028,-0.29188425593419576,1
308,2024-09-26 21:19:10.014745117,0,019,-0.7183958308938352,0.041320243537136876,-0.4473400484467356,-0.05126461141924418,0.5595663495264629,0.047431289114362216,0.5672987915785848,-0.267550042377945,1
309,2024-09-26 21:19:10.075953125,0,019,-0.7882591088543291,0.0495102590139495,-0.5628937099054597,-0.06347789239902711,0.4738677143205533,0.053963031009942576,0.414373809023457,-0.22634176800839143,1
310,2024-09-26 21:19:10.154906982,0,019,-0.8442586502313035,0.0536086459701761,-0.6678737050250546,-0.0788955836768349,0.38713113490942375,0.05894579694136482,0.2031941530565425,-0.1698898442599708,1
311,2024-09-26 21:19:10.221718994,0,019,-0.8860025557040685,0.05352119117299279,-0.7566092159320189,-0.09784592659967967,0.30120821920037844,0.06249290284342303,-0.05996927478689748,-0.10002497453138978,1
312,2024-09-26 21:19:10.288584961,0,019,-0.9134999557861097,0.04922245691039654,-0.8228226705210584,-0.12075536988323139,0.21717614826004045,0.06484774882450628,-0.36840141973464385,-0.019044573799979217,1
313,2024-09-26 21:19:11.201583984,0,019,-0.9270693694149369,0.04075983111453605,-0.8601038319633441,-0.1481098415203313,0.13530118756198792,0.06636723807666373,-0.7131874905923855,0.06996878578717107,1
314,2024-09-26 21:19:11.264093994,0,019,-0.9271820754191644,0.02824467316671669,-0.8623773487021044,-0.1802851532083328,0.055014885015278084,0.06751493801979536,-1.081828287927253,0.1629997967105522,1
315,2024-09-26 21:19:11.345854980,0,019,-0.9142853613621235,0.011833671878990544,-0.8240048937508735,-0.21736933241912923,-0.02499081729042977,0.06884625517089536,-1.457810676014087,0.2552315089673212,1
316,2024-09-26 21:19:11.412647949,0,019,-0.8887017917087437,-0.008283632615595476,-0.739747935511029,-0.25904545609409413,-0.10649319868430303,0.07096935776219404,-1.8214038584306986,0.34142972563701623,1
317,2024-09-26 21:19:11.479455078,0,019,-0.8506549699886179,-0.03187509765478422,-0.605047298065215,-0.3045235230942115,-0.19135105610547876,0.07448481792656889,-2.1515722243762463,0.41648906687408155,1
318,2024-09-26 21:19:11.546264893,0,019,-0.8003815473058108,-0.05863255154735922,-0.41678613983847546,-0.3525075238625077,-0.2811390197783809,0.07992100189241773,-2.4284394231416804,0.4760292953741617,1
319,2024-09-26 21:19:11.604340088,0,019,-0.7382762614389261,-0.08812839869600997,-0.17415638994500773,-0.40123462488023764,-0.3769519823553575,0.08768523320050345,-2.6355392382394487,0.5169264589347639,1
320,2024-09-26 21:19:12.531392090,0,019,-0.665061574365778,-0.11977932996704606,0.12091032615019627,-0.4486427869245477,-0.4794466183423997,0.09804491900731466,-2.76143444974246,0.5376922954935435,1
321,2024-09-26 21:19:12.602925049,0,019,-0.5819648906488857,-0.15283109624887825,0.4637684483725585,-0.49264948180256124,-0.5890391558453589,0.11113657360898999,-2.800794868953491,0.5386606754340514,1
322,2024-09-26 21:19:12.655388184,0,019,-0.4908429438258357,-0.18637507484615848,0.8470044196788249,-0.531406873191953,-0.7060670494225615,0.12698113679473372,-2.75508679311023,0.5219541041488631,1
323,2024-09-26 21:19:12.736582031,0,019,-0.3942063910515577,-0.21939981416025983,1.2598806664264106,-0.5633892585008419,-0.8307468599969711,0.14548033347314984,-2.6327826907004517,0.4912231942949234,1
324,2024-09-26 21:19:12.794604004,0,019,-0.2951398568075469,-0.2508685268989572,1.6875876251076674,-0.5873241207188677,-0.9629130517227542,0.16639207983614532,-2.4488975637706893,0.4512134604896682,1
325,2024-09-26 21:19:12.855645996,0,019,-0.19711617013160998,-0.2798054233112205,2.1111505695302797,-0.6021282960613487,-1.1016762155822888,0.1893104137050966,-2.2237300053301223,0.40724777492302816,1
326,2024-09-26 21:19:12.933309082,0,019,-0.1037055112072429,-0.3053772134543485,2.508462629805506,-0.6069668397032661,-1.2451719859988033,0.2136727527357354,-1.9808854336742745,0.3646931663253049,1
327,2024-09-26 21:19:13.885694092,0,019,-0.01823585215346913,-0.3269623740708249,2.856129710655721,-0.601391644580918,-1.3904928811027433,0.2387920861368744,-1.7448904309748166,0.32846645626330434,1
328,2024-09-26 21:19:13.947690918,0,019,0.0564846987964677,-0.34419578500355735,3.1316724707779824,-0.5854631631080733,-1.5338036384527487,0.2639000495875003,-1.5387635183927377,0.302624117639626,1
329,2024-09-26 21:19:14.019825928,0,019,0.11831533423370132,-0.3569729993659268,3.31600745624413,-0.559838005864655,-1.670593278003086,0.28819297362352375,-1.3818493771418257,0.29004815605105044,1
330,2024-09-26 21:19:14.071420898,0,019,0.16582243190194254,-0.36541384251100095,3.3961117455409093,-0.5258434538359954,-1.7960096092997826,0.3108764708640571,-1.2882265946418283,0.292227661107864,1
331,2024-09-26 21:19:14.153424072,0,019,0.19825645713821305,-0.36980135482604665,3.367303747478851,-0.485496350461115,-1.9052474117396134,0.33120485912871817,-1.265961525508111,0.30916630752363233,1
332,2024-09-26 21:19:14.210267090,0,019,0.21549197950079943,-0.37051095741498424,3.2342785104013,-0.4413721838077248,-1.9939750378500092,0.3485163026996835,-1.317215739569063,0.33944435504676307,1
333,2024-09-26 21:19:14.287040039,0,019,0.21795763793550765,-0.36793918507372503,3.0102562277748164,-0.3962578555339356,-2.058734592037291,0.3622637752799223,-1.438863138812651,0.3804059493769912,1
334,2024-09-26 21:19:15.236233887,0,019,0.20656675838860555,-0.3624457525917197,2.714340608684505,-0.35262521122589113,-2.0972204476855727,0.3720358934494057,-1.6231611827060808,0.42840048380518325,1
335,2024-09-26 21:19:15.303044922,0,019,0.18264278191825511,-0.354327599002687,2.3680163717956315,-0.31209739157253213,-2.108414471741641,0.37756483312199884,-1.8581250913110983,0.4790078075199534,1
336,2024-09-26 21:19:15.366871094,0,019,0.1478624671569361,-0.3438332043718952,1.9919035646382743,-0.2751144392601467,-2.0926309729190216,0.3787296772841499,-2.12739711235263,0.5271982800227578,1
337,2024-09-26 21:19:15.436641846,0,019,0.10425424555688373,-0.3312057398467733,1.6034008969988789,-0.24089015384311022,-2.0514978678628464,0.3755651750637539,-2.4097497169247566,0.5674341695694413,1
338,2024-09-26 21:19:15.503429932,0,019,0.0542331266862097,-0.3167324721677989,1.2153471241842788,-0.20762219794203476,-1.9878415279863888,0.36827330068232544,-2.6788639447113436,0.5938043943640019,1
339,2024-09-26 21:19:15.570226074,0,019,0.0005959486939051146,-0.30077826214021336,0.8355875098566332,-0.1728786322521296,-1.9054335116529477,0.3572234150222243,-2.9041303315029814,0.6003136512173595,1
340,2024-09-26 21:19:15.629105957,0,019,-0.05356522949238895,-0.28378963643534805,0.4672424870844696,-0.13409951930091546,-1.808591399165492,0.3429284039893122,-3.0528257548456343,0.5813743996026405,1
341,2024-09-26 21:19:16.582396973,0,019,-0.10498089355685322,-0.2662735370533868,0.1094905112161373,-0.08914794630124381,-1.701676710412071,0.3259950408832432,-3.0935445077121284,0.5324474565621659,1
342,2024-09-26 21:19:16.644847900,0,019,-0.15028908192845133,-0.2487652015542175,-0.24126075065904293,-0.03681746167702361,-1.5885699503627695,0.3070577986854535,-3.0003363855145557,0.450703487138587,1
343,2024-09-26 21:19:16.720300049,0,019,-0.1861282485462162,-0.23178750329306094,-0.5899434030249501,0.02280825993509421,-1.4722142242206995,0.28671133734592613,-2.756665674708631,0.3355480268953229,1
344,2024-09-26 21:19:16.783971191,0,019,-0.2093437058988179,-0.21579511072462865,-0.9414154205779748,0.08824109823920784,-1.354338638725515,0.2654587319437874,-2.3582762055360305,0.1888914877772683,1
345,2024-09-26 21:19:16.845978027,0,019,-0.2173232408157782,-0.20111338718333288,-1.2995939621766253,0.15681212663209795,-1.2354690251352936,0.24368967612955506,-1.8143702906431785,0.015132428060679036,1
346,2024-09-26 21:19:16.907493164,0,019,-0.2083502701737699,-0.18789725388652215,-1.6676442064722456,0.22527004749259694,-1.1152284643469175,0.22169108244547184,-1.147053405275561,-0.17909881927816224,1
347,2024-09-26 21:19:16.987126221,0,019,-0.18185622343624078,-0.17612460164198085,-2.0490535108696237,0.29061049676507994,-0.9927939953904434,0.19967842804058572,-0.3894767993084958,-0.38535412128914803,1
348,2024-09-26 21:19:17.931852051,0,019,-0.13853406708368085,-0.16561787061636868,-2.448611660364371,0.3508029101518604,-0.8673392584690115,0.17783059349473015,0.41687227579910796,-0.5938885542688719,1
349,2024-09-26 21:19:17.993444824,0,019,-0.08032333989515107,-0.15607683870338687,-2.8723300410803665,0.4051080971055845,-0.7383491918191318,0.15631277847489763,1.2255128682211835,-0.7942894720441018,1
350,2024-09-26 21:19:18.070030029,0,019,-0.010281678444213339,-0.14710543545944132,-3.326131797116667,0.45392261836932063,-0.6057790638150842,0.13528140492071064,1.98865956319933,-0.9762042580607322,1
351,2024-09-26 21:19:18.136594971,0,019,0.06763831756396275,-0.1382232539007335,-3.813894128380006,0.49832728212089245,-0.47010971968919385,0.11487994318862763,2.66089147220335,-1.1301123908782595,1
352,2024-09-26 21:19:18.197606201,0,019,0.14889338270342636,-0.12887293261733795,-4.3355653595827315,0.539586943211773,-0.33236860203265145,0.09523970580369723,3.202687374294879,-1.2480717615410717,1
353,2024-09-26 21:19:18.270458008,0,019,0.22873717787214337,-0.11845169043759297,-4.885793314273942,0.5787707957551272,-0.19412228579447516,0.07648930673109874,3.583749723676288,-1.3243625590404509,1
354,2024-09-26 21:19:18.333198975,0,019,0.30267558029354985,-0.10638093706465052,-5.453335188329958,0.6165611258206809,-0.05740046754573094,0.05876748213294685,3.7856139153627586,-1.3559430117084195,1
355,2024-09-26 21:19:19.286467041,0,019,0.36692867037851934,-0.0921961310997371,-6.021487407601767,0.6532408734799426,0.0754278519666254,0.04223677720656984,3.8028657560616073,-1.342650567631229,1
356,2024-09-26 21:19:19.341200195,0,019,0.4188260342734064,-0.07562886783389317,-6.569475848133855,0.6887936681860911,0.20174887753623724,0.02709723008152115,3.642757731323313,-1.287127334980226,1
357,2024-09-26 21:19:19.418391846,0,019,0.4570821475550578,-0.056661660713718684,-7.074406292091918,0.7230518686259829,0.3187765709304584,0.013589475002313231,3.323557260903743,-1.1944964276329637,1
358,2024-09-26 21:19:19.480417969,0,019,0.481902253520063,-0.03553996470801885,-7.513470380154819,0.7558754128293261,0.42370026248761217,0.00197356073860059,2.872021377188594,-1.0718430837249375,1
359,2024-09-26 21:19:19.542407959,0,019,0.49486897653534434,-0.01273308076026076,-7.866312997897157,0.7873509998745504,0.5139299782008466,-0.0075128492221350615,2.320240707354591,-0.9275575967538982,1
360,2024-09-26 21:19:19.620048096,0,019,0.49860803034358675,0.01114523208675587,-8.117342351645192,0.8179557336699844,0.5873580770286321,-0.014698092718628769,1.702202937124207,-0.7706090282182356,1
361,2024-09-26 21:19:19.681704102,0,019,0.4963239686485993,0.035427524330990987,-8.257547012385572,0.8486085668922468,0.6425710972842356,-0.019509404907611282,1.050600759580649,-0.6098310641922052,1
362,2024-09-26 21:19:20.632956055,0,019,0.4913624500672482,0.05946072554132335,-8.285443853774598,0.8805779680349679,0.6789878213670087,-0.021994127884325004,0.39434786440814384,-0.4532885867458124,1
363,2024-09-26 21:19:20.694969971,0,019,0.48693266369423244,0.08262962533496404,-8.207195493305248,0.9152994919014389,0.6969068237790716,-0.022329861208692396,-0.24292023176859848,-0.307786039623739,1
364,2024-09-26 21:19:20.769344971,0,019,0.4860262083798479,0.1043400434490241,-8.036224175144982,0.9541807345812476,0.6974773677515729,-0.020822026706415257,-0.8434423616695905,-0.178553397621342,1
365,2024-09-26 21:19:20.833772949,0,019,0.491454533018585,0.12398899652390138,-7.792154210352517,0.9983565455518187,0.6826363369182505,-0.017887361607173566,-1.395590789441569,-0.06906168425255575,1
366,2024-09-26 21:19:20.895400879,0,019,0.5058626069489319,0.1409529070250998,-7.498439234129263,1.0482833719929023,0.655033664949339,-0.01402275697470067,-1.89430789839006,0.01911343219687521,1
367,2024-09-26 21:19:20.969672852,0,019,0.5316107146859685,0.1546093530405905,-7.178809137428502,1.103231610882444,0.6179447061147777,-0.009761926944791319,-2.341453972433853,0.0863579738560739,1
368,2024-09-26 21:19:21.036482178,0,019,0.5705074810771287,0.16438742251456492,-6.853700951362656,1.160943016516099,0.5751537431450408,-0.005626951461962285,-2.7452132282807646,0.134893582637514,1
369,2024-09-26 21:19:21.962163818,0,019,0.6234528104090744,0.16983007172177517,-6.537590393302666,1.2176515507117818,0.530761940890077,-0.0020817534287397763,-3.118090777326935,0.1683972661831511,1
370,2024-09-26 21:19:22.023270996,0,019,0.690106771545717,0.17064999522369645,-6.237327010051583,1.2684159167492444,0.4888739184219249,0.0005086877530486074,-3.473942344759768,0.19144531314798685,1
371,2024-09-26 21:19:22.095753906,0,019,0.7687206896787685,0.16676542843854542,-5.951448135646554,1.3075936237911567,0.4531899808353456,0.0019085567293291117,-3.8248996347815964,0.2088937787947862,1
372,2024-09-26 21:19:22.153451904,0,019,0.8562123089804355,0.15831227742736076,-5.6707241432791715,1.329357060553045,0.42660839638505316,0.002023532082249863,-4.178821013863378,0.22525756711888625,1
373,2024-09-26 21:19:22.215938965,0,019,0.9484774747451593,0.1456377202951028,-5.380166401212244,1.3282418775633604,0.4109344286940559,0.0008945368429105642,-4.5377066921286495,0.24417277604117302,1
374,2024-09-26 21:19:22.294045898,0,019,1.0408623410735152,0.12928146076933644,-5.0623397996817845,1.2997330345361364,0.40671704711557005,-0.001317127100623042,-4.897428461233336,0.26806416668410515,1
375,2024-09-26 21:19:22.362906982,0,019,1.1286938929627781,0.10994577902514073,-4.701214748454993,1.2408462557064488,0.4132003726780579,-0.004346998182615152,-5.24861662168779,0.29804380116934,1
376,2024-09-26 21:19:23.279974121,0,019,1.2077729896898153,0.0884541074053518,-4.285391659804688,1.1506053793622035,0.4284038022904528,-0.007853300879389404,-5.578089071156121,0.33396807205018264,1
377,2024-09-26 21:19:23.341891113,0,019,1.2747413408641826,0.06570360051123583,-3.80984311261601,1.0303095337237675,0.44933229301141975,-0.0114546880581192,-5.87044038408709,0.3746161780297261,1
378,2024-09-26 21:19:23.420568115,0,019,1.327255356859903,0.04261921435640314,-3.2760634391761325,0.8835143911410305,0.47226876451554284,-0.014769696752213598,-6.109748914401054,0.41797773627449264,1
379,2024-09-26 21:19:23.481191895,0,019,1.3639628001753905,0.020110601491077396,-2.691035084300468,0.7157041931968368,0.4931030434409084,-0.017447525664895245,-6.28129288207882,0.46157724795982463,1
380,2024-09-26 21:19:23.554155029,0,019,1.3843380223399882,-0.0009679533074509577,-2.0656479315618377,0.5337354601089676,0.5076741328036312,-0.0191874445198825,-6.373049478520417,0.5027473041633694,1
381,2024-09-26 21:19:23.620963135,0,019,1.3884402338821598,-0.019845868129895215,-1.41328215548157,0.34522551762828346,0.5120953008438682,-0.01974448859351994,-6.376805128512438,0.5388207423881402,1
382,2024-09-26 21:19:23.683027100,0,019,1.3766375441530496,-0.03584336710694023,-0.7490111150813367,0.15802973004491833,0.5030528286115195,-0.018924098499045743,-6.288770806063718,0.5672656481645673,1
383,2024-09-26 21:19:24.637566162,0,019,1.349333589088652,-0.048362313973252455,-0.08937937141676948,-0.020161359192251482,0.4780998399757015,-0.01658269697433562,-6.109609925393427,0.5858036552958317,1
384,2024-09-26 21:19:24.704340088,0,019,1.3067571669747697,-0.05687818133899421,0.5475610503441103,-0.18213682702888462,0.4359154750507935,-0.01264708854383609,-5.843827542213604,0.5925264488092752,1
385,2024-09-26 21:19:24.763600098,0,019,1.2488787195227216,-0.06094471015138576,1.142292176547913,-0.32141832534354475,0.37643892581185306,-0.0071399448546953645,-5.498629434931729,0.5859828203300612,1
386,2024-09-26 21:19:24.837944092,0,019,1.1754646506338466,-0.060207988258354224,1.6742679244952179,-0.43246993172925785,0.3008384208409483,-0.00018987301175020047,-5.082567956731947,0.5652018897162489,1
387,2024-09-26 21:19:24.904434082,0,019,1.0862284694232764,-0.05442435516905557,2.122838634222962,-0.510873878197338,0.21137455843960767,0.007976509707335698,-4.604280087332349,0.5296376670231283,1
388,2024-09-26 21:19:24.966003906,0,019,0.9810268040344969,-0.04348330238174686,2.468443598424073,-0.5534683066493645,0.11124897041853665,0.017047832158275236,-4.071551442560655,0.4790701612603907,1
389,2024-09-26 21:19:25.028489014,0,019,0.8600581928048889,-0.027434133828329252,2.693896011942043,-0.5584554390838865,0.004482725481753652,0.02663941053893368,-3.4911865894097898,0.41359263818710557,1
390,2024-09-26 21:19:25.987190918,0,019,0.7240474986450204,-0.006508065065141389,2.7857683391883334,-0.5254843801084689,-0.10421207875342392,0.03630687492108391,-2.8701199998052958,0.33379592241476913,1
391,2024-09-26 21:19:26.045058105,0,019,0.5744120323812261,0.01887251966842124,2.7357881321791333,-0.4556804832040174,-0.20965239032568062,0.0455678378828299,-2.2173487711573348,0.24106811270485995,1
392,2024-09-26 21:19:26.112674072,0,019,0.41339090809637,0.048100656292469755,2.5420030802475457,-0.3516130068635547,-0.30653527082275334,0.05393436380149316,-1.5456212073354998,0.13781900989965207,1
393,2024-09-26 21:19:26.187624023,0,019,0.24412889602041293,0.08040284629110354,2.2096437428920988,-0.21725851604959312,-0.3898601920869455,0.06095667381032074,-0.8720597947850232,0.027517968121504928,1
394,2024-09-26 21:19:26.246686035,0,019,0.07072700477407784,0.11485921528770283,1.7518220426390785,-0.05800711348958941,-0.45531761352191435,0.06627260421586517,-0.21744719405423305,-0.08547549674093781,1
395,2024-09-26 21:19:26.308217041,0,019,-0.10177166923274719,0.15042249559405513,1.1900282526651922,0.11934382550361218,-0.4995757234267834,0.06965041833027802,0.3955384948876655,-0.1962532983021393,1
396,2024-09-26 21:19:26.385847900,0,019,-0.26754305774677334,0.18594340305016757,0.5540774030706461,0.30672027997083345,-0.5204581004312948,0.07101507919454285,0.9444380447382609,-0.2997786779303727,1
397,2024-09-26 21:19:27.324672852,0,019,-0.4203257237266587,0.22020894260140822,-0.11886753926336602,0.495084716253208,-0.5170452380941432,0.07045736012974228,1.4089872379465591,-0.39129581809137864,1
398,2024-09-26 21:19:27.403911133,0,019,-0.5539071239259427,0.2519931098651946,-0.7863562703014588,0.6749103275611165,-0.48974567755922177,0.06822984353092794,1.7729877582918163,-0.4667032209999111,1
399,2024-09-26 21:19:27.464404053,0,019,-0.6626996528468717,0.2801212409011979,-1.403680549532432,0.8367641256533043,-0.4403664909488909,0.06473325650248006,2.02616500200241,-0.5228944200326657,1
400,2024-09-26 21:19:27.537471924,0,019,-0.742337598055116,0.30355025491569365,-1.9274557647451591,0.9719499336077537,-0.3721578855316373,0.06049383219022921,2.165813523849004,-0.5580545220373316,1
401,2024-09-26 21:19:27.603754150,0,019,-0.790168335106191,0.32145615415887796,-2.3192183540531217,1.073157511674192,-0.28974741142032207,0.05612738864181083,2.1977981615753124,-0.5718575515194718,1
402,2024-09-26 21:19:27.671031981,0,019,-0.8055016494850288,0.3333075171967005,-2.5486969881337735,1.1350440099866048,-0.1988897135358221,0.05228563962171159,2.1364280248275618,-0.5654752171700486,1
403,2024-09-26 21:19:27.727868164,0,019,-0.789576936715616,0.3389052645714481,-2.5965354510182994,1.1546565922479686,-0.10602278090634787,0.049589672443848834,2.002997944746921,-0.5413603900137419,1
404,2024-09-26 21:19:28.687275879,0,019,-0.7453358858020317,0.3383873911483862,-2.4560623094076637,1.1316147343392073,-0.01767827634097916,0.048564945809556406,1.8232090161200945,-0.502869916943439,1
405,2024-09-26 21:19:28.747561035,0,019,-0.6771218785325058,0.3322131994708943,-2.133723454658142,1.0680365944978572,0.06015177281191873,0.049591374732315036,1.6239461467509175,-0.45384129798780387,1
406,2024-09-26 21:19:28.809153076,0,019,-0.5903498100209392,0.3211369153059914,-1.6482636703332247,0.968273967892323,0.12255011242645618,0.05287407407380512,1.4301095444927798,-0.398234192652353,1
407,2024-09-26 21:19:28.887655029,0,019,-0.49112903520687534,0.30616741550452903,-1.0290537332038159,0.8385224799715547,0.16599709415961822,0.05843661399084527,1.2622193556841197,-0.3398996212475777,1
408,2024-09-26 21:19:28.954437012,0,019,-0.385851755781563,0.2885091034783058,-0.31381704889448164,0.686330234417465,0.18845816421014577,0.06613723795141738,1.1351127551279871,-0.28246007940314616,1
409,2024-09-26 21:19:29.021253174,0,019,-0.28080115074047635,0.2694858387553105,0.4540996363331778,0.5200374586429032,0.18931942076376826,0.07569697989984762,1.0575545291791268,-0.22923909078580337,1
410,2024-09-26 21:19:29.086898926,0,019,-0.18181649785056828,0.25045278165395274,1.228588681941153,0.3482151844985463,0.16929321590936222,0.08672120965210528,1.0323065171997723,-0.18317861620913256,1
411,2024-09-26 21:19:30.037560059,0,019,-0.09400419059605222,0.23270022566235182,1.9633253224254406,0.1791567603429739,0.13032901648974696,0.09871427193433167,1.0562355762199185,-0.14669687278284954,1
412,2024-09-26 21:19:30.098560059,0,019,-0.021458234306523025,0.217353972081992,2.613822530497128,0.02042919514989236,0.07546066784493789,0.11110575020693673,1.1204409035662128,-0.12149343983590741,1
413,2024-09-26 21:19:30.171147949,0,019,0.033028023193185096,0.20527722004578566,3.1393194350612013,-0.12152550016757432,0.008557681114035336,0.12329293550014875,1.2108809010644626,-0.10839829501941198,1
414,2024-09-26 21:19:30.237803955,0,019,0.06823534115361922,0.19698135371151798,3.5049321020085813,-0.24172380495037235,-0.06594182370857836,0.13468109795693303,1.3099752122870798,-0.10737330872615122,1
415,2024-09-26 21:19:30.304742188,0,019,0.08471368355746564,0.19256350033508504,3.684063985906355,-0.3368527512098949,-0.14325447198782862,0.14471105355991334,1.3990003123179104,-0.1176595253601323,1
416,2024-09-26 21:19:30.361829102,0,019,0.08480553521991448,0.1916980103811069,3.6605897128022833,-0.4052933176250649,-0.21848714414829457,0.15288606305578906,1.460611141352962,-0.13798090985777958,1
417,2024-09-26 21:19:30.438335938,0,019,0.07241909697157199,0.19369696831744299,3.4303208837889088,-0.4469662852464663,-0.2869519506661114,0.15880775752904358,1.481060489339937,-0.16676281130150364,1
418,2024-09-26 21:19:31.387598877,0,019,0.0525640834715315,0.19762654881358224,3.0015655741276626,-0.46310286173551757,-0.34450884064923293,0.16221009681881512,1.4519678319508356,-0.2023580872071332,1
419,2024-09-26 21:19:31.453870117,0,019,0.03075497329799815,0.20245085000646737,2.394535902333216,-0.4559916607306992,-0.3878154805616152,0.16297429426656773,1.3714368458965045,-0.24323829521472365,1
420,2024-09-26 21:19:31.515557129,0,019,0.012389406942489387,0.20717880944696546,1.6392207486320887,-0.4286543582500159,-0.41443393507241993,0.16112090289334285,1.2443780206720132,-0.288101593146955,1
421,2024-09-26 21:19:31.587987793,0,019,0.0021650456884383666,0.21099200815651908,0.7719921243869836,-0.38445390977096916,-0.4228595468935687,0.1567898779759075,1.0819655400331867,-0.33586503583215355,1
422,2024-09-26 21:19:31.654775879,0,019,0.003592541994958166,0.21332713313385132,-0.16790402934992427,-0.3267508634801646,-0.41255656424914905,0.15022157303586572,0.9000616189365048,-0.3855200335020841,1
423,2024-09-26 21:19:31.721556885,0,019,0.018678301785519703,0.21389433080688472,-1.140986256531346,-0.2586997942012223,-0.3839783406522522,0.14173892921779693,0.716612125164658,-0.4358903790073402,1
424,2024-09-26 21:19:31.778364014,0,019,0.04781288224273363,0.2126397177712477,-2.109265716014389,-0.18317824773916042,-0.338478195014704,0.13172083671581705,0.548557710628027,-0.4854093383146486,1
425,2024-09-26 21:19:32.712458984,0,019,0.08983039011997931,0.20968689806231333,-3.0375229859433475,-0.1028134050641354,-0.27810605663926974,0.12056762319464079,0.4091304196200106,-0.5320315614046807,1
426,2024-09-26 21:19:32.779264893,0,019,0.1421874399421845,0.20529208784890807,-3.894442147168258,-0.020075622374687976,-0.20540398622792616,0.1086758811686365,0.30614321492935015,-0.5733170422820841,1
427,2024-09-26 21:19:32.846066895,0,019,0.201226975955053,0.19982499114339358,-4.6536758632052795,0.06262982701496778,-0.12329612185196391,0.0964347414169681,0.24143033424717078,-0.6066485594602553,1
428,2024-09-26 21:19:32.904800049,0,019,0.2624992340008291,0.19376601263788282,-5.294719696801077,0.14294158286782013,-0.035072978060197324,0.08423918753880412,0.21138674521767384,-0.6295228743628483,1
429,2024-09-26 21:19:32.979665039,0,019,0.3211543800472591,0.18769628769950658,-5.803335679197194,0.21858512385391926,0.05558148545451986,0.07251097254059165,0.208444089405653,-0.6398676745270049,1
430,2024-09-26 21:19:33.043590088,0,019,0.37245812840673287,0.18225355892989933,-6.171398371216892,0.2874189592454592,0.14457973625233764,0.06171870379558827,0.2232150859630587,-0.6363476859754784,1
431,2024-09-26 21:19:33.105667969,0,019,0.41240192871917936,0.1780460625605583,-6.396349391885942,0.34744553663870664,0.22749899839284787,0.05238385676430384,0.24696583804675062,-0.618623344633047,1
432,2024-09-26 21:19:34.035339111,0,019,0.4382515376779586,0.17554950833302135,-6.480658859361847,0.39681975319052953,0.29976852784287966,0.045060029705933854,0.2739044970080494,-0.5875060243118252,1
433,2024-09-26 21:19:34.097394043,0,019,0.44885845690516074,0.17502831573826835,-6.431583347427121,0.43393472165101843,0.3569709183456309,0.04028664441963929,0.30261561074626075,-0.5449361921091286,1
434,2024-09-26 21:19:34.158958984,0,019,0.4446506315928005,0.17650899202988937,-6.26103256650652,0.45760583883390393,0.3952131337633726,0.0385301404119699,0.3361735288709741,-0.4937541407832216,1
435,2024-09-26 21:19:34.235681152,0,019,0.427335509678617,0.17980715224963037,-5.9850204493762025,0.4672648783654469,0.4114880684585367,0.040127987697327755,0.38107496163067356,-0.43734348174235044,1
436,2024-09-26 21:19:34.298324219,0,019,0.3994417699640109,0.18458938785067183,-5.622550120408621,0.4630778490305785,0.4039358912587642,0.045250045850267026,0.445594198397138,-0.37929415068632727,1
437,2024-09-26 21:19:34.372263916,0,019,0.36386200848132827,0.1904440234680583,-5.194415405532184,0.4460015076700045,0.3719688775286073,0.053884089208932194,0.5379947212909022,-0.32316260183575996,1
438,2024-09-26 21:19:34.437120117,0,019,0.32351851249620767,0.1969402329616731,-4.722371845301954,0.41780359522996796,0.31628498192105214,0.06584038708574314,0.664628752245526,-0.2722812903957471,1
439,2024-09-26 21:19:35.386910889,0,019,0.28118245212143217,0.20366922388959463,-4.228589073098279,0.3809889088713771,0.23879755793652815,0.0807684381510585,0.8279888136855307,-0.22953777487147295,1
440,2024-09-26 21:19:35.448936035,0,019,0.23938406822236744,0.21027384073584499,-3.7350177564931166,0.3385766291762933,0.14250337466632393,0.0981825642960335,1.025105806531116,-0.1971208066473488,1
441,2024-09-26 21:19:35.521330078,0,019,0.20032524791089298,0.2164714651541203,-3.262380510435095,0.29376716034313577,0.03131887751730276,0.11749243269737147,1.2467749474464944,-0.17629984926718503,1
442,2024-09-26 21:19:35.588165039,0,019,0.16576971178530028,0.22206349671622283,-2.8287654841918757,0.24959074683584057,-0.09011657233554841,0.1380369689901462,1.477893039647738,-0.16731080174205937,1
443,2024-09-26 21:19:35.649820068,0,019,0.13695656279076052,0.22692076292171096,-2.448185875041334,0.20862171986463304,-0.21671995589839627,0.15912483966256627,1.6989370256144105,-0.16939430923510235,1
444,2024-09-26 21:19:35.711430176,0,019,0.11458919771330488,0.23094293632852675,-2.1296111844322754,0.17280929402703715,-0.34336457122407443,0.18008063839954763,1.8882832637927107,-0.18097771248215183,1
445,2024-09-26 21:19:35.788454102,0,019,0.09892658791117959,0.2340019645119478,-1.876714567917121,0.1434268471087247,-0.46535741738855263,0.20028790741243793,2.024758903341778,-0.19992876195164902,1
446,2024-09-26 21:19:36.737662109,0,019,0.0899721861370237,0.23588765474017348,-1.6882666055748323,0.12109695394311276,-0.5788657401276238,0.21921923033855847,2.089909249231265,-0.22380482106365507,1
447,2024-09-26 21:19:36.789397949,0,019,0.08770112195955951,0.23627651765871957,-1.5590388078525699,0.10585356673835422,-0.6811593325088102,0.23644803052365268,2.0699113183746634,-0.2500819106765249,1
448,2024-09-26 21:19:36.871256104,0,019,0.09221688076997499,0.2347430329829909,-1.4811147725091507,0.09724161071997753,-0.7706284730571975,0.2516431032974546,1.9572404758993371,-0.27638678683876805,1
449,2024-09-26 21:19:36.938050049,0,019,0.10374273040247557,0.23082172380035523,-1.4454136485414195,0.09446157097214658,-0.8466367942587883,0.2645537062787902,1.7518347988153211,-0.30070465044385974,1
450,2024-09-26 21:19:36.990305908,0,019,0.12244434915125259,0.2241058342719476,-1.4430960255597682,0.0965341235699553,-0.9092795191148816,0.2749918592591563,1.4611801811359246,-0.32146715855150243,1
451,2024-09-26 21:19:37.068283936,0,019,0.14817215995339475,0.21435067676581937,-1.4665762767660915,0.10245598046639129,-0.9590734451225109,0.2828105204747405,1.0990484386656842,-0.3374683955958968,1
452,2024-09-26 21:19:37.138406006,0,019,0.18021950940212922,0.20155638836016504,-1.5101532636722925,0.11136492927078365,-0.9965964710039973,0.2878774385015962,0.6833514452542224,-0.34769459426764276,1
453,2024-09-26 21:19:38.086765137,0,019,0.21715392927076663,0.1860211421333483,-1.570500383000693,0.12273816112085102,-1.022141465493712,0.2900549935545835,0.23406320822301063,-0.3512374210416665,1
454,2024-09-26 21:19:38.146840088,0,019,0.2567661108317491,0.1683581796513025,-1.647158106640229,0.13659415951560283,-1.0354869460986338,0.2891973317468063,-0.2279377854351781,-0.3474102460187445,1
455,2024-09-26 21:19:38.206963135,0,019,0.2961714625366914,0.14946865948186555,-1.7428909782403212,0.1536520919717426,-1.035859813383825,0.28516636302371895,-0.6808229213456776,-0.33605673716918305,1
456,2024-09-26 21:19:38.284607910,0,019,0.3320554856428831,0.1304724687253264,-1.8635383481693728,0.17539349160503373,-1.0221073473093707,0.27786409230664677,-1.1010705424075256,-0.31791185970748825,1
457,2024-09-26 21:19:38.346695801,0,019,0.36099965552116614,0.11260957195341173,-2.016994433809592,0.2039188869298817,-0.9930439839104551,0.2672777178438729,-1.4631177303084875,-0.2948117809435573,1
458,2024-09-26 21:19:38.420685059,0,019,0.3798067608097496,0.09712518393266681,-2.211322243626999,0.24152609566022334,-0.9478675491435206,0.25352505775025236,-1.7403700418952253,-0.2696022892729872,1
459,2024-09-26 21:19:38.487548096,0,019,0.3857823244176168,0.08515059883962105,-2.4525253226649846,0.2901041021784019,-0.8864852901611914,0.2368827268766622,-1.9077095443630454,-0.24574145984879828,1
460,2024-09-26 21:19:39.436184814,0,019,0.37696849592238546,0.07759247529262898,-2.742832099854994,0.3505784137538004,-0.8096443552803975,0.21778793665320303,-1.9447234517388563,-0.22673227338574134,1
461,2024-09-26 21:19:39.503606934,0,019,0.3523178432924328,0.07504302718614402,-3.080114897815445,0.4226142118878628,-0.7188861153936518,0.19681375142901994,-1.8385694557024863,-0.21555644549311637,1
462,2024-09-26 21:19:39.559791992,0,019,0.3117739334524771,0.07772173061185399,-3.4582012264208446,0.5045986375873267,-0.6164107190060854,0.17462112071824987,-1.5858788146897698,-0.21421604270312541,1
463,2024-09-26 21:19:39.637115967,0,019,0.256241611287658,0.08545684873044897,-3.867186197970772,0.593774126926908,-0.5049156124223985,0.1518961732430048,-1.1936558341404997,-0.2234365867093606,1
464,2024-09-26 21:19:39.703892090,0,019,0.1874681735147223,0.09770875839117271,-4.293147174952297,0.6864227173918498,-0.3874280068926611,0.12928679044888258,-0.679195424779079,-0.24257322425062483,1
465,2024-09-26 21:19:39.759984863,0,019,0.10787904522406568,0.11362860046117983,-4.7174735889383195,0.7781002902586777,-0.26715254127817945,0.10735423418565625,-0.06888412253810317,-0.2697277780531749,1
466,2024-09-26 21:19:39.822781982,0,019,0.020401301326538484,0.132142942255802,-5.1165932111451795,0.8639449599522644,-0.14736710266765243,0.08654959266404694,0.6042494337927927,-0.30205165501161046,1
467,2024-09-26 21:19:40.782300049,0,019,-0.07171155073659374,0.1520548789761368,-5.462839944142614,0.9390585619447555,-0.03135587510140304,0.06721070337993303,1.3039497824777457,-0.3361815383098336,1
468,2024-09-26 21:19:40.844357910,0,019,-0.16505083928801925,0.17214866325445682,-5.726698983949199,0.9989503740858562,0.0776641944041952,0.0495686940597993,1.9942064624152245,-0.36868976068853504,1
469,2024-09-26 21:19:40.906418945,0,019,-0.25623533130002396,0.19128513242586023,-5.880084515081079,1.0400242163984246,0.1766361890098741,0.033759802186842554,2.641959405203007,-0.3964318153622259,1
470,2024-09-26 21:19:40.987298096,0,019,-0.34212227288384633,0.20848076295058487,-5.89982526454344,1.060037347327162,0.2627719978515632,0.019842677204264744,3.219028750571066,-0.41679894663307776,1
471,2024-09-26 21:19:41.045205078,0,019,-0.42002541882665406,0.22296890206121106,-5.770233488335538,1.0583695858477522,0.3336757605836678,0.007821266920621373,3.703608399234889,-0.427953781853298,1
472,2024-09-26 21:19:41.106792969,0,019,-0.48789424729633984,0.2342456503380957,-5.483870813026713,1.0359324833363772,0.38744883678559083,-0.002326689523055101,4.081287524319095,-0.42904679224709014,1
473,2024-09-26 21:19:41.187657227,0,019,-0.5444110098895139,0.24209699399041504,-5.040535392109422,0.9947271505791995,0.4227340371064655,-0.010619707355659678,4.345393497875299,-0.42034102463675904,1
474,2024-09-26 21:19:42.122034912,0,019,-0.5889542720256605,0.24658853934279362,-4.445393690159434,0.9372814854563869,0.43871498374946327,-0.017052514852304593,4.496717258029571,-0.4032096597379992,1
475,2024-09-26 21:19:42.203790039,0,019,-0.6214064270557993,0.24799955354492945,-3.707283951245513,0.8662097487225191,0.43514783481538205,-0.02159948794353625,4.542801164815895,-0.38001955791868225,1
476,2024-09-26 21:19:42.261601807,0,019,-0.6418818976040872,0.24671194246645747,-2.837823189654167,0.7839784062403173,0.4124861545903435,-0.02424646013737475,4.496812901300003,-0.35390360751712846,1
477,2024-09-26 21:19:42.323606934,0,019,-0.6505158873602203,0.24309552226809514,-1.8517060015051607,0.6928667731091368,0.3720684979594524,-0.025039986385569264,4.375900228050844,-0.3284037212647947,1
478,2024-09-26 21:19:42.400782227,0,019,-0.6473875502248743,0.2374310819573917,-0.7682132694635244,0.5951072195726798,0.3162557705314262,-0.02413269696162774,4.198895849821298,-0.3069790824937801,1
479,2024-09-26 21:19:42.462844971,0,019,-0.6325411835892671,0.229885064132158,0.38679831044947127,0.4931536105769232,0.248400913605032,-0.021805243341205968,3.983362953105173,-0.29241263857276817,1
480,2024-09-26 21:19:42.537825195,0,019,-0.6060559521672406,0.22052440773830864,1.5795947833880333,0.3899565936592597,0.17262897683445344,-0.01845943415428483,3.7423996348969415,-0.2862194953001753,1
481,2024-09-26 21:19:43.455541992,0,019,-0.5681703952978725,0.2093544826236897,2.76873911677198,0.28911414308674793,0.09354550291002166,-0.014596685042386585,3.48215120266249,-0.2882431099250195,1
482,2024-09-26 21:19:43.516827148,0,019,-0.5194476432520049,0.196365625684837,3.9067259255755773,0.19483984782747477,0.016024105768904843,-0.010801439776756135,3.201031246902818,-0.29661332002626034,1
483,2024-09-26 21:19:43.594470947,0,019,-0.4608868696707316,0.18157456970417118,4.942615712664046,0.11175772253009672,-0.054898354365668006,-0.007733765909299021,2.8909567312544477,-0.3080860694449232,1
484,2024-09-26 21:19:43.655920898,0,019,-0.3939156995741036,0.16505413542203418,5.825309154362102,0.044530988995938894,-0.1141103978545531,-0.006118542405688608,2.539975230878565,-0.3186097343660399,1
485,2024-09-26 21:19:43.728601074,0,019,-0.3203371323868542,0.14695754495834618,6.507188983837959,-0.002644240863834522,-0.15658875528798127,-0.006716706201000833,2.135421686592728,-0.32393657463710934,1
486,2024-09-26 21:19:43.795221924,0,019,-0.24234503040668065,0.12754458726254722,6.947834380133555,-0.026571258126422678,-0.1776586835408828,-0.010274294165680393,1.6672105182612027,-0.3202118309203996,1
487,2024-09-26 21:19:43.862144043,0,019,-0.16260117709326705,0.10720349465511754,7.117691347291822,-0.025499294751835034,-0.17332058185967647,-0.017455675755487395,1.1309338843457213,-0.3045225616721749,1
488,2024-09-26 21:19:44.812172119,0,019,-0.0842624336336571,0.08645552710960919,7.0014720890837285,0.0005540286923829493,-0.14060228884363488,-0.02876941858070799,0.5299138055326987,-0.27531216301282235,1
489,2024-09-26 21:19:44.878971191,0,019,-0.010868306265739749,0.06593358604326223,6.600516013474538,0.04961918455821677,-0.07792633252226978,-0.04449332724812033,-0.12448753121309852,-0.23255793671126285,1
490,2024-09-26 21:19:44.934135010,0,019,0.053920812741426793,0.04633072139188248,5.933404079288013,0.11776097454631909,0.01451064990567484,-0.06460719286570248,-0.8139126311707727,-0.17773148903367456,1
491,2024-09-26 21:19:45.012243896,0,019,0.10668457940392193,0.028322467592555724,5.034844460992526,0.19926839651186767,0.13439983968659044,-0.08874463475949314,-1.5143956714745617,-0.11364092088069741,1
492,2024-09-26 21:19:45.079344971,0,019,0.14462679286283553,0.012481504920157007,3.9531701016672427,0.28707831578913395,0.2771343728073715,-0.11617493398729299,-2.197655501756027,-0.044197816197950074,1
493,2024-09-26 21:19:45.146143066,0,019,0.16589137050219985,-0.0007878717251594997,2.7466987538112764,0.3734146839525208,0.4358924928978271,-0.1458236074548695,-2.8327800027106376,0.02593669939504882,1
494,2024-09-26 21:19:45.212918945,0,019,0.16972821793216333,-0.011274656081223664,1.4793363920342466,0.4505387175513709,0.6020590314836135,-0.17633725979291645,-3.3888751967620037,0.0918624245286406,1
495,2024-09-26 21:19:46.135725098,0,019,0.15651115238318966,-0.018946258806414866,0.21600345302532814,0.5114684321695866,0.7659778599101243,-0.2061940090635993,-3.838395900612107,0.14902942991604254,1
496,2024-09-26 21:19:46.197160889,0,019,0.12769966936022756,-0.023916010350515042,-0.9816140575439946,0.5505600730291176,0.9179428697068279,-0.23385474859862668,-4.160154286044098,0.19375149163952934,1
497,2024-09-26 21:19:46.269602051,0,019,0.08579502246955187,-0.026413680867015083,-2.0587635556766353,0.5639176757544564,1.049253045885114,-0.2579363615192076,-4.34125727336192,0.2235367948118893,1
498,2024-09-26 21:19:46.335444092,0,019,0.03422954763032283,-0.026759797166663837,-2.9707741215637298,0.5496573365636789,1.1531095571806516,-0.2773694975670044,-4.377895011002905,0.2372169277551461,1
499,2024-09-26 21:19:46.403163818,0,019,-0.022880019590088178,-0.025333917302929047,-3.6856227240794093,0.5080394869220647,1.2251739010991298,-0.2915023029688924,-4.275159925801204,0.23490099984218207,1
500,2024-09-26 21:19:46.459562012,0,019,-0.08110403326812618,-0.022531779537109657,-4.185649938950531,0.44143502915550675,1.263728531409525,-0.30013405061228393,-4.046023090261189,0.21780623561974938,1
501,2024-09-26 21:19:46.536730957,0,019,-0.1361333370820865,-0.018714307210243575,-4.467982106669131,0.3540864402908718,1.2694945823737531,-0.30348618419832635,-3.709628330075405,0.1880231261236692,1
502,2024-09-26 21:19:47.486092041,0,019,-0.18418589150367062,-0.01416204179755119,-4.543362425783278,0.2516559105115304,1.2452102384839043,-0.3021271098676807,-3.2891802688574785,0.1482398874803947,1
503,2024-09-26 21:19:47.538371094,0,019,-0.2222827134012525,-0.009057299937282843,-4.433627498343884,0.14061844230960713,1.1950966282949247,-0.29687128077604663,-2.8097560104952155,0.10142961716206099,1
504,2024-09-26 21:19:47.619663086,0,019,-0.24834762628612808,-0.003505326906553428,-4.168589435090008,0.027645478587212138,1.124347799638978,-0.28867740063033803,-2.2963810353327725,0.050557019398266116,1
505,2024-09-26 21:19:47.686537109,0,019,-0.26118935493857737,0.0024205150455319296,-3.782985837189507,-0.08089618747733131,1.0387211522498503,-0.27856252862662295,-1.7726513380004707,-0.0015931916709269129,1
506,2024-09-26 21:19:47.739365967,0,019,-0.2604498733973438,0.008634957805763935,-3.313638722250601,-0.17934302367703134,0.9442089728165158,-0.26753395278749786,-1.2599180773531067,-0.052434582450635106,1
507,2024-09-26 21:19:47.820003906,0,019,-0.2465454142168825,0.015011576563809392,-2.7968402943853667,-0.26308145183416587,0.8467343137892739,-0.2565353748090057,-0.7767346774404192,-0.09951881368732779,1
508,2024-09-26 21:19:47.879114014,0,019,-0.22058731533928366,0.02136947295671774,-2.2662718307004686,-0.3287833012066992,0.7518243565654547,-0.24640149886937557,-0.3383020586845043,-0.14048886184107956,1
509,2024-09-26 21:19:48.824146973,0,019,-0.1842643938130043,0.027473760100554644,-1.7517588893750344,-0.3744227223880662,0.6642423005818076,-0.23781168817925233,0.04396105398909716,-0.17308516354462325,1
510,2024-09-26 21:19:48.901779053,0,019,-0.13966426206803978,0.03304486727569984,-1.278680874370933,-0.39908262521640675,0.5876143761812974,-0.23124134440502966,0.3624053684660651,-0.19520283551394765,1
511,2024-09-26 21:19:48.969750977,0,019,-0.08904323117010733,0.037774998730242766,-0.8674041348486728,-0.40270544839121014,0.5241282479372696,-0.22692116842539173,0.6126769367663695,-0.20499125173523716,1
512,2024-09-26 21:19:49.036534180,0,019,-0.03461945287091231,0.04135800005260942,-0.5323109462137494,-0.38594779512944954,0.4743778955370315,-0.2248156351766172,0.7931463115863694,-0.20100130966330162,1
513,2024-09-26 21:19:49.103313965,0,019,0.02153500828070299,0.04353493242832197,-0.28076662528866886,-0.3501539788798452,0.43742673209573657,-0.2246324976777213,0.9046257482846457,-0.1823881320869268,1
514,2024-09-26 21:19:49.170110840,0,019,0.077510938003074,0.04414477291109329,-0.11283159732859967,-0.29733389000364935,0.411122515761201,-0.2258742620817849,0.9503740435316278,-0.149127187792553,1
515,2024-09-26 21:19:49.225874023,0,019,0.13157412548621075,0.043161334155757514,-0.022152988636487344,-0.23005009859849165,0.3925817277279498,-0.22792495371917243,0.9360743515208167,-0.10215623703106051,1
516,2024-09-26 21:19:50.185681152,0,019,0.18226500931988884,0.040695421331623356,0.002275642087826708,-0.15123802329514133,0.3786811998947105,-0.23014557883051945,0.8696544646429445,-0.043393577529077854,1
517,2024-09-26 21:19:50.253413818,0,019,0.22858795212281935,0.03695534361234005,-0.025834770475663356,-0.06404481965292445,0.36645959770458514,-0.23195575796784001,0.7610280282952457,0.024367696487999996,1
518,2024-09-26 21:19:50.309250000,0,019,0.2701641403097084,0.0321908165004164,-0.0916526660180219,0.02825599009555747,0.353443329324398,-0.23289717485021882,0.621641149014907,0.09769025889408667,1
519,2024-09-26 21:19:50.386864990,0,019,0.3072093622733186,0.026656655233706326,-0.1800698184056937,0.12223272249249127,0.33791288408483355,-0.23267873182927265,0.4635987549743168,0.1728315705722089,1
520,2024-09-26 21:19:50.453756104,0,019,0.3403343235010014,0.020602404806616497,-0.2755672807405714,0.21409455307925088,0.3190331643850148,-0.23119299052352962,0.29847499544011374,0.24612072939975432,1
521,2024-09-26 21:19:50.510288086,0,019,0.37028113442827043,0.014264806291623971,-0.36134368603152733,0.29934811748565965,0.29675303279458215,-0.22849295499761155,0.136321098853185,0.3142770729332739,1
522,2024-09-26 21:19:50.572323975,0,019,0.39770827316431806,0.007847408628516132,-0.41869446586778664,0.37252707974715377,0.27149825010856676,-0.2247362988541493,-0.014697422449031801,0.3746256962574832,1
523,2024-09-26 21:19:51.533441895,0,019,0.4230870987195625,0.0014928781235158705,-0.4277654621344044,0.427291698712014,0.2437994870264846,-0.22012183899772395,-0.14816693323310373,0.42524196116319507,1
524,2024-09-26 21:19:51.595001953,0,019,0.4467072110359455,-0.004737720427593894,-0.36992344467581967,0.4569996387286678,0.21400687432274948,-0.21484391991380022,-0.2592418046185492,0.46505862804934817,1
525,2024-09-26 21:19:51.669927979,0,019,0.4687019462269317,-0.010864205584211821,-0.23092482975444015,0.45557389674661775,0.18218891626121067,-0.2090765645801481,-0.344660577526675,0.49392349030783367,1
526,2024-09-26 21:19:51.736690918,0,019,0.4889963129592411,-0.0169596267959887,-0.003722327747615838,0.41840463789960464,0.14822730333256298,-0.20298014985998877,-0.4030167548219088,0.5125979517158828,1
527,2024-09-26 21:19:51.803531006,0,019,0.5071913953797843,-0.02310909665813373,0.3098453487509369,0.3430771557752526,0.11201047886935242,-0.19671168167355566,-0.4352613848939639,0.5227081038111786,1
528,2024-09-26 21:19:51.870253174,0,019,0.5224739721010807,-0.029372343083726573,0.6987205407695816,0.22977903173586575,0.07359041484345587,-0.19042439799177455,-0.44514974971582394,0.5266264767073662,1
529,2024-09-26 21:19:51.934041992,0,019,0.5335873930374899,-0.03574964535564136,1.1437024585726188,0.08132133892483495,0.03323835339271095,-0.1842540847777432,-0.43907707664800494,0.5272237157645695,1
530,2024-09-26 21:19:52.881271973,0,019,0.5388532784080803,-0.04214582864660758,1.619781167729235,-0.09716423695321395,-0.008564014556549796,-0.17829914244920175,-0.4249953499252358,0.5274843063186053,1
531,2024-09-26 21:19:52.943758057,0,019,0.5362662107225183,-0.04834548240557838,2.099162278179688,-0.2986968194643327,-0.05111034157918002,-0.1726097917386274,-0.4107260998087099,0.5300823572699533,1
532,2024-09-26 21:19:53.019967041,0,019,0.5237072931392989,-0.054023657475527745,2.5542646668862754,-0.5149240641572411,-0.0933975656065535,-0.16719685220233366,-0.40221880023238404,0.5370198342734818,1
533,2024-09-26 21:19:53.086745117,0,019,0.4992781075007054,-0.0587990892171122,2.960223540055738,-0.7365131178041744,-0.13407164679627304,-0.1620517363439628,-0.40209086217834933,0.5493672206404827,1
534,2024-09-26 21:19:53.147412109,0,019,0.46167046510185084,-0.06230728082870118,3.296624735465488,-0.9534743950959719,-0.17148209332098802,-0.15716467385981656,-0.40882188699710853,0.5671487433671719,1
535,2024-09-26 21:19:53.220312012,0,019,0.4104333596181029,-0.06425996805760975,3.5483352904737298,-1.1555347371330458,-0.20384577242524296,-0.15254096442636922,-0.41708783107664943,0.5894244494408362,1
536,2024-09-26 21:19:53.287090088,0,019,0.3460399507258306,-0.0644746208262153,3.705741407646029,-1.3326893854965978,-0.22945280453484504,-0.14821953036042204,-0.4191893468451179,0.6145329204362305,1
537,2024-09-26 21:19:54.212112061,0,019,0.2697796487646789,-0.06288269498050315,3.764993079268541,-1.4759496208991707,-0.24684560599557748,-0.14429049236789412,-0.4068554948733191,0.6403798767544809,1
538,2024-09-26 21:19:54.266527832,0,019,0.1836053064841111,-0.05953648919716423,3.728377185802098,-1.578142289157237,-0.2549448075249471,-0.14090193471742538,-0.37277835980583557,0.664696487923812,1
539,2024-09-26 21:19:54.344170166,0,019,0.09004130520160333,-0.054624709037991034,3.604290870805358,-1.6345592188828544,-0.2531485069829287,-0.13824726314761032,-0.31168428646478974,0.6852555863531236,1
540,2024-09-26 21:19:54.412424072,0,019,-0.00786896107719834,-0.048487092241960274,3.406286722245599,-1.6433038258600332,-0.2414337313049827,-0.1365353616777851,-0.2208823567530949,0.7000405594631923,1
541,2024-09-26 21:19:54.467031981,0,019,-0.10667673899832317,-0.04160706123076074,3.1511855367633355,-1.6052597805756124,-0.22044337416209184,-0.13595643858651493,-0.1002876190208029,0.7073630130222998,1
542,2024-09-26 21:19:54.545985840,0,019,-0.20277122309095455,-0.03456721825600936,2.8566669505085254,-1.5237050601879973,-0.19150537532765463,-0.13665690713478743,0.04783775787948016,0.7059515530614807,1
543,2024-09-26 21:19:54.612742920,0,019,-0.2927275084008631,-0.02797293024730414,2.5387789894965085,-1.4036892226255788,-0.15653513256180476,-0.13873103402023074,0.2191584502190296,0.6950310564699516,1
544,2024-09-26 21:19:55.561785889,0,019,-0.37364091283032436,-0.022369470634377962,2.2098048039404365,-1.2513306085736613,-0.11782097092836542,-0.1422294604341722,0.40754710256735777,0.6743860291515591,1
545,2024-09-26 21:19:55.627089111,0,019,-0.4433128258075018,-0.018181125168691182,1.8769851899098806,-1.0731691103321013,-0.07774259629920596,-0.14717761848211716,0.6054322280806845,0.6444023127683266,1
546,2024-09-26 21:19:55.681461182,0,019,-0.5002380559856626,-0.015687921245492453,1.5423317988048622,-0.8756516831972171,-0.03847589220095485,-0.15359664128524445,0.804162986797499,0.6060814614709639,1
547,2024-09-26 21:19:55.762085938,0,019,-0.5434434264059042,-0.015039930539546978,1.203350871173895,-0.6647757878724452,-0.0017285262097092658,-0.16152077877188054,0.9943868600417676,0.5610069653776828,1
548,2024-09-26 21:19:55.828866943,0,019,-0.5722734315720354,-0.01629752777979614,0.8544285557987091,-0.44590490144694195,0.031427782179061406,-0.17100085786833735,1.1666006268756668,0.511244375504161,1
549,2024-09-26 21:19:55.883031006,0,019,-0.5862390385602406,-0.019479284398991086,0.4888617149700572,-0.2237813169757877,0.06056082826966901,-0.18208386611024507,1.312093224655925,0.45916430830000693,1
550,2024-09-26 21:19:55.960819092,0,019,-0.5850454887417295,-0.024594622619468504,0.10163345581205399,-0.0027459242121341907,0.0857235652958093,-0.1947745160001247,1.4241903593849339,0.40720100958018546,1
551,2024-09-26 21:19:56.903989014,0,019,-0.5688235728945722,-0.031641682156495585,-0.30735358119843176,0.21290071715488634,0.10724255864938584,-0.20900014001306935,1.4991407464575173,0.35762927429616864,1
552,2024-09-26 21:19:56.978651123,0,019,-0.5384247151363948,-0.04057279596245162,-0.7305230205604485,0.41855307564412,0.12555607179276118,-0.22459495862044385,1.5360564749358514,0.31244609570939175,1
553,2024-09-26 21:19:57.043804932,0,019,-0.4955700283565495,-0.051256755115190365,-1.1513635687712673,0.6091354960693004,0.14111279350164915,-0.24129970351218716,1.5362365520269037,0.2733253541247575,1
554,2024-09-26 21:19:57.104308105,0,019,-0.4427605232563198,-0.06346677240492732,-1.5450147554734872,0.7791880943204251,0.15427213671944232,-0.2587643121785582,1.502659013278385,0.24155767236147468,1
555,2024-09-26 21:19:57.165954102,0,019,-0.3830274293095382,-0.07689743796457098,-1.8803810733797455,0.9231674680091121,0.1651969392146524,-0.276554447754912,1.439868413671554,0.21797198850203142,1
556,2024-09-26 21:19:57.243606201,0,019,-0.3196417208400426,-0.09119958319357532,-2.1232101606663245,1.0358717436883602,0.17381105527294904,-0.2941754515405734,1.353935513066167,0.20289672529289618,1
557,2024-09-26 21:19:57.312583008,0,019,-0.25583545460640805,-0.10602574260900738,-2.239641803596269,1.112900605122711,0.17988110075876615,-0.31111981605956013,1.2523282334962793,0.19616942902171688,1
558,2024-09-26 21:19:58.261879883,0,019,-0.19456616346878794,-0.12107539776180194,-2.199894467286697,1.1510819236135832,0.18318443659361108,-0.32692365555154285,1.1439324337257606,0.19713792976695224,1
559,2024-09-26 21:19:58.328677979,0,019,-0.13837618410627314,-0.13611965507830204,-1.9817427349473158,1.1487904737895356,0.1836549357832792,-0.3412082714603344,1.0393024478694572,0.20462330944957458,1
560,2024-09-26 21:19:58.383744873,0,019,-0.08936664403925709,-0.15099178917403572,-1.573224737117033,1.106069768088293,0.1814278391743283,-0.3536959685001613,0.9506648461252345,0.21691032858847065,1
561,2024-09-26 21:19:58.461371826,0,019,-0.04923270654112329,-0.16555256389914225,-0.9739893753423902,1.024528725975622,0.17678949577999556,-0.36420692035813645,0.891255574893131,0.23184507658774678,1
562,2024-09-26 21:19:58.529022949,0,019,-0.019275895211409606,-0.17965436123624137,-0.1950931086107053,0.9071039602098853,0.1700872619557198,-0.3726483681297698,0.8742619842444748,0.24702128243833463,1
563,2024-09-26 21:19:58.584528076,0,019,-0.00036385265130275436,-0.19312048090332234,0.7424615218055797,0.757811794586997,0.1616526213969372,-0.3790053744268128,0.9118987322281761,0.25998015771881877,1
564,2024-09-26 21:19:58.661267090,0,019,0.007112321276219237,-0.20573698931672557,1.809992879635311,0.5815238468790926,0.15176439605193648,-0.38333814059279797,1.0147543891877384,0.26839043538941754,1
565,2024-09-26 21:19:59.586503905,0,019,0.003225519334271421,-0.21724798937984266,2.973797045924914,0.3837255384787217,0.14064372541126371,-0.38577973437154356,1.191176931296753,0.27021413801716676,1
566,2024-09-26 21:19:59.654014160,0,019,-0.01155937217516166,-0.2273559181839958,4.197777786972532,0.1702412569328172,0.1284564883980191,-0.3865223586346796,1.4463558232028133,0.26387189821723767,1
567,2024-09-26 21:19:59.706741943,0,019,-0.036494552082170555,-0.23573495781263204,5.445676830791672,-0.05304533483943222,0.11532152971464132,-0.385791393874521,1.780892064697567,0.24843198094099472,1
568,2024-09-26 21:19:59.783927979,0,019,-0.07068193854034602,-0.24205286642951893,6.6826953100491275,-0.2804471771450611,0.10135820609771545,-0.3838201675012109,2.18912167028702,0.2238183760807632,1
569,2024-09-26 21:19:59.854365967,0,019,-0.11320143502798741,-0.24598668193552317,7.87645478884946,-0.5066746143963765,0.08682893161159119,-0.3808421677677541,2.6579393905897946,0.19095354637758596,1
570,2024-09-26 21:19:59.921154053,0,019,-0.16319049561101526,-0.24723158584223673,8.99730686095216,-0.726921374032627,0.07239785741830938,-0.37710979049494225,3.1668058913156845,0.1517255237389649,1
571,2024-09-26 21:19:59.984278809,0,019,-0.219873898315262,-0.2455159845999392,10.018092318487017,-0.9367884844378276,0.059402458641720154,-0.37292775307472176,3.6890132579373884,0.10876845452739996,1
572,2024-09-26 21:20:00.937120850,0,019,-0.2825803353586751,-0.24062981806291367,10.913708648114554,-1.1320833536275114,0.04994963775440514,-0.368672133585013,4.1936617165848755,0.06517492193088623,1
573,2024-09-26 21:20:00.990686035,0,019,-0.3507405562984486,-0.23246593550678232,11.661044288323435,-1.3086300684062067,0.04673661595894872,-0.364775481014685,4.647694319159845,0.024269634635307534,1
574,2024-09-26 21:20:01.070673096,0,019,-0.4238274918664789,-0.2210722412831607,12.239743034912928,-1.4622647505688942,0.05265694477549052,-0.3616827748258074,5.017882976298261,-0.010547981425842175,1
575,2024-09-26 21:20:01.128385986,0,019,-0.5012419984110694,-0.20669955924118077,12.63398737332916,-1.5891193891550854,0.07032642803224104,-0.35979578450799893,5.273286331089499,-0.03600694253646086,1
576,2024-09-26 21:20:01.189894043,0,019,-0.5821885628861452,-0.18982012725350011,12.835006043186,-1.6861388917281783,0.10163536692916086,-0.3594187415336372,5.388535689085931,-0.04931636338827574,1
577,2024-09-26 21:20:01.267962891,0,019,-0.6655688343930379,-0.1711068390899064,12.843272310020424,-1.7516155749551476,0.14737612428892,-0.36070936636635875,5.347425754129356,-0.04863786131753576,1
578,2024-09-26 21:20:01.330022949,0,019,-0.7499128233214543,-0.15138150059602176,12.66906090752175,-1.7854778132286246,0.20699541317564993,-0.36364143364479323,5.145714998839255,-0.03352966080942715,1
579,2024-09-26 21:20:02.278115967,0,019,-0.8333973810005283,-0.13153923999911843,12.330860022227167,-1.7892272571536538,0.2785551917060387,-0.36799239447629917,4.792263198451669,-0.005185746682562476,1
580,2024-09-26 21:20:02.339696777,0,019,-0.913994696452751,-0.11245691723836977,11.852379249605168,-1.7656618830922959,0.358939429181202,-0.37336280962926066,4.30814026865449,0.03364680734010319,1
581,2024-09-26 21:20:02.420967041,0,019,-0.9897253310347323,-0.09490200213860646,11.259313346525536,-1.7185735272008786,0.4442246354621111,-0.3792172585939426,3.7237275289379728,0.0790798979220633,1
582,2024-09-26 21:20:02.487737061,0,019,-1.058925407218098,-0.07945694425059206,10.576720060454264,-1.6524770050156938,0.5300758334778118,-0.3849313993586655,3.0743496794200564,0.12671765595881107,1
583,2024-09-26 21:20:02.553870117,0,019,-1.1204229706531168,-0.06647072969753534,9.827590844210038,-1.5723545111134525,0.6120855518289515,-0.38983910985285525,2.395625224237947,0.1723387043549694,1
584,2024-09-26 21:20:02.621295898,0,019,-1.1735730913580111,-0.056050185258764304,9.032797771123587,-1.4834212543531486,0.6860353801342137,-0.39327675134596335,1.7198072063606549,0.21247309120415042,1
585,2024-09-26 21:20:02.678516113,0,019,-1.2181925939187692,-0.04809086751374591,8.21195965154761,-1.3909367974213527,0.7480571514917734,-0.39461515724225016,1.0736290716496442,0.24478481864059012,1
586,2024-09-26 21:20:03.637604980,0,019,-1.2544532344903252,-0.04233103967191014,7.384419638737292,-1.3000617446716118,0.7946854577620053,-0.3932740219482488,0.4774289596979825,0.2682296429473384,1
587,2024-09-26 21:20:03.704382812,0,019,-1.2827271257324215,-0.03841672594728339,6.569609729028803,-1.2156772398807314,0.8228606843191559,-0.3887287545123868,-0.05472609218045146,0.28299539704430743,1
588,2024-09-26 21:20:03.771176025,0,019,-1.303374957743712,-0.03597443551608906,5.786365494552558,-1.1420334825808984,0.8299694980468784,-0.3805258312576552,-0.5140661080726202,0.29026256795552374,1
589,2024-09-26 21:20:03.836447998,0,019,-1.3165511598623394,-0.03468225601844756,5.051235348830348,-1.082207621456953,0.8139705797556138,-0.36831551527099177,-0.8956693328092404,0.29185078697453154,1
590,2024-09-26 21:20:03.904762939,0,019,-1.3221189997887413,-0.03432752748881419,4.376314597884772,-1.037540332128917,0.7736016965027043,-0.35189963561894566,-1.1971882066305302,0.28984547767775976,1
591,2024-09-26 21:20:03.971574951,0,019,-1.3196733460228536,-0.03484838900805094,3.7673510159004704,-1.0072751054915716,0.7086170270464593,-0.3312808599058133,-1.4182874780918178,0.2863131557034721,1
592,2024-09-26 21:20:04.038324219,0,019,-1.3085953851873455,-0.03635954599748312,3.222816668653676,-0.9885252494426197,0.619976528053504,-0.30669675891558557,-1.5608948904748219,0.2831727767794369,1
593,2024-09-26 21:20:04.957916016,0,019,-1.288110284341778,-0.03915387436449806,2.7342732007924977,-0.9765611326859043,0.5099241761907622,-0.27862974568601584,-1.629947561961861,0.2822010901540057,1
594,2024-09-26 21:20:05.020106934,0,019,-1.257395570138177,-0.04366673260129648,2.287769605807929,-0.9653432534635096,0.38191822118480534,-0.2477888123281629,-1.6340623520623314,0.285067849839018,1
595,2024-09-26 21:20:05.095947021,0,019,-1.2157689052266212,-0.05040153939739537,1.8657095048419072,-0.9482393471464439,0.240404071941043,-0.21505920577311882,-1.5855723100304242,0.2932909488839195,1
596,2024-09-26 21:20:05.162745850,0,019,-1.16290646651919,-0.059836775219992824,1.4488499748084886,-0.9188703095869373,0.09048026344401099,-0.18142600697708522,-1.499886196511245,0.3081170527348305,1
