,time,MARKER,pid,L_O_DSI,L_D_DSI,L_O_DSphi,L_D_DSphi,R_O_DSI,R_D_DSI,R_O_DSphi,R_D_DSphi,trial_id
0,2024-09-26 21:12:42.811916016,TASK_BEGIN,019,0.7729818455412878,-0.2564211360079312,-1.2205390490280263,-0.07980005908354822,0.6726509375495047,0.02987195281606272,0.8740901066696901,-0.7606144576312582,0
1,2024-09-26 21:12:42.868092041,0,019,0.7747243982425227,-0.2529404378400109,-1.0296321006862195,-0.1753769231754484,0.5883342795352926,0.05502377023953118,0.8593586258274307,-0.7509487257168675,0
2,2024-09-26 21:12:42.930582031,0,019,0.771343501740154,-0.24669619281751312,-0.7942629465241949,-0.2731403589513449,0.5005472450772547,0.08282229188164071,0.9185034663047741,-0.7523649061639033,0
3,2024-09-26 21:12:43.012258056,0,019,0.7619021367225524,-0.23774772961166046,-0.5219684826399893,-0.36874973411194684,0.41287632007405645,0.1126124770041218,1.047721540680396,-0.7646473511671819,0
4,2024-09-26 21:12:43.079091064,0,019,0.7457831537047631,-0.22625663011984154,-0.2219134181213208,-0.4581039268382128,0.3289545693958272,0.1435985346373641,1.236340383673841,-0.7866768257001373,0
5,2024-09-26 21:12:43.130547119,0,019,0.722889614255805,-0.21250545829086465,0.09558496699645953,-0.5374599370574217,0.25239003167857516,0.17486273825425952,1.4679267027342815,-0.816516053245271,0
6,2024-09-26 21:12:43.208218018,0,019,0.6937639707050643,-0.19689528653114852,0.41938833392480934,-0.6035232128187971,0.1866675123704663,0.20539958951365564,1.7219276836933897,-0.851591406574253,0
7,2024-09-26 21:12:44.120031006,0,019,0.6595787507725782,-0.17992275283637943,0.7379108731036489,-0.6535738247671211,0.1349811782441219,0.23416832362553708,1.9757345961307458,-0.8889628663328868,0
8,2024-09-26 21:12:44.190822998,0,019,0.6219663674531534,-0.1621401256135616,1.0397658895832451,-0.6856653020194292,0.0999953675895868,0.26015735053409433,2.207057339449031,-0.925644954548635,0
9,2024-09-26 21:12:44.257618896,0,019,0.5827400589869591,-0.1441071547768684,1.314590493271998,-0.6988532680825089,0.08357729349368118,0.28245087696379967,2.3965349045555606,-0.958945428008534,0
10,2024-09-26 21:12:44.321322998,0,019,0.5436267142782351,-0.12635136262121113,1.5537456638096974,-0.6933567166019603,0.08657964172643359,0.30028598366948,2.530382469793319,-0.986794726223331,0
11,2024-09-26 21:12:44.391200928,0,019,0.5061062135664304,-0.10935054606267093,1.7507575237483288,-0.6705807625243516,0.10876383676277564,0.313085776139953,2.6024127963625894,-1.007992711363753,0
12,2024-09-26 21:12:44.457988037,0,019,0.4713711440560396,-0.09353681564528281,1.9017347499449202,-0.6330316589454036,0.14891426005398783,0.3204614968826959,2.614550914554979,-1.0222721511100694,0
13,2024-09-26 21:12:44.524763184,0,019,0.4403671156320253,-0.07931241974175327,2.0060433538811795,-0.5842103141776224,0.20508915803960998,0.3221939691537536,2.5757025067895905,-1.030166955787983,0
14,2024-09-26 21:12:45.486087891,0,019,0.4138561768385885,-0.06706578946255314,2.0670256668115505,-0.5284877895236788,0.274881000385093,0.31821457484786386,2.499872301504766,-1.0327981892127263,0
15,2024-09-26 21:12:45.546961914,0,019,0.39244474046524486,-0.05717361936441902,2.0921908827390876,-0.4708807522107363,0.3556080152899019,0.30859688163916116,2.404376976665539,-1.0316809689344308,0
16,2024-09-26 21:12:45.604875000,0,019,0.37654961417127425,-0.04997954649009161,2.0925938070002443,-0.41668790809118794,0.44444477655589487,0.29355411693737865,2.3080827797193435,-1.028531068367295,0
17,2024-09-26 21:12:45.685565918,0,019,0.36633042263184507,-0.04575441839295894,2.0816151274139996,-0.37103860575036257,0.5385015402336077,0.2734348723772496,2.229292024720672,-1.0250032907454385,0
18,2024-09-26 21:12:45.752973145,0,019,0.36163480895933753,-0.044651210223089946,2.073545676172963,-0.33844816600130306,0.6348452814904307,0.24871630145187318,2.183480653521556,-1.0223832269749074,0
19,2024-09-26 21:12:45.819952881,0,019,0.36197614729328,-0.046666350938242285,2.0822581502000155,-0.32247418668502276,0.7305092810915407,0.21999345805770879,2.181482043762764,-1.0213349250329422,0
20,2024-09-26 21:12:45.884001953,0,019,0.3665490431707752,-0.05161860824848846,2.120071546197864,-0.32552219439967905,0.822576921401622,0.18795857745453612,2.2284543745629173,-1.0217810931991629,0
21,2024-09-26 21:12:46.835807129,0,019,0.37429783354213236,-0.0591541854586325,2.1968621413451173,-0.3487782352182894,0.9083660051793999,0.15336999264323747,2.323643694982016,-1.022932020285061,0
22,2024-09-26 21:12:46.903659180,0,019,0.3840487600749507,-0.06877850516896528,2.319464365870822,-0.39222197141671916,0.9856396279410361,0.1170252649159602,2.46086117526133,-1.0234520260975277,0
23,2024-09-26 21:12:46.970437988,0,019,0.3946854607937644,-0.07990732563959393,2.491268943645975,-0.45469696327792564,1.052724622641034,0.07975728405719103,2.629469677910795,-1.0217267882431758,0
24,2024-09-26 21:12:47.036844971,0,019,0.40531219224523896,-0.09192411801585716,2.7117907672786945,-0.5340212152657875,1.1084692637238696,0.04245501046249873,2.8156227764344934,-1.0161681720419722,0
25,2024-09-26 21:12:47.104085938,0,019,0.41535307910262753,-0.10423035700574748,2.9761509351379707,-0.6271169571555565,1.1520713594229248,0.006089314231519996,3.0037590196206048,-1.0055067144909169,0
26,2024-09-26 21:12:47.159531982,0,019,0.42458498666713107,-0.1162855958279715,3.274832410297243,-0.7301572537042624,1.1828741402771652,-0.028281436250528025,3.178466467430576,-0.9890406230416788,0
27,2024-09-26 21:12:47.222218018,0,019,0.4331267557025747,-0.12764202315985107,3.5941980799102384,-0.8387428199427499,1.200230897636959,-0.05954292905388537,3.3263975211820895,-0.9667771034259425,0
28,2024-09-26 21:12:48.181732910,0,019,0.44138335980594395,-0.13797151011488812,3.9178576373593565,-0.9481182249325071,1.2035033733011797,-0.08659720098950713,3.4375601509335936,-0.9393803736135098,0
29,2024-09-26 21:12:48.253741943,0,019,0.4499334704743838,-0.14707567437550081,4.228421451048598,-1.0534236082231243,1.1922070419643234,-0.108466472253152,3.5056411946909,-0.907913080885082,0
30,2024-09-26 21:12:48.320549072,0,019,0.45937700884923505,-0.15487477823476822,4.508972208778374,-1.1499523814312236,1.1662539953165763,-0.124407234177717,3.527572276044092,-0.8734634602976695,0
31,2024-09-26 21:12:48.387311035,0,019,0.47018614300154077,-0.16138136355250954,4.743932964127602,-1.233372706502286,1.1261922123300894,-0.13400377513905481,3.502708043020979,-0.8367887854017733,0
32,2024-09-26 21:12:48.454006836,0,019,0.4826031542458012,-0.16666934940837863,4.919653504456766,-1.2999090862479725,1.073332724144675,-0.1372117635955632,3.4318520279972855,-0.7980776469936611,0
33,2024-09-26 21:12:48.512392090,0,019,0.49659849964094177,-0.1708474619503118,5.025270885467713,-1.3465195582537173,1.0097002579976457,-0.13433906143650237,3.3162964010204137,-0.7568826496032567,0
34,2024-09-26 21:12:48.587701172,0,019,0.5118623189787566,-0.17403847313824336,5.053936899433247,-1.3710754722203107,0.9378280155260637,-0.12597537161514405,3.157028768417002,-0.7122192360135265,0
35,2024-09-26 21:12:49.537834961,0,019,0.5277989672261427,-0.17636011764582887,5.003949275057927,-1.3725043524279825,0.8604998708922466,-0.11289988138662145,2.9541151317241914,-0.6627801562472254,0
36,2024-09-26 21:12:49.593604980,0,019,0.543530099640996,-0.17790687776892494,4.8792507912452665,-1.3508602796668743,0.7805471380487939,-0.095995987148225,2.7061443223268205,-0.607191083628824,0
37,2024-09-26 21:12:49.670885986,0,019,0.5579308812689662,-0.1787365191050234,4.689019904829461,-1.3073051606378145,0.7007359071988504,-0.07619007964161595,2.4098406511018333,-0.5442420668697433,0
38,2024-09-26 21:12:49.737565918,0,019,0.5697018336635239,-0.17886280693748746,4.446373789953623,-1.2439879956294178,0.6237215975853715,-0.05441888529567289,2.0602806352751797,-0.47307263763315893,0
39,2024-09-26 21:12:49.804977783,0,019,0.5774465532084738,-0.17825158391282667,4.166544741489398,-1.1638375049013905,0.5520330270704726,-0.031619430637961014,1.652026696958181,-0.39333126960828463,0
40,2024-09-26 21:12:49.871781982,0,019,0.5797143560608073,-0.1768164740207629,3.8651190855316537,-1.0703190304149246,0.4880437272527614,-0.008725983640320902,1.1810714952798111,-0.3053471693081583,0
41,2024-09-26 21:12:49.935408203,0,019,0.5749955413606531,-0.17441246204230249,3.5567154235079683,-0.9671827447593532,0.4338797503798268,0.013346415074536586,0.6472425020915377,-0.21033833845322383,0
42,2024-09-26 21:12:50.858081055,0,019,0.5617118634152437,-0.17083148199804157,3.2540583913935657,-0.8581945418159064,0.39124848777263255,0.03374103451024747,0.05652013314533421,-0.11061770623095098,0
43,2024-09-26 21:12:50.925287109,0,019,0.5382647305250048,-0.16580949774713508,2.967380907985741,-0.7468876725707199,0.3612644629918602,0.05170611629679791,-0.5774924172255081,-0.009685496471733227,0
44,2024-09-26 21:12:50.995892090,0,019,0.5031661924781824,-0.1590519285058876,2.704361979773178,-0.6364361453877481,0.34437408857503327,0.06662806046278441,-1.2335238934287647,0.08790013887292243,0
45,2024-09-26 21:12:51.062701904,0,019,0.4552407309156681,-0.1502784115629265,2.4707328640627795,-0.5296933299928691,0.3403863368926475,0.07805164212581955,-1.8840096786975096,0.17689340380239155,0
46,2024-09-26 21:12:51.129491943,0,019,0.3938752127573059,-0.13928553334103252,2.271212329392706,-0.42929613839430564,0.348554556531955,0.08569766785749007,-2.49747094911147,0.2518990722422033,0
47,2024-09-26 21:12:51.183314941,0,019,0.31927513063708873,-0.12602004263421143,2.110104667361084,-0.33767712889955653,0.3676930856700676,0.0894731945252062,-3.0414568884899427,0.30795838368644474,0
48,2024-09-26 21:12:51.260081055,0,019,0.23266232329897632,-0.11064325336092477,1.99107198357662,-0.2569208083906113,0.3963195433625206,0.08946410710460441,-3.485692284807211,0.3410591771739016,0
49,2024-09-26 21:12:52.211905029,0,019,0.13635764279831766,-0.09356481487859773,1.9161588591572956,-0.18853709961809026,0.43277028264802253,0.08591218977792556,-3.8050257572522055,0.3484812478029169,0
50,2024-09-26 21:12:52.279266113,0,019,0.03372309446316364,-0.07543623676233255,1.8845784728232688,-0.1332723212706005,0.47526368930019175,0.07918310246617632,-3.9816415846068165,0.32894225466707216,0
51,2024-09-26 21:12:52.343738037,0,019,-0.07103548177168507,-0.05710777157985307,1.8917163742783527,-0.09102866116111731,0.5219662049959862,0.0697281602335379,-4.0061253936017955,0.2825759178253488,0
52,2024-09-26 21:12:52.412856934,0,019,-0.17319085706490586,-0.03955582053851164,1.9286051464540022,-0.060901504419726506,0.5711208950146877,0.058044356092716645,-3.8774363464623636,0.210828285691002,0
53,2024-09-26 21:12:52.479646973,0,019,-0.26791870396123724,-0.023786867465638385,1.9821166539995843,-0.04132192802461141,0.621218153081981,0.044637493329042106,-3.6021063350772295,0.1163316783634348,0
54,2024-09-26 21:12:52.546451904,0,019,-0.35077493535237003,-0.010728054757736614,2.036066563638422,-0.030292956648930086,0.6711131571931178,0.02999368443904662,-3.192865269326967,0.0027339421232588238,0
55,2024-09-26 21:12:52.605138916,0,019,-0.41813696025283714,-0.0011238924411366594,2.0730906131612996,-0.025689745119742296,0.720005249601014,0.014568562900284195,-2.666805315741719,-0.12556263059402542,0
56,2024-09-26 21:12:53.562546875,0,019,-0.46750963295517733,0.004537579372328547,2.0768069521405956,-0.025549040574959263,0.7672907689486611,-0.0012027831898619953,-2.043299376288936,-0.26375237876193847,0
57,2024-09-26 21:12:53.629328857,0,019,-0.4976485273267916,0.006056413485592997,2.033755753013228,-0.028262870111446018,0.8123724414564175,-0.01688647485810491,-1.3419886542076833,-0.40701993011695653,0
58,2024-09-26 21:12:53.696141113,0,019,-0.5085261024636246,0.0035157906692628712,1.9348113427444718,-0.03265443983900241,0.8544994820401364,-0.03203638124755265,-0.581215767521926,-0.5508943058446847,0
59,2024-09-26 21:12:53.762949951,0,019,-0.5011997199391031,-0.0027440664943010743,1.7759323940481095,-0.037983343674131975,0.8926859075261874,-0.04619629827688004,0.22265724238051787,-0.6914600769934893,0
60,2024-09-26 21:12:53.829730957,0,019,-0.47763274294808344,-0.012161003101603356,1.5582336794085712,-0.04392627183176682,0.9257289888816854,-0.058918851793981646,1.054766789882201,-0.8253600888958563,0
61,2024-09-26 21:12:53.896531006,0,019,-0.4404968142418593,-0.02399068403826572,1.287546959001179,-0.0505437709846137,0.9523134172259886,-0.06979336652050495,1.900364022225444,-0.9496262267029086,0
62,2024-09-26 21:12:53.963322998,0,019,-0.39295792448921546,-0.03735169918116076,0.9737839173146903,-0.058230158537576376,0.9711632100030898,-0.0784743220183644,2.7432643587133687,-1.061453575720698,0
63,2024-09-26 21:12:54.876947021,0,019,-0.3384372477609747,-0.0512782928367924,0.6302564060600669,-0.06763599129301254,0.9811885333873341,-0.0847066642823231,3.5648352341717464,-1.1580378244122211,0
64,2024-09-26 21:12:54.954116943,0,019,-0.2803467428088654,-0.06478223221319004,0.2727509002746175,-0.0795421442214331,0.9815751798080673,-0.0883439167466344,4.3439092035082,-1.2365634572461013,0
65,2024-09-26 21:12:55.020899902,0,019,-0.22181973444735342,-0.07692327210551904,-0.08189849736735384,-0.0946840428926826,0.97181661021484,-0.08935487083147092,5.057687186888071,-1.2943779361345855,0
66,2024-09-26 21:12:55.087701904,0,019,-0.16548116686651956,-0.08688473443989764,-0.4175513323506854,-0.11357666384633337,0.9517421158004721,-0.08781956154757058,5.6834323663953885,-1.329313351924658,0
67,2024-09-26 21:12:55.154496826,0,019,-0.11330953968978853,-0.09404620735546183,-0.7202219347399255,-0.13641590744496793,0.92156267074835,-0.0839157386529374,6.2005805277680945,-1.3400569484694707,0
68,2024-09-26 21:12:55.215738037,0,019,-0.06660429089663415,-0.09804008572741234,-0.9788295469665387,-0.16307315386426233,0.881884539316582,-0.07789407339429641,6.592766274115234,-1.3264488125155465,0
69,2024-09-26 21:12:55.278645996,0,019,-0.02601601155563484,-0.09877893034147514,-1.1852878079957168,-0.19311392013212508,0.8336441898560347,-0.07004636146177645,6.849257743461147,-1.289609791712424,0
70,2024-09-26 21:12:56.236389893,0,019,0.008412713709971932,-0.09644970303957735,-1.3342450426008734,-0.2257745561037996,0.7779937601755791,-0.06068021661496017,6.96560213117737,-1.2318853229162472,0
71,2024-09-26 21:12:56.292921143,0,019,0.03720817669082575,-0.09148062496896171,-1.4227396629527498,-0.2599183650830981,0.7162079433888945,-0.0501101754671239,6.943709352826613,-1.156669506339618,0
72,2024-09-26 21:12:56.355406982,0,019,0.061410722544017624,-0.08448871908684377,-1.449885919931675,-0.294040106659839,0.6496335927652067,-0.03866057885034738,6.791617034053763,-1.0681670089392779,0
73,2024-09-26 21:12:56.436752930,0,019,0.08248900429476336,-0.07621430959715222,-1.416638482974867,-0.32634374970372204,0.579640177817209,-0.026667430854120707,6.522890551978303,-0.9711072414704435,0
74,2024-09-26 21:12:56.503535889,0,019,0.10221164210557054,-0.06744914023391092,-1.325680942869107,-0.35486810144138137,0.5075575416845862,-0.014474928452977468,6.155631138930476,-0.8704375740131531,0
75,2024-09-26 21:12:56.570336182,0,019,0.12246112992743993,-0.05896665342620015,-1.1813916842071321,-0.3776355660247081,0.43464790292636823,-0.002434201570995846,5.711292465945948,-0.7710469272277019,0
76,2024-09-26 21:12:56.637114990,0,019,0.14498614893187395,-0.05146124634131541,-0.9897710850867805,-0.3928093764234153,0.36212827877846965,0.009092224170110848,5.213499706450612,-0.6775455855291314,0
77,2024-09-26 21:12:57.586294922,0,019,0.17112621613626067,-0.045498128580402634,-0.7583588285779567,-0.39884110212409657,0.29119548899016506,0.019728768671479845,4.686981419864784,-0.5940977751200633,0
78,2024-09-26 21:12:57.642955078,0,019,0.20158384184309944,-0.041474287977620344,-0.49625386696873847,-0.3945963658492945,0.22302431476279005,0.029094964105369454,4.156667401027916,-0.5242992560433675,0
79,2024-09-26 21:12:57.720072021,0,019,0.23631258711300557,-0.039595310807501054,-0.21408307461031095,-0.3794697734274546,0.15876688363245428,0.036818971454732514,3.6467980120166343,-0.47108158310091164,0
80,2024-09-26 21:12:57.782316895,0,019,0.2745303357781908,-0.0398715981183501,0.07644735699746477,-0.3535145926909847,0.09958412016050817,0.04255125980456945,3.1797587563130163,-0.43661349951858236,0
81,2024-09-26 21:12:57.844080078,0,019,0.3148179409131681,-0.042129077680620186,0.3635086752980017,-0.3175838980458802,0.04669056834771549,0.04598242300346382,2.774627134852062,-0.42219075849683146,0
82,2024-09-26 21:12:57.920376953,0,019,0.3552635465712538,-0.046028504995233775,0.6362970326119273,-0.2734214166716881,0.0013581307109112788,0.04686933720451918,2.4458021252561495,-0.42813905501525357,0
83,2024-09-26 21:12:57.984054199,0,019,0.3936413564669169,-0.051096230948717375,0.8860305365603031,-0.22362508686421245,-0.03516735949651761,0.04506699104864085,2.202050989108021,-0.45374925464508936,0
84,2024-09-26 21:12:58.936636963,0,019,0.4276248642363768,-0.05677183972855345,1.1066964714400505,-0.17146190029524044,-0.061848929002340736,0.04056202420422904,2.0459733720289117,-0.49723434454512516,0
85,2024-09-26 21:12:59.003408936,0,019,0.45501200749887954,-0.062468965804383665,1.2955594296436985,-0.120576831239565,-0.07809154300400203,0.03349910448058821,1.9737686519622741,-0.5557080747766429,0
86,2024-09-26 21:12:59.070203125,0,019,0.4739176473033875,-0.06763543224969396,1.4533896370106654,-0.07466355993716392,-0.08392011132188283,0.024181543019781232,1.9753744695168252,-0.6252317168032306,0
87,2024-09-26 21:12:59.136451904,0,019,0.4829038327412432,-0.0717987568050541,1.5843111519281998,-0.037155870691777435,-0.08002894754571868,0.013036799923126102,2.035135959052473,-0.700979684653705,0
88,2024-09-26 21:12:59.203385010,0,019,0.4810633573942692,-0.07459549651754298,1.6951362713911329,-0.010968497304066675,-0.06771175504282004,0.0005609878170867798,2.132936857715996,-0.7775134674826433,0
89,2024-09-26 21:12:59.270540039,0,019,0.4680943056055783,-0.07579354404420717,1.7941790942195277,0.0017075094174758892,-0.04870142352841227,-0.01273856762152344,2.245558501141184,-0.8491178920783239,0
90,2024-09-26 21:12:59.333218018,0,019,0.44436063325340475,-0.07530981755275838,1.8898660909873366,-0.0004561155373445712,-0.02492989023999968,-0.026395341936955596,2.3483237272649946,-0.910201404770123,0
91,2024-09-26 21:13:00.284500000,0,019,0.4108795727730781,-0.07321324635383362,1.9896135432967612,-0.01787078709035963,0.001755203706579317,-0.040025756756941804,2.417282519004888,-0.9557826979888745,0
92,2024-09-26 21:13:00.353465088,0,019,0.3691990775347383,-0.0697053825180782,2.0991887539829723,-0.05005776055141984,0.029833001309021164,-0.053352421598087986,2.4317272673520742,-0.981989052292055,0
93,2024-09-26 21:13:00.408651123,0,019,0.32120834398056564,-0.06508449427067137,2.2224321515652257,-0.09571617084204519,0.05824320285374631,-0.06620400174322269,2.376284039787033,-0.9863984919155815,0
94,2024-09-26 21:13:00.487068848,0,019,0.26896772323329227,-0.05970696709412608,2.361189036942184,-0.1528057737592078,0.08643129006453537,-0.07850216501270305,2.2419749343122133,-0.9681214220409581,0
95,2024-09-26 21:13:00.547404053,0,019,0.2146110484024545,-0.05395664689279869,2.5155048248715506,-0.21867369277683427,0.11438417792027247,-0.0902550541416965,2.0263177264602383,-0.9276875458270714,0
96,2024-09-26 21:13:00.620600830,0,019,0.1603030057810752,-0.04822310140313264,2.6841418308886658,-0.2902609506983705,0.1426810182815178,-0.10156373603286906,1.7330458675049143,-0.866895557475752,0
97,2024-09-26 21:13:00.685069092,0,019,0.10819698556635757,-0.042883750383271864,2.8651831371969743,-0.36435182219400686,0.17248867685539238,-0.11262517175031182,1.3718938218439038,-0.7887081835148717,0
98,2024-09-26 21:13:01.611758057,0,019,0.06037089578694855,-0.038289970625268614,3.0563690393520653,-0.43778822622095664,0.20542057562095964,-0.1237123605981942,0.958236516661765,-0.6971293258699054,0
99,2024-09-26 21:13:01.678545898,0,019,0.018769001295955417,-0.03476409802175697,3.2551350906917382,-0.5076392817586034,0.24323663801311948,-0.13512744665209403,0.5120238835261859,-0.5969478514499534,0
100,2024-09-26 21:13:01.745312988,0,019,-0.014833017968691768,-0.03260681998758317,3.4585978739517853,-0.5713801198026977,0.2874145648461916,-0.14713204682672035,0.0559353492529502,-0.493331696622907,0
101,2024-09-26 21:13:01.812127197,0,019,-0.038871613124605964,-0.03210191115535309,3.6635286839049748,-0.627076432768842,0.3386816831846517,-0.1598648026827284,-0.3866735361252826,-0.3913800167669474,0
102,2024-09-26 21:13:01.878689941,0,019,-0.052075648343874806,-0.03350886724715648,3.8660973652304222,-0.6734874036122448,0.39665042870794137,-0.17327026417775854,-0.7935047539591552,-0.2957384701225074,0
103,2024-09-26 21:13:01.940251952,0,019,-0.05356343337670228,-0.03704576228422919,4.0613245051075255,-0.7100272149456474,0.4596602287561702,-0.18706509988646824,-1.1447033216986624,-0.21029400485677435,0
104,2024-09-26 21:13:02.002304199,0,019,-0.04291962006929668,-0.04286624116109885,4.242493271990481,-0.7366246792011466,0.5248302693063787,-0.20074770415583368,-1.4241044910966028,-0.13794114498115423,0
105,2024-09-26 21:13:02.951646973,0,019,-0.02023522252460914,-0.05103340661547492,4.400891839160116,-0.7535709263053874,0.588304108852223,-0.21364373444999535,-1.6204167963390388,-0.08045245293844938,0
106,2024-09-26 21:13:03.013680908,0,019,0.013881512960781538,-0.06149713481164151,4.526156114394594,-0.761410914093903,0.6456916004752121,-0.22498286072656049,-1.7282563065730001,-0.03846944192186523,0
107,2024-09-26 21:13:03.090368896,0,019,0.05830709681866325,-0.07408062988626313,4.6072227599377,-0.7608692617451199,0.6926578087398346,-0.23399711222268677,-1.7488433535907966,-0.011573952234815013,0
108,2024-09-26 21:13:03.151472168,0,019,0.11142070967196073,-0.0884771197880938,4.633620148249664,-0.7527685344523626,0.7254984850374793,-0.2400167596235407,-1.6899688599658154,0.001579528168407101,0
109,2024-09-26 21:13:03.228506104,0,019,0.17115736597115405,-0.10425736838913724,4.5967116504700085,-0.7379191087061561,0.7415271833720779,-0.2425390272806768,-1.5648381477777482,0.003041950713744387,0
110,2024-09-26 21:13:03.290388184,0,019,0.23509474237269598,-0.1208896084308505,4.4905960213463585,-0.7169981787645153,0.7392175427411986,-0.2412595755563144,-1.3899770230688162,-0.004727135656641805,0
111,2024-09-26 21:13:03.352433838,0,019,0.30054858363033554,-0.13776964198534947,4.312605322284656,-0.690456872999968,0.7181705653565462,-0.23606999832027895,-1.18300814110685,-0.01914228966729133,0
112,2024-09-26 21:13:04.301189941,0,019,0.3646678335170226,-0.15425579880956503,4.063628000933897,-0.6585044407377514,0.6790015816362723,-0.22703179261445272,-0.9609677673631405,-0.03769481519062691,0
113,2024-09-26 21:13:04.363677979,0,019,0.42454985719017024,-0.16970591095723325,3.7485532442578564,-0.6212095814648322,0.623199223778838,-0.21434157594391262,-0.7391281549071927,-0.058110888920845455,0
114,2024-09-26 21:13:04.444904053,0,019,0.4773890868599085,-0.18351463432649165,3.376814801079929,-0.5787111941267274,0.5529869337756999,-0.19830372182716746,-0.5299139497155635,-0.07854810511069542,0
115,2024-09-26 21:13:04.502843994,0,019,0.520634513299581,-0.19514575503910903,2.962549525867523,-0.5314541480295835,0.4712061967566102,-0.1793207886291036,-0.34167470650211645,-0.09785478583925176,0
116,2024-09-26 21:13:04.564470947,0,019,0.5521127697310688,-0.20415412039611117,2.5237775625534318,-0.4803218111654841,0.38119837642498045,-0.15789642757157027,-0.17733357566574384,-0.11583471021213894,0
117,2024-09-26 21:13:04.645256104,0,019,0.5701060082279757,-0.21019858676947203,2.0805290946268853,-0.42660293615926315,0.2866438463357447,-0.13463187876710753,-0.03329843903127383,-0.13340408451663957,0
118,2024-09-26 21:13:04.712062988,0,019,0.5734258493365062,-0.21305262519417983,1.652495673852199,-0.3718525212153726,0.19136231290379405,-0.11020302123877083,0.10053248248895495,-0.15250752262064313,0
119,2024-09-26 21:13:05.631279053,0,019,0.5615292773689528,-0.21261821991544905,1.256906043100511,-0.3177441397262611,0.0991158779977949,-0.08532392956644681,0.2391297165264576,-0.1757458567673043,0
120,2024-09-26 21:13:05.702522949,0,019,0.5346670030089061,-0.20894193497575417,0.9070364319066397,-0.2659547959685,0.013431102479659333,-0.0607095481163906,0.3994590303984409,-0.20582287293203783,0
121,2024-09-26 21:13:05.754877930,0,019,0.4939944875429881,-0.20222283568655106,0.6114731102986313,-0.21806035497748602,-0.06258688967226944,-0.037039198256353906,0.597211210299237,-0.24498002457227083,0
122,2024-09-26 21:13:05.832041016,0,019,0.4415612428527431,-0.19279977532667558,0.3740784335723454,-0.17541409545257886,-0.12646528079452743,-0.014917001864579267,0.8437914426443044,-0.2945407602324627,0
123,2024-09-26 21:13:05.902861084,0,019,0.3801408754908364,-0.18111550164079945,0.19462998448849173,-0.13904667482309585,-0.17655201853354038,0.00516493542489616,1.1440831003085126,-0.3546264720571339,0
124,2024-09-26 21:13:05.959512939,0,019,0.31294301483585923,-0.16766800217532882,0.07010937641414532,-0.10966650535942025,-0.21209278544212404,0.02284785060108992,1.49536418454096,-0.424066161004803,0
125,2024-09-26 21:13:06.036436035,0,019,0.24328798319279094,-0.1529631597435506,-0.0037179282603217313,-0.08774891694556491,-0.23315627812319792,0.03790749219523862,1.8874208027209105,-0.5004905423559424,0
126,2024-09-26 21:13:06.977891846,0,019,0.17429681186145243,-0.13747578741894798,-0.03117702118377013,-0.07358219920712872,-0.2404646265811544,0.050242132705094186,2.303575124966503,-0.5805668930043445,0
127,2024-09-26 21:13:07.039912109,0,019,0.10861222749771761,-0.12161806182115985,-0.016543234450254827,-0.06717712839876502,-0.2352248030893744,0.059858326175974655,2.7223116524702515,-0.6603084793828954,0
128,2024-09-26 21:13:07.119425049,0,019,0.04817572250610001,-0.10571549382075827,0.03531654557430612,-0.06810158487568829,-0.2190138726997297,0.06686165553923414,3.119371609422802,-0.7354174609498717,0
129,2024-09-26 21:13:07.179753906,0,019,-0.005884589028387681,-0.08999838991791716,0.11818681059538585,-0.07537308875201101,-0.19370851380524226,0.07145095846362254,3.470128636774289,-0.8016489921825343,0
130,2024-09-26 21:13:07.240781006,0,019,-0.05320985790458249,-0.07461667397614953,0.22415936044076906,-0.08748911606563668,-0.16141703456957623,0.07390676537741439,3.751729012063571,-0.8551522251752807,0
131,2024-09-26 21:13:07.319806152,0,019,-0.09402545496182232,-0.05967450248073205,0.34389841756925954,-0.10259602075282145,-0.12437220223437304,0.07456537926347238,3.9445056969238355,-0.8927193243611677,0
132,2024-09-26 21:13:07.385965088,0,019,-0.12889282640900745,-0.04527164679750032,0.46741874530920186,-0.1187296545548341,-0.08476630386763467,0.07377863729102095,4.03276531574106,-0.9119382878725694,0
133,2024-09-26 21:13:08.331058105,0,019,-0.15848411727635778,-0.0315378698627836,0.5849868228700342,-0.13401956308117768,-0.04455462186068452,0.07187060308965752,4.0055843527188975,-0.9113281157666809,0
134,2024-09-26 21:13:08.393129149,0,019,-0.18342421034890796,-0.018650557855562272,0.6876468302263646,-0.1467806612957766,-0.005296777913386923,0.06910911126799824,3.858077604155217,-0.8905165274967876,0
135,2024-09-26 21:13:08.455144775,0,019,-0.20420909914268964,-0.006831625942485773,0.7671585984488106,-0.1555068642673555,0.03187817761618015,0.06570707332750958,3.5927021292616175,-0.8503865265502196,0
136,2024-09-26 21:13:08.536229980,0,019,-0.22120105436018148,0.00367402439810935,0.8156456705091573,-0.15885068556421522,0.06612103790071878,0.06185772707160886,3.219416970972082,-0.7930136757812646,0
137,2024-09-26 21:13:08.602376953,0,019,-0.23468616011879365,0.01263001375899295,0.8255237085080642,-0.15566455286927633,0.09656110077994805,0.057792363855812406,2.7540092306091264,-0.7213218977878783,0
138,2024-09-26 21:13:08.669802979,0,019,-0.2449543381799004,0.019839226574943334,0.7900323838961564,-0.14510585244610202,0.12201935700429431,0.05383351995009137,2.2152479832525005,-0.6386044465789832,0
139,2024-09-26 21:13:08.736379883,0,019,-0.25236129758487297,0.02516768114271281,0.7042163304072797,-0.12674605216698331,0.14091049389970225,0.050416181933440635,1.6221384735850655,-0.5480969069504185,0
140,2024-09-26 21:13:09.686057129,0,019,-0.25734731564241126,0.02856016511163221,0.5659620057591007,-0.1006335293405798,0.15135263160073156,0.048071212137504926,0.9920257201321168,-0.45266121662263725,0
141,2024-09-26 21:13:09.752821045,0,019,-0.26039861600547387,0.030047498672679442,0.37670670623796443,-0.06729806353051841,0.15137400829282563,0.04738645264653569,0.33968424319410134,-0.35458372596804,0
142,2024-09-26 21:13:09.819586914,0,019,-0.26196433350017495,0.02974806140290381,0.14147378100136318,-0.027686694785008265,0.13914102840147274,0.048959648902238966,-0.32272512166894846,-0.2555126402116311,0
143,2024-09-26 21:13:09.871568115,0,019,-0.26238290213125115,0.027869465183203365,-0.13193984922218038,0.01698485876984916,0.11319831804926656,0.05334832192447095,-0.9850665362537553,-0.15654873329989424,0
144,2024-09-26 21:13:09.953146973,0,019,-0.26187502003188984,0.024713513707034937,-0.43435475550672814,0.06543043712176673,0.07267783129559471,0.061022928234909846,-1.6382171536430477,-0.05848063992181032,0
145,2024-09-26 21:13:10.010126221,0,019,-0.26060595470768644,0.020679570779641155,-0.7565212671033446,0.1164432932101058,0.017399995899473813,0.07232963682690516,-2.272842798752013,0.03787580560560775,0
146,2024-09-26 21:13:10.086716797,0,019,-0.25876620532935146,0.016256353093704726,-1.0897945324328842,0.16892199098664865,-0.05215243349562954,0.08746068173824972,-2.87838673491355,0.13135156164846318,0
147,2024-09-26 21:13:11.027311035,0,019,-0.25662784783151926,0.01199479391193651,-1.4260519871883024,0.22178034222336793,-0.13492253560826706,0.10642566817567166,-3.442723022902078,0.2202619609585534,0
148,2024-09-26 21:13:11.102840820,0,019,-0.25456894424948967,0.00846072521206698,-1.7570400585010488,0.2737942950896462,-0.22932889613418164,0.1290220475705312,-3.9525076430557404,0.3024613238445333,0
149,2024-09-26 21:13:11.166003906,0,019,-0.2530588842014287,0.006171601012506779,-2.0735598168937117,0.3234556362358926,-0.33321518006896,0.15481070177278905,-4.3939444512629535,0.37554570427290224,0
150,2024-09-26 21:13:11.236402100,0,019,-0.25259757612796735,0.005529177070035911,-2.3651643401227926,0.3689367107041365,-0.4437394428389943,0.18310766320967092,-4.753858589485674,0.43711812291925217,0
151,2024-09-26 21:13:11.303180908,0,019,-0.25363953229835423,0.0067687269730588116,-2.6208629605012,0.40825476026517554,-0.5573312288573338,0.2130056685625229,-5.021096418661919,0.48506457753824644,0
152,2024-09-26 21:13:11.369961914,0,019,-0.25655496589281435,0.009942989120311382,-2.830583434583544,0.4396059885807567,-0.6698318876846758,0.24343585848132415,-5.187959387682596,0.5177861698603927,0
153,2024-09-26 21:13:11.429336914,0,019,-0.26165278215408866,0.01494201526528192,-2.9865910832827023,0.4617141689013292,-0.7768292710232123,0.2732637275366722,-5.251167285630645,0.5343380601684526,0
154,2024-09-26 21:13:12.362349121,0,019,-0.26925048367393195,0.021534469315276358,-3.0842312469047304,0.4740320883361938,-0.8740931765886638,0.3013948856138676,-5.212167149889234,0.5344778414916695,0
155,2024-09-26 21:13:12.419821045,0,019,-0.27973708491958627,0.029413083728074472,-3.1219250563363574,0.476740479928194,-0.9579889104553635,0.3268647561859979,-5.077111375538794,0.5186832044416009,0
156,2024-09-26 21:13:12.495909912,0,019,-0.29356034411850135,0.03823004206183269,-3.100760289876512,0.4706041347056933,-1.02579717222604,0.34889939010124404,-4.8569027647551755,0.48820595529414845,0
157,2024-09-26 21:13:12.559982178,0,019,-0.31111478226679695,0.047611382116431004,-3.0241007968043947,0.45679988172979274,-1.0759283260658405,0.36694611504946795,-4.5671061194769305,0.44513786394559834,0
158,2024-09-26 21:13:12.622014160,0,019,-0.33256980541921355,0.05714831298225492,-2.8975134326500918,0.4368175951313608,-1.108040086405663,0.3806818623314103,-4.2269671482517355,0.3923459544033477,0
159,2024-09-26 21:13:12.696316895,0,019,-0.3577002718291518,0.06637779137196209,-2.7290980719292026,0.41245980482137373,-1.1230662220479342,0.39001406610977096,-3.857195823245541,0.3331666493977776,0
160,2024-09-26 21:13:12.763113037,0,019,-0.3857837165402821,0.07477279402302522,-2.5299816423564323,0.3858692820150997,-1.1231376521827205,0.39507971617793497,-3.4770810860778885,0.2709171733982147,0
161,2024-09-26 21:13:13.711661133,0,019,-0.4156242150135278,0.0817577106995941,-2.314407126413523,0.3594828670806047,-1.1113574370995465,0.3962299914938089,-3.101824538244128,0.2084000113785095,0
162,2024-09-26 21:13:13.778447021,0,019,-0.4457187833339807,0.08675183569207841,-2.0988967403951255,0.3358694295227653,-1.091447383495922,0.39398996505942174,-2.740748039990216,0.14756031403342987,0
163,2024-09-26 21:13:13.840439941,0,019,-0.47451669912608446,0.08923142444556076,-1.9004927541126686,0.31748075333262654,-1.0673605331275593,0.3889988769282432,-2.396619588101642,0.08935265270087991,0
164,2024-09-26 21:13:13.912051025,0,019,-0.5007005587687213,0.08879558502078572,-1.7346273398454268,0.30637025205737584,-1.0429507271161582,0.38194148560361396,-2.065935297863554,0.033786286272766794,0
165,2024-09-26 21:13:13.978827881,0,019,-0.523422867842854,0.08522418460264213,-1.61328652194756,0.30393511463393863,-1.0217372247305043,0.37348243229063044,-1.739959376997276,-0.019878674613227433,0
166,2024-09-26 21:13:14.045598877,0,019,-0.542421473839859,0.07851632932621032,-1.5438696718157254,0.31073762045168274,-1.0067554577103726,0.36422055759090527,-1.4064718156119125,-0.07280542490629743,0
167,2024-09-26 21:13:14.102487061,0,019,-0.5579675474207707,0.06889645411262581,-1.5289097621236933,0.32646233445456296,-1.0004437722940416,0.3546698841615482,-1.0520730841648709,-0.12620049828757254,0
168,2024-09-26 21:13:15.060928223,0,019,-0.5706942249888644,0.056785711935264126,-1.5666534144295605,0.35003185332477277,-1.0045162808932886,0.34525401352041185,-0.664743677623182,-0.18097208965404943,0
169,2024-09-26 21:13:15.127707031,0,019,-0.5814051815931425,0.0427538454747506,-1.652223459551692,0.37983121537198933,-1.0198351035939188,0.336299532511519,-0.2362559362902614,-0.23748398880793395,0
170,2024-09-26 21:13:15.194488037,0,019,-0.5909152009254197,0.027470177839291825,-1.7789521154747896,0.41396726343027174,-1.0463258844585583,0.328024327334356,0.23607128136571565,-0.29545264654779085,0
171,2024-09-26 21:13:15.261282959,0,019,-0.5999077784586664,0.01165985301840296,-1.9396226996597712,0.45053258150161757,-1.0829390402385657,0.3205192570514561,0.7486137569166583,-0.35401145199027445,0
172,2024-09-26 21:13:15.322262939,0,019,-0.6087784306336417,-0.003939336957245999,-2.1274450132070726,0.4878531067826831,-1.1276426090527745,0.31372682379621886,1.2916113994748826,-0.41188116464971597,0
173,2024-09-26 21:13:15.394827881,0,019,-0.6174654364950025,-0.018622271962026957,-2.3365503990467573,0.5246574532805034,-1.1774622491324196,0.3074307670385529,1.8499351248627927,-0.4675177028447912,0
174,2024-09-26 21:13:15.461599121,0,019,-0.6253102346564668,-0.03175981784362605,-2.561887977515213,0.5601065939024866,-1.228591288984264,0.30127005332547363,2.40408373734077,-0.5191531667363047,0
175,2024-09-26 21:13:16.386568115,0,019,-0.6309989908110526,-0.04283337444090278,-2.798624984503865,0.5936921514583056,-1.276566070512627,0.2947777728673646,2.9312685051946077,-0.5647821702607041,0
176,2024-09-26 21:13:16.453346924,0,019,-0.6326281723406318,-0.05145341214627076,-3.041341373477066,0.6250801115005068,-1.3164805413281873,0.2874317871661431,3.4068214225830804,-0.6022275255945618,0
177,2024-09-26 21:13:16.512605957,0,019,-0.627926447800683,-0.05735764915025902,-3.2833690668149917,0.6539748142658335,-1.3432368099536407,0.2787025202771165,3.8061701141544524,-0.6293449024071557,0
178,2024-09-26 21:13:16.586918213,0,019,-0.6146177954633253,-0.06039485972463783,-3.516538026851499,0.6800335222025312,-1.3518661426696263,0.26809592874857924,4.107186278203529,-0.6443026678994639,0
179,2024-09-26 21:13:16.653701172,0,019,-0.5908298398412429,-0.060508884994489164,-3.7314541329328095,0.7028560383511041,-1.3379418627585535,0.25520085782619284,4.2924482398665775,-0.6458465057725666,0
180,2024-09-26 21:13:16.719759033,0,019,-0.5554153908576854,-0.05773398674185677,-3.9182559602083766,0.7220684510780563,-1.2980449957638376,0.2397454619781186,4.351004461866751,-0.6334890636108306,0
181,2024-09-26 21:13:16.786957031,0,019,-0.5080972521870003,-0.05220227311411385,-4.067560390783626,0.7374426453206562,-1.2301874734774754,0.22165184637584318,4.2792222273438885,-0.6075698154800057,0
182,2024-09-26 21:13:17.734584961,0,019,-0.4494306116912952,-0.04415455455620224,-4.171264847106951,0.7489415073649649,-1.1340940582751493,0.20107135886831726,4.080375632650141,-0.5691420548898147,0
183,2024-09-26 21:13:17.802544189,0,019,-0.380665142989838,-0.03393930787836123,-4.223101823834283,0.75665087182995,-1.0112995757323768,0.17839261213318927,3.7630969297831953,-0.5197066807280026,0
184,2024-09-26 21:13:17.870172119,0,019,-0.3036178511394464,-0.021987144860375164,-4.218995734471028,0.7606556384896354,-0.8650716569574715,0.1542225751473646,3.3393824751566084,-0.46089021113428685,0
185,2024-09-26 21:13:17.936510986,0,019,-0.2205933737630617,-0.008766126294853262,-4.157242793672763,0.7609275529216415,-0.7001984675871146,0.12934264708303495,2.8229065220122607,-0.3941834606178914,0
186,2024-09-26 21:13:18.002477051,0,019,-0.1342925707284938,0.0052593486094921135,-4.038537421279668,0.7572566921181761,-0.5227208902921604,0.10465140576283564,2.2279392786058336,-0.320799403521208,0
187,2024-09-26 21:13:18.070485107,0,019,-0.04765110894258541,0.019648054542228514,-3.865921900373069,0.7492493419866874,-0.3396831927661909,0.08111178897523533,1.568783089610083,-0.24164687514995592,0
188,2024-09-26 21:13:18.136139893,0,019,0.036366386141582795,0.03398352642440391,-3.6447029939270115,0.7364105381432228,-0.1588704059504218,0.05970232499906764,0.8596370953541886,-0.15740470593584024,0
189,2024-09-26 21:13:19.084144043,0,019,0.11494098078255124,0.047875352115639286,-3.3822801277586305,0.7182900780277245,0.01158436538865497,0.04135330178868756,0.11481744474782811,-0.06866921333058697,0
190,2024-09-26 21:13:19.153511962,0,019,0.18551059522889082,0.06097118326421899,-3.0877912663252975,0.6946279111352697,0.16379139851606672,0.02685789659886018,-0.6509503535186405,0.023899956822815455,0
191,2024-09-26 21:13:19.220309082,0,019,0.24585119083105983,0.07297535542693681,-2.7715764551197872,0.6654494695006852,0.2908339772441814,0.016772268930037106,-1.4225171852156924,0.11951880293415083,0
192,2024-09-26 21:13:19.287121094,0,019,0.2941601854646658,0.08366497077446497,-2.4446058097481767,0.6311234808241997,0.3874570610880236,0.011335969073347673,-2.184507093914734,0.21729610546496866,0
193,2024-09-26 21:13:19.353867920,0,019,0.32913400933917775,0.09289922761429126,-2.118048830531448,0.592422304542575,0.45051953224689667,0.010442772184047969,-2.9212230789643434,0.31623235301533176,0
194,2024-09-26 21:13:19.420604980,0,019,0.350023340603029,0.10062072435414547,-1.8030638589424124,0.5505888720091184,0.47913419466275237,0.01366763926635279,-3.6160735980672745,0.4151416475021716,0
195,2024-09-26 21:13:19.475870117,0,019,0.3566574557421052,0.1068481877009731,-1.5107602264524027,0.507368158252176,0.47454135431362426,0.02033127716137697,-4.251044293595269,0.5125446723542934,0
196,2024-09-26 21:13:20.432550049,0,019,0.3494202681479891,0.11166499560470713,-1.252112285801453,0.4649383139972649,0.4397790351625803,0.029583431753367525,-4.806808187546323,0.6066063534562105,0
197,2024-09-26 21:13:20.503612061,0,019,0.32916086117259413,0.11521234910685299,-1.037473585179086,0.4256902455944917,0.3792095763816274,0.040493484461563096,-5.263567484985176,0.6951407386203673,0
198,2024-09-26 21:13:20.570385010,0,019,0.2970429751083787,0.11769236220092236,-0.8755420669305107,0.39188134274227737,0.29800231382664105,0.05213411045614964,-5.602358912740567,0.7756652578900226,0
199,2024-09-26 21:13:20.637172119,0,019,0.25436353011549734,0.11937697999479499,-0.7720845096021336,0.3652857815421875,0.20169426698713425,0.06364267008572559,-5.806436848432002,0.8454669902153558,0
200,2024-09-26 21:13:20.703960938,0,019,0.20240127365378158,0.12061063923922297,-0.7289387480156528,0.3469729699926138,0.0959025066792972,0.0742549808477239,-5.862504971049951,0.9016613624465324,0
201,2024-09-26 21:13:20.770613037,0,019,0.1423719096306043,0.121794219257911,-0.7435951465712394,0.33724590958019696,-0.013839008410282235,0.08331753609287637,-5.76189625062651,0.9412859965043905,0
202,2024-09-26 21:13:20.837557129,0,019,0.07551623763893062,0.12334709090938357,-0.809343883792874,0.33566565957739963,-0.12221412736358234,0.09028898371859768,-5.501723090495544,0.9614821583613865,0
203,2024-09-26 21:13:21.783181885,0,019,0.003254659453202024,0.1256569621488464,-0.915884772700189,0.3410854576111631,-0.22429275198899828,0.09474094229926029,-5.085611638116396,0.959742833283185,0
204,2024-09-26 21:13:21.844763916,0,019,-0.07269760740735998,0.1290322845537115,-1.0503715230508772,0.35171187328493053,-0.3157090187444651,0.09636255289459619,-4.523691888738511,0.9341739207675277,0
205,2024-09-26 21:13:21.920659180,0,019,-0.1503022056572381,0.13366366785527334,-1.1988011897183886,0.365276195072532,-0.392790671236185,0.09496357929825881,-3.832081245417191,0.8837646498225276,0
206,2024-09-26 21:13:21.984939209,0,019,-0.22722866312795653,0.1395916212841433,-1.3474553103821096,0.37934161775287495,-0.45262123595910386,0.09046799867367242,-3.0323870012048175,0.8086756920486587,0
207,2024-09-26 21:13:22.054198975,0,019,-0.3009151229107257,0.1466823530356913,-1.4840912292351005,0.39166089829123785,-0.4930721281222501,0.08289990773119359,-2.1513397935083716,0.7104796794681272,0
208,2024-09-26 21:13:22.121041016,0,019,-0.3686686345683623,0.15462245436150304,-1.598786500951822,0.4004702471997651,-0.5128427494224366,0.07237152217359205,-1.220093236762014,0.5922438215779022,0
209,2024-09-26 21:13:22.187300049,0,019,-0.42782113606815003,0.16294292983397352,-1.6844148088083049,0.40466400899955995,-0.5115011315531584,0.05907686143606447,-0.27281229329038814,0.4584146687352375,0
210,2024-09-26 21:13:23.133173096,0,019,-0.47594056590050554,0.17107601301774397,-1.7366728678902634,0.40384671214130735,-0.4894940949467822,0.043286718018738714,0.6552011678288067,0.3145699055088263,0
211,2024-09-26 21:13:23.204322998,0,019,-0.5110826699877111,0.17843758145003102,-1.753695862948898,0.3982669948282034,-0.44812127519705186,0.025343660215233068,1.5293454333324277,0.1671192983494582,0
212,2024-09-26 21:13:23.271105957,0,019,-0.5320348530644197,0.18451287671051605,-1.7355746633854614,0.38864761867648495,-0.3895088091941521,0.005662807682692553,2.3173919643247944,0.02297038893580606,0
213,2024-09-26 21:13:23.332751953,0,019,-0.5384694549244939,0.1889173792656975,-1.684046079125467,0.3759484625462469,-0.31661414901023505,-0.015257970225594539,2.9912050004495367,-0.11087491646358207,0
214,2024-09-26 21:13:23.393922119,0,019,-0.5309447227052964,0.19141892129313653,-1.6021862436090653,0.36109045008049623,-0.23321177815724917,-0.036827843302739666,3.528511379332324,-0.22779214773389467,0
215,2024-09-26 21:13:23.470753906,0,019,-0.5107528734829576,0.1919273390745336,-1.4938215210254688,0.3446682578532538,-0.14374700909528879,-0.05837202412504146,3.9142721532560727,-0.32199812830652325,0
216,2024-09-26 21:13:23.533739990,0,019,-0.4796749192253885,0.1904687308471567,-1.3627632807035293,0.3267316850165452,-0.05300833837421312,-0.07917016883216355,4.141185334213828,-0.38891569767011125,0
217,2024-09-26 21:13:24.459037109,0,019,-0.43973372174653136,0.18716024371993514,-1.2121241961738711,0.3067207759837893,0.034315027567685126,-0.09851335755512863,4.209300329401344,-0.4254058347688047,0
218,2024-09-26 21:13:24.518208984,0,019,-0.3930079996163213,0.18219021108947342,-1.0438341982763568,0.2835726557375341,0.1140692061878384,-0.115757538434439,4.1249986986390175,-0.4298676936931225,0
219,2024-09-26 21:13:24.595628906,0,019,-0.34151487365416405,0.1757987635933698,-0.8585224143656439,0.255975403654695,0.18295315954848512,-0.13035821343142845,3.8994931650772156,-0.4021946245350961,0
220,2024-09-26 21:13:24.662405029,0,019,-0.287148973078987,0.16825564245139105,-0.6558734798432683,0.22270598138482778,0.2386657464299466,-0.14188547785467442,3.5470579279594867,-0.34361101052204185,0
221,2024-09-26 21:13:24.714926025,0,019,-0.23166112212626588,0.15983670986089155,-0.4351932366974768,0.1829223157666055,0.27991820619972957,-0.15002822166627228,3.0835053751520745,-0.25648784858109525,0
222,2024-09-26 21:13:24.796036865,0,019,-0.17664980890982382,0.1508017519741125,-0.1958248458802623,0.1362896180979531,0.3063715597228941,-0.15459766985919676,2.5253500404731777,-0.14420643981044098,0
223,2024-09-26 21:13:24.862750977,0,019,-0.12354930184311791,0.14137682524166437,0.06257067228814159,0.0829409355338588,0.3185049367299678,-0.15553353275047757,1.8896279217875747,-0.011040893431441734,0
224,2024-09-26 21:13:25.802635986,0,019,-0.07360830270425868,0.1317423409438762,0.33965513477823284,0.023372216669498982,0.31740919391301986,-0.15290814659875257,1.193996711681739,0.13798850575973154,0
225,2024-09-26 21:13:25.873449951,0,019,-0.0278478855836875,0.12202422271608075,0.6339814999064071,-0.041632063931230236,0.30455646010909126,-0.1469246737641647,0.45666392834888375,0.297299251904467,0
226,2024-09-26 21:13:25.945162109,0,019,0.012983406738115683,0.11228992974459416,0.9426269784370636,-0.11100532488759543,0.28161778441708935,-0.13790950570806945,-0.3040992053457126,0.46096455469570874,0
227,2024-09-26 21:13:26.011906006,0,019,0.04839448475270369,0.10255931159551057,1.2608856221609055,-0.1833553694322262,0.2503624860503823,-0.1262970425702507,-1.0706177583886902,0.6229492727659621,0
228,2024-09-26 21:13:26.066104980,0,019,0.07805541661050858,0.09283294086653604,1.5820085860037367,-0.2569390708082081,0.21263131037848146,-0.1126041808886298,-1.8260707781404395,0.7773108962976436,0
229,2024-09-26 21:13:26.145472900,0,019,0.10170441183183453,0.08312128272158123,1.8971993546424772,-0.3297452459890451,0.17034609658913027,-0.09739857943062835,-2.5539180039359364,0.9183169002989963,0
230,2024-09-26 21:13:26.212261963,0,019,0.11915660400848346,0.07345536712508313,2.1961165734489057,-0.39971227120831654,0.12550004353936606,-0.08126656455085861,-3.2366332518782444,1.0405022573289717,0
231,2024-09-26 21:13:27.137193848,0,019,0.13040418550682786,0.06388002475268527,2.4678256678515322,-0.464980173039338,0.08010321963964555,-0.06478017878283682,-3.8544973183717914,1.1387461953251443,0
232,2024-09-26 21:13:27.203418945,0,019,0.1357118141443956,0.054446271751530995,2.701801090259545,-0.5240279189534822,0.036131732310188104,-0.04846510909154282,-4.385302075907189,1.208421894566632,0
233,2024-09-26 21:13:27.270755127,0,019,0.13564560913368934,0.04521125598862845,2.888615946226295,-0.5756501207646524,-0.0044617877121284795,-0.03278040916432281,-4.805205469788161,1.2456116978518237,0
234,2024-09-26 21:13:27.331345947,0,019,0.13105463485104654,0.03623861826351683,3.0202974355236893,-0.6188567248547764,-0.03971548969543943,-0.018115466237217333,-5.090250942684697,1.2473423219177486,0
235,2024-09-26 21:13:27.404323975,0,019,0.1230394272767229,0.027592606529504297,3.090538958838811,-0.652797570599698,-0.06770189940420163,-0.004793689784952594,-5.218067377454966,1.2118070118295023,0
236,2024-09-26 21:13:27.471123047,0,019,0.11290049760049682,0.01933004698608773,3.0948374890294206,-0.6767467982988519,-0.08666966627753776,0.006927875125018943,-5.169898911990318,1.1385873505915536,0
237,2024-09-26 21:13:27.537904053,0,019,0.10204083072134729,0.011495777696963293,3.030425626402134,-0.6901198326839086,-0.09521439196389307,0.016860907647986943,-4.933209212036579,1.028878233897048,0
238,2024-09-26 21:13:28.487230957,0,019,0.09182376013543815,0.004121657493806721,2.8959113803002285,-0.6924842583997143,-0.09241677872791335,0.024885753533938893,-4.5042439671391845,0.885624580987589,0
239,2024-09-26 21:13:28.554031981,0,019,0.08342288200217317,-0.0027714810481266174,2.6907769581275365,-0.6835585913944847,-0.077931493106524,0.030951388734635377,-3.8893663420154265,0.7134313611564246,0
240,2024-09-26 21:13:28.620802002,0,019,0.07770348075846978,-0.009167560927871464,2.4150421391466654,-0.6632205698184643,-0.05202253323772462,0.03507770594785365,-3.1047562349866986,0.5182323411859129,0
241,2024-09-26 21:13:28.687607910,0,019,0.07514610442898485,-0.015043557024183302,2.069322233504737,-0.6315278976961849,-0.015535761150532432,0.037357044411616025,-2.175319154801816,0.3068801650377447,0
242,2024-09-26 21:13:28.754379150,0,019,0.07580410138126052,-0.020353836272316288,1.655292078695453,-0.5887213278533615,0.030187482333030525,0.03795155919353393,-1.1337131599889745,0.08681763476190364,0
243,2024-09-26 21:13:28.820262939,0,019,0.07929364052956266,-0.025016779600823425,1.1764412058743317,-0.535202011742519,0.08341404307735094,0.03708682547507347,-0.01927345639359666,-0.1341820437503295,0
244,2024-09-26 21:13:28.881912842,0,019,0.08482320188512346,-0.028912544446221593,0.639038686184391,-0.4715347733583384,0.14208076124823374,0.03504256192636731,1.1240201628112703,-0.34831485774956766,0
245,2024-09-26 21:13:29.827162109,0,019,0.09126902776573316,-0.03189466614823155,0.05318545034710324,-0.39853143152818066,0.20380360656209381,0.03213899537188554,2.2507557730802774,-0.5481258943472044,0
246,2024-09-26 21:13:29.904166016,0,019,0.09728977891591478,-0.0338089123588734,-0.5663722118730581,-0.31739675610639184,0.26589328500300974,0.028718082786212958,3.3177990937448296,-0.7269208124984344,0
247,2024-09-26 21:13:29.966875000,0,019,0.10144802612101986,-0.034511974897948466,-1.2000948108946914,-0.22985768956064995,0.32544174015041033,0.025121357521389713,4.2876317006133915,-0.879150410394412,0
248,2024-09-26 21:13:30.028285889,0,019,0.10230404203860169,-0.03388670309613925,-1.8243794455739182,-0.13820804738413173,0.37949112865979434,0.02166605961761243,5.130853831742377,-1.0007454820327912,0
249,2024-09-26 21:13:30.089895020,0,019,0.09849084137656695,-0.03185292894299691,-2.413018252023091,-0.045268680596656626,0.42525973077313517,0.018620402656399325,5.827711642697479,-1.089390764553428,0
250,2024-09-26 21:13:30.171293945,0,019,0.08881449847386977,-0.02837630192743502,-2.9390757766020776,0.04569817148544515,0.46038468792339193,0.016180447029855202,6.3685207236578885,-1.1446880773670145,0
251,2024-09-26 21:13:30.238096924,0,019,0.07239828115782841,-0.02347847545772912,-3.3769848785618906,0.13112487276753818,0.4831181956187038,0.01445379324595708,6.752919622167849,-1.1681332432769957,0
252,2024-09-26 21:13:31.186373047,0,019,0.04884115282886112,-0.01724598597331521,-3.7047551593170405,0.2073737960085751,0.4924129699658932,0.01345612482472136,6.988219665425001,-1.1628873560996793,0
253,2024-09-26 21:13:31.249219971,0,019,0.018342742101590655,-0.00983107857009791,-3.9060000389449985,0.27106576875686866,0.487881139620176,0.013122899609364783,7.08741900453438,-1.133401085653873,0
254,2024-09-26 21:13:31.319274902,0,019,-0.018248118930064748,-0.0014429100751018708,-3.971199523049401,0.31940026607490646,0.46967205324217637,0.013330565474841589,7.067395383318361,-1.0849602817339041,0
255,2024-09-26 21:13:31.373161133,0,019,-0.059488332971803046,0.007666183891890102,-3.897812183420576,0.35037343895103645,0.4383452751280282,0.013917205152014929,6.94749625626972,-1.023197499933611,0
256,2024-09-26 21:13:31.453509032,0,019,-0.10349491903579017,0.017217229609606245,-3.68957759489107,0.3628912145893845,0.394783460106875,0.014701285555218923,6.748485799818972,-0.9536239443412838,0
257,2024-09-26 21:13:31.520283936,0,019,-0.14815812217027252,0.026924535518926346,-3.355752640380336,0.3568087417060918,0.3401240299738896,0.01550925830663015,6.491682538979068,-0.8812483790779589,0
258,2024-09-26 21:13:31.574328857,0,019,-0.1913533739161764,0.036512433644267525,-2.910680480020159,0.3329027496317954,0.2756888879797118,0.01621327729608841,6.198116552502864,-0.8103175741756966,0
259,2024-09-26 21:13:32.536503174,0,019,-0.23110430593407424,0.04571998910873769,-2.3735871291357165,0.29279522752249393,0.20295834660650194,0.01675782785729825,5.887579617575366,-0.7441643553215042,0
260,2024-09-26 21:13:32.595570068,0,019,-0.265687474609366,0.0542976807963155,-1.768290798056584,0.23886857718203108,0.12363275545163228,0.017156107206226255,5.577413031180471,-0.6851126796976807,0
261,2024-09-26 21:13:32.655093018,0,019,-0.29371234587295986,0.06200987336203372,-1.1225331434428116,0.174178050198584,0.03972518564892556,0.017462183443910945,5.280888384761853,-0.6343649164183824,0
262,2024-09-26 21:13:32.736855957,0,019,-0.31421815057563507,0.0686509877198037,-0.46682356973862843,0.10232453685853461,-0.04642924968623353,0.017738614173156628,5.005395470846959,-0.5918407958285704,0
263,2024-09-26 21:13:32.794842041,0,019,-0.32677909487733214,0.0740713310224185,0.1671407635540746,0.027262305980152154,-0.13230525045830333,0.018034772979168744,4.751213087231033,-0.5560775914031958,0
264,2024-09-26 21:13:32.870420898,0,019,-0.3315476553002315,0.07820032078730313,0.7484459299342283,-0.04694793617082407,-0.21541450631261824,0.0183812368283975,4.511743146914861,-0.5243899939362039,0
265,2024-09-26 21:13:32.937211914,0,019,-0.3291729530325587,0.08105384718392614,1.2493080504062415,-0.11642321627501527,-0.29353000128461937,0.018795946197050602,4.27539305962996,-0.493368474515805,0
266,2024-09-26 21:13:33.886609131,0,019,-0.32061398619594605,0.08272169758206192,1.6475090976364932,-0.17776950646566922,-0.3648634075457736,0.019298272037705767,4.028317855065132,-0.4595588038602392,0
267,2024-09-26 21:13:33.943517090,0,019,-0.3069411914190402,0.0833443403967289,1.9283452767570213,-0.22838810201120233,-0.42822808721565647,0.01993336471976814,3.756919760037349,-0.4200593940109644,0
268,2024-09-26 21:13:34.020165039,0,019,-0.2892085669609499,0.08309101151492332,2.0856570144244095,-0.26671329471455807,-0.483179428457706,0.020799167911849194,3.4495219433416784,-0.3728703243522175,0
269,2024-09-26 21:13:34.086756104,0,019,-0.26839956774699913,0.08214120175910426,2.1219596418253985,-0.29232181915596195,-0.5300305817224077,0.02205214878328282,3.097227126830078,-0.3169825918926376,0
270,2024-09-26 21:13:34.153748047,0,019,-0.245390842417198,0.08066503600401656,2.0479487827658254,-0.30588453820221767,-0.5696639003315531,0.023875721336461903,2.694209555712317,-0.2522854128646412,0
271,2024-09-26 21:13:34.220529053,0,019,-0.22089193170675087,0.07880196991065583,1.8815338766709562,-0.30895419525463447,-0.6031672068663633,0.02641856028086498,2.2377639122201622,-0.17938493095163652,0
272,2024-09-26 21:13:34.287313965,0,019,-0.1953703320773171,0.07664325439878014,1.6462827391139792,-0.30360756833072744,-0.6314004825666205,0.029722968882052777,1.7283328233488673,-0.09939782922606795,0
273,2024-09-26 21:13:35.199474121,0,019,-0.16899826978432755,0.07422509758705224,1.3691008496840644,-0.29201002330461673,-0.6546373338025926,0.03366887535105182,1.1694039475175806,-0.013744788172468153,0
274,2024-09-26 21:13:35.278434082,0,019,-0.1416402538213509,0.0715346548004787,1.0772670570429668,-0.2760304853134243,-0.6724095018941566,0.03795646246586371,0.5671341101027813,0.07602627653719281,0
275,2024-09-26 21:13:35.337022949,0,019,-0.11287027210620967,0.0685223618883639,0.7953200005682405,-0.2570352871613639,-0.6835776139968682,0.042129058920461544,-0.06997102929533203,0.16831330764900784,0
276,2024-09-26 21:13:35.412022949,0,019,-0.08201126234878742,0.06511291565669648,0.5424432132313876,-0.2358953020597579,-0.686561314093671,0.04561824976226597,-0.7308226748338154,0.26136862705166153,0
277,2024-09-26 21:13:35.475280029,0,019,-0.04820770198519525,0.06121335176640888,0.33096544458514787,-0.21314272965952458,-0.6796612487126065,0.04779678902905819,-1.401015474302363,0.35308748094217995,0
278,2024-09-26 21:13:35.545566162,0,019,-0.01052079936726956,0.056715739282097236,0.1663334329266956,-0.18919932232077968,-0.6614043084395004,0.048032348814606246,-2.0622645811539186,0.4408233698535058,0
279,2024-09-26 21:13:35.603597900,0,019,0.03198593569381663,0.05149054386450496,0.048325144764428736,-0.16460505595135103,-0.6308169935489052,0.04573340767162523,-2.692646998365157,0.5213673560615057,0
280,2024-09-26 21:13:36.545847900,0,019,0.0801690464116376,0.04537842980525682,-0.027220629509593693,-0.1401474631872109,-0.5875640376544481,0.04038278889051712,-3.2676813968423595,0.5911085768322164,0
281,2024-09-26 21:13:36.623501953,0,019,0.13469811136024934,0.03819659139089242,-0.06676074301010605,-0.11681536816492863,-0.5319639732756272,0.03156281514790429,-3.7619664584544763,0.6463062131358184,0
282,2024-09-26 21:13:36.694704102,0,019,0.19590012698106718,0.02976537533825958,-0.077607643096393,-0.0956271618796423,-0.464920112962624,0.018974818828197324,-4.151340735708644,0.6834331144425392,0
283,2024-09-26 21:13:36.761487061,0,019,0.26357987983432396,0.01994661673788755,-0.06655710197253961,-0.07748736396807844,-0.38777750171457465,0.0024497556890521956,-4.415471130569695,0.699576073388655,0
284,2024-09-26 21:13:36.828258056,0,019,0.33687165463662483,0.008680879477057252,-0.0385919231256433,-0.06317564628665304,-0.3020935021270675,-0.01805557021325526,-4.540274684663609,0.6928260074200725,0
285,2024-09-26 21:13:36.895081055,0,019,0.41417689638402333,-0.00398505114092589,0.0040438204475456195,-0.05341807288549418,-0.20935279049535044,-0.042477804404877154,-4.519515804125076,0.662574062892768,0
286,2024-09-26 21:13:36.961841064,0,019,0.4932135685432238,-0.01788269035122056,0.061994708923871066,-0.04889700970558312,-0.11075488517532618,-0.07066848634431841,-4.355437026313127,0.6096882140835255,0
287,2024-09-26 21:13:37.885588867,0,019,0.5711709896122322,-0.0327184488940647,0.13792704227161912,-0.05010990731246229,-0.007210903241821497,-0.10239413481368262,-4.058672773911522,0.5365818429934555,0
288,2024-09-26 21:13:37.952385986,0,019,0.6449383219358784,-0.04808445684899484,0.23477312164310046,-0.057119034434472395,0.10046104345951894,-0.13730748165440432,-3.6475702771549234,0.447156933200309,0
289,2024-09-26 21:13:38.015395996,0,019,0.7113609956768123,-0.063485457159095,0.3536439903183811,-0.06931826155666466,0.21127214483747794,-0.17490740272620922,-3.1467240492421773,0.34657550660384145,0
290,2024-09-26 21:13:38.085935059,0,019,0.7674934668374735,-0.07837891754892724,0.49219209987774293,-0.08532548671841,0.32382094232541697,-0.21450716728062835,-2.584630056612308,0.2408496074029558,0
291,2024-09-26 21:13:38.137243896,0,019,0.8108395678382391,-0.0922213057703784,0.6440636689649686,-0.10304971726832395,0.43610029677146855,-0.25522113842900196,-1.9908310750903688,0.1363097822113807,0
292,2024-09-26 21:13:38.213577881,0,019,0.8395646000284337,-0.10451283385023193,0.799630943484175,-0.11993885044043634,0.5453950183488392,-0.2959813044653689,-1.3931337243690123,0.03904469681436064,0
293,2024-09-26 21:13:38.275636963,0,019,0.8526385242726718,-0.11483365661722361,0.947642807091728,-0.13336147931366993,0.6483106071350984,-0.33559278586465924,-0.8153795443962816,-0.04558872905408626,0
294,2024-09-26 21:13:39.234947021,0,019,0.8498796380761487,-0.12286638015281791,1.0771054614711177,-0.14100811143591657,0.7409204947850574,-0.3728193399191625,-0.2761319993874254,-0.11329334807741777,0
295,2024-09-26 21:13:39.301661133,0,019,0.8319118437856068,-0.12840458619932754,1.1787463420024087,-0.14117955579464334,0.8189934439954607,-0.4064748320707105,0.21160197455091145,-0.16096524340245483,0
296,2024-09-26 21:13:39.359488037,0,019,0.8000597294760025,-0.13135004440370507,1.2457286383870443,-0.13289226200237778,0.878288516063581,-0.43550087647468266,0.6397946200658127,-0.18667097332039684,0
297,2024-09-26 21:13:39.435450928,0,019,0.7561842828302547,-0.13170045272007458,1.2737231458241418,-0.11581841307677067,0.914921168506861,-0.4590249171694723,1.0042833598050966,-0.18954121028072765,0
298,2024-09-26 21:13:39.499645996,0,019,0.7024721282554753,-0.12953042135228365,1.260694684010884,-0.09012864877074954,0.9257696604647775,-0.47640200981021064,1.3035944820023069,-0.16966932583742925,0
299,2024-09-26 21:13:39.561702881,0,019,0.6412134572549982,-0.12496907030916647,1.2066372025802965,-0.056316819195469374,0.9088419540541357,-0.48724416640540685,1.5382751538232957,-0.12808309885585673,0
300,2024-09-26 21:13:39.624190186,0,019,0.5745913375230297,-0.11817449199227646,1.113286385503137,-0.015087067802390386,0.8635087966024713,-0.4914349604531383,1.7109294055707405,-0.066784319324949,0
301,2024-09-26 21:13:40.584260986,0,019,0.504498633914652,-0.10930603174360745,0.9838129050481745,0.032651491113770026,0.7905634692184664,-0.48912392466076987,1.826445567103065,0.011225393974325176,0
302,2024-09-26 21:13:40.646816895,0,019,0.4324212279116601,-0.0985026153618544,0.8225497114465776,0.08572209640183817,0.6921847465014193,-0.48070655771559834,1.8915739557638032,0.10204351152979901,0
303,2024-09-26 21:13:40.708386963,0,019,0.35941608924437596,-0.0858765760790013,0.6348119264382676,0.14263022831763356,0.5719186252243762,-0.466805789853022,1.9135512866400775,0.20114072466894675,0
304,2024-09-26 21:13:40.785586182,0,019,0.28615945644773677,-0.07152312980113104,0.426803845106623,0.20155515145760483,0.4346636933024039,-0.4482572412708031,1.8983892825309123,0.30374315167269783,0
305,2024-09-26 21:13:40.852890869,0,019,0.21301750975730932,-0.05553947291227108,0.20551106205946743,0.26037268242060224,0.2865150971226381,-0.4260804660956376,1.8496744167413086,0.4052199704050882,0
306,2024-09-26 21:13:40.911636230,0,019,0.14011778349653714,-0.03804899157725555,-0.021472458956817705,0.31671334060410705,0.13438073399216216,-0.4014226344261138,1.7680650125467348,0.5014511593072052,0
307,2024-09-26 21:13:40.986481934,0,019,0.06742473327832117,-0.019225828614546685,-0.24605806564146246,0.3680580461506536,-0.014553230492998373,-0.37548321742880003,1.651116963062763,0.5891882797072525,0
308,2024-09-26 21:13:41.937268066,0,019,-0.00516908758698311,0.0006865677163610466,-0.459662814235097,0.4118624967850369,-0.153354847481744,-0.34943969444247,1.4933971028380058,0.6663380935380993,0
309,2024-09-26 21:13:41.995220947,0,019,-0.07773016573254235,0.021366819001840686,-0.6533665308118326,0.4457243747320405,-0.27578208377715796,-0.32438792488146423,1.2874583437514489,0.7320332249311678,0
310,2024-09-26 21:13:42.070836182,0,019,-0.1501658552626162,0.04241865396778735,-0.8185600261005326,0.4676233587879468,-0.37662469090337664,-0.3012988546733911,1.0261291269963873,0.7864269054611542,0
311,2024-09-26 21:13:42.137638184,0,019,-0.22212738452172465,0.06338743792494543,-0.9480356613026527,0.4762162384024821,-0.4519890240488594,-0.28098620202081726,0.7058427881536157,0.8302621555659382,0
312,2024-09-26 21:13:42.204426025,0,019,-0.29294069033906533,0.08378743263406611,-1.0371367397322273,0.47109167783293504,-0.4995182635196767,-0.2640811413403142,0.330036873113925,0.8643407210969035,0
313,2024-09-26 21:13:42.260350098,0,019,-0.3615661303892358,0.1031292477750527,-1.0846888588672257,0.45288744997865776,-0.518494542869938,-0.2510160720949468,-0.08872635324072647,0.889080642523441,0
314,2024-09-26 21:13:42.338015137,0,019,-0.4266038969395305,0.12093748362597244,-1.093639605170629,0.42326278034375936,-0.5097878946473198,-0.24202151946226766,-0.5288830702462433,0.9043259825337696,0
315,2024-09-26 21:13:43.274439209,0,019,-0.4863464607541838,0.13675807684713437,-1.0712573638711214,0.38477849209825904,-0.4756842151882193,-0.23713418942410094,-0.962168190669459,0.9094312173440099,0
316,2024-09-26 21:13:43.352166016,0,019,-0.5388527559300568,0.15016180660619047,-1.0286218035669998,0.34070033925447385,-0.41965458907078135,-0.23621048434496755,-1.357363570057474,0.903540889369261,0
317,2024-09-26 21:13:43.419492920,0,019,-0.5820420854994716,0.16074973174750878,-0.9792128202608771,0.29468314126217104,-0.3460820924810029,-0.23894590050667266,-1.6846894209621117,0.8859714217174535,0
318,2024-09-26 21:13:43.486224121,0,019,-0.6138417068058167,0.16816440355997125,-0.9366989840817275,0.2503241219077897,-0.2599369380971736,-0.24490296264301462,-1.920003311946259,0.8565988014810325,0
319,2024-09-26 21:13:43.553072998,0,019,-0.6323994987340992,0.17211074194955717,-0.9125515879834614,0.21068722462219208,-0.16644725328418622,-0.2535406212326528,-2.0479844509276113,0.8161528332246346,0
320,2024-09-26 21:13:43.614835938,0,019,-0.6363153230381469,0.17238633975507472,-0.9143403719618316,0.1779482076293541,-0.07084503479870921,-0.2642338605581254,-2.063645762354118,0.7663284066226246,0
321,2024-09-26 21:13:43.677647217,0,019,-0.6248289554347862,0.16891370702113295,-0.9450562953810597,0.15322448093961288,0.02179589803369603,-0.2762839784098739,-1.971880778830739,0.7096706095885162,0
322,2024-09-26 21:13:44.632167969,0,019,-0.5979356607860341,0.16176530381299367,-1.0032640215001485,0.1365677056898362,0.1066871613019232,-0.2889317311633556,-1.7854831674316671,0.6492866039489089,0
323,2024-09-26 21:13:44.694756104,0,019,-0.5564237148643618,0.15117474914869058,-1.0839056348962963,0.1270971912474203,0.17948996658798072,-0.3013845598909323,-1.5226469262744795,0.5884887632513459,0
324,2024-09-26 21:13:44.756791992,0,019,-0.50183888350453,0.1375310936928451,-1.1795980599580707,0.12325070477503618,0.23655441395619814,-0.31286118477925406,-1.2047081184563984,0.5304337038163565,0
325,2024-09-26 21:13:44.833923096,0,019,-0.43641225484581364,0.12136157673426068,-1.2819751364494225,0.12307485848994854,0.2752033560188006,-0.32264766776936366,-0.8542493326715701,0.4777911553815979,0
326,2024-09-26 21:13:44.903166992,0,019,-0.363000850902249,0.10331593105356669,-1.3825903639514265,0.12445620684065146,0.2939726278261961,-0.33015307476467903,-0.4934605437348006,0.43251090338221876,0
327,2024-09-26 21:13:44.970010010,0,019,-0.28504260299136275,0.08415801428731702,-1.4733062897989804,0.12526405245486943,0.292733995368124,-0.33495609037163293,-0.14289149323717887,0.3957776763532176,0
328,2024-09-26 21:13:45.036050049,0,019,-0.20646720213180822,0.064754130742857,-1.5464008229962,0.12344830967315272,0.27266923765034584,-0.3368385898388533,0.17919962292007113,0.3681597561628342,0
329,2024-09-26 21:13:45.962325195,0,019,-0.13150366538138006,0.04604400211111925,-1.594616847071777,0.11713589078639841,0.23607245310991343,-0.33579792311034723,0.4571354052602934,0.3498106089416107,0
330,2024-09-26 21:13:46.029135986,0,019,-0.06438381625138488,0.028991641515694368,-1.6113534225443253,0.10475223956905004,0.18597855729904195,-0.3320256269087522,0.6783012925269019,0.34055192095337034,0
331,2024-09-26 21:13:46.084377930,0,019,-0.008998823959604132,0.014521593411288133,-1.5911337938161856,0.08518852376701865,0.12570440178469444,-0.3258537241461556,0.8340227648016252,0.33980910432700073,0
332,2024-09-26 21:13:46.161819824,0,019,0.03141086842142612,0.0034495367948756436,-1.5302327137797314,0.05799007533625014,0.0584789843798748,-0.3176947569405042,0.9205368094560759,0.34650779707719864,0
333,2024-09-26 21:13:46.229477051,0,019,0.054465219525916216,-0.003578547936741151,-1.4270920967475498,0.023485683961658774,-0.012705282049457952,-0.30800657094613176,0.9396466590707712,0.35904163640864295,0
334,2024-09-26 21:13:46.282727051,0,019,0.0587394637128607,-0.006126845979827742,-1.2822526806494663,-0.01720093315232569,-0.0850474126739792,-0.29728886179480074,0.8986492156628347,0.3753716951707335,0
335,2024-09-26 21:13:46.363069092,0,019,0.04378727176654517,-0.003990923228398571,-1.0979716657954124,-0.062230456886998076,-0.15582200371408925,-0.28609499765815327,0.8091705604246572,0.3932813612228107,0
336,2024-09-26 21:13:47.311766113,0,019,0.010143422863529284,0.0027910331196379133,-0.8779377052256284,-0.10915554363175538,-0.22230395839379194,-0.27503651282530334,0.6850266671673461,0.4107388331706199,0
337,2024-09-26 21:13:47.378555176,0,019,-0.040682799861047565,0.013933135011966111,-0.6272558183321532,-0.155046328438425,-0.2818136121921214,-0.26476226602322006,0.5398429129279391,0.42623736290853986,0
338,2024-09-26 21:13:47.437869141,0,019,-0.10624877601199237,0.028909107851355923,-0.3525804465763208,-0.19666920776312505,-0.3319132096614121,-0.25590792898988096,0.38518191900598525,0.43899148992898934,0
339,2024-09-26 21:13:47.499604004,0,019,-0.18327678734000247,0.04697952630908704,-0.06222888231930331,-0.2307340282320684,-0.3706984759453266,-0.24902903637390483,0.22941163881766558,0.4489619149734252,0
340,2024-09-26 21:13:47.574187988,0,019,-0.26781346879734147,0.06723866677752897,0.23384331708687486,-0.25417844736350653,-0.3970598924861905,-0.2445397888316795,0.07723051288537988,0.45674254691113586,0
341,2024-09-26 21:13:47.645690918,0,019,-0.35545109989332163,0.08867475755526885,0.5243424220414459,-0.26443548710258435,-0.410790449555955,-0.2426781539145541,-0.0701253797126076,0.4633318228714562,0
342,2024-09-26 21:13:47.703960938,0,019,-0.44160611496861335,0.11023960965288762,0.7973569260876323,-0.2596542704934105,-0.41249715404041176,-0.2435059351820737,-0.21400633864423002,0.4698335068734283,0
343,2024-09-26 21:13:48.626390869,0,019,-0.5218319343519211,0.13092727810814567,1.0414638316491742,-0.23888133038622802,-0.40337903391958185,-0.24693323679780818,-0.35719754081551147,0.4772078594104056,0
344,2024-09-26 21:13:48.702838867,0,019,-0.5921309620743817,0.14985517894058548,1.2470293906648497,-0.202217936353978,-0.3849745987022032,-0.2527490454931678,-0.503032593346032,0.4861859393242186,0
345,2024-09-26 21:13:48.766743896,0,019,-0.6492293595658193,0.16632923682606604,1.4075622699950951,-0.15095142613587562,-0.3589444071901482,-0.26065217968259646,-0.6550376121409484,0.49735163055324955,0
346,2024-09-26 21:13:48.829229004,0,019,-0.6907793290252453,0.179876218135484,1.5208398757643464,-0.08760792033516633,-0.3269142427891054,-0.27028683980575874,-0.8170231527456161,0.511313596674242,0
347,2024-09-26 21:13:48.903572998,0,019,-0.7154645468741577,0.19024320413885323,1.5892806584727321,-0.015835435082071213,-0.29038704259502435,-0.2812796326650059,-0.9932512742068467,0.5288665798612826,0
348,2024-09-26 21:13:48.967995850,0,019,-0.7230133162402558,0.19737628823467362,1.6193262758612255,0.05991176403704999,-0.25069689403213385,-0.29327024763309945,-1.1882169105834144,0.5510500473807242,0
349,2024-09-26 21:13:49.037162109,0,019,-0.7141485907794386,0.20138874931529718,1.6201947373058339,0.13481267385317827,-0.20896146761397202,-0.3059352319762669,-1.4058128822203617,0.5790531782909175,0
350,2024-09-26 21:13:49.983756104,0,019,-0.690494056767261,0.20252285183937574,1.6025213023910687,0.2041312155718039,-0.16604943053681487,-0.31900349135162465,-1.6479498049716086,0.6139669821932605,0
351,2024-09-26 21:13:50.053353027,0,019,-0.6544224354256926,0.2011074745797654,1.5771283486952123,0.26359211910006874,-0.12262063312571077,-0.33225495694530705,-1.913079359191236,0.6564491313555534,0
352,2024-09-26 21:13:50.108721924,0,019,-0.608825706578712,0.19751619838670254,1.5539718159261,0.3096364872889205,-0.07923718640035102,-0.34549951196171175,-2.1954351846042055,0.7064437606259519,0
353,2024-09-26 21:13:50.186906982,0,019,-0.5568316005436936,0.1921350700434477,1.5414119478951331,0.33954964096289786,-0.0364972521266034,-0.35854331355428065,-2.4853948330181335,0.7630745459065864,0
354,2024-09-26 21:13:50.246876953,0,019,-0.5015369926323008,0.18534981887749988,1.5459866185068947,0.3514838531118981,0.004830481832856708,-0.37115274454068475,-2.770388882250855,0.82468318117323,0
355,2024-09-26 21:13:50.308017090,0,019,-0.445815524816762,0.17755227534328147,1.5725529482935827,0.3444343380815757,0.043695933000864294,-0.3830301677237479,-3.0356389475910897,0.8889047384401285,0
356,2024-09-26 21:13:50.387233887,0,019,-0.39221136473967355,0.1691522492692061,1.6244512516457588,0.3182165244345415,0.07874549655899633,-0.39381688345936267,-3.2647044998953056,0.9527270649091855,0
357,2024-09-26 21:13:51.328001953,0,019,-0.34291321813808384,0.16057961714846122,1.7034946889186204,0.2734344454197658,0.10842778719121844,-0.403124180969643,-3.4401103231032604,1.0125419964586957,0
358,2024-09-26 21:13:51.389167969,0,019,-0.2997923914442169,0.15227162130213395,1.8097365395954605,0.21143000860643463,0.13117063792483688,-0.4105732508638282,-3.544100125205127,1.0642209359382138,0
359,2024-09-26 21:13:51.465896973,0,019,-0.2644493352608305,0.14464713078357405,1.941081281584852,0.13424607981861716,0.14554331024014786,-0.41582561539932994,-3.5595983737288748,1.1032936754038982,0
360,2024-09-26 21:13:51.528396973,0,019,-0.23818825085498269,0.13806676431513495,2.0930123155548506,0.04461261503770756,0.15040135409770197,-0.4186077349111349,-3.4716971484782033,1.1253252102814049,0
361,2024-09-26 21:13:51.603350098,0,019,-0.2218883306464014,0.1327785751836149,2.2587235851271847,-0.054099200461410986,0.14505687603959172,-0.4187425442851648,-3.269702941638045,1.1264771801827926,0
362,2024-09-26 21:13:51.668342041,0,019,-0.21583508598820403,0.1288649795482995,2.4296910784204226,-0.1580192471033251,0.1294469401492686,-0.41618352100479916,-2.949156828377751,1.1040913769647016,0
363,2024-09-26 21:13:51.737221924,0,019,-0.21961336211510438,0.12621881911484314,2.5965119624177255,-0.2630308225821562,0.1042177059785047,-0.41103280200495784,-2.5131412621631117,1.0571092349987217,0
364,2024-09-26 21:13:52.671722900,0,019,-0.23210777021068196,0.12456119191646914,2.749837668678327,-0.3650991738596661,0.07067546365322366,-0.4035326960960204,-1.9726102858386445,0.9862399643867431,0
365,2024-09-26 21:13:52.753524170,0,019,-0.2516021970707894,0.12348973801575712,2.8813405020544014,-0.4606265706267586,0.030621921977588323,-0.394036347972594,-1.3457861926856591,0.8938838429741076,0
366,2024-09-26 21:13:52.820303955,0,019,-0.27597353091175586,0.1225419497872449,2.9846752181869953,-0.5467636212202445,-0.013856670251583351,-0.38297246998493484,-0.6566958243363101,0.7838499434407533,0
367,2024-09-26 21:13:52.873450928,0,019,-0.30295737906735615,0.12126295548708564,3.056248004024422,-0.6215747483450155,-0.06058560056338479,-0.3708145201041498,0.06705278690755558,0.6609240871695309,0
368,2024-09-26 21:13:52.951072998,0,019,-0.3304017345883071,0.11926331635083379,3.09546301496546,-0.6839722843867523,-0.10747792535507236,-0.35805475680791815,0.796947076390112,0.530378925728136,0
369,2024-09-26 21:13:53.020672119,0,019,-0.35641583241067826,0.11625158020458198,3.1041936761201843,-0.7334314624370221,-0.15268304804173813,-0.3451846384268486,1.5061045874170336,0.39753473992151256,0
370,2024-09-26 21:13:53.087443115,0,019,-0.37940257492033735,0.11204183521663434,3.085536591147254,-0.7696198811877348,-0.19465501828578133,-0.3326890186863744,2.1710377329419197,0.2674386863149679,0
371,2024-09-26 21:13:54.034171143,0,019,-0.39804420083590436,0.10655253244135794,3.0423046811342815,-0.792117974251399,-0.23211304153416357,-0.32105547349840124,2.7724355890565486,0.14466144300434325,0
372,2024-09-26 21:13:54.095344971,0,019,-0.41131067260438503,0.0998099072352432,2.975965455271021,-0.8003393299798112,-0.26392786414484165,-0.3107886442014356,3.295193750752497,0.03317899241917468,0
373,2024-09-26 21:13:54.170339111,0,019,-0.41850478607061253,0.09195586704525613,2.8865122209198177,-0.7936405423862325,-0.28899093059095426,-0.30241475095060505,3.727973251920952,-0.06367075497952776,0
374,2024-09-26 21:13:54.233620117,0,019,-0.4193176993425109,0.08325209043313746,2.773140713584825,-0.771527176237312,-0.30613242201028246,-0.29646313633524235,4.06247652838042,-0.14315113158941964,0
375,2024-09-26 21:13:54.295697021,0,019,-0.4138650234808087,0.07407105682621844,2.635199567026469,-0.7338708719867767,-0.314153912349897,-0.29342146342674974,4.292655658897361,-0.20302848712698787,0
376,2024-09-26 21:13:54.370688965,0,019,-0.40268879729653534,0.0648705447515396,2.472937120869286,-0.6810971948151077,-0.3120081765204721,-0.29367280820573805,4.414141860722232,-0.24147612022709955,0
377,2024-09-26 21:13:54.437499023,0,019,-0.38671505500057485,0.056155801574546575,2.287809339259738,-0.6143041465073775,-0.2990995733423429,-0.2974259723237798,4.424205257334316,-0.257072784822239,0
378,2024-09-26 21:13:55.386842041,0,019,-0.36714314362485306,0.04843314256130167,2.08241765372664,-0.5352782094442162,-0.2756154869026237,-0.30465214016419906,4.322368418165251,-0.24895058807824183,0
379,2024-09-26 21:13:55.453624023,0,019,-0.34526308821302903,0.04215699902145802,1.8603388051010081,-0.4464269321298762,-0.24277241109538408,-0.31504642952134104,4.1114719264500055,-0.21706170730632005,0
380,2024-09-26 21:13:55.520432861,0,019,-0.32226558658915344,0.03767926035814297,1.6259627153201286,-0.3506575528657501,-0.2028859050042888,-0.32803122867951595,3.798710960022033,-0.16245844058898792,0
381,2024-09-26 21:13:55.587181152,0,019,-0.29913481507509165,0.03521393749437221,1.3842053499500429,-0.2511883408892543,-0.15921851841527185,-0.34280751551543887,3.3960566827167096,-0.08744380235649421,0
382,2024-09-26 21:13:55.645997070,0,019,-0.2766536709972764,0.03482311642195987,1.139971394127412,-0.15128130088418026,-0.11560217467984577,-0.35845051721531035,2.9198654941700126,0.004490555034922145,0
383,2024-09-26 21:13:55.720281006,0,019,-0.25547938923974844,0.03642184165183935,0.8974886958653181,-0.05394964027983175,-0.07589220810837226,-0.37403601618889903,2.389950077611395,0.10891161995300878,0
384,2024-09-26 21:13:55.777033936,0,019,-0.2362184160150265,0.039795990423540956,0.6598904313250362,0.038253488013051506,-0.0433771009432804,-0.3887694436594162,1.8281390560162292,0.22083469689632987,0
385,2024-09-26 21:13:56.734625977,0,019,-0.2194369730079448,0.044624705568513855,0.4293987720902618,0.12328444793931906,-0.02027146629236995,-0.40208702535005014,1.2560987437065239,0.3352260339596037,0
386,2024-09-26 21:13:56.804260986,0,019,-0.2055906093771916,0.050499648807654056,0.20805832748091546,0.19951327061957055,-0.007378606054123156,-0.4137121263326322,0.6927558855358931,0.44751440822522975,0
387,2024-09-26 21:13:56.871353027,0,019,-0.1949214513363371,0.05694156742779249,-0.0014836009086677331,0.26557527424900934,-0.004006077589742448,-0.42365837897950254,0.15213312181681427,0.5539795552468911,0
388,2024-09-26 21:13:56.938132080,0,019,-0.18738688517435992,0.06342235986134766,-0.19569732837519535,0.32026080581783745,-0.008190822875508957,-0.43217353378634543,-0.3579917650163402,0.6520003340406059,0
389,2024-09-26 21:13:57.004995117,0,019,-0.18263470933964615,0.06939746487729762,-0.37051571574391173,0.362477092553903,-0.01716236032505311,-0.43963600949370735,-0.836745974564666,0.7402319941508788,0
390,2024-09-26 21:13:57.058264893,0,019,-0.17999875375675325,0.07434403493209837,-0.5220049965374585,0.3912648503151719,-0.027871560807778858,-0.44643660896924536,-1.2902104819415745,0.8187093328759282,0
391,2024-09-26 21:13:57.138499023,0,019,-0.17849080723097102,0.07779516227583094,-0.647125747821943,0.4058685071113188,-0.037457613387189594,-0.45287369706072034,-1.7305444208587324,0.8887803994683056,0
392,2024-09-26 21:13:58.052475830,0,019,-0.1767798086583675,0.07936116195991019,-0.7446028239622628,0.40589146292554273,-0.04362319912432899,-0.45907296404412146,-2.173914936064937,0.95281938789189,0
393,2024-09-26 21:13:58.128807129,0,019,-0.1731703266446018,0.07873517183945943,-0.8157972595122448,0.39150600671547736,-0.04490581308204631,-0.4649361383888263,-2.6374885036945277,1.0137788071546294,0
394,2024-09-26 21:13:58.195577881,0,019,-0.16563338406317163,0.07569078179135098,-0.8651482676140467,0.3635968475535032,-0.040792738042687696,-0.47012357710020874,-3.1361638674833494,1.074675137726006,0
395,2024-09-26 21:13:58.252993164,0,019,-0.15196111271829268,0.07008468492186916,-0.8997949907176511,0.32375010834042384,-0.03165304374044711,-0.4740685402154474,-3.679679573150576,1.138048785836258,0
396,2024-09-26 21:13:58.329149902,0,019,-0.13005621245586316,0.061868645278302575,-0.9284418964769366,0.2741252127632449,-0.018560593628119758,-0.47600944685055774,-4.270479683823451,1.20541667841189,0
397,2024-09-26 21:13:58.395992920,0,019,-0.09827971494720797,0.051101837014836705,-0.9598974978975692,0.217301224053073,-0.003111682266097848,-0.4750291083986757,-4.902635833706533,1.276809289378348,0
398,2024-09-26 21:13:58.462009033,0,019,-0.05576125777659274,0.037955171143447784,-1.0017505708910375,0.15613643209770056,0.012722459853495233,-0.4701021343822409,-5.5620574037181205,1.350539258323849,0
399,2024-09-26 21:13:59.384424072,0,019,-0.002613029496922034,0.022710318625001242,-1.0595737364488955,0.09363994756370238,0.02670421554402951,-0.4601525532645776,-6.227876662221315,1.4232752306819694,0
400,2024-09-26 21:13:59.454031981,0,019,0.05999510860964381,0.005755761596165331,-1.1368178471609218,0.03285959218347426,0.03641321519901635,-0.4441211049984885,-6.874494741186966,1.4903777490250454,0
401,2024-09-26 21:13:59.520838867,0,019,0.12994648537199,-0.01242934954057506,-1.2350950386055108,-0.023235235057349073,0.03936808913778652,-0.4210480475753612,-7.473769912694066,1.5464102273284162,0
402,2024-09-26 21:13:59.579488037,0,019,0.20446400197834208,-0.03130845801147996,-1.354316838549432,-0.07192535370877817,0.033248108268256,-0.3901764617478733,-7.997087873681211,1.5857352371238502,0
403,2024-09-26 21:13:59.641902100,0,019,0.28045670603566125,-0.05032272074729191,-1.49249375778756,-0.1109688791440271,0.016209502898288493,-0.3510672077496188,-8.417146454936242,1.603094996997499,0
404,2024-09-26 21:13:59.721210938,0,019,0.35480866929778165,-0.06891190317622851,-1.6455095149407788,-0.1388102021078801,-0.012742829227812941,-0.3037088701461187,-8.709425158331833,1.5941078488866873,0
405,2024-09-26 21:13:59.787877930,0,019,0.42459823015003045,-0.08652747545736907,-1.8072680159737282,-0.1546957929801771,-0.053384032629605,-0.24860612749928782,-8.85370177821549,1.5556986002784392,0
406,2024-09-26 21:14:00.737517090,0,019,0.4872924267033054,-0.10265525065261347,-1.9702408747661837,-0.15868186920173644,-0.104026761986124,-0.1868234333443801,-8.835930029183272,1.4864992937101968,0
407,2024-09-26 21:14:00.804302979,0,019,0.5409402488702821,-0.11685420033656767,-2.1260724408076066,-0.15157052059848264,-0.16156530238277422,-0.11995808152209862,-8.650043267002923,1.387159563142833,0
408,2024-09-26 21:14:00.871115967,0,019,0.5843594319137055,-0.12880425427308345,-2.265865980825815,-0.13482943035844946,-0.22183062667447462,-0.05003900276143851,-8.298824139354517,1.2604289699958802,0
409,2024-09-26 21:14:00.937891846,0,019,0.6172704410559035,-0.13834717319016906,-2.380098589676916,-0.1105406166605642,-0.2801134831718566,0.02062323233722163,-7.793428696994304,1.1109298592067447,0
410,2024-09-26 21:14:00.994173096,0,019,0.6402931318793583,-0.14550153047533781,-2.4585391014980393,-0.08137728066385526,-0.33169684193802645,0.08960773924708149,-7.151754978001956,0.9446544635300426,0
411,2024-09-26 21:14:01.071483887,0,019,0.6547595398504926,-0.15044077792507363,-2.490658495328299,-0.05054163264704753,-0.37232268429588594,0.15456263675871754,-6.396135073830391,0.7682975680042604,0
412,2024-09-26 21:14:01.138281982,0,019,0.6623927708300114,-0.15344149887611194,-2.4667050454282107,-0.021570881310630306,-0.39856785807834344,0.21337936583198872,-5.55103535363443,0.5885848939905225,0
413,2024-09-26 21:14:02.082145020,0,019,0.6649540689265024,-0.1548225931569022,-2.379201233593205,0.0020287622581530605,-0.4081144827124388,0.26434271699353634,-4.641476812913506,0.41175907001257434,0
414,2024-09-26 21:14:02.154022949,0,019,0.6639393644257264,-0.15489364409338677,-2.224447559893371,0.01727140092006724,-0.39990983388522205,0.3062417598467605,-3.6924304397713748,0.2432903779253057,0
415,2024-09-26 21:14:02.220457031,0,019,0.6603740980644828,-0.15391977197621917,-2.003695375198303,0.02219535104115215,-0.3742205940383434,0.33843217960692173,-2.7287680484210397,0.08775404600394295,0
416,2024-09-26 21:14:02.287599121,0,019,0.6547396137495086,-0.152103038389751,-1.7238035519405088,0.016251464909550286,-0.332595383543123,0.36084138436544194,-1.775087537067976,-0.0512322634177554,0
417,2024-09-26 21:14:02.354181885,0,019,0.6470374331683985,-0.14957741072188233,-1.3972808921398372,0.0004593507743772294,-0.27774444724621494,0.37391703511570157,-0.8550443877027849,-0.1710827372368949,0
418,2024-09-26 21:14:02.421094971,0,019,0.6369504122228219,-0.1464125117835532,-1.041612246377276,-0.022715231982080128,-0.21330803871623072,0.37853082895291934,0.00972184429570042,-0.27033421054310736,0
419,2024-09-26 21:14:02.487048096,0,019,0.6240249160838895,-0.14262185661972712,-0.6778734347712588,-0.049700931122579284,-0.14347597687570354,0.37585176693108524,0.8007194639481512,-0.3486925022738769,0
420,2024-09-26 21:14:03.437308105,0,019,0.6078100535143544,-0.1381742104606681,-0.32896212621029763,-0.07625853491173097,-0.07250994062812453,0.3672083389454564,1.5034623292847493,-0.4069592753228858,0
421,2024-09-26 21:14:03.504117920,0,019,0.5879408520340607,-0.13300909210154127,-0.017914501590019876,-0.0979306798820101,-0.004305438229916739,0.3539634953600148,2.1079653216713377,-0.44682870899949384,0
422,2024-09-26 21:14:03.570895020,0,019,0.5641888313947442,-0.12705779634106562,0.23349419909970667,-0.11046648751284933,0.05790938112668773,0.3374153342609399,2.60899021745215,-0.47061987167083474,0
423,2024-09-26 21:14:03.631871826,0,019,0.5364980423480834,-0.12027013822288081,0.4059183848365259,-0.1101725916659009,0.11173716046739973,0.31872215384072244,3.0060665074084043,-0.4810184830817286,0
424,2024-09-26 21:14:03.704492188,0,019,0.5050158522319017,-0.11264388330410426,0.48340703446371047,-0.09414925877917299,0.155689722841596,0.2988477577128774,3.303112008012087,-0.4808471699239775,0
425,2024-09-26 21:14:03.771262939,0,019,0.4701427932849478,-0.10425175970340714,0.4541644238327753,-0.0604392656238671,0.18922983675888833,0.2785279899890626,3.507527622737388,-0.4728439178360184,0
426,2024-09-26 21:14:03.828455078,0,019,0.4326245880628977,-0.09526363827669143,0.3111979167719742,-0.008152290329989922,0.21278344300805496,0.25826271839055764,3.6288967201991924,-0.4594486818232019,0
427,2024-09-26 21:14:04.787344971,0,019,0.393662397222466,-0.08596230075489802,0.052964673335994986,0.06241949413710129,0.22770553534540985,0.23833206627844147,3.6774548500170012,-0.4426264511143619,0
428,2024-09-26 21:14:04.853152100,0,019,0.3549669137934118,-0.07674553345564875,-0.3160500317954881,0.14974599371577854,0.2361852457144608,0.2188281831878244,3.662347519562994,-0.42374760026726077,0
429,2024-09-26 21:14:04.907102051,0,019,0.3186849636156625,-0.06810388533473816,-0.7850887109280825,0.251118575403987,0.24105210506466643,0.19969718691087046,3.589937780886437,-0.4035499487975365,0
430,2024-09-26 21:14:04.983791992,0,019,0.287188739234836,-0.06057005240431148,-1.3374446294081033,0.3628189638118686,0.24543157049671915,0.18079472782239028,3.462943193619666,-0.38222605099621776,0
431,2024-09-26 21:14:05.054532959,0,019,0.26278565478749877,-0.054649969878944195,-1.9514926561487902,0.48037464357608695,0.2522878863720522,0.16195299741568564,3.2810206175878465,-0.35962980068750594,0
432,2024-09-26 21:14:05.120577148,0,019,0.247426319551479,-0.050757307618395295,-2.6025363354292392,0.5989068713802461,0.2640183701594162,0.14303803634921386,3.0424673224132435,-0.3355007192657605,0
433,2024-09-26 21:14:05.187747070,0,019,0.2424683406342781,-0.04916983579560493,-3.265242370053323,0.7135382670234132,0.28224072795734045,0.12397357339763423,2.746150317811559,-0.3096076600764888,0
434,2024-09-26 21:14:06.136459229,0,019,0.24853371269131164,-0.050009890380165345,-3.9159026630357863,0.8197614204073128,0.3077575550588203,0.10473196336678461,2.3931805404810853,-0.2818278307295585,0
435,2024-09-26 21:14:06.203229980,0,019,0.2654740301381092,-0.053241179094728815,-4.5336959432477855,0.9136879149914355,0.3405975422297915,0.08531350423794563,1.9882546326725254,-0.2522254366387177,0
436,2024-09-26 21:14:06.270042969,0,019,0.29242916825688486,-0.05868060892340526,-5.100630883705024,0.9921441357321429,0.3800810822061537,0.065730826617779,1.5403078821128826,-0.22110227748282077,0
437,2024-09-26 21:14:06.326632080,0,019,0.32796688017515524,-0.06603171294364378,-5.600570843260202,1.0526186451271045,0.42490862487592806,0.04600257350424925,1.0619659232319738,-0.1889312857574071,0
438,2024-09-26 21:14:06.400518799,0,019,0.37029727362269166,-0.07493741090918081,-6.018227277483586,1.0931386399840717,0.47326918669091367,0.026155474987302866,0.5679387119992916,-0.15617574293423533,0
439,2024-09-26 21:14:06.462549805,0,019,0.41750608039688236,-0.08503278064741403,-6.338863298532976,1.1122021745149435,0.5229693155988446,0.006227749749304825,0.07323947526187861,-0.12310630008671725,0
440,2024-09-26 21:14:06.536693115,0,019,0.4677076134653779,-0.09597807425313545,-6.548831640634358,1.1088451515997977,0.5715913124498733,-0.013737079335732226,-0.4078805878549907,-0.08972318966223748,0
441,2024-09-26 21:14:07.477981201,0,019,0.5190736277681581,-0.10746887709782636,-6.636613549062493,1.0828159252067586,0.6166701181274554,-0.03370579657480965,-0.8618845749853105,-0.055832639555914866,0
442,2024-09-26 21:14:07.539606201,0,019,0.5697811339355007,-0.11923138920552619,-6.593982518602557,1.0347516183170664,0.6558585391566948,-0.05366988645281151,-1.2749882008470288,-0.021263242972389722,0
443,2024-09-26 21:14:07.620361084,0,019,0.617951319629039,-0.1310119688411185,-6.417048717430838,0.9662642771541782,0.687067457570668,-0.07365504357913437,-1.6321655788460292,0.01389384420608001,0
444,2024-09-26 21:14:07.677468018,0,019,0.6616430273935057,-0.14257116718227558,-6.1070077157092975,0.8799163441013584,0.7085945733505337,-0.09372946897347152,-1.917353923111271,0.049204003864107414,0
445,2024-09-26 21:14:07.738573975,0,019,0.6989273586753061,-0.15368728569946302,-5.670363574334404,0.7790844007384943,0.7192478474633515,-0.11400948172073264,-2.1154610286326823,0.08406134066114108,0
446,2024-09-26 21:14:07.820734863,0,019,0.7280012062179598,-0.16416099571440518,-5.11842787692153,0.6676971648977277,0.7184413720468917,-0.13465830883893642,-2.2155449609558935,0.11802431860095745,0
447,2024-09-26 21:14:07.887505127,0,019,0.7472716033508748,-0.17380921913058656,-4.466265301510873,0.5498885605100073,0.7062355770596492,-0.15587829305415737,-2.213775740013943,0.1511188208410548,0
448,2024-09-26 21:14:08.796844971,0,019,0.7553968574156494,-0.18244933617796094,-3.7316099701192065,0.4296646655292389,0.6833163094704914,-0.17789548496049598,-2.1149362997415575,0.18394165374142085,0
449,2024-09-26 21:14:08.878408936,0,019,0.7513173848995285,-0.1898859877838055,-2.934120676586666,0.3106402643034011,0.6509320403295324,-0.20093179108151477,-1.9319570368812393,0.217510111934627,0
450,2024-09-26 21:14:08.945205078,0,019,0.7342887910453666,-0.19590816032525724,-2.094950875954325,0.19583617495534242,0.6108116825781327,-0.22516464806255548,-1.6838782477683876,0.2529397195555006,0
451,2024-09-26 21:14:08.998039062,0,019,0.7038944669296362,-0.20029086482099834,-1.2364153336464845,0.08753536735577104,0.5650641635233202,-0.2506803933054033,-1.393213276751665,0.29111747090580253,0
452,2024-09-26 21:14:09.078789062,0,019,0.6600185921880942,-0.20279129217322991,-0.381525854706996,-0.012771791859062853,0.5160472965607195,-0.27742835231653057,-1.0835499507657445,0.33250340570867293,0
453,2024-09-26 21:14:09.145582031,0,019,0.602793065563167,-0.2031394704530915,0.446739747721156,-0.10431721944854733,0.46621492703075446,-0.3051863231800149,-0.7776636006421901,0.37708302302324237,0
454,2024-09-26 21:14:09.212376953,0,019,0.5325597628849984,-0.2010359616645901,1.2264395683669338,-0.18684992034625506,0.4179715266390071,-0.3335510521201185,-0.4960441311659245,0.4244186965628716,0
455,2024-09-26 21:14:10.161700928,0,019,0.44988286945688255,-0.1961701369582789,1.9378418891130356,-0.26034636569792313,0.37354698057463065,-0.36195839899497284,-0.2556839851302711,0.4737477872979895,0
456,2024-09-26 21:14:10.228481934,0,019,0.3556085172732508,-0.18826059139658782,2.5645822236666596,-0.3247378163171696,0.3348826457655595,-0.3897273460502218,-0.0690322237300868,0.5241005635158639,0
457,2024-09-26 21:14:10.280843994,0,019,0.2509441366341945,-0.17710645573532935,3.0945798171253958,-0.37974156267499803,0.30352121180507896,-0.4161219803744471,0.05685765837628501,0.5744196663894247,0
458,2024-09-26 21:14:10.362087891,0,019,0.1375346816309631,-0.16263532397593236,3.5205518863614373,-0.42482920616231296,0.2805202501255932,-0.4404288711925568,0.12085788707037216,0.6236561788644766,0
459,2024-09-26 21:14:10.419983887,0,019,0.017511286344759406,-0.1449355199405376,3.8400317956710355,-0.45932641151429443,0.26645855795938767,-0.4620469172452956,0.1279924988404241,0.6707972653991373,0
460,2024-09-26 21:14:10.495691895,0,019,-0.10653249973682137,-0.12426238901479938,4.054873372524826,-0.48261104381651154,0.26161150900141833,-0.48058359182654337,0.08954927982784269,0.714777832513444,0
461,2024-09-26 21:14:10.561757080,0,019,-0.2316717638691909,-0.10101665009615521,4.170363778179853,-0.49433711917817896,0.26626466464255866,-0.49594164102641325,0.022925082056031384,0.7543081587334174,0
462,2024-09-26 21:14:11.499445801,0,019,-0.3548647576242961,-0.0757055383548145,4.194215495250662,-0.4946003492568828,0.2809935387301687,-0.5083667808363175,-0.049499102334760584,0.7877645348679158,0
463,2024-09-26 21:14:11.577552979,0,019,-0.47318370063997356,-0.04890056537745559,4.135738620209013,-0.484013954346145,0.3067449244831601,-0.5184322163190971,-0.10301759474409924,0.813293951193836,0
464,2024-09-26 21:14:11.640038086,0,019,-0.5840080923470069,-0.02119914738614475,4.0053241580508425,-0.463715001476618,0.3447161469758363,-0.5269659957036511,-0.11449420738396049,0.829145937195851,0
465,2024-09-26 21:14:11.702056885,0,019,-0.6851587401167034,0.006807354919237708,3.81417600416585,-0.4353197067702645,0.39614162384580603,-0.5349507669081306,-0.06642360050343833,0.8341073052409647,0
466,2024-09-26 21:14:11.766352783,0,019,-0.7749620901225236,0.03455774597221736,3.5742344137479676,-0.4008319423321529,0.46207159861368907,-0.5434205572465923,0.05009826872155172,0.8278792072238493,0
467,2024-09-26 21:14:11.845718994,0,019,-0.8522402799793333,0.06153602872520077,3.298265644158679,-0.36251314154004516,0.543157117015498,-0.5533615609461625,0.23438947940504773,0.81126293777904,0
468,2024-09-26 21:14:11.912504882,0,019,-0.916251228682056,0.08727627295629299,2.9999489979518406,-0.32273144812165194,0.6394121070536055,-0.5656135152980551,0.4771656005866128,0.7860997402801722,0
469,2024-09-26 21:14:12.835282959,0,019,-0.9666285931955767,0.11136000452491043,2.693699507843659,-0.28381223397789995,0.7499380367765864,-0.5807693750484595,0.7626053087579561,0.7550166730683259,0
470,2024-09-26 21:14:12.897660889,0,019,-1.003345114509397,0.13341282236458177,2.394177548411036,-0.24791795109172224,0.8726738897234221,-0.5990824482199888,1.0707588146889946,0.7210639241040959,0
471,2024-09-26 21:14:12.969413086,0,019,-1.0266821647568833,0.15310413783525656,2.1156832706909845,-0.21698378241512695,1.0042860673704992,-0.6204022690179438,1.3801546971939727,0.6873192314048759,0
472,2024-09-26 21:14:13.036197998,0,019,-1.0371949366298925,0.17014949448991643,1.8715299602852937,-0.1926995970823658,1.1402517977322693,-0.6441550383393807,1.6703007647197023,0.6565571352455956,0
473,2024-09-26 21:14:13.103032959,0,019,-1.035674271871948,0.18431451815747443,1.673325838834728,-0.17649703606605474,1.275089840277208,-0.6693627226206913,1.923463858993043,0.6310456962172131,0
474,2024-09-26 21:14:13.169792969,0,019,-1.0230940617513231,0.195422499334358,1.5302348135559527,-0.16951968809179216,1.4026813651797676,-0.6946836090508535,2.1255000612173673,0.6124354501679686,0
475,2024-09-26 21:14:13.235829102,0,019,-1.0005558325460293,0.20337160281554303,1.4483498763984959,-0.17256828083436476,1.5166726926778917,-0.718465775394049,2.265906921425454,0.6016884925227123,0
476,2024-09-26 21:14:14.173217041,0,019,-0.9692760817765252,0.2081630088261256,1.4301196776681184,-0.1860039405624943,1.6109491167780867,-0.7388124781207244,2.3373617719999307,0.599035408575913,0
477,2024-09-26 21:14:14.251815918,0,019,-0.930627336426494,0.2099268123812826,1.473803757133991,-0.20963094865572096,1.6801262718622492,-0.7536565294747947,2.335312051002147,0.60392602626774,0
478,2024-09-26 21:14:14.319278076,0,019,-0.8861713202681013,0.20892544643456726,1.573197720864137,-0.2426286918428549,1.7199942839417262,-0.7608418621470076,2.2583037676021545,0.6149200989348049,0
479,2024-09-26 21:14:14.373873047,0,019,-0.8376010253991241,0.20552419274544212,1.7179310518867794,-0.2835707356097568,1.7278464554387656,-0.7582125309195062,2.108975732330151,0.6295510261486068,0
480,2024-09-26 21:14:14.452729980,0,019,-0.7865668644484718,0.20013663021387237,1.8944332529306487,-0.3305076632136391,1.7026174061904666,-0.7437043689298692,1.8947575763472866,0.6442963362390066,0
481,2024-09-26 21:14:14.519646973,0,019,-0.7344441517974716,0.1931649528942478,2.0873152329924225,-0.3810776940500743,1.644810780234933,-0.7154327798279345,1.6275812462754555,0.6547418427000515,0
482,2024-09-26 21:14:14.572152100,0,019,-0.6821311073537226,0.18495233677054115,2.2806582437689826,-0.4326208431482943,1.556274408779032,-0.671776810635474,1.3228376717438155,0.6559057688256824,0
483,2024-09-26 21:14:15.535969971,0,019,-0.629951553652679,0.17575562416444865,2.4588578308226223,-0.48228822237829627,1.4398943840627565,-0.6114644470852578,0.99787303350419,0.6426862185554546,0
484,2024-09-26 21:14:15.602750000,0,019,-0.5777006950710698,0.1657410460398315,2.6070862025029538,-0.5271668060858187,1.2992747057106684,-0.5336652511804099,0.6699132481475147,0.6104355890472565,0
485,2024-09-26 21:14:15.669527100,0,019,-0.5248054444299235,0.15499758507340577,2.7116539907619788,-0.5644423229252331,1.1384771056737235,-0.43809460435695324,0.3537512949658575,0.5555719283241425,0
486,2024-09-26 21:14:15.731154053,0,019,-0.4705148205391837,0.1435552738610995,2.760503439535944,-0.5915858769802771,0.9618546892919349,-0.3251209888656593,0.060266311204214815,0.47602064577255654,0
487,2024-09-26 21:14:15.803103027,0,019,-0.41405391908267536,0.13140168199600238,2.7439399886772424,-0.6065350363904748,0.7739503835882181,-0.195851190815277,-0.20351128792684897,0.3713474381627913,0
488,2024-09-26 21:14:15.869563965,0,019,-0.35473597858082084,0.11849913921635638,2.6555232091422774,-0.6078630619044239,0.579432072557708,-0.05216828140972656,-0.4332515770475573,0.2426397751918224,0
489,2024-09-26 21:14:15.934593018,0,019,-0.29206929448878927,0.10480359282141885,2.4928569960764433,-0.5949346312754024,0.38306443219936576,0.10328985364205646,-0.6261813956101299,0.09229814368360696,0
490,2024-09-26 21:14:16.885968018,0,019,-0.22588874972383327,0.0902812960424984,2.2580578005900254,-0.5680215763422001,0.18968582831497982,0.2672203901440183,-0.7806597858259803,-0.07616623078131457,0
491,2024-09-26 21:14:16.952681152,0,019,-0.15648594595954357,0.0749211107240416,1.957931546074717,-0.5283532867570265,0.004112001357885037,0.4358271873241787,-0.8964677312171968,-0.25834658951476586,0
492,2024-09-26 21:14:17.019413086,0,019,-0.0846700074912754,0.05874279047157404,1.6040672807914165,-0.47811569149858496,-0.16906349204421975,0.6050718463171599,-0.9752826261845163,-0.4492446466038895,0
493,2024-09-26 21:14:17.081439941,0,019,-0.011715956055735182,0.04180004604176895,1.2128260712999408,-0.4204080582575481,-0.3257132379934868,0.7709661781601227,-1.0207172890381369,-0.6437038224229277,0
494,2024-09-26 21:14:17.153029053,0,019,0.06078398807234249,0.02417733435584606,0.8047012059462045,-0.35909274765196764,-0.46241977288342045,0.9298498620481195,-1.0377386784321234,-0.8369007868204834,0
495,2024-09-26 21:14:17.219837891,0,019,0.13110945269815708,0.005983993252528945,0.4025475764915157,-0.29846087460795384,-0.5767452127755487,1.0786126222901684,-1.0318331626447335,-1.0247275131356572,0
496,2024-09-26 21:14:17.286614990,0,019,0.19758775593027975,-0.012649950651634068,0.028930781406392846,-0.24274927241289118,-0.6675362513975323,1.2148464636399772,-1.008432069970554,-1.2039212141989322,0
497,2024-09-26 21:14:18.236099121,0,019,0.25874706122316143,-0.031576668047420035,-0.2965818509563472,-0.1956455376491654,-0.7351862392358328,1.3369275167007624,-0.9728225806351584,-1.3719515689192943,0
498,2024-09-26 21:14:18.302869141,0,019,0.31345753625867584,-0.05063234176545622,-0.5594855160856514,-0.15990725658030422,-0.7817304993806766,1.444027963954599,-0.9303844873904326,-1.5268178532436727,0
499,2024-09-26 21:14:18.369649902,0,019,0.36103665380044886,-0.06963387127727058,-0.751510031437272,-0.13714732947041494,-0.8106991402630646,1.5360587808481085,-0.8868852608920579,-1.66689475801661,0
500,2024-09-26 21:14:18.436423096,0,019,0.401274513144416,-0.08836949653060627,-0.871049717213613,-0.12777675673765904,-0.8267415131727686,1.6135503703519334,-0.8486115946834527,-1.7908579627636354,0
501,2024-09-26 21:14:18.503217041,0,019,0.43436521902397,-0.1065900791878164,-0.9230567256070749,-0.13107837841697512,-0.8350960652030869,1.6774902813506993,-0.822013084468264,-1.8976849610046118,0
502,2024-09-26 21:14:18.569798096,0,019,0.46076990607530766,-0.12400841571852705,-0.9183077361943149,-0.1453940845371483,-0.8410161654707585,1.7291521335801212,-0.812672332592002,-1.9867359554402089,0
503,2024-09-26 21:14:18.621961182,0,019,0.48105891906781634,-0.14030809582631076,-0.8717688393847527,-0.16841383490776107,-0.8492857317640354,1.7699519040535396,-0.8240529075183975,-2.0578695879443494,0
504,2024-09-26 21:14:19.561980957,0,019,0.4957756966453236,-0.15515849712236154,-0.8001385454676959,-0.19752302453853063,-0.8639166048872917,1.8013464766070475,-0.8568834482588309,-2.111490042686968,0
505,2024-09-26 21:14:19.628645020,0,019,0.5053351529784048,-0.1682328006206327,-0.719272451627093,-0.23011090280056956,-0.8880182169665023,1.8247647543714185,-0.9095794422544736,-2.1484651807771082,0
506,2024-09-26 21:14:19.690572021,0,019,0.5099546296326298,-0.17922981133364155,-0.6422885639527643,-0.26376099186458474,-0.9237644022101406,1.841557540654617,-0.9791641081274112,-2.169982621038773,0
507,2024-09-26 21:14:19.762593018,0,019,0.5096411744989129,-0.18790259336125564,-0.5786240224426913,-0.2963350404847441,-0.9723981134266538,1.8529617119123007,-1.06167235792137,-2.177475959324195,0
508,2024-09-26 21:14:19.816790039,0,019,0.5042780465454647,-0.19409591449710722,-0.5339447564901245,-0.3260026239384961,-1.0342479657996904,1.8600750396696029,-1.1515480248322134,-2.172673443940267,0
509,2024-09-26 21:14:19.896187012,0,019,0.4938096919258152,-0.197787174742008,-0.5107711928419538,-0.35124869143436777,-1.1087273639332016,1.8638317347191686,-1.2405725677859576,-2.1576942023132855,0
510,2024-09-26 21:14:19.962965088,0,019,0.478452107358875,-0.19911332817748326,-0.5094729978615768,-0.3708867457366142,-1.1942887951437495,1.864971503744675,-1.3173575907001869,-2.1350689963113525,0
511,2024-09-26 21:14:20.899995117,0,019,0.45883512215762473,-0.19836670975629353,-0.5291035785378237,-0.3840862789060894,-1.2883607128043437,1.8640055913274978,-1.3680667039131045,-2.1076025789844697,0
512,2024-09-26 21:14:20.977639893,0,019,0.4360244876937876,-0.19596011651106104,-0.5678808528798628,-0.3903672851044641,-1.3873547933740016,1.8611915187631216,-1.3783532154886873,-2.0780728745517925,0
513,2024-09-26 21:14:21.045964111,0,019,0.4114283199280928,-0.19237500341627756,-0.6235621796560614,-0.3895111733024653,-1.4868017243047746,1.8565283498471439,-1.335891431659684,-2.0488547627316898,0
514,2024-09-26 21:14:21.100344971,0,019,0.38663557401285126,-0.18810726995098037,-0.6939110021343298,-0.38140653999268825,-1.5815755958016318,1.8497730364595224,-1.2325204572309032,-2.021622052102523,0
515,2024-09-26 21:14:21.177531982,0,019,0.3632445573244441,-0.18362177254349046,-0.7771462283124291,-0.36589403235818607,-1.6661381300304374,1.84046533266371,-1.065369632625366,-1.9972320453499501,0
516,2024-09-26 21:14:21.239548828,0,019,0.3427084018683993,-0.17932057918634753,-0.8721652887231341,-0.34266549651735784,-1.734805180213035,1.8279525020063532,-0.8371351743787363,-1.9757572455631793,0
517,2024-09-26 21:14:21.313034912,0,019,0.32619233829092403,-0.17552191292512082,-0.9784288469863652,-0.3112558863370657,-1.7820952046429257,1.8114221208173313,-0.5558492705441112,-1.9565728446071566,0
518,2024-09-26 21:14:22.262364014,0,019,0.31444794082984384,-0.17244648599851017,-1.0955414825598868,-0.2711431011592226,-1.803186661361572,1.7899567762440833,-0.23399402233809077,-1.938482220780849,0
519,2024-09-26 21:14:22.329166992,0,019,0.30773470694735444,-0.17021418613541428,-1.222741449510992,-0.22192297559677499,-1.7944200115100466,1.7626121043616034,0.11319499746401376,-1.919893287532525,0
520,2024-09-26 21:14:22.395961914,0,019,0.305804775692472,-0.1688527529285835,-1.3586097977376936,-0.16348206627575892,-1.7537179989910503,1.7285087728669437,0.46969606702063227,-1.8989868192397439,0
521,2024-09-26 21:14:22.460657959,0,019,0.307924388106813,-0.16831062877204578,-1.5011399470033728,-0.09609028564654801,-1.680830659785187,1.6869279344526662,0.8201499690928132,-1.873815462774819,0
522,2024-09-26 21:14:22.522483887,0,019,0.31289890555746563,-0.1684648563513568,-1.6479762755221967,-0.020395387072320654,-1.5773967483658946,1.6373976922139686,1.1506115299299688,-1.8423801342440025,0
523,2024-09-26 21:14:22.596370117,0,019,0.31911356532974644,-0.1691266047138322,-1.7965021654296516,0.06261542878170645,-1.4468339364642482,1.5797521984214902,1.4488860271620625,-1.8027635854761517,0
524,2024-09-26 21:14:22.661110107,0,019,0.3246433119832395,-0.17005541884892636,-1.943661288194757,0.15159619960397894,-1.294027438348225,1.514147550676117,1.7045177688036053,-1.753302547419961,0
525,2024-09-26 21:14:23.612050049,0,019,0.32746034350181485,-0.1709863374207428,-2.0856768028713297,0.24474223423441224,-1.1248209582257338,1.4410375747165598,1.9082845298569777,-1.692700906826162,0
526,2024-09-26 21:14:23.674617920,0,019,0.3256925057750095,-0.1716612517080788,-2.217905886837481,0.33967551682875047,-0.9454294444664886,1.3611326497214782,2.0513347771552377,-1.6200266316266592,0
527,2024-09-26 21:14:23.733583984,0,019,0.31784275568463644,-0.17185330861350573,-2.3348732831925205,0.43339404269352916,-0.7619339180523204,1.275365395410435,2.124520071171237,-1.5346382020672873,0
528,2024-09-26 21:14:23.812427002,0,019,0.3029075958309913,-0.17138070837720343,-2.4303622856548874,0.5223176273554329,-0.5799405206730562,1.184869794558122,2.118531390719661,-1.4361495544615335,0
529,2024-09-26 21:14:23.879232910,0,019,0.2803894353599315,-0.17011312009527385,-2.4975394667168014,0.6024363077205526,-0.40437392502767594,1.0909596027779556,2.0250762074450215,-1.324516736693654,0
530,2024-09-26 21:14:23.934396973,0,019,0.2502433138928621,-0.16797481784943907,-2.52913884623292,0.669546556511637,-0.239320573878553,0.9950842341078897,1.8387177140593574,-1.2002291077387046,0
531,2024-09-26 21:14:24.012504150,0,019,0.21281533678419054,-0.16494490198623024,-2.517592081358348,0.7195251292885888,-0.0878883433526615,0.8987555583142829,1.558537941298599,-1.0644934837412532,0
532,2024-09-26 21:14:24.936172852,0,019,0.1688133184130917,-0.16105306065513514,-2.4550991852329065,0.7486032226041006,0.04786693762485812,0.8034609935639722,1.1889376510645087,-0.9193021941581879,0
533,2024-09-26 21:14:24.994616943,0,019,0.1193178015768652,-0.15637355181598114,-2.334013885536619,0.7536634131536653,0.1668910157945957,0.7105851910862759,0.7395394685181798,-0.7673636306578129,0
534,2024-09-26 21:14:25.070257812,0,019,0.0658108734976339,-0.151021820851196,-2.1479633669729905,0.7325894299355543,0.2689575718229404,0.6213563084253667,0.2246451613014275,-0.6119510881845199,0
535,2024-09-26 21:14:25.132082031,0,019,0.010173884998234203,-0.14515085425150204,-1.8935896064613602,0.6846291835654923,0.3544312307024258,0.5368211725257412,-0.3373993145362173,-0.4567293031658908,0
536,2024-09-26 21:14:25.194117188,0,019,-0.045391100028595796,-0.13894124691010695,-1.5722508565829116,0.610671285837534,0.42405024566112887,0.4578398136586628,-0.9249579109330613,-0.3055672858394318,0
537,2024-09-26 21:14:25.256140869,0,019,-0.09851551653949346,-0.13258823368581352,-1.1910537128966348,0.5133452508735158,0.4787712042810126,0.3850840786864046,-1.5141359152623164,-0.1623142454852872,0
538,2024-09-26 21:14:25.333364014,0,019,-0.1468633576384814,-0.12629186962633296,-0.7629626266887537,0.396907274915945,0.5196524786202179,0.31903376686508356,-2.0800494325217858,-0.030545230987957927,0
539,2024-09-26 21:14:26.271045898,0,019,-0.1883623166149337,-0.12024418112101383,-0.3059311866696006,0.26692042962046497,0.5477350915028889,0.25997724831956615,-2.598112303468764,0.08666418764726119,0
540,2024-09-26 21:14:26.349169922,0,019,-0.2214618741729851,-0.11460175005243639,0.15888014828662672,0.12977867914056027,0.5639035197572966,0.20802722877871535,-3.045200958186287,0.18687190061664571,0
541,2024-09-26 21:14:26.410764893,0,019,-0.2453751772326687,-0.10944518825323123,0.6094370584655724,-0.007833047927389881,0.5687430501129414,0.16315279817017636,-3.4007690988575976,0.2683156303233176,0
542,2024-09-26 21:14:26.486505127,0,019,-0.2602294783001135,-0.10474195156823149,1.0251473466822192,-0.13944455292070224,0.5624452980572083,0.125217580170901,-3.6479879520385605,0.3299300968716734,0
543,2024-09-26 21:14:26.550082031,0,019,-0.2670685287732274,-0.1003315966395312,1.3887700607781175,-0.2592304820107307,0.5448151611126668,0.09401184194018787,-3.7748140512297197,0.37137113606823946,0
544,2024-09-26 21:14:26.612138916,0,019,-0.2676932325664621,-0.0959432330046046,1.68782041697186,-0.3623743351776846,0.5153909242110182,0.069270329534058,-3.774946111388869,0.393049807840362,0
545,2024-09-26 21:14:26.675028076,0,019,-0.2643685659205122,-0.09124050772616327,1.9154249036921334,-0.4453516087566537,0.4736562678680472,0.05067098048161748,-3.6488448506806517,0.3961893109720399,0
546,2024-09-26 21:14:27.625716064,0,019,-0.25947212914081985,-0.08587793679715273,2.0704559665102344,-0.5060626678465,0.4193160456492557,0.03781624733183687,-3.404888220369428,0.3829148479897406,0
547,2024-09-26 21:14:27.687755127,0,019,-0.2551728777428037,-0.07955220022655954,2.156754350431725,-0.5437609558198311,0.35259656401714395,0.030208291692131822,-3.060405496825124,0.35634910362100936,0
548,2024-09-26 21:14:27.764918945,0,019,-0.25317629864136754,-0.07204426499781368,2.181527994129262,-0.5588210379215559,0.2745210591753808,0.027231497745453758,-2.642127044235705,0.3206486803975826,0
549,2024-09-26 21:14:27.836822021,0,019,-0.25453185920612026,-0.0632567556179955,2.153462872574575,-0.552461875956705,0.18711245050540723,0.028150395039673017,-2.1854465528236346,0.28088437303715813,0
550,2024-09-26 21:14:27.889784180,0,019,-0.25953018412499584,-0.05324150405923782,2.081277157725577,-0.5265100958538483,0.09347688265955972,0.03212538237504201,-1.7318402379779554,0.24266256569717715,0
551,2024-09-26 21:14:27.967756104,0,019,-0.26774089393932643,-0.04220176652876404,1.9731625111405549,-0.4832242213329069,-0.0022576369585796136,0.038240974489445204,-1.3242870411570171,0.21147047376681963,0
552,2024-09-26 21:14:28.029352783,0,019,-0.2781796980302189,-0.030466088809142738,1.836935802581083,-0.425161076445795,-0.09513932642866096,0.04553614494349893,-1.0015942758178693,0.19188634108332364,0
553,2024-09-26 21:14:28.983281006,0,019,-0.2895200179946851,-0.018449850926413873,1.6802506091238616,-0.3550422014157026,-0.17972367110903673,0.053035118382526815,-0.793271097852305,0.18689897822258314,0
554,2024-09-26 21:14:29.045625977,0,019,-0.3002738737476909,-0.006618767012246792,1.5103783112175302,-0.2756041651888376,-0.2505406245565102,0.059787657439009406,-0.7163026093852181,0.19753934259373457,0
555,2024-09-26 21:14:29.120426025,0,019,-0.308918157059476,0.0045428547919470885,1.3337247122955973,-0.18949308351983804,-0.3026387477488068,0.0649201487052167,-0.774187436624289,0.22288227145011238,0
556,2024-09-26 21:14:29.187208008,0,019,-0.31396297514103627,0.014558049714070525,1.1556184386569497,-0.09927917571835267,-0.3320883660199344,0.06768673165209634,-0.957845510612686,0.2603508848933499,0
557,2024-09-26 21:14:29.254017090,0,019,-0.31396348235348837,0.022974997307429117,0.9805936518040131,-0.007572474883572056,-0.3363514048804584,0.06751274716001995,-1.2478649070304961,0.30621127713053614,0
558,2024-09-26 21:14:29.307950928,0,019,-0.30750863496626546,0.029380150285245703,0.8129639579577924,0.0828646709781976,-0.31445745476567516,0.0640248554172554,-1.6175302928878923,0.35613425630774537,0
559,2024-09-26 21:14:29.387595947,0,019,-0.29325620005754843,0.03341656800095776,0.657389587180455,0.16910469505959388,-0.2669382439679459,0.05705611575193905,-2.0359357816535755,0.40570729939206657,0
560,2024-09-26 21:14:30.312399902,0,019,-0.27005896205529173,0.03481354543760344,0.5190441501081694,0.2482040540664429,-0.19554773960315683,0.046622776518878244,-2.47065591968222,0.4508374636136067,0
561,2024-09-26 21:14:30.379208008,0,019,-0.2371522296113934,0.0334232382489777,0.4029630300874605,0.3175381416126047,-0.10289434821454888,0.032889417915512524,-2.889898947491908,0.48805037868610324,0
562,2024-09-26 21:14:30.431196045,0,019,-0.19433758471682297,0.029255329263942885,0.31265925095626607,0.37524479872420546,0.007872373570795663,0.016140944815582293,-3.2643015816805816,0.5146976114476955,0
563,2024-09-26 21:14:30.508378906,0,019,-0.14212175729807192,0.022501814549522,0.2486733269412572,0.4206106309362321,0.1332473809349162,-0.003236464658537952,-3.5685357844920076,0.529068657759565,0
564,2024-09-26 21:14:30.579604980,0,019,-0.0817789739630826,0.013542703816802566,0.2077088889829173,0.4542674952204212,0.2694413317750024,-0.024773733134270018,-3.782910465588923,0.530419802940275,0
565,2024-09-26 21:14:30.631951172,0,019,-0.015306807090353572,0.0029253051231510406,0.18262951335076683,0.4781635727404253,0.41240211712987956,-0.0479432420047663,-3.894997991495493,0.5189608739533582,0
566,2024-09-26 21:14:30.710233887,0,019,0.05469701708629145,-0.008677036506525586,0.163297212480254,0.4953336407281461,0.5578640602844911,-0.07219195102499404,-3.9009772756174392,0.4958359453050728,0
567,2024-09-26 21:14:31.662166016,0,019,0.12516160016251415,-0.02051114156571407,0.13806433016571779,0.5095118918254289,0.7014846695754834,-0.0969817875435621,-3.8062838789922977,0.4631013157018755,0
568,2024-09-26 21:14:31.726811035,0,019,0.19264938147348074,-0.03178884240959461,0.09561194788324927,0.5246359077199184,0.8390663162720983,-0.12182847494455315,-3.6253808525912476,0.42368111291646776,0
569,2024-09-26 21:14:31.788866943,0,019,0.25349875294813523,-0.04173712147008316,0.026739911762105294,0.5443009062282255,0.9667763688628255,-0.14632387910052416,-3.380678112364459,0.38127440396318685,0
570,2024-09-26 21:14:31.862544922,0,019,0.30406144353921144,-0.049656919551296724,-0.07424344906184065,0.5712416060472939,1.0812711581176955,-0.170130629736565,-3.1007027471586723,0.3401849282832597,0
571,2024-09-26 21:14:31.926702881,0,019,0.3410209523202734,-0.05498188209587999,-0.20866221671225424,0.6069202801701515,1.1797331382369052,-0.19295418537432737,-2.817601710591986,0.30504361590743095,0
572,2024-09-26 21:14:31.996139160,0,019,0.3617164252858817,-0.05732401692445011,-0.37311506886618706,0.6512808172118556,1.2599143980530627,-0.21451410856609943,-2.5639400123206237,0.28039241399834974,0
573,2024-09-26 21:14:32.050020996,0,019,0.3644027034734874,-0.05649884642472831,-0.5596066491120462,0.7027058135339095,1.3202250844910948,-0.23453407487075478,-2.3687553682226894,0.27011339714930926,0
574,2024-09-26 21:14:33.012041016,0,019,0.3484240245171137,-0.052531383252629765,-0.7561080859000364,0.7581759611760016,1.359812017237675,-0.2527528550478475,-2.2533957170979306,0.2767821206188569,0
575,2024-09-26 21:14:33.077385986,0,019,0.3143050688281419,-0.04565025904823775,-0.9474003669313661,0.8135904003108186,1.3785721713921484,-0.26894755524081393,-2.2284768079456883,0.3011644879092598,0
576,2024-09-26 21:14:33.145635010,0,019,0.26375013119130053,-0.036274719958942866,-1.116116738542405,0.8641912988230334,1.3771009795515585,-0.28295986194750733,-2.2930925457788893,0.34206653369648216,0
577,2024-09-26 21:14:33.212426025,0,019,0.19951721440681908,-0.02498855871820869,-1.2438823859911599,0.9050277793471992,1.3566064595426854,-0.29471593317700817,-2.4360858450436162,0.39654063949887386,0
578,2024-09-26 21:14:33.279248047,0,019,0.12514190668669817,-0.012490259836235829,-1.312360178269211,0.9313996856188117,1.3188078866267585,-0.30423051896571024,-2.6382855201015185,0.4602785573921156,0
579,2024-09-26 21:14:33.340233154,0,019,0.044545861589374146,0.0004793111870977283,-1.3042131687497687,0.939264516119083,1.2658090946042122,-0.3115915068576575,-2.874923403658552,0.52804128241659,0
580,2024-09-26 21:14:33.401385986,0,019,-0.03836869469412294,0.01321260143043718,-1.2041976314004783,0.9256086961043624,1.1999431173594137,-0.3169311106290841,-3.1181067938421787,0.5940976346151665,0
581,2024-09-26 21:14:34.348927002,0,019,-0.12003520829323067,0.025091013546556584,-1.0003510334597367,0.8887395250104151,1.1236250891498658,-0.32039697644436527,-3.3392910235604543,0.6526880360494672,0
582,2024-09-26 21:14:34.429006104,0,019,-0.19741190871981606,0.0356105022580326,-0.684938489703088,0.8284330390509418,1.0392632635842736,-0.32213602667640784,-3.5114013564270556,0.6984667403273805,0
583,2024-09-26 21:14:34.486946045,0,019,-0.2680793957087156,0.04438899370873553,-0.25496558293833727,0.7459164021901681,0.9492437022937021,-0.3222968769435961,-3.6104074968459785,0.7268612518393353,0
584,2024-09-26 21:14:34.562556885,0,019,-0.33030617775175386,0.0511771141700318,0.28758539922930987,0.6437079346205153,0.8559608068039257,-0.3210460667659178,-3.6166921077494845,0.7343752556508679,0
585,2024-09-26 21:14:34.628607910,0,019,-0.38309330174682316,0.05587549404520046,0.9355169463384974,0.5253595804504757,0.7618514072381607,-0.31858626670957263,-3.516644138744321,0.7188985045418614,0
586,2024-09-26 21:14:34.688118896,0,019,-0.42614397417409655,0.058536593322543164,1.6760757239552129,0.39515499783940566,0.6694017991171891,-0.31516743720735035,-3.3043764669086966,0.6800100345637647,0
587,2024-09-26 21:14:34.751055908,0,019,-0.4597120538843919,0.05933356230612793,2.4907005045184683,0.257797607931831,0.5811060924741418,-0.3110884427380614,-2.983018856149588,0.6191910284008719,0
588,2024-09-26 21:14:35.682750000,0,019,-0.4843599211414967,0.05850942089988489,3.355178009095512,0.11809936845841824,0.49935655457224926,-0.30668680500090995,-2.5651720837598266,0.5398781287192022,0
589,2024-09-26 21:14:35.744927002,0,019,-0.5007041632928799,0.05633352364340064,4.240400151801676,-0.019319790376637162,0.4262595740272008,-0.30231187103848767,-2.0724674017671676,0.44732330361690176,0
590,2024-09-26 21:14:35.807191895,0,019,-0.5092063556694205,0.05307308762705681,5.113718898989649,-0.1503058865331454,0.3633973090621459,-0.2982829362990238,-1.5341947622359158,0.34822903746755507,0
591,2024-09-26 21:14:35.884844971,0,019,-0.5100331707070612,0.0489709131118272,5.940724511059426,-0.271384199725018,0.31157507267863727,-0.29484336968811287,-0.9849258817535401,0.25015458593114487,0
592,2024-09-26 21:14:35.946864990,0,019,-0.5030045906800724,0.044228804381842596,6.6871411566330945,-0.3798593982123315,0.2705982455980204,-0.29212080181977806,-0.4614864451303365,0.16078065810018616,0
593,2024-09-26 21:14:36.008110107,0,019,-0.4876534995001428,0.039006421870452966,7.320616947398957,-0.4737834311060902,0.2391397451950144,-0.29010020246313994,3.021007099402531e-05,0.08718710315570463,0
594,2024-09-26 21:14:36.088017090,0,019,-0.463410159376034,0.03343897892067612,7.812469971631954,-0.5518435925290274,0.21478276606834265,-0.28862085504897234,0.3668591764942755,0.03526563146173214,0
595,2024-09-26 21:14:37.036649902,0,019,-0.42988644372538687,0.027667158627353975,8.139524313029446,-0.6132586200351593,0.19427573067030746,-0.28740331503240746,0.6117508793059119,0.009325941613868982,0
596,2024-09-26 21:14:37.103447021,0,019,-0.3871788152081115,0.021868327227866396,8.28582288348325,-0.6577274430319401,0.1739262334530177,-0.28609290968143447,0.7146300832927858,0.01191623911881467,0
