,time,MARKER,pid,L_O_DSI,L_D_DSI,L_O_DSphi,L_D_DSphi,R_O_DSI,R_D_DSI,R_O_DSphi,R_D_DSphi,trial_id
0,2024-09-26 21:27:20.571212800,TASK_BEGIN,019,3.1771901594167895,-0.1719577107048926,-5.086656570081115,1.741222177631443,0.06358816591693608,0.4100927151229587,1.8886075587537865,-1.8971890912473912,2
1,2024-09-26 21:27:20.633010944,TASK_BEGIN,019,3.3259245149284036,-0.2638863281919029,-2.53792383028504,1.367832798644882,0.40519693001865953,0.37918340066327466,2.14547945538887,-1.8020138849178615,2
2,2024-09-26 21:27:20.704450048,TASK_BEGIN,019,3.4800701555027422,-0.3552619508998812,-0.07858032149286918,1.0092202281521356,0.7378775475784799,0.3493670398719374,2.383458206908461,-1.7093672897446837,2
3,2024-09-26 21:27:20.772699136,TASK_BEGIN,019,3.6381821862061856,-0.44462274861953816,2.2185305542477307,0.6764590755878882,1.0537285100958587,0.3214749037675332,2.591443255473513,-1.6207575278026503,2
4,2024-09-26 21:27:20.835127296,TASK_BEGIN,019,3.798621486086056,-0.530621477484992,4.287927173934372,0.37966551634416623,1.3462907406242368,0.2961621059253203,2.7603773621777434,-1.5374471304644823,2
5,2024-09-26 21:27:21.763172096,TASK_BEGIN,019,3.959761811939508,-0.61209523898951,6.075044678478653,0.12749843550523887,1.610952849836781,0.27386522908647754,2.883286113316189,-1.4603938863127606,2
6,2024-09-26 21:27:21.830068992,TASK_BEGIN,019,4.120186538433659,-0.688105776696867,7.539938901563652,-0.0734290071819306,1.8450742323614033,0.25478954227541556,2.954536657554198,-1.3901642349613015,2
7,2024-09-26 21:27:21.896983808,TASK_BEGIN,019,4.278775322533382,-0.7579385270279682,8.660062813189885,-0.2190756540448963,2.047862890016894,0.23892043509539942,2.9686705111767258,-1.3268169250963568,2
8,2024-09-26 21:27:21.963862016,TASK_BEGIN,019,4.434622167776459,-0.8210625197225635,9.431067218527659,-0.3082608527890311,2.220027828025308,0.22606177860215007,2.919497103240554,-1.2698220412233268,2
9,2024-09-26 21:27:22.022234880,TASK_BEGIN,019,4.586870750857176,-0.87707666662484,9.865658389721045,-0.34265951814061035,2.3632333401736356,0.21590559178294996,2.8002342244833742,-1.2181259135525884,2
10,2024-09-26 21:27:22.097620224,TASK_BEGIN,019,4.734597600161589,-0.9256724851776231,9.991241127795522,-0.3265530068588638,2.479527777717917,0.20811331828321275,2.604947262906279,-1.170390769263224,2
11,2024-09-26 21:27:22.164506880,TASK_BEGIN,019,4.87675351577493,-0.9666211955028842,9.847001277581835,-0.26641873573460345,2.570996410688204,0.20237092406586288,2.3306816350049346,-1.1253007800367385,2
12,2024-09-26 21:27:23.101161984,TASK_BEGIN,019,5.012103909517548,-0.9997763511205695,9.480935326858848,-0.17046183052905436,2.639731405577832,0.19839924483148003,1.9794247021087439,-1.0818205797620182,2
13,2024-09-26 21:27:23.177941248,TASK_BEGIN,019,5.139168170777481,-1.0250860097112586,8.947266324888117,-0.04818541919703687,2.6879909819724244,0.19593392803945497,1.559333980018042,-1.0393818157846806,2
14,2024-09-26 21:27:23.240308992,TASK_BEGIN,019,5.256197795800538,-1.0426114342409292,8.304338974157067,0.08999459338890464,2.718347684866964,0.19470216003068364,1.0849920200494936,-0.9980054156727766,2
15,2024-09-26 21:27:23.313662208,TASK_BEGIN,019,5.361234158264,-1.0525505051192516,7.612733083111311,0.2331633766499489,2.7336952298032275,0.19441547010651034,0.5767551408731841,-0.9583483131594458,2
16,2024-09-26 21:27:23.379066880,TASK_BEGIN,019,5.452293742806043,-1.0552682703656242,6.933337113714558,0.370377606997658,2.737083063129041,0.19478340404744643,0.05943116222364391,-0.9216505783223152,2
17,2024-09-26 21:27:23.441088000,TASK_BEGIN,019,5.527673616552453,-1.0513306326677418,6.3250979951969315,0.49117671154873177,2.731438641875603,0.19553899341700334,-0.43957817892726697,-0.8895629839807526,2
18,2024-09-26 21:27:23.514326272,TASK_BEGIN,019,5.5862609350237795,-1.0415216034460952,5.842002860129872,0.586171251228275,2.7193176575119615,0.19645691795985035,-0.8925229837580991,-0.8638798029027018,2
19,2024-09-26 21:27:24.463064832,TASK_BEGIN,019,5.627695947481508,-1.0268212032590756,5.529154533727235,0.6477391585179214,2.702811167376718,0.1973503869104438,-1.2735462935964474,-0.8462581128275307,2
20,2024-09-26 21:27:24.529938944,TASK_BEGIN,019,5.652352834893266,-1.0083412468931081,5.418668754975375,0.670732007258467,2.683606607325418,0.19805502287018056,-1.5605574385829508,-0.8379929962225897,2
21,2024-09-26 21:27:24.584121856,TASK_BEGIN,019,5.66127010964688,-0.9872476796973937,5.52674186781986,0.6529897221729111,2.663108834013772,0.19841831899059661,-1.7366990785934355,-0.8398705721608797,2
22,2024-09-26 21:27:24.661767168,TASK_BEGIN,019,5.656152004138895,-0.9647033482467517,5.852877987206544,0.5954924891273341,2.6425693512368285,0.19829598551311456,-1.7913802790119717,-0.8521196577752482,2
23,2024-09-26 21:27:24.723367936,TASK_BEGIN,019,5.639360491076664,-0.9418296312368275,6.381328359405634,0.5021006576092001,2.623219355711372,0.19754226047909088,-1.720680599323051,-0.8744698591967688,2
24,2024-09-26 21:27:24.784403968,TASK_BEGIN,019,5.613755390768669,-0.9196610627502612,7.084253382226947,0.3789397363622505,2.6063832195470567,0.19599167671615436,-1.527160584731394,-0.906250641672028,2
25,2024-09-26 21:27:24.862513152,TASK_BEGIN,019,5.582433454842201,-0.8990922534891512,7.925935799571323,0.23354802553162518,2.59353885539295,0.19344451246532152,-1.2194508325749194,-0.9464355886007713,2
26,2024-09-26 21:27:25.774724096,TASK_BEGIN,019,5.548540392303833,-0.8808447942098206,8.867053286963113,0.073959551629415,2.5863167653987627,0.18966722051495818,-0.8118813899303702,-0.9936103205573824,2
27,2024-09-26 21:27:25.854320128,TASK_BEGIN,019,5.515186291520699,-0.8654631317865636,9.867894633101757,-0.09206981493168927,2.586441587008056,0.18440934249887786,-0.32405165645159384,-1.0459351234519354,2
28,2024-09-26 21:27:25.914693120,TASK_BEGIN,019,5.485302408872186,-0.8533106019897736,10.889962021301134,-0.25753897471573034,2.59561577959754,0.17743259538798586,0.2198025296977225,-1.1011608054519273,2
29,2024-09-26 21:27:25.988787968,TASK_BEGIN,019,5.461311948132406,-0.8445405581456463,11.89632428712618,-0.4163762000275698,2.6153544240760787,0.16854736141537152,0.7915439181352655,-1.1566582449000187,2
30,2024-09-26 21:27:26.055682816,TASK_BEGIN,019,5.444708634375853,-0.8390613655685542,12.851625407012786,-0.5634498046356567,2.646788804993648,0.15765196130605616,1.359983897450773,-1.209415872951949,2
31,2024-09-26 21:27:26.114094080,TASK_BEGIN,019,5.435755096194038,-0.8365328181450408,13.722396978739678,-0.6945672485121603,2.6904522373383144,0.14476816780184815,1.8922679150335262,-1.2560657195255316,2
32,2024-09-26 21:27:26.175623680,TASK_BEGIN,019,5.433422425008111,-0.8364033652490218,14.477561483954824,-0.806482475098791,2.7460794614618855,0.13006260003127393,2.356118284054179,-1.2930314410209232,2
33,2024-09-26 21:27:27.137211136,TASK_BEGIN,019,5.435567843589119,-0.8379718418577307,15.088643521449713,-0.8968072126749161,2.8124757831347167,0.11384524347522187,2.722713494458518,-1.3168180903872941,2
34,2024-09-26 21:27:27.205093120,TASK_BEGIN,019,5.439289715858938,-0.8404582731343747,15.529772711173756,-0.9637840287082575,2.8874860876732815,0.09654968909273723,2.9696707317231428,-1.3243963794411404,2
35,2024-09-26 21:27:27.259899904,TASK_BEGIN,019,5.4413574687896435,-0.8430724410278149,15.778300309518297,-1.0060568667431653,2.9680727408739815,0.07870750169988416,3.083502687857423,-1.3135891471313765,2
36,2024-09-26 21:27:27.337573888,TASK_BEGIN,019,5.438595935852489,-0.8450696919164932,15.816609404353756,-1.0226304356009164,3.0505424948550814,0.060916966225976144,3.0609063681861435,-1.2833461051457904,2
37,2024-09-26 21:27:27.405779968,TASK_BEGIN,019,5.428155097085993,-0.845791504253458,15.634624027106927,-1.0130639121497098,3.1309340880218897,0.04379798362612495,2.9085980116416876,-1.2338413223463751,2
38,2024-09-26 21:27:27.460371968,TASK_BEGIN,019,5.407677777244068,-0.8446976057732081,15.231912999539135,-0.977759706940925,3.20548129758129,0.027935593070672275,2.641971907069227,-1.1664150190767084,2
39,2024-09-26 21:27:27.539595008,TASK_BEGIN,019,5.375396043522804,-0.841392297905293,14.618710928489335,-0.9181641304129304,3.2710488496539663,0.013823306273117227,2.2831015122803295,-1.083432825091887,2
40,2024-09-26 21:27:28.488253184,TASK_BEGIN,019,5.330140853814231,-0.8356333207633149,13.815763480955562,-0.8367742804920396,3.3254800364478196,0.0018166583252832496,1.8585509279134118,-0.9881366359318839,2
41,2024-09-26 21:27:28.555158016,TASK_BEGIN,019,5.271266802142177,-0.8273126305893547,12.852998110338444,-0.7369326274975808,3.3677776242579647,-0.007890799053032764,1.3973919474965604,-0.8845268637411215,2
42,2024-09-26 21:27:28.622061056,TASK_BEGIN,019,5.198595986079864,-0.8164240225428694,11.767207761855206,-0.6224830017644163,3.398036230052668,-0.015258754006864338,0.9295730657134232,-0.7772510321676422,2
43,2024-09-26 21:27:28.677580032,TASK_BEGIN,019,5.112511607521401,-0.8030510874019886,10.59950852081639,-0.4974530891421991,3.4171432761244946,-0.020361206243754332,0.4843208413518271,-0.6714112958376508,2
44,2024-09-26 21:27:28.755844864,TASK_BEGIN,019,5.014202537720904,-0.7873903278899539,9.393426346709381,-0.36590605666195425,3.4263614257279156,-0.023329518670749907,0.08812781547006591,-0.5722099806686433,2
45,2024-09-26 21:27:28.816980992,TASK_BEGIN,019,4.905894706587272,-0.7697864568286257,8.19358133295442,-0.23193926466186696,3.4269198913828767,-0.024292001473999816,-0.23754097319331602,-0.4844527689759476,2
46,2024-09-26 21:27:28.878642944,TASK_BEGIN,019,4.790891277374359,-0.7507464278065726,7.043951691371184,-0.09964722422730801,3.4197390126128155,-0.0233305579521141,-0.47803263164513754,-0.412054696103463,2
47,2024-09-26 21:27:29.834345216,TASK_BEGIN,019,4.67340411336524,-0.7309237923345703,5.984851263143097,0.02712760740357742,3.405373678112126,-0.020471813169720392,-0.6261211112003797,-0.3577161071046002,2
48,2024-09-26 21:27:29.904271872,TASK_BEGIN,019,4.558285813561593,-0.7110863313752998,5.049048399425664,0.1452474789679145,3.3841316231525105,-0.01570680329048424,-0.681470055876875,-0.3228212955492364,2
49,2024-09-26 21:27:29.968115968,TASK_BEGIN,019,4.45072910515438,-0.6920751711836904,4.258435132720932,0.25275110021207525,3.356237329860037,-0.009019614907852767,-0.6492829324121553,-0.30750331557344546,2
50,2024-09-26 21:27:30.038065920,TASK_BEGIN,019,4.355912996861646,-0.6747519804849581,3.6224002673861424,0.34914014686817496,3.3219772394114147,-0.00041682383412372666,-0.5384329747158428,-0.3108129133659493,2
51,2024-09-26 21:27:30.104972032,TASK_BEGIN,019,4.278583415154389,-0.6599314075120926,3.13825180153707,0.4353405778151089,3.2818458554718584,0.01004129699797551,-0.35952471981391476,-0.33094668371847796,2
52,2024-09-26 21:27:30.171930880,TASK_BEGIN,019,4.2226162593818355,-0.648302231274089,2.7933206126172188,0.5133046452290589,3.23669793889254,0.022211078051042606,-0.12353168057700295,-0.3654719490726073,2
53,2024-09-26 21:27:30.238774272,TASK_BEGIN,019,4.190634695831843,-0.6403477745160484,2.56778079425607,0.5853985311347358,3.1878460758812857,0.035844876178734386,0.15860107540672544,-0.4114883072525994,2
54,2024-09-26 21:27:31.183069184,TASK_BEGIN,019,4.1837587943741035,-0.6362892487725369,2.4371322293112754,0.653840665515631,3.1370220804828644,0.05058685660608404,0.47553348516058674,-0.46571007156638783,2
55,2024-09-26 21:27:31.245872128,TASK_BEGIN,019,4.2015711388784736,-0.6360795923000201,2.3740198941860364,0.7203694175104476,3.0861864484615364,0.06598608409279956,0.8148510880645523,-0.5245144748172597,2
56,2024-09-26 21:27:31.308350208,TASK_BEGIN,019,4.242324821766851,-0.6394504872922745,2.349882184937796,0.7861371270676766,3.0372541964720186,0.08151875469449278,1.1628739372516828,-0.5840543054709257,2
57,2024-09-26 21:27:31.386215936,TASK_BEGIN,019,4.30331048595798,-0.6459823006737633,2.336949784117519,0.8517412843579818,2.991818458105333,0.0966123285090821,1.5054488474959375,-0.6405254918768702,2
58,2024-09-26 21:27:31.455056896,TASK_BEGIN,019,4.381252343164715,-0.6551643473246004,2.3106136521499305,0.9173112319033552,2.950920870788821,0.11067515495366774,1.8295184904068147,-0.6905765166880355,2
59,2024-09-26 21:27:31.521971968,TASK_BEGIN,019,4.4726509726809285,-0.6664405700557352,2.2518815269504704,0.9825789707864423,2.9149091087978642,0.123137814785731,2.124640924168748,-0.731715085797951,2
60,2024-09-26 21:27:31.587472896,TASK_BEGIN,019,4.574042652684537,-0.6792533832444071,2.1496134666467817,1.046881689893371,2.883410364051199,0.1335037518024804,2.3836529160740647,-0.7625291756308303,2
61,2024-09-26 21:27:32.499928064,TASK_BEGIN,019,4.682163125537122,-0.6930863438008299,2.0021396948757,1.1091040326612394,2.8553978970866627,0.14140144853607567,2.602313011311516,-0.7826474089771052,2
62,2024-09-26 21:27:32.579399936,TASK_BEGIN,019,4.79402274821697,-0.7074909578486155,1.8178101011596348,1.1676170793674054,2.829315772006247,0.14662721997008457,2.7784335415400783,-0.7925185773058612,2
63,2024-09-26 21:27:32.638673152,TASK_BEGIN,019,4.906890555339481,-0.7220864603580439,1.6142410384400891,1.22027027020025,2.8032906562572766,0.14916111705447457,2.9111512697326183,-0.7931507015397494,2
64,2024-09-26 21:27:32.713177088,TASK_BEGIN,019,5.018148729969628,-0.7365336935883883,1.4163186176788525,1.2644839026341206,2.775450009035975,0.14914661674068416,3.0007527517848924,-0.7859151361280889,2
65,2024-09-26 21:27:32.780059136,TASK_BEGIN,019,5.125044093643797,-0.7504971082302708,1.2532871632593494,1.297467696832037,2.7442402169622464,0.14684997235550443,3.049205217572045,-0.7724606708766746,2
66,2024-09-26 21:27:32.845714176,TASK_BEGIN,019,5.224506752760861,-0.7636204378277903,1.155406779882271,1.3165483612907312,2.7086213323597357,0.14262004791933247,3.0610489245072876,-0.7546961619651279,2
67,2024-09-26 21:27:32.901186048,TASK_BEGIN,019,5.3132075744594225,-0.7755368990052178,1.1503618765751946,1.3195927984255782,2.6681669405138786,0.1368459204736247,3.0437052979869326,-0.7347157673856651,2
68,2024-09-26 21:27:33.853551104,TASK_BEGIN,019,5.387862234714058,-0.7859104518474578,1.259301068951927,1.3055174434803571,2.6231667419545555,0.1298991918340786,3.0064356058623756,-0.7145760143413536,2
69,2024-09-26 21:27:33.915549952,TASK_BEGIN,019,5.445655139998039,-0.7944819549227758,1.4928438901247993,1.2747810997457578,2.574730908296422,0.12206684063421293,2.9583136120468714,-0.6960016785836052,2
70,2024-09-26 21:27:33.993081088,TASK_BEGIN,019,5.4846269991098335,-0.8010919482564165,1.8481626893399696,1.2296565495946137,2.524802256567595,0.11350084124739528,2.9064226542877227,-0.6802101511633294,2
71,2024-09-26 21:27:34.062607872,TASK_BEGIN,019,5.503905164089587,-0.8056726392368677,2.308374478080421,1.1741074608143742,2.475991510891129,0.10420903699467748,2.855112289834629,-0.6679487272501775,2
72,2024-09-26 21:27:34.117377024,TASK_BEGIN,019,5.503739129810389,-0.8082273103045159,2.844681136503922,1.1132545755041314,2.431232677317682,0.09408956379646585,2.8061660766586467,-0.6596506198529202,2
73,2024-09-26 21:27:34.194566912,TASK_BEGIN,019,5.485384113420389,-0.8088197331659392,3.4206066056879414,1.0525759106655768,2.3933327255039023,0.08299256655211419,2.7592947613982743,-0.6555687056598275,2
74,2024-09-26 21:27:34.263254016,TASK_BEGIN,019,5.450893947156715,-0.8075790143108353,3.99708434521959,0.9970654971790919,2.364509100025597,0.07079303867586693,2.712670693273929,-0.6558494463138618,2
75,2024-09-26 21:27:35.212097792,TASK_BEGIN,019,5.4028604567549925,-0.8047083881162094,4.537167124658815,0.9505836418533682,2.3460111898443303,0.057461401487987375,2.6635671976188604,-0.6605676492389414,2
76,2024-09-26 21:27:35.277053952,TASK_BEGIN,019,5.3441340904791454,-0.800485084808841,5.009663164936335,0.9155398188902099,2.337914347356976,0.04311496334504163,2.6092796030222485,-0.6697390219332671,2
77,2024-09-26 21:27:35.338606080,TASK_BEGIN,019,5.277585821115044,-0.7952495445921213,5.39176799914513,0.8928401688930878,2.339114796503954,0.028037176366678965,2.548542885258366,-0.6833729336430452,2
78,2024-09-26 21:27:35.412758016,TASK_BEGIN,019,5.205956465474368,-0.7893893937019878,5.671033656237874,0.8818821214740447,2.3475004708511444,0.012664481546205827,2.483321329156145,-0.7016213761063209,2
79,2024-09-26 21:27:35.478241024,TASK_BEGIN,019,5.131777839550979,-0.783320447395477,5.846729077056992,0.8804655558629925,2.360269737924504,-0.0024509787296323115,2.4201924236407883,-0.7249481406339457,2
80,2024-09-26 21:27:35.546523904,TASK_BEGIN,019,5.057308537834025,-0.7774607842569492,5.930348482470466,0.8847190469422667,2.3743475267357264,-0.016695028598327964,2.370406297697047,-0.754163942903756,2
81,2024-09-26 21:27:35.601252864,TASK_BEGIN,019,4.9844429884984285,-0.7721918284704907,5.944821263261792,0.8892664606200055,2.3868101026622734,-0.029455564162830763,2.348226419118838,-0.7902394561193591,2
82,2024-09-26 21:27:36.521366016,TASK_BEGIN,019,4.9146123600461475,-0.7678099032285051,5.922012769429172,0.8877669931830344,2.3952434872930533,-0.040189298084125295,2.3678944097944954,-0.8339298412283186,2
83,2024-09-26 21:27:36.603396096,TASK_BEGIN,019,4.848739010331243,-0.7644854782911232,5.8985778406984375,0.8737635402915171,2.397980811096065,-0.04847974845600053,2.4402788177619987,-0.8853512039170309,2
84,2024-09-26 21:27:36.659540736,TASK_BEGIN,019,4.787279304162186,-0.7622461753868631,5.910720678032159,0.8416432792003095,2.3941470147660477,-0.05407062458296985,2.570484993516239,-0.9436746463791721,2
85,2024-09-26 21:27:36.735923200,TASK_BEGIN,019,4.730328284862214,-0.7609867951022533,5.988681373321012,0.7874915736399684,2.383492823999276,-0.056863269057825565,2.757014267035106,-1.0070177982195374,2
86,2024-09-26 21:27:36.797976064,TASK_BEGIN,019,4.677730070211112,-0.7605006282161962,6.152043298577811,0.7096658362478736,2.3661566806432357,-0.05689085959356044,2.9921636391820634,-1.072529139801205,2
87,2024-09-26 21:27:36.870982912,TASK_BEGIN,019,4.6291604114369616,-0.7605226788696405,6.40707385476978,0.6089977914509569,2.342553269999993,-0.05429946345822836,3.2631630938808525,-1.136658458275637,2
88,2024-09-26 21:27:36.937922816,TASK_BEGIN,019,4.5841986015756735,-0.7607765978735942,6.74684537680893,0.4886185412466367,2.3134413613104154,-0.04934749923655838,3.5537441225962008,-1.1955850185001424,2
89,2024-09-26 21:27:37.886631168,TASK_BEGIN,019,4.542443440840619,-0.7610232124251073,7.153824045160786,0.3534830225730983,2.2800489961620336,-0.04240604629265395,3.8458063647162977,-1.2456832980963224,2
90,2024-09-26 21:27:37.953517824,TASK_BEGIN,019,4.503724212782456,-0.7611099911653618,7.603655649362337,0.2097322091735426,2.244110542505776,-0.0339402692906063,4.120918324755763,-1.283893822751882,2
91,2024-09-26 21:27:38.020412928,TASK_BEGIN,019,4.46838241307427,-0.7610114543382414,8.068979402281478,0.06401831627673472,2.2077881740113354,-0.024473040899216886,4.361789500731935,-1.3079861966304682,2
92,2024-09-26 21:27:38.083386112,TASK_BEGIN,019,4.4374720128563,-0.7608418642392702,8.522946172537852,-0.07713107610866898,2.1735560838139443,-0.014546471204458598,4.553886630938545,-1.3167561614323875,2
93,2024-09-26 21:27:38.145016832,TASK_BEGIN,019,4.412698415094588,-0.7608299533432693,8.942326276765428,-0.20783828952801187,2.144086221847889,-0.004689224910710361,4.686835111044752,-1.3101080090255803,2
94,2024-09-26 21:27:38.221054976,TASK_BEGIN,019,4.3960786300247685,-0.7612658158699909,9.309703101175693,-0.32323486283514735,2.122087728407768,0.00461483718186943,4.755111966871421,-1.2889430677908302,2
95,2024-09-26 21:27:38.287981056,TASK_BEGIN,019,4.389477824225526,-0.7624387296091623,9.614302344596497,-0.4196636055623598,2.110077917761651,0.012957269645891153,4.757969603959023,-1.254878996414214,2
96,2024-09-26 21:27:39.232305920,TASK_BEGIN,019,4.394171403816647,-0.7645773573848484,9.85139869386644,-0.49475588397643966,2.110129070835964,0.02002973249564096,4.698697606959643,-1.2099032727010268,2
97,2024-09-26 21:27:39.303565824,TASK_BEGIN,019,4.41048567592994,-0.767798945964803,10.020633462539903,-0.5474061364472929,2.1236224980490612,0.025644784834140063,4.583326875494218,-1.1560735589490525,2
98,2024-09-26 21:27:39.357166080,TASK_BEGIN,019,4.437544060913886,-0.7720757320346704,10.124133962312603,-0.5776934800485616,2.1510212793721823,0.029756090882138913,4.419112410136549,-1.0953534237880294,2
99,2024-09-26 21:27:39.435196928,TASK_BEGIN,019,4.47316543255852,-0.7772242863501794,10.165489269474135,-0.5868178608618044,2.191715399598396,0.032468340094382576,4.213251510091034,-1.029599275874228,2
100,2024-09-26 21:27:39.504184064,TASK_BEGIN,019,4.513960911724708,-0.782920206563552,10.149868689564537,-0.5770581839411408,2.244010388114346,0.034023895885023574,3.972163503504979,-0.9606517941307248,2
101,2024-09-26 21:27:39.559280128,TASK_BEGIN,019,4.555667333600091,-0.788742089692544,10.084693267172138,-0.5516836843307026,2.3052873766547126,0.03476385074411429,3.701394343018361,-0.8904753414314225,2
102,2024-09-26 21:27:39.636368896,TASK_BEGIN,019,4.593696615932969,-0.7942420644930228,9.980208366256607,-0.5147564694306763,2.3723183658138836,0.03506727462399525,3.405809227535499,-0.8212611601323646,2
103,2024-09-26 21:27:40.586753024,TASK_BEGIN,019,4.623745028048781,-0.7990220042708827,9.849767749468613,-0.47085231197373295,2.441669242173625,0.035276504526163155,3.0896944021405015,-0.7553966002473854,2
104,2024-09-26 21:27:40.645414912,TASK_BEGIN,019,4.642242638933597,-0.8027891077337569,9.70981758069318,-0.42479061254726513,2.5100576759960997,0.03562857224365113,2.7570614869970425,-0.6953321420788151,2
105,2024-09-26 21:27:40.710990080,TASK_BEGIN,019,4.6465336837257105,-0.8053786097767313,9.579247734972363,-0.38141023965323434,2.574534947784251,0.03622143496627578,2.4127744942025884,-0.6435173346445852,2
106,2024-09-26 21:27:40.784727040,TASK_BEGIN,019,4.634845635434915,-0.8067441688433797,9.477664741473742,-0.3453266519037382,2.6324865970732843,0.03702766701106423,2.064251583779484,-0.6024714847707746,2
107,2024-09-26 21:27:40.846263040,TASK_BEGIN,019,4.606186956261287,-0.8069236876020485,9.422792145832851,-0.32060105721181864,2.6815934285229686,0.03793563617029879,1.72272428163044,-0.5748512788705059,2
108,2024-09-26 21:27:40.908772096,TASK_BEGIN,019,4.560291346253738,-0.8059975136357854,9.427827218275057,-0.3103322716706397,2.719897092412978,0.03878506593335296,1.4034459351235773,-0.5633664293607522,2
109,2024-09-26 21:27:40.987981312,TASK_BEGIN,019,4.497659032422554,-0.8040607516519521,9.499294516916772,-0.31623329838234004,2.74599562459677,0.0393798635488423,1.1247768353963437,-0.5704982874678365,2
110,2024-09-26 21:27:41.935826944,TASK_BEGIN,019,4.419676917167968,-0.8012212804902151,9.63540334054174,-0.3382691214383958,2.7592986032862754,0.03948232452320211,0.9061996954226961,-0.5980619056533163,2
111,2024-09-26 21:27:42.003788032,TASK_BEGIN,019,4.3287131875015685,-0.7976106728001178,9.825101560432685,-0.3744758488285466,2.7602252129815845,0.03880684761439221,0.7657837893131406,-0.6467673264164907,2
112,2024-09-26 21:27:42.058600704,TASK_BEGIN,019,4.228029508353703,-0.7933787950424178,10.04848405232575,-0.4211162064994017,2.7502275972853463,0.037032630483079615,0.7179540645238576,-0.7159738914018117,2
113,2024-09-26 21:27:42.137563904,TASK_BEGIN,019,4.121461218506446,-0.7886597522057855,10.279041831814293,-0.4732478755376206,2.7316260011609845,0.03383466188744322,0.7718682071097007,-0.803669499331045,2
114,2024-09-26 21:27:42.204448000,TASK_BEGIN,019,4.013007966748223,-0.7835298075292304,10.48752622556299,-0.5256139272285719,2.7073671024600623,0.028912269604809283,0.9301521707412038,-0.9065437172489064,2
115,2024-09-26 21:27:42.258880000,TASK_BEGIN,019,3.90651267363655,-0.7779855776662938,10.646519272872153,-0.5736127748401469,2.680787023682314,0.02200540572081804,1.187971349105476,-1.020064533095285,2
116,2024-09-26 21:27:42.336987136,TASK_BEGIN,019,3.80548693263224,-0.7719536879930791,10.734471123638176,-0.6140478851988335,2.6553530476186085,0.012909061678164822,1.5329515540785796,-1.1386358225252888,2
117,2024-09-26 21:27:43.262630912,TASK_BEGIN,019,3.7130691597321794,-0.7653301280217577,10.738294289159628,-0.6454791872911855,2.6343664451012074,0.0014912812414681095,1.946633205883294,-1.255996887090744,2
118,2024-09-26 21:27:43.319675136,TASK_BEGIN,019,3.6321065127870997,-0.758043115452012,10.654366691630182,-0.6682289662086741,2.6206672840111938,-0.012289549686532444,2.4074386055211514,-1.365890470004594,2
119,2024-09-26 21:27:43.382280960,TASK_BEGIN,019,3.565327900194569,-0.7501251592056497,10.488301083562162,-0.684199232230677,2.616354959327241,-0.02836385012694589,2.8938658443496665,-1.462778210215615,2
120,2024-09-26 21:27:43.461904128,TASK_BEGIN,019,3.5155162482541478,-0.7417676011701749,10.253915390203469,-0.6965734352272498,2.6225060057020477,-0.04651806693569519,3.38624358920308,-1.5423038297939917,2
121,2024-09-26 21:27:43.530137856,TASK_BEGIN,019,3.4855614949185654,-0.7333301150957817,9.971650305102633,-0.7093700108361696,2.6389298257270775,-0.06635797309137254,3.8666046441200534,-1.6013968269577123,2
122,2024-09-26 21:27:43.582760960,TASK_BEGIN,019,3.478300264676226,-0.7252974423401527,9.666542776296678,-0.726846906970794,2.664083309368399,-0.08729278513533392,4.31775475871925,-1.6381544711219571,2
123,2024-09-26 21:27:43.659979008,TASK_BEGIN,019,3.496105115115594,-0.7181975557890048,9.366028681426908,-0.7528983732488989,2.6952509498440995,-0.10856088715027166,4.722896038323087,-1.651699511817379,2
124,2024-09-26 21:27:44.612645888,TASK_BEGIN,019,3.54029080136417,-0.712504464818135,9.097881741765038,-0.790628150567523,2.728967076461893,-0.12929576801547976,5.06636287227182,-1.6421084224481808,2
125,2024-09-26 21:27:44.669912064,TASK_BEGIN,019,3.610536615512097,-0.7085527055103612,8.888321927730168,-0.8421483335974025,2.761533252342364,-0.14861278421252863,5.335166622127762,-1.610390883189295,2
126,2024-09-26 21:27:44.731451904,TASK_BEGIN,019,3.704558666808154,-0.7064888089019353,8.760165238759274,-0.9085055601397526,2.7894998668220565,-0.165697186314175,5.5206217304316585,-1.558451318725515,2
127,2024-09-26 21:27:44.808712960,TASK_BEGIN,019,3.818122771715718,-0.7062664783818482,8.730805108314064,-0.9896009354810706,2.810065624649481,-0.17987864951555865,5.619328467137741,-1.4889783680844226,2
128,2024-09-26 21:27:44.870781952,TASK_BEGIN,019,3.945302100880998,-0.7076685172573292,8.809911798450521,-1.084072697442431,2.821349329492856,-0.19067732126718745,5.633096382521379,-1.4052482521335827,2
129,2024-09-26 21:27:44.931912192,TASK_BEGIN,019,4.078864859002063,-0.7103368895911673,8.997341065734354,-1.1892646490182976,2.822452675436134,-0.19781136926393336,5.567829327870724,-1.3108633842570991,2
130,2024-09-26 21:27:45.013971968,TASK_BEGIN,019,4.210787154702219,-0.7138087419730306,9.282243609105715,-1.3013990606992167,2.813284047640392,-0.20116972999247879,5.4318260602903,-1.2094820499962127,2
131,2024-09-26 21:27:45.962683904,TASK_BEGIN,019,4.332905298447614,-0.7175618660263263,9.64401445121881,-1.4159064054689072,2.7942165873473903,-0.20076597059138565,5.234277968875025,-1.1046118179849558,2
132,2024-09-26 21:27:46.025198848,TASK_BEGIN,019,4.437621015324447,-0.7210635570790552,10.054781975512965,-1.5277614814086422,2.7657163826865085,-0.19669346362218565,4.984609679783265,-0.9995139606190843,2
133,2024-09-26 21:27:46.096456960,TASK_BEGIN,019,4.518514521260901,-0.7238118696402364,10.482503462003848,-1.6317493900590716,2.728078803859523,-0.18909759937622805,4.692558995728699,-0.8972046952595304,2
134,2024-09-26 21:27:46.148791040,TASK_BEGIN,019,4.570775063428352,-0.725366352984446,10.894071334883822,-1.722753650451688,2.6813681997451915,-0.17817174699941712,4.3682904473983575,-0.8004760686641129,2
135,2024-09-26 21:27:46.225594880,TASK_BEGIN,019,4.5914483148966765,-0.7253738343379971,11.258414012720838,-1.796193213722965,2.6255747621057277,-0.16417526584399064,4.022089398349283,-0.7118497922171679,2
136,2024-09-26 21:27:46.297093888,TASK_BEGIN,019,4.579541710577549,-0.7235909594697066,11.549130092836833,-1.8485136695652906,2.5608990609290734,-0.14746208678222142,3.663662463201361,-0.633413856257437,2
137,2024-09-26 21:27:46.349339904,TASK_BEGIN,019,4.536008056618739,-0.7198973525245645,11.74556761302279,-1.877443792349762,2.487999736786775,-0.12849820229497413,3.3010931626017306,-0.5665356539368244,2
138,2024-09-26 21:27:47.283266048,TASK_BEGIN,019,4.463582194637544,-0.7142948678989558,11.832143769466262,-1.8818780942726632,2.4080565528537776,-0.10784786412857081,2.93976986197216,-0.5115486744375366,2
139,2024-09-26 21:27:47.345262080,TASK_BEGIN,019,4.366450883272165,-0.7068960295380011,11.797210106230654,-1.8615739726091807,2.322644135530626,-0.08613141300364655,2.582209541224097,-0.46762042099073253,2
140,2024-09-26 21:27:47.407746048,TASK_BEGIN,019,4.249813927930554,-0.6979098406770069,11.632791493687307,-1.8169484861909255,2.233578709026355,-0.06398642452584105,2.229316494377742,-0.4329337141765609,2
141,2024-09-26 21:27:47.488002048,TASK_BEGIN,019,4.119432308615614,-0.6876291463452293,11.335197534341301,-1.749047607809887,2.142879923057462,-0.042060950764696285,1.8824465116104332,-0.4051181704523085,2
142,2024-09-26 21:27:47.546533120,TASK_BEGIN,019,3.9811958724630045,-0.6764094766523809,10.90570376396414,-1.6595631231469519,2.0527953361228333,-0.021029499457282236,1.5452879384588685,-0.3817898003226097,2
143,2024-09-26 21:27:47.621753856,TASK_BEGIN,019,3.8406948544642385,-0.6646243480595103,10.350874553812119,-1.5507982684611243,1.9657472126811508,-0.0015966355680476314,1.2249678266306572,-0.3610719369412287,2
144,2024-09-26 21:27:47.688659968,TASK_BEGIN,019,3.7028183542224786,-0.6526021930320256,9.68249806176865,-1.4255659360733308,1.8841782359193073,0.015531513434461191,0.932049722513123,-0.34196675321113046,2
145,2024-09-26 21:27:48.628206080,TASK_BEGIN,019,3.5714625491355014,-0.6405743947969614,8.916949452316485,-1.2870032681306924,1.8103783328140555,0.029700171894947804,0.6793626703127897,-0.3244795885381611,2
146,2024-09-26 21:27:48.689724160,TASK_BEGIN,019,3.4494454199588542,-0.6286642550892105,8.0738517748695,-1.138316023632895,1.7463387475997225,0.04036618669478144,0.480063369893056,-0.3094965185512035,2
147,2024-09-26 21:27:48.771214848,TASK_BEGIN,019,3.338665866419739,-0.6169243378825287,7.174352925220593,-0.9825545703631893,1.693627606352606,0.04714969682922947,0.3455223995012002,-0.29848805410402385,2
148,2024-09-26 21:27:48.827261952,TASK_BEGIN,019,3.2404347033284604,-0.6054021649980685,6.239602323162257,-0.8225334586986448,1.6532908383626204,0.04986612799015491,0.2834801591694505,-0.29313189057012123,2
149,2024-09-26 21:27:48.903983872,TASK_BEGIN,019,3.155837472423335,-0.5942014373834223,5.290033115621559,-0.6609277382875848,1.6257710773761465,0.04854130698646578,0.29690715161145537,-0.29496780031041725,2
150,2024-09-26 21:27:48.965215744,TASK_BEGIN,019,3.0860199025127475,-0.5835196946909273,4.345829289171318,-0.5004974571677453,1.6108230872390217,0.043419145685413704,0.38400653575938765,-0.3051894271869133,2
151,2024-09-26 21:27:49.027287808,TASK_BEGIN,019,3.032340836363616,-0.5736626606682544,3.428198425571161,-0.3443163742169556,1.6074603241899645,0.034958308741022924,0.539275403822607,-0.32458620667648463,2
152,2024-09-26 21:27:49.987561984,TASK_BEGIN,019,2.996362250494969,-0.5650359033081926,2.56028497674081,-0.19584801263227758,1.6140015139054098,0.023805571228275035,0.7549118235879839,-0.3535677264544326,2
153,2024-09-26 21:27:50.054433024,TASK_BEGIN,019,2.979689989081725,-0.5581114841836986,1.766655822701494,-0.05877394289706489,1.628233666567284,0.010743981070646818,1.021935506515418,-0.3922244547278227,2
154,2024-09-26 21:27:50.115902720,TASK_BEGIN,019,2.9837265456906468,-0.553375430882982,1.0711790209140424,0.06341563518845618,1.647658575838877,-0.003373932278857916,1.3309216234724415,-0.44041534644342767,2
155,2024-09-26 21:27:50.178704128,TASK_BEGIN,019,3.0094063392721973,-0.5512688976413478,0.4940115451825382,0.16795954320059697,1.6697834559985707,-0.017695725246683645,1.6724739548100118,-0.4978459386036341,2
156,2024-09-26 21:27:50.240339968,TASK_BEGIN,019,3.0569861445942563,-0.5521364624229347,0.048849941973528765,0.2532954600462149,1.6924102379388324,-0.03143318641892862,2.03737254150829,-0.5640673757531606,2
157,2024-09-26 21:27:50.317588992,TASK_BEGIN,019,3.125947002853436,-0.556190371062208,-0.258523189953366,0.3192479223695755,1.7138697908508698,-0.04391644691586376,2.4162482847696922,-0.6383660444784068,2
158,2024-09-26 21:27:50.379717120,TASK_BEGIN,019,3.214989226685264,-0.563488075206036,-0.4299701848274919,0.36683537884391293,1.733160542200685,-0.05463419914059317,2.799045435461792,-0.7196190788626611,2
159,2024-09-26 21:27:51.325539072,TASK_BEGIN,019,3.322037668291069,-0.573914122963854,-0.4733430472953038,0.3978073235642028,1.7499786929798673,-0.06325754484615811,3.1748504462865226,-0.8062360631491883,2
160,2024-09-26 21:27:51.403169024,TASK_BEGIN,019,3.4442181181195144,-0.5871690701238047,-0.40025108236244095,0.4141523313037171,1.7646641054398224,-0.06964969097895092,3.5322101824194365,-0.8962076059210446,2
161,2024-09-26 21:27:51.465231872,TASK_BEGIN,019,3.5778607079811,-0.6027780310027614,-0.22399450398322238,0.41774226332204456,1.7781102735226137,-0.07386469605943527,3.859522921849854,-0.9871766154192458,2
162,2024-09-26 21:27:51.538244864,TASK_BEGIN,019,3.71859610977325,-0.6201189481609143,0.04190911894341285,0.4101442562836541,1.791651926233949,-0.07613146261851268,4.145425095031504,-1.0765012255895303,2
163,2024-09-26 21:27:51.605127936,TASK_BEGIN,019,3.8615483254962557,-0.6384591404473945,0.38428626926091236,0.3926162072669157,1.806909707935177,-0.07681860358314446,4.379672716511467,-1.161390324004304,2
164,2024-09-26 21:27:51.665061120,TASK_BEGIN,019,4.001601433358276,-0.6569988745556735,0.789804415958749,0.36630223919375504,1.8256085909716497,-0.07638707205284248,4.554650503738562,-1.2391533187688843,2
165,2024-09-26 21:27:51.738903040,TASK_BEGIN,019,4.1337191294436,-0.6749280933486378,1.2438448631820822,0.33254707427092434,1.84940438747399,-0.07534063806776996,4.66678661237628,-1.3074652719157738,2
166,2024-09-26 21:27:52.687695104,TASK_BEGIN,019,4.253254973036749,-0.6914895993409431,1.7297079931615846,0.29314820073336206,1.8797185219055315,-0.07417647840227352,4.717083610457866,-1.3645354674896126,2
167,2024-09-26 21:27:52.747808768,TASK_BEGIN,019,4.356162901289273,-0.7060307031997313,2.22902826955244,0.2503595124531556,1.9175903210725922,-0.07333723992721265,4.710641074337452,-1.4091741620595084,2
168,2024-09-26 21:27:52.809819136,TASK_BEGIN,019,4.439095906884349,-0.718033515680569,2.7237115873107918,0.2065665700850053,1.9635775590964755,-0.07317111529815706,4.655449643838814,-1.4407821291354324,2
169,2024-09-26 21:27:52.886998016,TASK_BEGIN,019,4.499478318334581,-0.7271276306056084,3.1989002603370884,0.16375217486473845,2.017705413555055,-0.07390671336806429,4.560673790697786,-1.4592358015210212,2
170,2024-09-26 21:27:52.955212032,TASK_BEGIN,019,4.535614284620316,-0.733091043406114,3.645719703845766,0.12303066588862775,2.0794707235018732,-0.07564752203697096,4.434735101154938,-1.464672631224838,2
171,2024-09-26 21:27:53.010720000,TASK_BEGIN,019,4.546815149192536,-0.7358444477422905,4.0624561968477835,0.08449645036140437,2.1479499524452015,-0.07838786133759319,4.283818098616431,-1.4572916826614586,2
172,2024-09-26 21:27:53.087471872,TASK_BEGIN,019,4.533525864806753,-0.7354508797895546,4.453693088625782,0.047435569058960944,2.221979650976168,-0.08203989783089356,4.111199985011526,-1.4372827993100317,2
173,2024-09-26 21:27:54.008213248,TASK_BEGIN,019,4.497456393257004,-0.7321314456528832,4.828147751199929,0.010752390116450614,2.3002577943127203,-0.08644931795034302,3.9172376925011436,-1.404880292241964,2
174,2024-09-26 21:27:54.079718912,TASK_BEGIN,019,4.441669715561374,-0.7262896554289693,5.196409151572491,-0.02661314262931261,2.3812910357888164,-0.09139025428797919,3.700026709558919,-1.360506915161135,2
175,2024-09-26 21:27:54.146606848,TASK_BEGIN,019,4.37053715597976,-0.7185251909885396,5.569163260800294,-0.0654276958893888,2.4632974705645556,-0.09655728205267267,3.457246454829445,-1.3050222178374369,2
176,2024-09-26 21:27:54.213485824,TASK_BEGIN,019,4.289553824182244,-0.7096245180324801,5.9556049436144045,-0.10604299799085586,2.544191233793852,-0.10157540044736864,3.1891147052963027,-1.2400288836884887,2
177,2024-09-26 21:27:54.271544064,TASK_BEGIN,019,4.205056007535053,-0.7005212333949329,6.361480094741474,-0.14825931367211886,2.62163576054582,-0.10602601292779934,2.9011880553986087,-1.1680699621225956,2
178,2024-09-26 21:27:54.333090048,TASK_BEGIN,019,4.123791974730025,-0.6922183200667229,6.7867299903244485,-0.19108772339302604,2.6930818021307816,-0.10947221315676726,2.605642317698486,-1.0925795333425705,2
179,2024-09-26 21:27:54.414156032,TASK_BEGIN,019,4.0522719144904285,-0.6856742311229801,7.223525342406944,-0.23252708480952244,2.7557817020259536,-0.11147530778421318,2.3206713712025686,-1.017612334844969,2
180,2024-09-26 21:27:55.357684992,TASK_BEGIN,019,3.995973618012211,-0.681674973976022,7.655651265018735,-0.269544569640723,2.8068606439567927,-0.1116102877383157,2.068411152138822,-0.9474657380334063,2
181,2024-09-26 21:27:55.429769984,TASK_BEGIN,019,3.9586330944506654,-0.6807272788356271,8.05946267248043,-0.2983211625634023,2.843490981639176,-0.10949019075116605,1.8718424688636228,-0.8862611341018839,2
182,2024-09-26 21:27:55.481346048,TASK_BEGIN,019,3.9418506160452917,-0.6830019539919104,8.406084024607779,-0.31471693345076074,2.863105124068487,-0.10479645719797416,1.7511694074912145,-0.8375103076757151,2
183,2024-09-26 21:27:55.563528192,TASK_BEGIN,019,3.9450820767475845,-0.6883313811218863,8.664533174811886,-0.31487161922336654,2.863562979244542,-0.09730527085004485,1.720500125271333,-0.8037230975485182,2
184,2024-09-26 21:27:55.620215808,TASK_BEGIN,019,3.9658757243823515,-0.6962383013214641,8.80511742793199,-0.29576374790775517,2.843283228743121,-0.08690880095071894,1.7855788302434132,-0.7861215390230512,2
185,2024-09-26 21:27:55.697309184,TASK_BEGIN,019,4.000177100933781,-0.7059751904488354,8.802173012976592,-0.2555367715895404,2.801403136902698,-0.07363729026469142,1.942759248139204,-0.7844913118849726,2
186,2024-09-26 21:27:55.764187904,TASK_BEGIN,019,4.042694189757858,-0.716580496891568,8.63591976826658,-0.19358468871781306,2.7379884935228835,-0.057683706852120445,2.1791804334182854,-0.7971991630289411,2
187,2024-09-26 21:27:56.712417024,TASK_BEGIN,019,4.087412099653796,-0.72696527643307,8.293971610496637,-0.11052147768339099,2.654265036347176,-0.03942922785074368,2.474196227182417,-0.8213956582004278,2
188,2024-09-26 21:27:56.764836864,TASK_BEGIN,019,4.128233732374383,-0.7360211449300972,7.772788219424151,-0.008076075678480163,2.552821807735033,-0.019465120794211522,2.801900016281884,-0.8533531089993422,2
189,2024-09-26 21:27:56.842648064,TASK_BEGIN,019,4.159603701239759,-0.7427270722457774,7.078746657337336,0.11111561583130812,2.437697810239144,0.001403415393905749,3.134160445168929,-0.8888371869838007,2
190,2024-09-26 21:27:56.913080064,TASK_BEGIN,019,4.176998712746377,-0.7462434184684129,6.228303719335396,0.24381261322655126,2.3142366348007344,0.02219106703053723,3.443440894388926,-0.9234383112818132,2
191,2024-09-26 21:27:56.965764864,TASK_BEGIN,019,4.177254518955198,-0.7459890866460491,5.246740894312636,0.3865526688688018,2.1886546219733995,0.04181097200467143,3.7050188241153297,-0.9528663268162523,2
192,2024-09-26 21:27:57.046895872,TASK_BEGIN,019,4.158724777373874,-0.7416861358232099,4.165389843675713,0.5360843385273292,2.067384178028685,0.05918757207452874,3.8987724638511385,-0.9732756202291987,2
193,2024-09-26 21:27:57.113716992,TASK_BEGIN,019,4.121233239478597,-0.7333497361262085,3.018033847616905,0.6897257353686779,1.956336737837627,0.07338463167324509,4.010854239468038,-0.9816629549369931,2
194,2024-09-26 21:27:58.024723200,TASK_BEGIN,019,4.065813926398087,-0.7212251767130927,1.837563056448357,0.8455439019862203,1.8602578591061534,0.08372271340812353,4.035118837593334,-0.9762643808396914,2
195,2024-09-26 21:27:58.104894976,TASK_BEGIN,019,3.994358053540887,-0.7057067396433993,0.6536321806384454,1.0023537785937255,1.7823189025662292,0.08985520250365041,3.9736742584131304,-0.9567794064590296,2
196,2024-09-26 21:27:58.171736064,TASK_BEGIN,019,3.909323795303474,-0.6872742939319407,-0.5085451252086016,1.159565954565947,1.7239925725441223,0.09178459126485976,3.835983588293983,-0.9242851466905599,2
197,2024-09-26 21:27:58.225505024,TASK_BEGIN,019,3.8135523609519444,-0.6664566870443142,-1.6285995793434747,1.3169015930978334,1.6851619360286079,0.08982639811347475,3.636629283762288,-0.8808738599863127,2
198,2024-09-26 21:27:58.303517952,TASK_BEGIN,019,3.710141221766514,-0.6438134115973441,-2.690942202630201,1.4740366971686925,1.6643991693240405,0.08454031413760474,3.3926468055690537,-0.8292092171642166,2
199,2024-09-26 21:27:58.365055232,TASK_BEGIN,019,3.6023346392205373,-0.6199250149159324,-3.6842454089193013,1.6302842522015593,1.6593691689363748,0.07664439652973444,3.1214739272329726,-0.7721923470552409,2
200,2024-09-26 21:27:58.439300096,TASK_BEGIN,019,3.4934182866167554,-0.5953853715013059,-4.6003580283839405,1.7843859667995,1.6672776442804238,0.06692605548841889,2.8399014341103332,-0.7127901252735067,2
201,2024-09-26 21:27:59.384027136,TASK_BEGIN,019,3.386621133105165,-0.5707942475356133,-5.432851412597368,1.93440872604745,1.6852343237472944,0.05616550619256385,2.5637704185161536,-0.6539753728463723,2
202,2024-09-26 21:27:59.454893056,TASK_BEGIN,019,3.2850509710559246,-0.5467516155436953,-6.175813641735369,2.077726721713297,1.7104435526352637,0.04508291404883987,2.308023162309552,-0.5987095966481608,2
203,2024-09-26 21:27:59.521529088,TASK_BEGIN,019,3.1916723423667204,-0.5238508503047467,-6.823462868692846,2.2111053922767128,1.7402580114536677,0.03430857436391684,2.086506472758499,-0.5498594663213856,2
204,2024-09-26 21:27:59.584139264,TASK_BEGIN,019,3.109282423821666,-0.5026673747322062,-7.370464232268912,2.3308814075051734,1.7722045551110592,0.02436681328230191,1.9107708364275289,-0.5099160072867994,2
205,2024-09-26 21:27:59.645670912,TASK_BEGIN,019,3.0404432572029694,-0.48374470913369083,-7.812123857724423,2.433161206644405,1.8040614192841424,0.01566500453361313,1.7879892642853392,-0.4805410181576309,2
206,2024-09-26 21:27:59.707225088,TASK_BEGIN,019,2.987373610385844,-0.46757915367089325,-8.14383337015276,2.5139777927888147,1.8340103754808883,0.00848293712598397,1.7193533707035349,-0.46217622071313763,2
207,2024-09-26 21:27:59.784366080,TASK_BEGIN,019,2.9518214645913514,-0.4546021302219232,-8.36015406143002,2.56943436917166,1.8608378442161964,0.0029605543649403984,1.7000926833889995,-0.4539229863090941,2
208,2024-09-26 21:28:00.738142208,TASK_BEGIN,019,2.934962311199128,-0.4451650979740228,-8.454474708994201,2.595879684546595,1.8840862040202335,-0.0009102817354934996,1.7207591431984546,-0.4536784445645244,2
209,2024-09-26 21:28:00.798086912,TASK_BEGIN,019,2.9373667163673938,-0.4395326169274027,-8.419745643508005,2.590140992249879,1.9040100520809475,-0.0032745325730929664,1.7685865912989942,-0.45840296705880573,2
210,2024-09-26 21:28:00.871951104,TASK_BEGIN,019,2.9589792957987435,-0.43787697530127834,-8.250194272683704,2.54985166024725,1.9212753640229436,-0.004373186769151734,1.8284238970023758,-0.4644635176377391,2
211,2024-09-26 21:28:00.935694080,TASK_BEGIN,019,2.9990081678469074,-0.4402638893747489,-7.943599793261149,2.473860597755289,1.9365231671373746,-0.004484863835706165,1.8836066504448985,-0.4680419921152938,2
212,2024-09-26 21:28:00.997231872,TASK_BEGIN,019,3.055774519756171,-0.4466341402071903,-7.503420390271953,2.3625967504657983,1.9500178581284078,-0.003875762299919582,1.9170300618220957,-0.4655424587163383,2
213,2024-09-26 21:28:01.072613888,TASK_BEGIN,019,3.12669554056876,-0.45679603350523135,-6.9400031509719735,2.2182372650596567,1.9615238505376507,-0.0027758918412067375,1.9123693934576351,-0.45391919932348546,2
214,2024-09-26 21:28:01.139507968,TASK_BEGIN,019,3.208473957081836,-0.47043226543295,-6.2705697611049604,2.044646081842414,1.9704088362820318,-0.0013811760383185578,1.855591970241607,-0.43092493272324595,2
215,2024-09-26 21:28:02.078514176,TASK_BEGIN,019,3.297414673792162,-0.48711418745396584,-5.518202239266706,1.847161883829208,1.975858911598025,0.00013320974134179022,1.7369054219297375,-0.39531682447766736,2
216,2024-09-26 21:28:02.155200000,TASK_BEGIN,019,3.389763427605346,-0.5063203668365087,-4.7100575047705675,1.6322882249962332,1.9770528573933885,0.0016058949105477289,1.5526189226753513,-0.34699597464639065,2
217,2024-09-26 21:28:02.216272128,TASK_BEGIN,019,3.4819951252782144,-0.5274617968623689,-3.874837893250708,1.4072615670386266,1.9732227065396668,0.002895009058502397,1.3059217147444513,-0.28700475231632755,2
218,2024-09-26 21:28:02.279076096,TASK_BEGIN,019,3.570996968385415,-0.5499151465018639,-3.039864424682816,1.1795075908958774,1.9636747568377806,0.0038839925242331787,1.006160383396895,-0.21737495524124134,2
219,2024-09-26 21:28:02.341561088,TASK_BEGIN,019,3.6541212968552355,-0.5730585729938035,-2.2287761815944065,0.9561200258085162,1.9479051321611163,0.004469236357964425,0.6672570924100697,-0.14092289832962626,2
220,2024-09-26 21:28:02.421448960,TASK_BEGIN,019,3.729133889729493,-0.5962994469603934,-1.4608527241203426,0.743527890370821,1.9258471416128884,0.0045288662381505855,0.30617225473408133,-0.06106790051912329,2
221,2024-09-26 21:28:02.489700864,TASK_BEGIN,019,3.794124223270868,-0.6190880309054434,-0.7518266018994663,0.5473656449082305,1.8981454084872462,0.0038922792704286385,-0.058334417228859695,0.01834836273308095,2
222,2024-09-26 21:28:03.438267136,TASK_BEGIN,019,3.8474525236643413,-0.6409183676243526,-0.11489864178645093,0.37236609707981644,1.8662912720448712,0.0023327735741217764,-0.40694699271303236,0.09329917022747028,2
223,2024-09-26 21:28:03.502790144,TASK_BEGIN,019,3.887784254467394,-0.6613210863309911,0.4392331357293172,0.22210547411994794,1.8325020911217529,-0.0004049859461253575,-0.721248429052856,0.15988176142087554,2
224,2024-09-26 21:28:03.572045056,TASK_BEGIN,019,3.914204520709303,-0.6798546711510879,0.9033391355568606,0.09866027968136633,1.7993769147625818,-0.004550989371311365,-0.9851543952170514,0.21465913965721276,2
225,2024-09-26 21:28:03.623830016,TASK_BEGIN,019,3.926344438778585,-0.6961007467723591,1.2747745795639889,0.0023782689342794847,1.7695015442818975,-0.010257389307381863,-1.1860267156355666,0.2549898976293442,2
226,2024-09-26 21:28:03.701601024,TASK_BEGIN,019,3.9244554481486618,-0.709666004065846,1.5561097717391061,-0.06813205928832362,1.7451372411950523,-0.017570390802503656,-1.3156398405492777,0.2793274188952837,2
227,2024-09-26 21:28:03.763178240,TASK_BEGIN,019,3.9094166494567846,-0.7201908925718796,1.7551913966032284,-0.11582299869471924,1.727992687543821,-0.02642584804474609,-1.3713099235674608,0.2874424819826222,2
228,2024-09-26 21:28:03.825516800,TASK_BEGIN,019,3.8826928612735077,-0.727365009702767,1.8847763488001896,-0.14491702373555831,1.7190531046851476,-0.03665694581729549,-1.356880083235239,0.2804742404088539,2
229,2024-09-26 21:28:04.784509952,TASK_BEGIN,019,3.8462752414806367,-0.7309519950773051,1.9618978633300477,-0.1605803004749337,1.7184782316931526,-0.04800580374339442,-1.2828506120922962,0.26075964358164977,2
230,2024-09-26 21:28:04.846851072,TASK_BEGIN,019,3.802619809086213,-0.7308240076941029,2.007072234708171,-0.1685717129963434,1.725573224005515,-0.060136017027462484,-1.165511011643513,0.2315138062242262,2
231,2024-09-26 21:28:04.921978880,TASK_BEGIN,019,3.754561445888309,-0.7269960898110915,2.0432828936533043,-0.1748221348956921,1.7388489424041806,-0.07265257573852568,-1.0256058503528571,0.19649871653107082,2
232,2024-09-26 21:28:04.988886272,TASK_BEGIN,019,3.7051692165211647,-0.7196455811845276,2.0945993100684195,-0.1849755506290882,1.7562304323543747,-0.08514127227714637,-0.8868368407662632,0.15975606646035065,2
233,2024-09-26 21:28:05.055742976,TASK_BEGIN,019,3.657500741236886,-0.7090998552424727,2.184458248375097,-0.2040157820880276,1.7754105929725839,-0.0972230590601747,-0.7740117688873646,0.12537455628094704,2
234,2024-09-26 21:28:05.108473088,TASK_BEGIN,019,3.6142191057968,-0.6957792157893383,2.3336842553816557,-0.2360170712544271,1.7942041407949432,-0.10859490366124576,-0.7107484620631347,0.09721703125111229,2
235,2024-09-26 21:28:05.189520896,TASK_BEGIN,019,3.5771325448457683,-0.6801084973865433,2.5582118822588975,-0.28390646189193036,1.8107383917238855,-0.119032014500705,-0.7170548773633727,0.0785809653723057,2
236,2024-09-26 21:28:06.112466944,TASK_BEGIN,019,3.5468433713761147,-0.6624429853092588,2.866812648595237,-0.34916722054517624,1.8234376643054868,-0.1283521018441572,-0.8073504460660484,0.07187998614881555,2
237,2024-09-26 21:28:06.179375872,TASK_BEGIN,019,3.522702842087707,-0.6430490853174068,3.2596876400908745,-0.4316017634634618,1.8308605860986722,-0.13636131318938977,-0.9893038846180203,0.07847375367824494,2
238,2024-09-26 21:28:06.243128832,TASK_BEGIN,019,3.503129971873568,-0.6221413434036791,3.728599047569196,-0.5293375706685011,1.8315075841947221,-0.14280756647901485,-1.2634679540453184,0.09866598825293223,2
239,2024-09-26 21:28:06.313133056,TASK_BEGIN,019,3.4861432358919666,-0.5999462261071232,4.258412113675918,-0.6391236773932284,1.8237418170497206,-0.14736322073252178,-1.6236829237384405,0.13180885731791986,2
240,2024-09-26 21:28:06.380018944,TASK_BEGIN,019,3.4698406024231003,-0.5767627733857119,4.829316059174374,-0.7567847560170115,1.8058960557577557,-0.14964430627191405,-2.0583008106307394,0.17647958805993755,2
241,2024-09-26 21:28:06.446947072,TASK_BEGIN,019,3.4526625141536758,-0.5530070637787384,5.4188363369491155,-0.8776186013901378,1.776516396622272,-0.1492595073712571,-2.5518097223469485,0.23069606991713493,2
242,2024-09-26 21:28:06.506379776,TASK_BEGIN,019,3.433464236581113,-0.5292347320699597,6.003108965971016,-0.9966118991628696,1.7346596642307601,-0.1458791650432882,-3.08601670289281,0.2921129326303083,2
243,2024-09-26 21:28:07.451621120,TASK_BEGIN,019,3.4115141007860776,-0.5061328643763392,6.557726737204594,-1.10855935498288,1.6801962935004597,-0.1393127790178651,-3.6404989115923616,0.3581939338299462,2
244,2024-09-26 21:28:07.513594112,TASK_BEGIN,019,3.3864890370219487,-0.484475010950726,7.059021065085458,-1.208280428075295,1.6140479516500899,-0.12957349538145027,-4.192952003997147,0.4264078131780143,2
245,2024-09-26 21:28:07.595882752,TASK_BEGIN,019,3.3584518373736074,-0.4650421675799974,7.486198723781236,-1.2910167672585786,1.5382472985504223,-0.11690508198881364,-4.720050160892785,0.4944263119435112,2
246,2024-09-26 21:28:07.662715904,TASK_BEGIN,019,3.3277690400041506,-0.4485253382502481,7.8238101595080884,-1.352921392699121,1.4557660179434155,-0.10176400730386112,-5.198638395828611,0.5602176111322857,2
247,2024-09-26 21:28:07.729504256,TASK_BEGIN,019,3.2949676183296166,-0.4354351531209298,8.063544561635974,-1.3914728281807716,1.3701535482735512,-0.08476558584845362,-5.606830114110779,0.6219952351677697,2
248,2024-09-26 21:28:07.796498944,TASK_BEGIN,019,3.26055824870169,-0.4260380919888985,8.204618070446996,-1.4056759214368864,1.285070638404921,-0.06660516938260297,-5.925169952861078,0.6781516557393426,2
249,2024-09-26 21:28:07.863409920,TASK_BEGIN,019,3.224872788431771,-0.42032764291497654,8.252773687007469,-1.3960147932290679,1.2038523720686718,-0.04797458590055096,-6.138279116894819,0.727343465631567,2
250,2024-09-26 21:28:08.778149888,TASK_BEGIN,019,3.187998303479783,-0.41803952732721394,8.218435438753692,-1.3642015238622687,1.1292774434756931,-0.029507646103111025,-6.236789747890431,0.7687318792708089,2
251,2024-09-26 21:28:08.840204800,TASK_BEGIN,019,3.1498690217031,-0.41871652464078335,8.11437932008318,-1.3127703613517046,1.0636038222321267,-0.011771898959253351,-6.218872447685882,0.8022239329750847,2
252,2024-09-26 21:28:08.920248064,TASK_BEGIN,019,3.1104567470174174,-0.42180617741017495,7.9532146132412125,-1.244623792962272,1.0087131989291527,0.00471352454391367,-6.090901671637877,0.8285589022208479,2
253,2024-09-26 21:28:08.978502912,TASK_BEGIN,019,3.0698982332922378,-0.42675599256789876,7.745516339502175,-1.1627148504239555,0.9661573832825764,0.01946568968348748,-5.867233639696373,0.8491869692548821,2
254,2024-09-26 21:28:09.054011904,TASK_BEGIN,019,3.0284759715284064,-0.433079829884685,7.499352651157401,-1.069949624906833,0.9370657526779449,0.03204416583426223,-5.5692267250375584,0.866001721275607,2
255,2024-09-26 21:28:09.117241088,TASK_BEGIN,019,2.9865520859396155,-0.4403958106566034,7.220843941143334,-0.9692001851063783,0.922011256006868,0.04207127663281446,-5.223552142391204,0.8810448355722373,2
256,2024-09-26 21:28:09.187870976,TASK_BEGIN,019,2.9445852899693157,-0.4484482365050953,6.914839872014243,-0.8632800065890276,0.9209320288727527,0.049255120395092805,-4.859732608658727,0.8962655436295457,2
257,2024-09-26 21:28:10.125302016,TASK_BEGIN,019,2.9032191417579374,-0.45711716789804496,6.585303250551334,-0.7548379469704974,0.9331653729058957,0.053402258340095494,-4.50705030979152,0.9133558903622844,2
258,2024-09-26 21:28:10.203170816,TASK_BEGIN,019,2.863332229531717,-0.4664099617844168,6.235434350095355,-0.6462057209547558,0.957596578037825,0.05441597484866516,-4.191433604500869,0.9336618464649222,2
259,2024-09-26 21:28:10.270290944,TASK_BEGIN,019,2.825971448122955,-0.4764283853359546,5.867470808961405,-0.5392201653227252,0.9928499918359598,0.05229156633365118,-3.93311919464114,0.95815495866438,2
260,2024-09-26 21:28:10.326805248,TASK_BEGIN,019,2.7921947169723107,-0.48731473328729313,5.482190257187232,-0.43503451424014544,1.0374436480411302,0.047117930312781824,-3.7454945745608215,0.9874118244747123,2
261,2024-09-26 21:28:10.404058880,TASK_BEGIN,019,2.7629410506516985,-0.499196809640604,5.078907153085269,-0.33405247960447093,1.0899084390542122,0.0390762992885346,-3.634913553132777,1.0215449736932976,2
262,2024-09-26 21:28:10.466545920,TASK_BEGIN,019,2.7390063952752732,-0.5121545291921958,4.657068357055267,-0.23620893002116702,1.14891298258759,0.028424006941559853,-3.60115844058578,1.0601027827206215,2
263,2024-09-26 21:28:10.537878784,TASK_BEGIN,019,2.7210657950970507,-0.5262142782324147,4.2192684435326235,-0.1416178661991257,1.2133655268120218,0.015470343588680175,-3.6385608524188835,1.1020332598180156,2
264,2024-09-26 21:28:11.478121984,TASK_BEGIN,019,2.7096357968220337,-0.5413586842745644,3.7739368239281545,-0.05124787102625994,1.2823941256660958,0.0005629410630633065,-3.737641527579996,1.1457602955005683,2
265,2024-09-26 21:28:11.539632128,TASK_BEGIN,019,2.704949252314147,-0.557530407380592,3.3360835731158183,0.03281034804366224,1.3551696355234175,-0.015910169888209102,-3.8865284221987433,1.189300396944262,2
266,2024-09-26 21:28:11.620743936,TASK_BEGIN,019,2.7067880628496335,-0.5746132422566006,2.9258567808599065,0.1076331201890111,1.430656036595935,-0.03351306922344252,-4.071666042769495,1.2303619175436606,2
267,2024-09-26 21:28:11.678360832,TASK_BEGIN,019,2.714345984103825,-0.5923936065328023,2.5655923151362554,0.17009741227316658,1.5073869049321502,-0.05175525924360435,-4.278428019014954,1.2665099281715677,2
268,2024-09-26 21:28:11.754529024,TASK_BEGIN,019,2.7261825575478884,-0.6105232961401796,2.2763253831037313,0.21751182225527094,1.5833157677437966,-0.0700849791489433,-4.492443820692165,1.2954801283728348,2
269,2024-09-26 21:28:11.821414144,TASK_BEGIN,019,2.7402825951984933,-0.6285040350003532,2.074864224270705,0.24801384232616117,1.6557839759677204,-0.08788849330134775,-4.701351931208099,1.315539697824983,2
270,2024-09-26 21:28:11.879877120,TASK_BEGIN,019,2.75421953676417,-0.6457058827952237,1.972085064886897,0.2607464523917434,1.721655048422899,-0.10450767670685966,-4.896042776389446,1.325706961627577,2
271,2024-09-26 21:28:12.835160832,TASK_BEGIN,019,2.7654397320507047,-0.6614241431992706,1.9720048432827069,0.2560145159244124,1.777612910519657,-0.11928195344363435,-5.071024469892955,1.3257750426966848,2
272,2024-09-26 21:28:12.901946112,TASK_BEGIN,019,2.771645848044611,-0.6749667622637575,2.070836845555072,0.23554153189505656,1.8205391395757382,-0.13160926216318808,-5.224202732104494,1.3162299897000826,2
273,2024-09-26 21:28:12.958539008,TASK_BEGIN,019,2.7711731531450208,-0.6857500317447213,2.2563267555923057,0.202666491848225,1.8478504655932997,-0.1410127455986065,-5.35648127087779,1.298163561962653,2
274,2024-09-26 21:28:13.035656960,TASK_BEGIN,019,2.7632287359171976,-0.6933774447040866,2.508421500687739,0.16223148348829824,1.8577200521562114,-0.14719617238063948,-5.471476099226917,1.27322498272187,2
275,2024-09-26 21:28:13.097714944,TASK_BEGIN,019,2.7479316218800385,-0.6976857480771186,2.8013907107970164,0.12015937156733666,1.849155205833239,-0.15007120798201345,-5.575332070181832,1.2436030856398588,2
276,2024-09-26 21:28:13.171097856,TASK_BEGIN,019,2.726185492198466,-0.6987532923689239,3.106408088798727,0.08294457953489717,1.8219385122661378,-0.1497484589755222,-5.676266857657284,1.211985546453642,2
277,2024-09-26 21:28:13.238008064,TASK_BEGIN,019,2.6994562632326145,-0.6968717288667148,3.3939360753855308,0.057185943836216724,1.7765021525678264,-0.1465015801178364,-5.783477912031761,1.1814233194602306,2
278,2024-09-26 21:28:14.182735872,TASK_BEGIN,019,2.669510081520734,-0.692486736154377,3.6362620434889026,0.049072987216078494,1.7138438794194752,-0.1407245286916293,-5.905350969423081,1.1550477194666233,2
279,2024-09-26 21:28:14.244865024,TASK_BEGIN,019,2.6381581687025695,-0.6861224023562563,3.8106596267568422,0.06370546346726459,1.6355355871723587,-0.13289518477413748,-6.047350171198136,1.1356659325098613,2
280,2024-09-26 21:28:14.320535040,TASK_BEGIN,019,2.60706816465414,-0.6783122693593412,3.9027615254889585,0.10428747591401849,1.543783495306195,-0.12354441811013,-6.210399059359328,1.1253578271615086,2
281,2024-09-26 21:28:14.387441920,TASK_BEGIN,019,2.5776756277211472,-0.6695545162933763,3.9089965856901503,0.17139142275063485,1.441459372901695,-0.11322441449689366,-6.390332299192902,1.1251845916193501,2
282,2024-09-26 21:28:14.454327808,TASK_BEGIN,019,2.551161450681516,-0.660291099680703,3.8371428861631958,0.2625223750961374,1.332030525861384,-0.10247377267650884,-6.578331626353108,1.1350448212656796,2
283,2024-09-26 21:28:14.521220864,TASK_BEGIN,019,2.5284406746060903,-0.650904011222363,3.7047797950569343,0.3721514211530939,1.2193638940190545,-0.0917817737748356,-6.762104013778082,1.1537127266432845,2
284,2024-09-26 21:28:14.584780032,TASK_BEGIN,019,2.5101626061426345,-0.6417313795833074,3.5361209044777038,0.492244043512198,1.10745882101583,-0.08155817929447033,-6.92760711913518,1.1790675746289603,2
285,2024-09-26 21:28:15.533188864,TASK_BEGIN,019,2.4967546423154934,-0.633104572344623,3.358096465705455,0.6131574368036887,1.0001879032559953,-0.0721132604302375,-7.060834611548845,1.208405827465786,2
286,2024-09-26 21:28:15.605071104,TASK_BEGIN,019,2.488486629888437,-0.6253838485551328,3.196481418092093,0.7247395386228338,0.9010817265511457,-0.06364773073311215,-7.149119016178605,1.2386976192797925,2
287,2024-09-26 21:28:15.661022976,TASK_BEGIN,019,2.485493322580645,-0.6189629099112118,3.0726182784102596,0.8174840819241969,0.8131907906451682,-0.05625765444305868,-7.1819568620969445,1.266770694366909,2
288,2024-09-26 21:28:15.734558976,TASK_BEGIN,019,2.4877794288459327,-0.6142474033810217,3.00112429405394,0.8835682566046944,0.7390630188064959,-0.04996240855180036,-7.151919161924599,1.2895148240440895,2
289,2024-09-26 21:28:15.796561920,TASK_BEGIN,019,2.495312914558513,-0.6116388970930358,2.9887659297057136,0.9175842371900444,0.6807862500047277,-0.0447450631606995,-7.056043252531516,1.3041870388184524,2
290,2024-09-26 21:28:15.858127104,TASK_BEGIN,019,2.5082262866664196,-0.6115323347463009,3.0343961761219966,0.9168642909895481,0.6399812493402466,-0.04058208149012918,-6.897262995912698,1.3087910446625608,2
291,2024-09-26 21:28:15.939525888,TASK_BEGIN,019,2.5270184350106946,-0.6143084478374692,3.1297066997563285,0.8814299604173964,0.6177143675874988,-0.037455884183838765,-6.684885984785442,1.3024022041759407,2
292,2024-09-26 21:28:16.856291072,TASK_BEGIN,019,2.552648427130757,-0.6203123920758801,3.2607246009239694,0.8136549586553682,0.6144174076924815,-0.03536109136956433,-6.433562021082173,1.2853038665180663,2
293,2024-09-26 21:28:16.917870080,TASK_BEGIN,019,2.5864651440855084,-0.6298216501438235,3.4102134060210996,0.7177274302670309,0.6299057988845665,-0.03431162908793442,-6.161127217779265,1.2588788748107682,2
294,2024-09-26 21:28:16.996870144,TASK_BEGIN,019,2.6299556244008637,-0.6430010226708409,3.5608826443559565,0.5990224146302306,0.6634848261757327,-0.034345348793669614,-5.886188229978927,1.2252918157573542,2
295,2024-09-26 21:28:17.056699904,TASK_BEGIN,019,2.6843775141178554,-0.659845851706328,3.698640610318921,0.46353642041851084,0.714070574650744,-0.03552144172515852,-5.626009914951884,1.187068276645119,2
296,2024-09-26 21:28:17.130639872,TASK_BEGIN,019,2.7504091512137934,-0.6801271051939093,3.8148655178318007,0.31749161364827466,0.7802911604456574,-0.03791329822017519,-5.394769514310464,1.1466981109321779,2
297,2024-09-26 21:28:17.197536768,TASK_BEGIN,019,2.827901397951872,-0.7033534074515136,3.907203705124939,0.16708940627421962,0.8605585352112332,-0.04160144720668465,-5.202145544752698,1.106338087939723,2
298,2024-09-26 21:28:17.257064192,TASK_BEGIN,019,2.915724689622052,-0.7287584303633793,3.979065269490019,0.01830113626595045,0.9530709245413956,-0.04666188760641664,-5.052284582836852,1.067600468981148,2
299,2024-09-26 21:28:18.209286912,TASK_BEGIN,019,3.011694765966931,-0.7553180536923934,4.038226261803471,-0.12339224906381935,1.0557339423944934,-0.053142273875771605,-4.94315938606967,1.0313803262006287,2
300,2024-09-26 21:28:18.271771904,TASK_BEGIN,019,3.112616204565158,-0.781801246755202,4.094943052687595,-0.2532999268580528,1.1660612505223746,-0.06103040498771821,-4.866536720350545,0.997740338580367,2
301,2024-09-26 21:28:18.333831936,TASK_BEGIN,019,3.2145026374746277,-0.8068575244336869,4.159918794602245,-0.36777502540397006,1.2811181199766046,-0.07022689040323205,-4.809079955183037,0.965944822873431,2
302,2024-09-26 21:28:18.413230080,TASK_BEGIN,019,3.3129712595970506,-0.8291366629361329,4.2424124239645495,-0.4643515607108202,1.3975394901678222,-0.08053096637388447,-4.754887474444897,0.9347229608142087,2
303,2024-09-26 21:28:18.480123904,TASK_BEGIN,019,3.40373182057586,-0.8474260053635378,4.348944767909324,-0.5417901190327238,1.5116569160929516,-0.09164846866185261,-4.68903774428618,0.9027462495673136,2
304,2024-09-26 21:28:18.535539968,TASK_BEGIN,019,3.4830516721640996,-0.8607828783264999,4.4831234254097145,-0.6001296322849413,1.619742413657109,-0.10322763713114544,-4.6010341522705245,0.8691608948047932,2
305,2024-09-26 21:28:18.612379904,TASK_BEGIN,019,3.5480880936994366,-0.8686375644759502,4.646463265159942,-0.6407580118492334,1.7183048910224181,-0.11491293321192533,-4.486947307006946,0.8339413385469979,2
306,2024-09-26 21:28:19.532281088,TASK_BEGIN,019,3.5970620098368253,-0.8708517621803873,4.83925823624836,-0.6663712596790293,1.8043590899707564,-0.12639676651039225,-4.349686645908698,0.7979370027285124,2
307,2024-09-26 21:28:19.594738944,TASK_BEGIN,019,3.629333580521154,-0.8677280756344758,5.060663266991774,-0.6807011500431768,1.875644016113707,-0.13745573426486077,-4.197701187368287,0.7626634885364955,2
308,2024-09-26 21:28:19.657694976,TASK_BEGIN,019,3.645421768289185,-0.8599651239830166,5.307943804781296,-0.6880315139443625,1.930787616291235,-0.1479674622535709,-4.042939165868225,0.7299771655062689,2
309,2024-09-26 21:28:19.735403008,TASK_BEGIN,019,3.646968146982653,-0.8485632609045551,5.57541704189477,-0.6926356988335217,1.9693649469032224,-0.157905796081646,-3.898812051433256,0.7017443515225968,2
310,2024-09-26 21:28:19.798319104,TASK_BEGIN,019,3.636672280617326,-0.8347156781983228,5.853693531872651,-0.6982768050238898,1.9917961284618257,-0.167314057913692,-3.778299075076919,0.6795325205559185,2
311,2024-09-26 21:28:19.860804096,TASK_BEGIN,019,3.6182048683522052,-0.819721438456576,6.129668777826871,-0.7078335340550057,1.99914129815395,-0.17626536357879505,-3.6919949219816797,0.6643154824235598,2
312,2024-09-26 21:28:19.938909952,TASK_BEGIN,019,3.5959826182252046,-0.8049136362865189,6.387483498359848,-0.723052906393326,1.9929397831111937,-0.18482791508099383,-3.6463198460707376,0.6562322321825543,2
313,2024-09-26 21:28:20.877670144,TASK_BEGIN,019,3.5746640555708336,-0.7915648417945546,6.610297700396188,-0.7444340580231581,1.9751685971633968,-0.19304799923876742,-3.64250811150144,0.6544679932179593,2
314,2024-09-26 21:28:20.940722944,TASK_BEGIN,019,3.5584113178797945,-0.7807541699436085,6.782364171514112,-0.7712508291966704,1.948241255602504,-0.20094496957054245,-3.676765651548956,0.6573014268192615,2
315,2024-09-26 21:28:21.022144000,TASK_BEGIN,019,3.5501578478581486,-0.7732261789147805,6.890959179359354,-0.8017242766390887,1.914920854425866,-0.20850272095913408,-3.7414265642491773,0.6623219315748408,2
316,2024-09-26 21:28:21.079028992,TASK_BEGIN,019,3.5511161727792575,-0.7692932171617597,6.9280398923120545,-0.8333706871755651,1.8780962198222038,-0.2156511728749943,-3.8264271016967157,0.6667411441796038,2
317,2024-09-26 21:28:21.143264768,TASK_BEGIN,019,3.5606199596200283,-0.7688151271983922,6.891540595898886,-0.8634988374896626,1.8404498990900666,-0.2222420117658767,-3.9203621187456226,0.6676630663834197,2
318,2024-09-26 21:28:21.222864896,TASK_BEGIN,019,3.5762950094696557,-0.7712568701927984,6.786032560747994,-0.889718189860439,1.8041107764748059,-0.22802909027336557,-4.0109663839736855,0.6622582880806084,2
319,2024-09-26 21:28:21.280616960,TASK_BEGIN,019,3.5945136314009387,-0.7758044747895764,6.622398072869403,-0.9102887788054833,1.7704220410487175,-0.23267056943745293,-4.085478488771485,0.6479266605192295,2
320,2024-09-26 21:28:22.237391104,TASK_BEGIN,019,3.6110168442857455,-0.7815117730862625,6.416502381758293,-0.9242614510210319,1.7398843857627422,-0.23576236068513698,-4.131314259056186,0.6225343731802753,2
321,2024-09-26 21:28:22.296941056,TASK_BEGIN,019,3.621516781351941,-0.7874433428969811,6.1874411677023415,-0.9314943523924147,1.7121987980082036,-0.23688610729038181,-4.136949939874752,0.5846780080077751,2
322,2024-09-26 21:28:22.359229952,TASK_BEGIN,019,3.6221470955516017,-0.7927845203359125,5.955942966505149,-0.9326235936538861,1.686294875709807,-0.23564099872629393,-4.092640362796967,0.5338548748524988,2
323,2024-09-26 21:28:22.434926080,TASK_BEGIN,019,3.609788946411434,-0.7969118911122126,5.742797352376921,-0.9289757299459187,1.660330052197276,-0.23164807008606136,-3.9908916643988777,0.47050061319874964,2
324,2024-09-26 21:28:22.496969984,TASK_BEGIN,019,3.582356744800265,-0.799429679063496,5.566954823153521,-0.9224096475480142,1.6317559930016214,-0.22454650666734022,-3.8268986520457027,0.39595080766537744,2
325,2024-09-26 21:28:22.571863040,TASK_BEGIN,019,3.5390119864947347,-0.8001685491629245,5.4434840986942605,-0.9151204859201734,1.597534870609237,-0.2140081954218987,-3.598891402384807,0.31235352081945134,2
326,2024-09-26 21:28:22.638738944,TASK_BEGIN,019,3.4801831995569463,-0.7991400875534531,5.381870127109822,-0.9094133427640857,1.5544811567724304,-0.19977586588884927,-3.3080220883991847,0.22249769817597842,2
327,2024-09-26 21:28:23.587483904,TASK_BEGIN,019,3.407353627350006,-0.7964560389773339,5.384927954680426,-0.9074325725718619,1.4996540585487743,-0.18171264203387194,-2.9577614064502535,0.12956071158637683,2
328,2024-09-26 21:28:23.642105088,TASK_BEGIN,019,3.3227407770923167,-0.792243027771411,5.448382281467423,-0.9108746888376801,1.4307654321089323,-0.15985272044588206,-2.553266094463409,0.03683951217512346,2
329,2024-09-26 21:28:23.719917056,TASK_BEGIN,019,3.229048865382883,-0.7865902847501657,5.561093986584801,-0.9207293672430503,1.3465913702757932,-0.1344474843742306,-2.1011983242172416,-0.05247280695328456,2
330,2024-09-26 21:28:23.780988160,TASK_BEGIN,019,3.1293395200366705,-0.7795424638754294,5.705972913929215,-0.9370560673111825,1.247332924506898,-0.10599839162938993,-1.610314607884836,-0.1354118867778682,2
331,2024-09-26 21:28:23.843475200,TASK_BEGIN,019,3.026888438360227,-0.7711108199701991,5.861822970212556,-0.9588362852243658,1.1348382553541863,-0.0752676542292763,-1.0927796396161227,-0.20923518914617267,2
332,2024-09-26 21:28:23.920614912,TASK_BEGIN,019,2.9249308304468644,-0.761274492657423,6.006443142940451,-0.9840525478279906,1.012623657323047,-0.04326303298206599,-0.5653832610926077,-0.27133964069387834,2
333,2024-09-26 21:28:23.982609152,TASK_BEGIN,019,2.8263968314499297,-0.7499813073410856,6.120662484203362,-1.0101041342759889,0.8856580529209122,-0.011194498145619092,-0.0493712470903456,-0.3192525937907593,2
334,2024-09-26 21:28:24.936704000,TASK_BEGIN,019,2.7338009723604935,-0.737175064351731,6.191934384414527,-1.0344166825473327,0.7599135398265565,0.019597999053518216,0.43183840215888836,-0.35083335137212135,2
335,2024-09-26 21:28:25.004497920,TASK_BEGIN,019,2.6493152940153957,-0.7228526998883448,6.216088712048549,-1.054955451530836,0.6417863931282359,0.04773603517794844,0.8565330482889852,-0.3646888642523926,2
336,2024-09-26 21:28:25.060297984,TASK_BEGIN,019,2.5749281404539306,-0.7071326851111038,6.1971691368824855,-1.070488569625457,0.5375322789248057,0.07190046744879142,1.208641565777889,-0.3606341663909414,2
337,2024-09-26 21:28:25.138267136,TASK_BEGIN,019,2.5125802397736816,-0.6903165812107964,6.146393087064223,-1.0806394811710953,0.45275748527227366,0.09093206331705628,1.4801611930468794,-0.33996444359778605,2
338,2024-09-26 21:28:25.199483904,TASK_BEGIN,019,2.4642088883910196,-0.6729278285728872,6.080955107200474,-1.0858033257663868,0.3919448541553662,0.10393016689227634,1.671493011448208,-0.305417752672721,2
339,2024-09-26 21:28:25.261022976,TASK_BEGIN,019,2.4316613025017992,-0.6557097841742244,6.0223719121841395,-1.0869416457228083,0.35804628133790994,0.11033250655686343,1.790183442223764,-0.2608571206935244,2
340,2024-09-26 21:28:25.338648832,TASK_BEGIN,019,2.4164841443557052,-0.639573904080232,5.993725022653513,-1.0852483300478848,0.3522156154362232,0.10995979402083826,1.848723007994022,-0.2107312900838615,2
341,2024-09-26 21:28:26.276943872,TASK_BEGIN,019,2.4196636496289834,-0.6255091853538016,6.015770154485126,-1.081723190056765,0.3737364221689318,0.10302076074132889,1.8617407968773974,-0.15937990845189184,2
342,2024-09-26 21:28:26.338980096,TASK_BEGIN,019,2.441427363714358,-0.6144792796862447,6.10273862683779,-1.0767530242103942,0.42015276785671785,0.09008490004815932,1.843249697527302,-0.11037462857478066,2
343,2024-09-26 21:28:26.417085952,TASK_BEGIN,019,2.481191019826057,-0.6073318334169551,6.259079563147081,-1.0698285273432726,0.4875651311723908,0.07203486201440723,1.8049145812868341,-0.066163013165919,2
344,2024-09-26 21:28:26.479570944,TASK_BEGIN,019,2.5376541729464366,-0.6047273257969301,6.4780978646645355,-1.0594825954319496,0.5710292356327821,0.0500044929126238,1.7555579339946705,-0.02810140976286483,2
345,2024-09-26 21:28:26.541611776,TASK_BEGIN,019,2.6089565850024603,-0.6070778890146944,6.742632815462787,-1.0434527672075837,0.6649933136438796,0.02530058431703078,1.7011734394684672,0.003301502039885603,2
346,2024-09-26 21:28:26.621984000,TASK_BEGIN,019,2.692774052207748,-0.6144866465079363,7.027208177306399,-1.0189983157124007,0.7637238587906716,-0.000691699517537978,1.6448100639753789,0.028164933676073936,2
347,2024-09-26 21:28:26.680263936,TASK_BEGIN,019,2.7863062489205386,-0.6266944361279158,7.300872767636343,-0.9832528870696486,0.8616870067564912,-0.026609297172554752,1.5863771281506103,0.04712466628509561,2
348,2024-09-26 21:28:27.607855872,TASK_BEGIN,019,2.886233714386178,-0.643057137959179,7.530152631226779,-0.9335129265634298,0.9538533630527526,-0.05120103105664546,1.5227711593750923,0.0612688435934898,2
349,2024-09-26 21:28:27.669445120,TASK_BEGIN,019,2.9887532076875427,-0.6625722424732096,7.681889740785236,-0.867465709145749,1.0359037489102307,-0.07339745227603899,1.4486596743554434,0.07202403939367626,2
350,2024-09-26 21:28:27.746488064,TASK_BEGIN,019,3.08970883407262,-0.6839483210773214,7.725944263405299,-0.7834194848018956,1.1043470022606352,-0.09236097970612835,1.3580036307431902,0.08094078333847932,2
351,2024-09-26 21:28:27.813376000,TASK_BEGIN,019,3.184772183696928,-0.7056987139751831,7.63771781182334,-0.6805432981602367,1.1565843627329069,-0.10751491782726699,1.245948559879358,0.08941931342550727,2
352,2024-09-26 21:28:27.873519104,TASK_BEGIN,019,3.2696621576792704,-0.7262542584284212,7.400473655458907,-0.5590704302177029,1.1909559093698725,-0.11854756199662354,1.1104379592011706,0.09847214589058277,2
353,2024-09-26 21:28:27.932465152,TASK_BEGIN,019,3.3404397592530786,-0.7440994449545585,7.007373287641173,-0.42042852724648905,1.2067797127162572,-0.12539255902887403,0.9531975585234048,0.10856816503159443,2
354,2024-09-26 21:28:28.014016000,TASK_BEGIN,019,3.3938887506078332,-0.7579229017634811,6.462833116033675,-0.2672749178320591,1.2043505959480094,-0.1281904098930639,0.7800127999385378,0.11955149499595837,2
355,2024-09-26 21:28:28.962236928,TASK_BEGIN,019,3.427892615442682,-0.7667526231660003,5.782726034943206,-0.10342668644328966,1.1848559688949762,-0.1272375993139409,0.6000469083889618,0.13067642403913576,2
356,2024-09-26 21:28:29.013875968,TASK_BEGIN,019,3.4416319832962965,-0.7700409478365633,4.993315935538798,0.06630702227090021,1.1501916889054127,-0.12293157844894409,0.42402434982723314,0.14082358089448196,2
357,2024-09-26 21:28:29.090674944,TASK_BEGIN,019,3.4355021965324193,-0.7676780746722162,4.129163777171793,0.23637035627154268,1.1026824605449523,-0.1157169909597666,0.2617830647708233,0.14885421998147108,2
358,2024-09-26 21:28:29.162914048,TASK_BEGIN,019,3.410844630251623,-0.759938190223878,3.230482422115148,0.40072862172482243,1.0447604733062401,-0.1060356331269491,0.1201887939236255,0.1539389041491633,2
359,2024-09-26 21:28:29.214236160,TASK_BEGIN,019,3.3696834083120746,-0.7473885969145162,2.340569495031228,0.553056056186091,0.978721687168156,-0.09428804564852107,0.001994772570928692,0.1557364619779674,2
360,2024-09-26 21:28:29.291488000,TASK_BEGIN,019,3.314578895662875,-0.7307988631232599,1.5036771868619447,0.6867869092960716,0.9066507428233739,-0.08081960172264113,-0.09455465145637014,0.1544549365886206,2
361,2024-09-26 21:28:29.354361088,TASK_BEGIN,019,3.2485640966658424,-0.7110652344297141,0.7630428687847466,0.7951422866403438,0.8304924229223644,-0.06593629196744882,-0.1756963668014512,0.15088948704419913,2
362,2024-09-26 21:28:30.288035840,TASK_BEGIN,019,3.175062792677387,-0.6891438405138368,0.1585087728059081,0.8713720262561608,0.7521977213539202,-0.049942008251753475,-0.2516335151768382,0.1464541506733393,2
363,2024-09-26 21:28:30.354590720,TASK_BEGIN,019,3.0977411628138043,-0.6659902874337504,-0.27641675294703355,0.909352710204409,0.6738809931676495,-0.03317981566523261,-0.33550295876631836,0.14315786164227728,2
364,2024-09-26 21:28:30.413063936,TASK_BEGIN,019,3.0203339280848143,-0.6425168314406013,-0.5175297314668813,0.9044185748707035,0.5978831380363889,-0.016054865682736192,-0.44208654797139296,0.1434881447697376,2
365,2024-09-26 21:28:30.488687872,TASK_BEGIN,019,2.9464996517092024,-0.6195751350828641,-0.552087232262623,0.8541270550038009,0.526637463676461,0.0009761186542877544,-0.586340886843209,0.15018841915017264,2
366,2024-09-26 21:28:30.551470848,TASK_BEGIN,019,2.8796917645141074,-0.597955785148228,-0.37956950413701873,0.7587289829538206,0.4623916483122445,0.01743997696754653,-0.7815701220096047,0.16594549670441355,2
367,2024-09-26 21:28:30.622464000,TASK_BEGIN,019,2.822980338558266,-0.5783835207984693,-0.011108115534044422,0.6213075990333342,0.4069755699268372,0.03288018158907413,-1.0375304627769468,0.19307837899300115,2
368,2024-09-26 21:28:30.680573952,TASK_BEGIN,019,2.7787999497964297,-0.5614898408482087,0.5320521046483482,0.44763824149460674,0.3617277162866548,0.046874154625939836,-1.3592041122929468,0.23333365513649024,2
369,2024-09-26 21:28:31.627473152,TASK_BEGIN,019,2.7486927122438454,-0.5477638518185532,1.220866849384136,0.24578091332012766,0.327516770227174,0.05904951407344517,-1.7463706829196681,0.28777503230022916,2
370,2024-09-26 21:28:31.691034880,TASK_BEGIN,019,2.733151244059819,-0.5375023755559403,2.021330416561787,0.025411034668650787,0.3047464880929825,0.06911613087691593,-2.193240652967863,0.3566528605341842,2
371,2024-09-26 21:28:31.771733760,TASK_BEGIN,019,2.7316023065185897,-0.5307806045020725,2.897403548035382,-0.2030601009841484,0.29333549605272463,0.07690212146223309,-2.6877184162298215,0.4391934290417923,2
372,2024-09-26 21:28:31.829349120,TASK_BEGIN,019,2.7424831161652947,-0.5274484922764673,3.8138790321513203,-0.4294786353538469,0.2927494557397869,0.082366995247568,-3.2109331655634072,0.5333742154858566,2
373,2024-09-26 21:28:31.891379200,TASK_BEGIN,019,2.7633260941108313,-0.5271454055564292,4.739139889513566,-0.6448825844460523,0.30212578482130975,0.0855859591259867,-3.7379593341547843,0.6357980954257927,2
374,2024-09-26 21:28:31.972381184,TASK_BEGIN,019,2.7908154771459985,-0.5293283412920418,5.647227262411644,-0.8421632475776205,0.32044897015710944,0.08672187996181056,-4.239916036056957,0.7417569330268204,2
375,2024-09-26 21:28:32.039254784,TASK_BEGIN,019,2.8208873968725734,-0.533319346198193,6.518447298754397,-1.0163500162537713,0.3466989078831462,0.08600106447921566,-4.686957724453747,0.8455477784894961,2
376,2024-09-26 21:28:32.988016128,TASK_BEGIN,019,2.84898218032634,-0.5383740778494261,7.338486942268762,-1.1645835279256218,0.37991688182937466,0.08369930338624465,-5.051517932801302,0.9410260176505874,2
377,2024-09-26 21:28:33.054913024,TASK_BEGIN,019,2.8704496863693305,-0.543755163189,8.096871407891236,-1.285903066283558,0.4191945867533612,0.08013631899489627,-5.311209623274193,1.022264995887687,2
378,2024-09-26 21:28:33.121840128,TASK_BEGIN,019,2.8810059838217352,-0.5487885923622152,8.785665857557452,-1.3809197561181863,0.4636333128639229,0.07567078221699867,-5.450811735047857,1.084161065491846,2
379,2024-09-26 21:28:33.188684032,TASK_BEGIN,019,2.87714498729874,-0.552896060686811,9.398555858765624,-1.4513786188643643,0.5123037806052889,0.07068843130396829,-5.46301443189626,1.12288478306006,2
380,2024-09-26 21:28:33.246031872,TASK_BEGIN,019,2.8564205049359566,-0.555605966760174,9.92974939876005,-1.499626551653337,0.5642101441265488,0.06558043799462149,-5.348218656688721,1.1361570024421763,2
381,2024-09-26 21:28:33.308093952,TASK_BEGIN,019,2.817536168590956,-0.5565467592844762,10.372456955149763,-1.528084146126102,0.6182692804102924,0.06071215165317677,-5.114129193670182,1.1233856257640542,2
382,2024-09-26 21:28:33.385751040,TASK_BEGIN,019,2.760301984476869,-0.555436322106784,10.717769059004109,-1.538864962962756,0.6733282676587405,0.05638454345272781,-4.775561217812891,1.0857063366018282,2
383,2024-09-26 21:28:34.330805248,TASK_BEGIN,019,2.685615613850372,-0.5520894812903809,10.955211059313683,-1.533643160222707,0.7282194999230059,0.05279526122921738,-4.354240504940285,1.0259309763554727,2
384,2024-09-26 21:28:34.392847872,TASK_BEGIN,019,2.5955495741531984,-0.5464521470326876,11.075118923796438,-1.5137410751145288,0.781809561073114,0.05001181764064157,-3.8781521663739005,0.9483836561608405,2
385,2024-09-26 21:28:34.470465792,TASK_BEGIN,019,2.493444094241517,-0.5386437905433318,11.071278531972203,-1.4802693676079872,0.8329867128239268,0.04796991545744296,-3.3801671982678725,0.8586228252036188,2
386,2024-09-26 21:28:34.538729984,TASK_BEGIN,019,2.3838167169781572,-0.5289745975105912,10.942177298370348,-1.4341535160928829,0.8805833118196486,0.046500197298888116,-2.895865676047116,0.763054583070849,2
387,2024-09-26 21:28:34.594469888,TASK_BEGIN,019,2.2720017236625765,-0.5179156993737045,10.690869475063412,-1.3760419037084086,0.9233062806378514,0.0453717861924305,-2.4605435504469835,0.6684182711773637,2
388,2024-09-26 21:28:34.671706112,TASK_BEGIN,019,2.1636014718402587,-0.5060309332986039,10.324684874588677,-1.3062529546000337,0.9597591065074398,0.04433646440173173,-2.105553386618587,0.5811437970530235,2
389,2024-09-26 21:28:34.733262080,TASK_BEGIN,019,2.0639088299346398,-0.49390032469308986,9.855568371925983,-1.2249393970685438,0.9885490596660983,0.043169457489562746,-1.8546494248399934,0.5066874785545882,2
390,2024-09-26 21:28:35.673337856,TASK_BEGIN,019,1.977429651665662,-0.48206058557198594,9.300729675302206,-1.132497495913652,1.0083947929915935,0.04171199607515851,-1.72146791529313,0.44903478308468947,2
391,2024-09-26 21:28:35.755403008,TASK_BEGIN,019,1.9075263586996545,-0.47096180754741984,8.68278724770411,-1.0300357055196698,1.0181904257118257,0.03990958179280883,-1.7089132846477155,0.4104832961505454,2
392,2024-09-26 21:28:35.819190016,TASK_BEGIN,019,1.8561133428223355,-0.4609242606543053,8.02886711775503,-0.9196427212526437,1.0170630631332438,0.037826418949629834,-1.8102464414419357,0.3916760164848256,2
393,2024-09-26 21:28:35.889154048,TASK_BEGIN,019,1.8233892936374294,-0.4520924424337042,7.368679082665796,-0.8043138583925582,1.0044470885169146,0.03562780198901719,-2.011057285513339,0.39180556962164487,2
394,2024-09-26 21:28:35.951787776,TASK_BEGIN,019,1.8077207472082246,-0.4444038763406817,6.731856055405472,-0.6875533386574666,0.9801370384227966,0.03354550648435255,-2.2914961647859378,0.4089377896580778,2
395,2024-09-26 21:28:36.013806080,TASK_BEGIN,019,1.8058255809175385,-0.4375978421067316,6.144797431819388,-0.5727791957848777,0.9443058918035044,0.0318431525070538,-2.62863770760339,0.4404117018876753,2
396,2024-09-26 21:28:36.089844992,TASK_BEGIN,019,1.8132942668388903,-0.4312769625060845,5.627566971680505,-0.4627533181037754,0.8975388392614507,0.030784624854655076,-2.9988458684324564,0.48323877652347536,2
397,2024-09-26 21:28:37.038233856,TASK_BEGIN,019,1.8253053295594155,-0.42500488174992973,5.191920311674839,-0.3592945365628527,0.8409011271358181,0.030605879172334222,-3.379617806095631,0.5343991358916177,2
398,2024-09-26 21:28:37.102653952,TASK_BEGIN,019,1.8373184333410804,-0.41840723396183654,4.841200335815504,-0.26338289569194545,0.7759939229261256,0.031492398423276474,-3.7505200574074875,0.5909801609058098,2
399,2024-09-26 21:28:37.163844096,TASK_BEGIN,019,1.8456402192125498,-0.4112567391315679,4.57169092132915,-0.17548329780098204,0.7049610618563327,0.03355794488578051,-4.093539036824817,0.6502021096196574,2
400,2024-09-26 21:28:37.238886144,TASK_BEGIN,019,1.8478527121917072,-0.4035339841980037,4.3744444854492155,-0.09580592834055329,0.6304480478944476,0.03681742396293869,-4.393553220710259,0.7094381527726676,2
401,2024-09-26 21:28:37.302990848,TASK_BEGIN,019,1.843046131971507,-0.3954483702395786,4.237009175571246,-0.024404361038391612,0.55552016740395,0.041155592393985904,-4.639153269980681,0.766296849270668,2
402,2024-09-26 21:28:37.365009920,TASK_BEGIN,019,1.8317839319171083,-0.3874075670329822,4.14488158253254,0.038808372243007296,0.48352470157850336,0.046305256876364394,-4.823163261231759,0.8187219507099497,2
403,2024-09-26 21:28:37.427674112,TASK_BEGIN,019,1.8158345905941577,-0.37994781643285164,4.082621812665391,0.09406239987676139,0.4178848365700122,0.05185251660419979,-4.942116684247812,0.8650252028009854,2
404,2024-09-26 21:28:38.388943872,TASK_BEGIN,019,1.7977922156799289,-0.3736578422351934,4.034961536686516,0.14169859730621168,0.36184720977586865,0.057278991313871916,-4.994865695262466,0.9038578681876138,2
405,2024-09-26 21:28:38.455593984,TASK_BEGIN,019,1.7806995324609627,-0.36912431613630364,3.9885266543657742,0.18197795584206222,0.31821581611392424,0.06203554420536115,-4.981272451444859,0.934193101570792,2
406,2024-09-26 21:28:38.513515008,TASK_BEGIN,019,1.7677104436604376,-0.3668969577214878,3.9342240031315443,0.2146686492990534,0.28911208291933566,0.06562419739492198,-4.901830033324888,0.9553490569367158,2
407,2024-09-26 21:28:38.589559040,TASK_BEGIN,019,1.761778930923648,-0.36745293390320743,3.869323460617259,0.23857097136083455,0.27582680106998314,0.06765907467660674,-4.758529218721561,0.9670351638629127,2
408,2024-09-26 21:28:38.651976192,TASK_BEGIN,019,1.765420799888829,-0.3711577857325499,3.7979348334013903,0.25129491862951675,0.27881096298845576,0.06789278795438514,-4.556681225687661,0.9694181953341376,2
409,2024-09-26 21:28:38.713620736,TASK_BEGIN,019,1.7806269968632042,-0.37823586876728393,3.729555599404595,0.24948656330807475,0.29776773697593906,0.06621780216491531,-4.306865394121099,0.9632244517406138,2
410,2024-09-26 21:28:38.775968000,TASK_BEGIN,019,1.80888882777135,-0.38875204050241063,3.6768187454877794,0.2294022736770762,0.33173354986468007,0.06266342897057192,-4.026168426063371,0.9498789819511136,2
411,2024-09-26 21:28:39.712397312,TASK_BEGIN,019,1.8512006770979026,-0.40259573638331997,3.6538196192270087,0.18755886227022503,0.37908163000609013,0.057398075083599794,-3.7384421232929097,0.9316507598169049,2
412,2024-09-26 21:28:39.773055232,TASK_BEGIN,019,1.907953020883069,-0.4194588255595131,3.67525708456891,0.12126315452223066,0.43751319719230963,0.05072391651881988,-3.4736360622577114,0.9117269901183026,2
413,2024-09-26 21:28:39.835064064,TASK_BEGIN,019,1.9787082276667902,-0.4388012809128468,3.7556360506737008,0.02897275999762876,0.504149278048345,0.04304450693709922,-3.266061436196055,0.8940971695922773,2
414,2024-09-26 21:28:39.912707072,TASK_BEGIN,019,2.061913722185617,-0.4598139896899598,3.9079077504395086,-0.08950428426719761,0.575767733193167,0.03480007017507399,-3.1513467191301396,0.8831634899423141,2
415,2024-09-26 21:28:39.975642880,TASK_BEGIN,019,2.1546719696823,-0.4814123268314213,4.141677410080092,-0.23296335240120444,0.6491428618912511,0.026383854939572758,-3.162236436937789,0.8831277293308818,2
416,2024-09-26 21:28:40.046839808,TASK_BEGIN,019,2.2527046789891836,-0.5022958597106463,4.46171482036692,-0.3988953922580965,0.7213888466427486,0.01806691151280891,-3.3238762538587983,0.8973285200544935,2
417,2024-09-26 21:28:40.098737152,TASK_BEGIN,019,2.350582683831184,-0.521076399748984,4.867618913148692,-0.583733180808585,0.7902166601102304,0.00995781110049563,-3.649514895573217,0.9277242641821022,2
418,2024-09-26 21:28:41.052847872,TASK_BEGIN,019,2.442186719670582,-0.5364397411099192,5.354912084176752,-0.7832754370385407,0.8540737588074272,0.0020027930976160026,-4.137797064763328,0.9746717695846884,2
419,2024-09-26 21:28:41.129396992,TASK_BEGIN,019,2.5212672048405187,-0.5472967628567627,5.916816253148432,-0.9931729517431203,0.9121610959014714,-0.005986903737498046,-4.7726764101606705,1.0370608754986728,2
420,2024-09-26 21:28:41.189462016,TASK_BEGIN,019,2.581943118080368,-0.5528927092127123,6.545496785101491,-1.2092407326885057,0.9643225670054696,-0.014293844345836484,-5.525796375217566,1.1126848422959104,2
421,2024-09-26 21:28:41.263154176,TASK_BEGIN,019,2.6190902656938615,-0.5528663713029461,7.232000635431992,-1.4274495824411577,1.01085369147762,-0.023249578519822983,-6.359869514737379,1.198583868566696,2
422,2024-09-26 21:28:41.329044224,TASK_BEGIN,019,2.628708154783733,-0.5472696502406028,7.96473954771892,-1.643611261413137,1.0523285969962592,-0.033199015667778976,-7.23174101117321,1.291199720364831,2
423,2024-09-26 21:28:41.390643968,TASK_BEGIN,019,2.6083263678681483,-0.5365563848457234,8.727029317156816,-1.852891217685263,1.0895110211357137,-0.04448236746872685,-8.095024340753879,1.3864042618244863,2
424,2024-09-26 21:28:41.452642816,TASK_BEGIN,019,2.5573806834260906,-0.5215409104534111,9.49497823940868,-2.0493898545084845,1.12332123740509,-0.05742607877442734,-8.902790262352436,1.4795469449215997,2
425,2024-09-26 21:28:42.412590080,TASK_BEGIN,019,2.4774412421006433,-0.5033332310133292,10.237222774323673,-2.2260657028129898,1.154759567605758,-0.07232019315480046,-9.61050582470412,1.565605283729153,2
426,2024-09-26 21:28:42.472363008,TASK_BEGIN,019,2.372221714177176,-0.4832675561112481,10.917266938211661,-2.375179164762932,1.1847096376839488,-0.08936789954135183,-10.179115961625149,1.6394705292780238,2
427,2024-09-26 21:28:42.546344960,TASK_BEGIN,019,2.2473708933530165,-0.46283349505546517,11.498036371893846,-2.4892413429532554,1.2136595134391093,-0.10861862769682538,-10.578118328442978,1.6963800617094307,2
428,2024-09-26 21:28:42.613213184,TASK_BEGIN,019,2.110090878865706,-0.44359544173722637,11.947444684192975,-2.562242559794613,1.2414841300199506,-0.129913797476386,-10.788285114189193,1.7324400482288556,2
429,2024-09-26 21:28:42.673101824,TASK_BEGIN,019,1.968608182198496,-0.4270721936955082,12.243608691968477,-2.59083425779042,1.267427884041124,-0.15287093457040135,-10.803327938884994,1.7450905997919162,2
430,2024-09-26 21:28:42.746970880,TASK_BEGIN,019,1.8314930271828447,-0.4145695359477725,12.378537475966766,-2.5751474653871296,1.2903183952800286,-0.1769139849459784,-10.62992706284978,1.7333697271750605,2
431,2024-09-26 21:28:42.813895936,TASK_BEGIN,019,1.70687165030499,-0.40700047411079476,12.359405980745018,-2.5189862011857103,1.3089246752216086,-0.20133693208216752,-10.286252202510326,1.6979371723440921,2
432,2024-09-26 21:28:43.726459904,TASK_BEGIN,019,1.6017053470145046,-0.4047568767555474,12.20705147961477,-2.4292905444824213,1.322315208693593,-0.22537345856550486,-9.799635937648034,1.640916881382638,2
433,2024-09-26 21:28:43.803201024,TASK_BEGIN,019,1.5213379400932154,-0.4076845034368161,11.951996212319532,-2.315021951686926,1.3300754507349757,-0.24824492626021194,-9.204110337615093,1.5656571868385871,2
434,2024-09-26 21:28:43.871898880,TASK_BEGIN,019,1.4693560604846945,-0.4151620833079322,11.62893491551256,-2.185813968616513,1.3323203462507758,-0.2691773841616463,-8.538318283141773,1.4764851265269299,2
435,2024-09-26 21:28:43.926458880,TASK_BEGIN,019,1.447670597581108,-0.4262401017172689,11.271216951279401,-2.0507434307537244,1.3295670475485342,-0.287404250613245,-7.843846886141947,1.3784522962803185,2
436,2024-09-26 21:28:44.004735232,TASK_BEGIN,019,1.4567218990517505,-0.4397912764716803,10.906844129737724,-1.9174548549386177,1.3225943812039995,-0.30217692997420614,-7.163524418355729,1.2770174641119767,2
437,2024-09-26 21:28:44.071430912,TASK_BEGIN,019,1.4957069976366635,-0.4546421336619714,10.556565591196469,-1.7917139264477686,1.3123566995880065,-0.31278747607969554,-6.5391104674693885,1.1776252165070529,2
438,2024-09-26 21:28:44.128903936,TASK_BEGIN,019,1.5627201555227335,-0.46966922275808554,10.233703914311564,-1.677338892248185,1.2999523242749076,-0.3185956496694986,-6.008024480502677,1.0851634831700496,2
439,2024-09-26 21:28:45.082078976,TASK_BEGIN,019,1.654792763123337,-0.4838589289797217,9.945165867449472,-1.5763888911032298,1.2866298857426692,-0.3190577549102896,-5.59922093794803,1.0033324610531722,2
440,2024-09-26 21:28:45.153456128,TASK_BEGIN,019,1.7679451471984333,-0.4963449826881698,9.693197630611824,-1.48949663593657,1.2737969540549252,-0.3137579908598383,-5.329081263692992,0.9340585721368779,2
441,2024-09-26 21:28:45.220360960,TASK_BEGIN,019,1.8973531842400615,-0.5064341544933774,9.477318978065563,-1.4162683180083437,1.262978021961912,-0.3024398671734285,-5.198825660647575,0.8771598914304869,2
442,2024-09-26 21:28:45.287241984,TASK_BEGIN,019,2.0375885135241365,-0.5136119445974571,9.295901008700826,-1.3556855681075934,1.2556831551072254,-0.28503219705545724,-5.194771129426091,0.8304412362142957,2
443,2024-09-26 21:28:45.354123008,TASK_BEGIN,019,2.1828056924078973,-0.5175181404373279,9.147379524694738,-1.3064807075749432,1.2531847734971837,-0.2616631430329451,-5.291648464972854,0.7902577936376721,2
444,2024-09-26 21:28:45.421019136,TASK_BEGIN,019,2.3268531031284585,-0.5179055100734798,9.031445121204646,-1.2674860655786162,1.2562636917920784,-0.23266088312720523,-5.457903114946794,0.7523969229451725,2
445,2024-09-26 21:28:45.482803200,TASK_BEGIN,019,2.4634514687922695,-0.5146150030650892,8.949989912849079,-1.237884242392729,1.2650355903565815,-0.1985476583848078,-5.661227784764846,0.7129986591179993,2
446,2024-09-26 21:28:46.422985216,TASK_BEGIN,019,2.5865748720018527,-0.5075931672318662,8.906785117397256,-1.2172036556364831,1.2789292479724597,-0.16003510010858096,-5.8726866335996935,0.6692300700260476,2
447,2024-09-26 21:28:46.499832064,TASK_BEGIN,019,2.690969946224187,-0.4969454019892625,8.905228982668723,-1.2049891858304533,1.2968046968897513,-0.11802444092079709,-6.068787423085764,0.6195708916994493,2
448,2024-09-26 21:28:46.561893120,TASK_BEGIN,019,2.7726113405252746,-0.4829891983298628,8.944996378016917,-1.200273139360026,1.3171673175606706,-0.07361014515772109,-6.232248885598691,0.5637975322437666,2
449,2024-09-26 21:28:46.637361152,TASK_BEGIN,019,2.8289624044214845,-0.4662714488914378,9.01931665062739,-1.2010699668041214,1.3384291971645748,-0.028075558852728163,-6.352631550321588,0.5028699030244567,2
450,2024-09-26 21:28:46.704233984,TASK_BEGIN,019,2.8590498728058833,-0.44753814481212645,9.114050529186441,-1.2040867951947987,1.3591546583782141,0.017140548715959925,-6.427143782966257,0.43883740590972525,2
451,2024-09-26 21:28:46.763148032,TASK_BEGIN,019,2.8634133547007306,-0.4276676784930703,9.208755816890084,-1.2047902945601907,1.3782377154264596,0.06052057751250866,-6.461079569962647,0.37474495514434863,2
452,2024-09-26 21:28:46.824708096,TASK_BEGIN,019,2.8439813739948168,-0.40759125659153606,9.279387926222583,-1.1978956202462825,1.3949752135866693,0.10058132919176144,-6.46727410836661,0.3144717843551568,2
453,2024-09-26 21:28:47.779830016,TASK_BEGIN,019,2.8039018412914403,-0.38822356657474494,9.301787178915152,-1.1781598798712234,1.4089895134989463,0.1360041821282464,-6.464178688438206,0.2624204670787273,2
454,2024-09-26 21:28:47.841882112,TASK_BEGIN,019,2.747293488990306,-0.3704085821046609,9.254627903022282,-1.14116884244859,1.4199924067517502,0.16575739336465778,-6.4724595560290235,0.22298889592752483,2
455,2024-09-26 21:28:47.920615936,TASK_BEGIN,019,2.6788589771289613,-0.354869278013819,9.121054424922365,-1.0838615945534567,1.4274756230159893,0.18918293793816224,-6.510859524058517,0.19990520215329333,2
456,2024-09-26 21:28:47.982057984,TASK_BEGIN,019,2.6033853202885604,-0.34215743291251477,8.88965173911923,-1.0048168579630643,1.4304471680405144,0.20603238472235522,-6.592693151239026,0.19563964057974526,2
457,2024-09-26 21:28:48.044139776,TASK_BEGIN,019,2.5252446245845896,-0.33261424979528903,8.555831653803796,-0.9044740495501972,1.4272914909548915,0.21645935554164297,-6.723688894364248,0.21100420032197523,2
458,2024-09-26 21:28:48.106627072,TASK_BEGIN,019,2.4480077218026906,-0.32635613152175874,8.123681491393096,-0.7853634350598593,1.4158047526383937,0.2209825847644409,-6.900975922746978,0.24491081976653933,2
459,2024-09-26 21:28:48.188118784,TASK_BEGIN,019,2.374246427412561,-0.3232956300523945,7.607400032307247,-0.6522589248485693,1.3934465631449267,0.22042244449058987,-7.113106246342339,0.2943261406274189,2
460,2024-09-26 21:28:49.121524224,TASK_BEGIN,019,2.3055589220111012,-0.3231995199729689,7.031396129295236,-0.5120547176117454,1.3577987181326745,0.2158081123036131,-7.341283013087923,0.3545292514513807,2
461,2024-09-26 21:28:49.203618816,TASK_BEGIN,019,2.2427909989463983,-0.3257730830740718,6.428513478536168,-0.3731733791117694,1.3071429767938032,0.2082573885372639,-7.561635460803146,0.4196604428452545,2
462,2024-09-26 21:28:49.259827968,TASK_BEGIN,019,2.186364916863271,-0.3307435280662979,5.836603521953809,-0.24454332986960528,1.2409997287890442,0.19884235540382614,-7.748036154797566,0.483415522496273,2
463,2024-09-26 21:28:49.336129792,TASK_BEGIN,019,2.1366137265036285,-0.33791169136623345,5.29447815496387,-0.13447607868054837,1.1604358091230855,0.18847037955051765,-7.875065452322276,0.5397497275908233,2
464,2024-09-26 21:28:49.398627840,TASK_BEGIN,019,2.09403923460057,-0.34715972049736765,4.838258210822832,-0.049791009614938646,1.0680384425736154,0.17781212700527374,-7.920911886317052,0.5835240857137405,2
465,2024-09-26 21:28:49.461114112,TASK_BEGIN,019,2.0594250311455,-0.3584229814924505,4.498466105910446,0.004676942543264535,0.9676378704640691,0.1672839215311053,-7.869872711472504,0.6110453300693275,2
466,2024-09-26 21:28:49.523164928,TASK_BEGIN,019,2.033776447256123,-0.37163958766852867,4.2977989881787915,0.026209812546757173,0.86392663155734,0.157069440888189,-7.714040196541191,0.6204435888373673,2
467,2024-09-26 21:28:50.463077120,TASK_BEGIN,019,2.0181537541135257,-0.38669026870324663,4.249481373966449,0.014087970454173157,0.7620271961039974,0.1471660388229798,-7.454036879453341,0.6118281111385089,2
468,2024-09-26 21:28:50.529953024,TASK_BEGIN,019,2.0135175128555414,-0.4033426116883569,4.356201460380511,-0.030622941021890282,0.667007521115582,0.13744426144587246,-7.09886703846372,0.5871510840846411,2
469,2024-09-26 21:28:50.596724224,TASK_BEGIN,019,2.0206272499602935,-0.42121125285394806,4.609828489588866,-0.1052908618143342,0.5833990031248583,0.12770457284676118,-6.664941318425271,0.5497683811140236,2
470,2024-09-26 21:28:50.658333952,TASK_BEGIN,019,2.0399285029235177,-0.4397390707244848,4.99217303434656,-0.2059677837294471,0.5148054173481014,0.1177189522882557,-6.174393228142729,0.503825250906387,2
471,2024-09-26 21:28:50.720652032,TASK_BEGIN,019,2.0713944588738484,-0.4582027881587509,5.476800470125979,-0.32771884754186265,0.463648918444217,0.10725971580771546,-5.652835940953746,0.4536557513906341,2
472,2024-09-26 21:28:50.782936064,TASK_BEGIN,019,2.114394233587875,-0.4757488657843586,6.031536032454721,-0.46501615744089475,0.4310528064715258,0.09612442383326375,-5.126773727750535,0.4033213046530323,2
473,2024-09-26 21:28:50.860137984,TASK_BEGIN,019,2.1676560269860374,-0.49145844947122086,6.62118430363627,-0.6121314814004307,0.4168650165808381,0.08415845426347389,-4.621275150899116,0.3563507076442368,2
474,2024-09-26 21:28:51.813161984,TASK_BEGIN,019,2.2293065070789795,-0.5044247656883866,7.210165678735922,-0.7634590888118638,0.4198294582443516,0.0712715225750346,-4.158744053394602,0.31570772239720085,2
475,2024-09-26 21:28:51.880040704,TASK_BEGIN,019,2.2969411358892944,-0.5138252567614535,7.7649647470241225,-0.9137372230886782,0.4378531843104183,0.057449653427127746,-3.7590606465037606,0.2839477767285408,2
476,2024-09-26 21:28:51.946914816,TASK_BEGIN,019,2.3677218907719135,-0.518987805096774,8.256316848082704,-1.058195793852346,0.4682552346123145,0.04277038392503126,-3.4404325152096047,0.2634510405062136,2
477,2024-09-26 21:28:52.002724864,TASK_BEGIN,019,2.4385255821368803,-0.5194565808092495,8.660889133381815,-1.192682244015448,0.5079331104702789,0.02742249778779718,-3.2198994515478185,0.25658386526813504,2
478,2024-09-26 21:28:52.080678912,TASK_BEGIN,019,2.5061255413877026,-0.5150465890537755,8.962047554447597,-1.313775850167139,0.5535073595347347,0.011715632843205951,-3.1128905111110146,0.2656811664423627,2
479,2024-09-26 21:28:52.141447936,TASK_BEGIN,019,2.5673221916072384,-0.505865801679194,9.149559521856169,-1.4188629507932453,0.6015334677842088,-0.003937361335215276,-3.132052044832068,0.2928550958749921,2
480,2024-09-26 21:28:52.214454784,TASK_BEGIN,019,2.6189544847018174,-0.492296981180834,9.218598935553553,-1.5061360978109992,0.6487694706084889,-0.019061602362562144,-3.286013633470276,0.3397340960926552,2
481,2024-09-26 21:28:53.163190016,TASK_BEGIN,019,2.6578521623225164,-0.47495144662909494,9.168622993999499,-1.5744734500160356,0.6924137183123662,-0.0331622444613094,-3.5785606307357836,0.40724357408962136,2
482,2024-09-26 21:28:53.230055168,TASK_BEGIN,019,2.6808822959297345,-0.4546155119871201,9.002644127210605,-1.6232214057409589,0.7302751466370863,-0.045753912656206756,-4.008175144349243,0.4954681878907092,2
483,2024-09-26 21:28:53.296935936,TASK_BEGIN,019,2.685158506390283,-0.43219959518041345,8.727399718056137,-1.6520271686158783,0.760910039709448,-0.05638559491025706,-4.567692718949573,0.6035631125136474,2
484,2024-09-26 21:28:53.351969024,TASK_BEGIN,019,2.6683354409996176,-0.40868550366658335,8.354612869096258,-1.6608670993419945,0.7837632358309568,-0.06467298416435012,-5.24407245184663,0.7296765337854014,2
485,2024-09-26 21:28:53.428824064,TASK_BEGIN,019,2.6289127971365884,-0.3850733817782328,7.902692398080849,-1.6502537561254291,0.7993201643058498,-0.07033814348668645,-6.01842285720696,0.8708846770043278,2
486,2024-09-26 21:28:53.490381824,TASK_BEGIN,019,2.5665359327115227,-0.36234164665848284,7.3975157105746865,-1.6214602765611221,0.8092268676625317,-0.07324685304973239,-6.866187241834819,1.0231552444245133,2
487,2024-09-26 21:28:53.564422144,TASK_BEGIN,019,2.482231262717289,-0.3414224303746993,6.871276601018875,-1.5766126396053204,0.8162753464264506,-0.0734314539472021,-7.757341590463118,1.181349273588016,2
488,2024-09-26 21:28:54.483692800,TASK_BEGIN,019,2.3784589199196766,-0.32317280451238695,6.359379979655019,-1.5185920402496642,0.8241538893630984,-0.07108698115690122,-8.656883013777177,1.3392951298978284,2
489,2024-09-26 21:28:54.545920000,TASK_BEGIN,019,2.258929528900319,-0.30831871722281035,5.89596993504784,-1.4507278586966803,0.8369682205444524,-0.06653728371056469,-9.526273221625079,1.490018194126529,2
490,2024-09-26 21:28:54.607475200,TASK_BEGIN,019,2.128235774426291,-0.2973739799404551,5.508935609725149,-1.3763039298709083,0.8586699540983762,-0.06018744811694073,-10.326256606881042,1.6261987255765769,2
491,2024-09-26 21:28:54.684137984,TASK_BEGIN,019,1.9914068695464908,-0.29056717994203085,5.21561801410805,-1.298046664641661,0.8925490301244259,-0.05248240775419286,-11.020613190013616,1.740808239544367,2
492,2024-09-26 21:28:54.746172160,TASK_BEGIN,019,1.8534842375878422,-0.28780693076055186,5.0205739005995795,-1.2178793586667218,0.9408414132045522,-0.04386884391082344,-11.579773615360569,1.827773175872001,2
493,2024-09-26 21:28:54.822885120,TASK_BEGIN,019,1.7191476798205676,-0.2886841541094662,4.916195466926572,-1.137108585992911,1.004431846932603,-0.03474912350118852,-11.983462577901077,1.8825495362911289,2
494,2024-09-26 21:28:54.885570048,TASK_BEGIN,019,1.5923851883378966,-0.29249614711784483,4.885848259340008,-1.0568991364137468,1.0826858398508474,-0.025441872011809127,-12.222076100550776,1.90254756762616,2
495,2024-09-26 21:28:55.830717952,TASK_BEGIN,019,1.4762425777341297,-0.29829343585693585,4.90810874861729,-0.9786731921399365,1.1734866261753767,-0.016178477631750208,-12.296696619832607,1.8873411045384898,2
496,2024-09-26 21:28:55.905443840,TASK_BEGIN,019,1.3727109354631417,-0.3049612499481919,4.960629408127955,-0.9041508470293153,1.273472761514338,-0.007138361306525255,-12.21776064561263,1.8386190243049332,2
497,2024-09-26 21:28:55.969064960,TASK_BEGIN,019,1.282767141639545,-0.31133608495758375,5.02317548224666,-0.8350508258595807,1.3783824363364758,0.0015049176915329964,-12.002664043018276,1.7598949250645324,2
498,2024-09-26 21:28:56.036106240,TASK_BEGIN,019,1.2065505814555841,-0.3163414157464618,5.080191606803625,-0.7727309429101494,1.4834113039890056,0.00955427360457828,-11.672861021061394,1.6560372037332007,2
499,2024-09-26 21:28:56.106070016,TASK_BEGIN,019,1.1436457445770936,-0.3191204072913361,5.123054357379348,-0.7180649895817487,1.58353761185518,0.016786216183650348,-11.251087740436388,1.5327273116237936,2
500,2024-09-26 21:28:56.172945920,TASK_BEGIN,019,1.0934026894474695,-0.31914752250654255,5.151551283931427,-0.6716200330706085,1.6738254938561574,0.022968959075934645,-10.759223333184227,1.3959841986716899,2
501,2024-09-26 21:28:56.239819008,TASK_BEGIN,019,1.055211820313682,-0.316305352150394,5.174020321105079,-0.6339431279995057,1.7497506307090815,0.027886641100923988,-10.217122636375818,1.2518527198177143,2
502,2024-09-26 21:28:57.187129856,TASK_BEGIN,019,1.028704615836759,-0.31091233924022765,5.206038088084882,-0.605734180596801,1.8075280475993514,0.031359128307116624,-9.642411834860873,1.106242047830811,2
503,2024-09-26 21:28:57.241677056,TASK_BEGIN,019,1.013892869574499,-0.3036890910675775,5.268044475981705,-0.5878570155499339,1.8443361900163835,0.03325966626096089,-9.050782379497809,0.9648132764925241,2
504,2024-09-26 21:28:57.320883968,TASK_BEGIN,019,1.011197125442533,-0.2956584082861725,5.382589609293303,-0.5813037394955728,1.8583935423490436,0.03353033138885885,-8.456225749922735,0.8328309610161562,2
505,2024-09-26 21:28:57.387816960,TASK_BEGIN,019,1.0212596906287439,-0.287983874728833,5.571798425098867,-0.5872068173036605,1.8489638712076082,0.032184991850030396,-7.871013966604053,0.7149647735885708,2
506,2024-09-26 21:28:57.442661120,TASK_BEGIN,019,1.0445483975540395,-0.28177092167675033,5.855091889642156,-0.6068484767802033,1.8163263495646673,0.029300502382109746,-7.305610109560537,0.6150822955949653,2
507,2024-09-26 21:28:57.520307200,TASK_BEGIN,019,1.0809338774378832,-0.2778798667953673,6.246838657828738,-0.6415560960549199,1.7616342239667706,0.02501583150066849,-6.768750628237049,0.5360809824562436,2
508,2024-09-26 21:28:57.581876992,TASK_BEGIN,019,1.129440767216316,-0.2768062221783781,6.753943055710176,-0.6924545694631873,1.6866373234003214,0.019548688959243016,-6.267679385584173,0.47976259764696283,2
509,2024-09-26 21:28:58.536175104,TASK_BEGIN,019,1.1882374655546513,-0.2786551223785835,7.373898018990517,-0.7601514637379357,1.5934055596711902,0.013207552244399373,-5.80827672200906,0.44672121155139355,2
510,2024-09-26 21:28:58.603876096,TASK_BEGIN,019,1.2547974135590299,-0.28319548650657816,8.09391953451602,-0.8444681971746439,1.4842259681967127,0.006365310492902654,-5.394944318657393,0.43626003910025585,2
511,2024-09-26 21:28:58.670707968,TASK_BEGIN,019,1.3261057847739723,-0.289955893276411,8.89138233872255,-0.9443008283545323,1.3617247997321982,-0.0006166737225562293,-5.030377313651237,0.44640822805840974,2
512,2024-09-26 21:28:58.734695168,TASK_BEGIN,019,1.3988121635879942,-0.298326074325558,9.735279442291578,-1.0576512205650155,1.2291472105818022,-0.007493530498455254,-4.7154372111401175,0.47409045248561826,2
513,2024-09-26 21:28:58.804472832,TASK_BEGIN,019,1.4693427985800842,-0.30764654510779843,10.588284220336398,-1.1818309641539557,1.0906615983244172,-0.014231187246626089,-4.449266299040221,0.5154427103118066,2
514,2024-09-26 21:28:58.858569984,TASK_BEGIN,019,1.5340912737408798,-0.31729102650814667,11.409225200326473,-1.3137685754325583,0.9514882684688165,-0.021045185726341523,-4.2296617219638515,0.56622404514951,2
515,2024-09-26 21:28:58.938221056,TASK_BEGIN,019,1.5897887728366067,-0.3267527922816343,12.156127438937071,-1.450317623170146,0.8176741454443979,-0.02835892104585276,-4.053664900216185,0.6222539842392228,2
516,2024-09-26 21:28:59.882895104,TASK_BEGIN,019,1.634024066640716,-0.3357256386527472,12.79009509955866,-1.5885365332563561,0.6955321743803954,-0.03670194533406462,-3.9183462663765165,0.6798042113846605,2
517,2024-09-26 21:28:59.954504960,TASK_BEGIN,019,1.6657258209076824,-0.3441420039613547,13.279802958471267,-1.725946832675359,0.5909316744743123,-0.0465961784118798,-3.8215297027954738,0.735873468632983,2
518,2024-09-26 21:29:00.012643072,TASK_BEGIN,019,1.6853575265943272,-0.3521370509251267,13.605518065338751,-1.8607048914257507,0.5086151248532491,-0.058461906885212724,-3.7617848398861256,0.7882804711991607,2
519,2024-09-26 21:29:00.087922176,TASK_BEGIN,019,1.6947167525536329,-0.35995764096179583,13.761369801121315,-1.9916003069189614,0.45167514691396654,-0.07255352215434077,-3.7372286720254926,0.8355640248823916,2
520,2024-09-26 21:29:00.155164928,TASK_BEGIN,019,1.6964515321318958,-0.3678707849725579,13.755384963456494,-2.1179110996827966,0.42131222866188245,-0.08893142092215142,-3.7436395035775347,0.8767746583894348,2
521,2024-09-26 21:29:00.222060032,TASK_BEGIN,019,1.6934801300964253,-0.3761067721908834,13.607760263543481,-2.2392558851612825,0.4169049127131033,-0.10747246863957788,-3.773098526363254,0.9112891542617793,2
522,2024-09-26 21:29:00.285162752,TASK_BEGIN,019,1.6884584387999138,-0.3848363248644335,13.347957786610008,-2.3554996003332542,0.4362919883121263,-0.12790682729696387,-3.814137132604642,0.9387377582278142,2
523,2024-09-26 21:29:01.208924928,TASK_BEGIN,019,1.6833995118267606,-0.3941622270019991,13.010820227841036,-2.4666154429373015,0.47611669995385303,-0.14985896448814914,-3.853463470811529,0.9590496276170817,2
524,2024-09-26 21:29:01.279520000,TASK_BEGIN,019,1.6794728086997783,-0.40409875600191736,12.632022769524912,-2.572462537097965,0.5321306748043981,-0.1728748383392903,-3.878365849472913,0.9725261396319498,2
525,2024-09-26 21:29:01.332158208,TASK_BEGIN,019,1.6769168539675081,-0.4145225604061908,12.243618510772446,-2.672601761136111,0.5994347350897645,-0.19642952749353634,-3.8784748208570896,0.9798030248482804,2
526,2024-09-26 21:29:01.408967936,TASK_BEGIN,019,1.6750196748112507,-0.42510915217976253,11.870484139335568,-2.7662482426269905,0.6726998064902745,-0.21992381904297686,-3.846180530461263,0.9816582949464088,2
527,2024-09-26 21:29:01.470962944,TASK_BEGIN,019,1.672222399892635,-0.43529608577442047,11.528310841888233,-2.8523193610882904,0.7464235224822866,-0.24268608476418688,-3.7760881969898286,0.9787838684296981,2
528,2024-09-26 21:29:01.547036928,TASK_BEGIN,019,1.666411672238112,-0.4443116360356572,11.223635209553295,-2.929511820674653,0.8152290847529409,-0.26398911931853464,-3.6643750005436404,0.971669340254959,2
529,2024-09-26 21:29:01.613945088,TASK_BEGIN,019,1.6553755515438466,-0.4512752153542175,10.955840954934319,-2.9964050492127887,0.8741725013674398,-0.28308049404774577,-3.508677297971801,0.9606493637326285,2
530,2024-09-26 21:29:02.562810112,TASK_BEGIN,019,1.6373204990249124,-0.45533840485649735,10.720221436626584,-3.0516135787400755,0.919019677361102,-0.29922118194922553,-3.3087304943436853,0.946080426054836,2
531,2024-09-26 21:29:02.629652992,TASK_BEGIN,019,1.611314834138546,-0.45582357059907425,10.511033600287266,-3.094011986713006,0.9464445216278549,-0.31172738578091846,-3.067658560386877,0.9285791474862202,2
532,2024-09-26 21:29:02.696551936,TASK_BEGIN,019,1.57752911377706,-0.45233310503032875,10.32396176093908,-3.1230313016462516,0.9541023206287582,-0.32001108018981994,-2.7934870260365066,0.9092342612540902,2
533,2024-09-26 21:29:02.755564032,TASK_BEGIN,019,1.53721914026519,-0.44482040223633934,10.157505174216796,-3.1389163067696293,0.9405832316023297,-0.3236151245950562,-2.500017891131985,0.8896724135192926,2
534,2024-09-26 21:29:02.817583104,TASK_BEGIN,019,1.4925329782550694,-0.43361954667608077,10.01271278199019,-3.142760737656625,0.9053176338381211,-0.32223995888009316,-2.2061299137418233,0.871874347367856,2
535,2024-09-26 21:29:02.897208064,TASK_BEGIN,019,1.4463094731516926,-0.41943306426414667,9.891478880614386,-3.1362594031011386,0.8485352675211677,-0.31576512184908767,-1.9334650596686258,0.8577973260402831,2
536,2024-09-26 21:29:02.964093952,TASK_BEGIN,019,1.4019810829592436,-0.4032787952991815,9.794632231546482,-3.121293941303464,0.7713380849447258,-0.30427335547142137,-1.7035999544796594,0.8490417228142955,2
537,2024-09-26 21:29:03.912808960,TASK_BEGIN,019,1.3635613959447148,-0.38639647962297385,9.7207027253598,-3.099478146623284,0.6758584828974599,-0.28807739676021804,-1.5358529903599762,0.8467576840561962,2
538,2024-09-26 21:29:03.966649856,TASK_BEGIN,019,1.335598676621207,-0.37012069198137315,9.665120565980018,-3.0717222214970876,0.56541043134758,-0.2677392650980764,-1.4459967186213265,0.8517595503139395,2
539,2024-09-26 21:29:04.043435008,TASK_BEGIN,019,1.3229506633091968,-0.35574144727913254,9.619593837602931,-3.0379410591216964,0.44452130146807567,-0.24407044843313602,-1.4455517457512335,0.8646776311187687,2
540,2024-09-26 21:29:04.111470848,TASK_BEGIN,019,1.3303119315812642,-0.34438252333817954,9.572270571839088,-2.997109597673079,0.31874241298961326,-0.21810195597606116,-1.5414907791279266,0.8860353456544698,2
541,2024-09-26 21:29:04.180343040,TASK_BEGIN,019,1.3615715774997672,-0.3369164122305681,9.50931976874584,-2.9477352804592516,0.19420522137922966,-0.19101607149895244,-1.7364847248496647,0.9162482017177197,2
542,2024-09-26 21:29:04.247239936,TASK_BEGIN,019,1.4191695460541576,-0.33391221030024143,9.417602041003692,-2.888567192400513,0.07702597236561523,-0.16404862199153544,-2.029618603924219,0.9555584140896894,2
543,2024-09-26 21:29:04.310679808,TASK_BEGIN,019,1.5036084870572444,-0.3356059235906964,9.287286985393964,-2.819239712536254,-0.02724445640483276,-0.1383908131409013,-2.416965638786889,1.0038848340957347,2
544,2024-09-26 21:29:05.253240064,TASK_BEGIN,019,1.6132206629917782,-0.3418952150631486,9.113350044088312,-2.7406437584560006,-0.11398757040739983,-0.11511723521106865,-2.8914065636889745,1.0605985983890636,2
545,2024-09-26 21:29:05.329807104,TASK_BEGIN,019,1.7442301457264837,-0.3523652018111146,8.895662239950994,-2.654991848671484,-0.17970506698064928,-0.09514243470102166,-3.441881327082019,1.1243263198327034,2
546,2024-09-26 21:29:05.396603136,TASK_BEGIN,019,1.8911078497161584,-0.36634221734331124,8.638041415311482,-2.5656185902455335,-0.22210187408600046,-0.07919024875339872,-4.052938023994147,1.1929106521194952,2
547,2024-09-26 21:29:05.462484992,TASK_BEGIN,019,2.0471790206275537,-0.38296677241857613,8.346713446181882,-2.4765597295287853,-0.24010991680423663,-0.06776539637721983,-4.70522891581076,1.2635768431140355,2
548,2024-09-26 21:29:05.515939840,TASK_BEGIN,019,2.2053832207543103,-0.40127834858489164,8.028542919212633,-2.3919855495577154,-0.23383885788418843,-0.061134853843949025,-5.37689844980952,1.3332579539359142,2
549,2024-09-26 21:29:05.597243904,TASK_BEGIN,019,2.359022697041498,-0.4203027879575078,7.6895283653118085,-2.3156354805209873,-0.20441357114273762,-0.059333871062823534,-6.045396644067149,1.3989873416717586,2
550,2024-09-26 21:29:05.664108032,TASK_BEGIN,019,2.5023205360226015,-0.43912576537148307,7.334131236503631,-2.250409900982864,-0.1537061817973815,-0.06219924164854664,-6.689327912378415,1.4582647788234278,2
551,2024-09-26 21:29:06.587965184,TASK_BEGIN,019,2.6306875248374224,-0.45693435516951186,6.965514909204621,-2.198125926686064,-0.08406671030917064,-0.06941325914833604,-7.290153011509212,1.5093369241538477,2
552,2024-09-26 21:29:06.654864896,TASK_BEGIN,019,2.740738255337698,-0.4730248312847363,6.586026690559197,-2.1593089048238645,0.0018102809094941033,-0.08053504110096756,-7.833603802057655,1.5513750192036118,2
553,2024-09-26 21:29:06.721712128,TASK_BEGIN,019,2.8301958984483897,-0.48680048639107637,6.197261053084066,-2.1330057072715656,0.10086430116838437,-0.09501305150290615,-8.310718534770382,1.5845477234530632,2
554,2024-09-26 21:29:06.788313088,TASK_BEGIN,019,2.8978093551515656,-0.49778988962949305,5.799944058417323,-2.1167810120960753,0.20964568237997658,-0.11219784788210846,-8.718557387273476,1.6099869285896171,2
555,2024-09-26 21:29:06.855484928,TASK_BEGIN,019,2.9433115502607197,-0.5056893987086509,5.394514890870001,-2.106994171923164,0.3244357999404197,-0.13137271578530982,-9.060508344801608,1.629629575229095,2
556,2024-09-26 21:29:06.921256192,TASK_BEGIN,019,2.9673572654348033,-0.5104050402078023,4.9826859152772895,-2.0992698326060673,0.4414703514650096,-0.15179477226877788,-9.34574176785206,1.6459161474387574,2
557,2024-09-26 21:29:06.984600064,TASK_BEGIN,019,2.9713646690977957,-0.5120737413346055,4.56911460275545,-2.0890292687168808,0.5571356781452839,-0.17273069753041215,-9.587585798803678,1.6613985406194356,2
558,2024-09-26 21:29:07.937530112,TASK_BEGIN,019,2.9572441324492815,-0.5110607969541342,4.162103364349819,-2.072023469800728,0.6681110403337027,-0.19348628737290677,-9.801219090546045,1.6783750606783032,2
559,2024-09-26 21:29:08.003686144,TASK_BEGIN,019,2.927052023685982,-0.5079225031552947,3.7731293464163356,-2.0448557136220074,0.7715209301065337,-0.21343665652490976,-10.001276792130104,1.6986195110536337,2
560,2024-09-26 21:29:08.071304960,TASK_BEGIN,019,2.882628034517185,-0.5033147595100618,3.4157792353017262,-2.005477279403701,0.8650988833482853,-0.2320550137791206,-10.199781817580604,1.7232063924453933,2
561,2024-09-26 21:29:08.133992960,TASK_BEGIN,019,2.825291241462287,-0.4978577969565447,3.1046279365106053,-1.9536171655192196,0.9472690915158618,-0.24893261804928127,-10.40462728770165,1.752439881543192,2
562,2024-09-26 21:29:08.196285952,TASK_BEGIN,019,2.755664990672393,-0.4920052995063787,2.8541508072987,-1.8910355179913436,1.0170958712028495,-0.2637901065671312,-10.618675189404659,1.785887645713957,2
563,2024-09-26 21:29:08.271962880,TASK_BEGIN,019,2.673672687026108,-0.485967343804758,2.677402675072121,-1.8214098708794724,1.074183043235785,-0.27648629820513776,-10.839524896343741,1.8224930209759256,2
564,2024-09-26 21:29:08.338870016,TASK_BEGIN,019,2.578743799463133,-0.47970761126831285,2.584318446580014,-1.7497587520502267,1.1186487229727644,-0.2870263652331284,-11.060102187846658,1.8607530761737245,2
565,2024-09-26 21:29:09.287565056,TASK_BEGIN,019,2.470254326624523,-0.4730074777663998,2.580187968823321,-1.6815946969777067,1.1512111300813554,-0.29556562026225797,-11.270046959785939,1.8989527626519829,2
566,2024-09-26 21:29:09.354437120,TASK_BEGIN,019,2.348113142613697,-0.46557181811633025,2.665170075424669,-1.622145631878302,1.1733075074945207,-0.30240237827699806,-11.457372705615796,1.9353702633183245,2
567,2024-09-26 21:29:09.421032960,TASK_BEGIN,019,2.213283049883314,-0.4571426063385906,2.8348028234008624,-1.5758077100083536,1.1871383762120447,-0.3079518510271894,-11.60968101592829,1.9683292340494196,2
568,2024-09-26 21:29:09.485647872,TASK_BEGIN,019,2.068064079285246,-0.4475952948507035,3.0805232447630306,-1.545801345283016,1.1955565018787913,-0.3126944340409258,-11.714895431554588,1.9961096760626862,2
569,2024-09-26 21:29:09.547902208,TASK_BEGIN,019,1.916094972713583,-0.4370064923238308,3.3896412009751398,-1.5340297451443212,1.2017458063563309,-0.31709931967723054,-11.76221065371054,2.016901159257784,2
570,2024-09-26 21:29:09.609152000,TASK_BEGIN,019,1.762075569431036,-0.42567463379070664,3.7452380538139844,-1.5411837102709989,1.2087077908604897,-0.32153750799677033,-11.743601251686492,2.028948828647471,2
571,2024-09-26 21:29:09.685933056,TASK_BEGIN,019,1.6112406147240963,-0.41407210714340376,4.126742420871265,-1.5670440296741526,1.2187027748670627,-0.32620915481577006,-11.65538858267837,2.030852696192839,2
572,2024-09-26 21:29:10.638201856,TASK_BEGIN,019,1.46871024378087,-0.40273772773025723,4.511491822095311,-1.6108175160568274,1.2328616825178447,-0.3311118996939101,-11.499247005907053,2.021861355775475,2
573,2024-09-26 21:29:10.705094912,TASK_BEGIN,019,1.3389082032254986,-0.39215387528920687,4.877023822634811,-1.671310505118795,1.2510904557084876,-0.33606318264291624,-11.282470651813194,2.0020374318253578,2
574,2024-09-26 21:29:10.764808192,TASK_BEGIN,019,1.2252125760714008,-0.3826594997008145,5.2034680146080925,-1.746821989377484,1.2721974133223093,-0.3407609326425703,-11.017498301843618,1.9722822038709782,2
575,2024-09-26 21:29:10.834866944,TASK_BEGIN,019,1.129902049146329,-0.37442878149143993,5.475313832214172,-1.834798495633947,1.294094423138268,-0.3448504673893805,-10.720599425068999,1.9342702411099983,2
576,2024-09-26 21:29:10.905799936,TASK_BEGIN,019,1.0543121929744388,-0.3675066254680396,5.682180994172613,-1.9314522150443054,1.3140332149176563,-0.34798114591370605,-10.409792580217191,1.8903193297459298,2
577,2024-09-26 21:29:10.972644096,TASK_BEGIN,019,0.999035864122884,-0.36186156896055466,5.819012286244311,-2.0316263584765406,1.3289320398839617,-0.3498563178902828,-10.102610820043537,1.8432022418777483,2
578,2024-09-26 21:29:11.039535104,TASK_BEGIN,019,0.9640701677884317,-0.35741974269087096,5.886389754965767,-2.129099115360268,1.3357727829264614,-0.35027497780514066,-9.8146113627981,1.7959611767963397,2
579,2024-09-26 21:29:11.962959872,TASK_BEGIN,019,0.948919038988318,-0.3540709755268046,5.890820561108958,-2.217258427796181,1.331945071488868,-0.3491508656766424,-9.558974727778104,1.7517954856842877,2
580,2024-09-26 21:29:12.020016128,TASK_BEGIN,019,0.9526769477248214,-0.3516597507594354,5.844208276063441,-2.289912162077641,1.3154416328655139,-0.3465016883118631,-9.346720169058406,1.7139943546004996,2
581,2024-09-26 21:29:12.096798208,TASK_BEGIN,019,0.9740841928907585,-0.34997731770855045,5.762403249138387,-2.3420676445520425,1.2849091423683179,-0.3424179616839047,-9.186857176823212,1.6858146768835096,2
582,2024-09-26 21:29:12.164047104,TASK_BEGIN,019,1.0115546238191588,-0.3487649708090451,5.663433213806651,-2.3705890239567373,1.239616664365473,-0.3370260252084847,-9.086115254479358,1.6702507842467909,2
583,2024-09-26 21:29:12.230979072,TASK_BEGIN,019,1.063202433489349,-0.3477276674390704,5.565677825810388,-2.37455933264074,1.179411630697648,-0.3304565791740179,-9.048336251114877,1.6697444234584409,2
