,time,MARKER,pid,L_O_DSI,L_D_DSI,L_O_DSphi,L_D_DSphi,R_O_DSI,R_D_DSI,R_O_DSphi,R_D_DSphi,trial_id
0,2024-09-26 22:35:11.260931840,TASK_BEGIN,020,-0.33632188023253806,0.16999349421830293,-2.409535765455728,0.48387007376744806,-1.0377513871600232,0.4058613371288117,1.231142234724623,0.021740226248686944,3
1,2024-09-26 22:35:11.328719104,TASK_BEGIN,020,-0.31722028109457207,0.1679007815534548,-2.5624529883935865,0.4977858904959101,-0.999516586447648,0.3820411144165575,0.594112792498662,0.1332133778914563,3
2,2024-09-26 22:35:11.396529152,TASK_BEGIN,020,-0.29859549132709073,0.1661930728709553,-2.7299759108827177,0.5136005069083058,-0.9631921173243274,0.35939303714759774,-0.01661928711420086,0.23890731984958216,3
3,2024-09-26 22:35:12.334521856,TASK_BEGIN,020,-0.28091806255933455,0.16517211790198366,-2.9203882641660583,0.5327020078598257,-0.9305452515270525,0.33884938534324754,-0.5781926584658706,0.3341495393821577,3
4,2024-09-26 22:35:12.407883776,TASK_BEGIN,020,-0.2645502768213332,0.16509478078931852,-3.1396492177949407,0.5560744981147873,-0.9030112883621766,0.32119762896415643,-1.0713232346177999,0.4151710711383957,3
5,2024-09-26 22:35:12.475711232,TASK_BEGIN,020,-0.24973991033499507,0.16615974647442597,-3.390956038946128,0.5842147651334526,-0.8816412483884025,0.3070412010810473,-1.481200818611568,0.47933968053105647,3
6,2024-09-26 22:35:12.543489024,TASK_BEGIN,020,-0.23662789183870783,0.1684993533219398,-3.6746990425686943,0.6171466964460101,-0.8670936535829873,0.296773472202979,-1.7977675746862254,0.5252239715854322,3
7,2024-09-26 22:35:12.595934976,TASK_BEGIN,020,-0.22526332927482656,0.1721755840690883,-3.9885271331359617,0.6545019255930992,-0.8596105006005249,0.29055534615330064,-2.0156892490900513,0.552535445389823,3
8,2024-09-26 22:35:12.673715968,TASK_BEGIN,020,-0.21562464418754423,0.1771798624720974,-4.327354918345057,0.6956142999932586,-0.8589865229554925,0.28830110586141705,-2.134371651185542,0.5620266710337942,3
9,2024-09-26 22:35:12.736203008,TASK_BEGIN,020,-0.20763796411208488,0.18343611409538335,-4.683381063846168,0.7395841661176242,-0.864586475208123,0.2896863668254532,-2.1580589858185393,0.5553913534593958,3
10,2024-09-26 22:35:13.657062912,TASK_BEGIN,020,-0.20118154917642275,0.19080622490736202,-5.046285150705457,0.7853021533267398,-0.8754194645029615,0.2941836474000549,-2.095728371642421,0.5351558261859326,3
11,2024-09-26 22:35:13.719550976,TASK_BEGIN,020,-0.1960694474319243,0.19909608162649273,-5.403822077079761,0.8314741032275436,-0.8902281713374584,0.3011174248448841,-1.960504786097258,0.5045208846957908,3
12,2024-09-26 22:35:13.797241088,TASK_BEGIN,020,-0.19202377824122882,0.20806176854980565,-5.742933990519499,0.8767030554419014,-0.9075729841449834,0.3097259179481255,-1.7685277445641683,0.4671075107590473,3
13,2024-09-26 22:35:13.868300032,TASK_BEGIN,020,-0.18866616928089863,0.21741916410375756,-6.051167740134271,0.9196339808513,-0.925925147025559,0.31921940294416523,-1.5374256027351332,0.42660720225845095,3
14,2024-09-26 22:35:13.921528064,TASK_BEGIN,020,-0.18555164620771847,0.2268591309026455,-6.317969894470636,0.959116037402087,-0.9437671803120392,0.32882828326725017,-1.2847577806184813,0.38642851843825266,3
15,2024-09-26 22:35:13.998300160,TASK_BEGIN,020,-0.1822308542667698,0.23606431167998196,-6.535542120837865,0.9943274237242563,-0.9596788361635501,0.3378383151386811,-1.0268373955076475,0.3494637191500818,3
16,2024-09-26 22:35:14.071742976,TASK_BEGIN,020,-0.17830476959824337,0.24472111516972161,-6.69917639939878,1.0248183881327795,-0.9723962649875183,0.34561432861094293,-0.7781218957575416,0.31802658921327615,3
17,2024-09-26 22:35:14.986933760,TASK_BEGIN,020,-0.17345377949716995,0.2525252530758717,-6.807187182530913,1.050460094274397,-0.980839685449776,0.3516142811958979,-0.5510151760930313,0.2939144881988964,3
18,2024-09-26 22:35:15.044899840,TASK_BEGIN,020,-0.16744884973286844,0.2591853571810632,-6.860651932971362,1.0713388931936416,-0.9841112455413992,0.3553951713809277,-0.35579633706126496,0.2785089312964739,3
19,2024-09-26 22:35:15.122572032,TASK_BEGIN,020,-0.16015397214456245,0.26443024957805256,-6.863091268320568,1.087658185336681,-0.981482065847359,0.3566136830827936,-0.20053713012177823,0.27284746829606826,3
20,2024-09-26 22:35:15.183741952,TASK_BEGIN,020,-0.15151345982789488,0.2680204183454125,-6.8200865268765245,1.0996822546034413,-0.9723853044838764,0.35502377688328113,-0.0910362662794087,0.27763833735561505,3
21,2024-09-26 22:35:15.252555008,TASK_BEGIN,020,-0.1415128072979531,0.26975984975083994,-6.738814414795358,1.1077114756546924,-0.9564117917389995,0.3504709401205185,-0.03083719115186767,0.29323103079532453,3
22,2024-09-26 22:35:15.328988928,TASK_BEGIN,020,-0.1301207675727548,0.2695061634492185,-6.627489283039587,1.1120535844072441,-0.9333017473268691,0.34288257428744545,-0.0213720907451099,0.319580010228065,3
23,2024-09-26 22:35:15.388526848,TASK_BEGIN,020,-0.11724158836374035,0.2671794564114217,-6.4946715554919905,1.1129682188849401,-0.9029362831226827,0.3322554572297996,-0.06223645901874688,0.356226477695372,3
24,2024-09-26 22:35:16.339992832,TASK_BEGIN,020,-0.10270421426559807,0.2627681415516727,-6.348462649928994,1.1105975653132019,-0.8653390544566208,0.3186431713129127,-0.15149320231434124,0.4022877979560579,3
25,2024-09-26 22:35:16.407857920,TASK_BEGIN,020,-0.08629567176985756,0.25632844019278006,-6.195756200046296,1.1049166288995094,-0.8207040486997236,0.3021487731304375,-0.285808338240955,0.45643111255668517,3
26,2024-09-26 22:35:16.465929984,TASK_BEGIN,020,-0.0678238521483372,0.2479760566714857,-6.0417225525951395,1.0957219575868642,-0.769458840828834,0.2829265808623177,-0.4603796761520023,0.5168502410072223,3
27,2024-09-26 22:35:16.543422208,TASK_BEGIN,020,-0.04717937357074228,0.2378707241017887,-5.88954615461031,1.082651723990733,-0.7123394465201109,0.26118938303602207,-0.6689211416133101,0.5813126173758477,3
28,2024-09-26 22:35:16.611229952,TASK_BEGIN,020,-0.024370079409225212,0.22619633175054027,-5.7403647357104015,1.0652253909334441,-0.6504190394635652,0.2372104974542225,-0.9039199968178477,0.64730512781419,3
29,2024-09-26 22:35:16.666344960,TASK_BEGIN,020,0.0004783625082520566,0.21314158979087508,-5.593454490782286,1.0429018159708168,-0.5850421525989802,0.21131202211892605,-1.1570214521393418,0.7122124957022616,3
30,2024-09-26 22:35:16.744120064,TASK_BEGIN,020,0.027146152159445793,0.19888647918024208,-5.446783928422245,1.0151649275532098,-0.517673284238059,0.18383994375119458,-1.4193052585310262,0.7734447605335767,3
31,2024-09-26 22:35:17.690031872,TASK_BEGIN,020,0.05535260779006089,0.18359731286348138,-5.297965588984982,0.9816533331728933,-0.4497281668697206,0.15513620091784555,-1.6815122616410152,0.8285169082425208,3
32,2024-09-26 22:35:17.757895936,TASK_BEGIN,020,0.08478897338587264,0.16742943635865187,-5.14539057945068,0.9423316612228955,-0.38246660465207455,0.12552178963858512,-1.9344308959502017,0.8751408815695496,3
33,2024-09-26 22:35:17.814488832,TASK_BEGIN,020,0.1151463554095588,0.15053448047148466,-4.9891485392034145,0.8976530223919653,-0.31698180347828386,0.09529963137217833,-2.169463837819808,0.9113502880488218,3
34,2024-09-26 22:35:17.892785152,TASK_BEGIN,020,0.14612952586939867,0.133070657865686,-4.831414103997507,0.8486418872744154,-0.2542597760791986,0.06477216035947274,-2.3792180301427006,0.9356290474211798,3
35,2024-09-26 22:35:17.954384128,TASK_BEGIN,020,0.17744858472262104,0.1152153011700407,-4.676255879495814,0.79686532036271,-0.1952478923297717,0.03425753218823887,-2.5579570822031226,0.9470141787049051,3
36,2024-09-26 22:35:18.017018112,TASK_BEGIN,020,0.20879581410745068,0.09717519972453008,-4.529070901993708,0.7443076692540479,-0.14087800490057792,0.00408998477861217,-2.7017622448365173,0.9451420224007204,3
37,2024-09-26 22:35:18.094201856,TASK_BEGIN,020,0.23981850360282625,0.07918867549375457,-4.395902432530461,0.6931810112081355,-0.092019616791066,-0.0253993034991045,-2.8083304471574935,0.9302059411619513,3
38,2024-09-26 22:35:19.030787840,TASK_BEGIN,020,0.2700933182269321,0.06151807688835361,-4.2827821047287475,0.6457091498395687,-0.04937507746730449,-0.053913449141846745,-2.8766097954993515,0.9028471859157965,3
39,2024-09-26 22:35:19.107981824,TASK_BEGIN,020,0.29911598745476853,0.044436585422077,-4.195106208091504,0.603926345761964,-0.013355488982333455,-0.08122049868731583,-2.90660022110411,0.8640561517128607,3
40,2024-09-26 22:35:19.166915072,TASK_BEGIN,020,0.32632870655916946,0.028213623793395162,-4.137005456523998,0.5695146205008604,0.016016023875753158,-0.1071731363390982,-2.899356611901836,0.8151206804508593,3
41,2024-09-26 22:35:19.228429824,TASK_BEGIN,020,0.35120050669336056,0.013100119846494429,-4.110706294552214,0.543670098789605,0.039128567140965395,-0.13171256982323093,-2.8569272964807197,0.7575822551102475,3
42,2024-09-26 22:35:19.305610752,TASK_BEGIN,020,0.37334854565376735,-0.0006868615038240095,-4.115978617701992,0.5269763122645684,0.056712401238883464,-0.15485669750942965,-2.7820696600443346,0.6931648984038956,3
43,2024-09-26 22:35:19.367660800,TASK_BEGIN,020,0.39264794826651606,-0.012978194864783165,-4.149819435458318,0.5192902600914076,0.06970058931556852,-0.17667797648560413,-2.6778535079444463,0.6236846206545444,3
44,2024-09-26 22:35:19.446981888,TASK_BEGIN,020,0.4092688351699667,-0.02366055328106785,-4.206474218577012,0.5196885740783129,0.07908379665997622,-0.19727849971983188,-2.547322962475985,0.5509521035689591,3
45,2024-09-26 22:35:20.377074944,TASK_BEGIN,020,0.4236231683131563,-0.03267395919408644,-4.2778381858430015,0.5265306173678781,0.0858017639127088,-0.21676641925385595,-2.393329624701915,0.47668368669454386,3
46,2024-09-26 22:35:20.457204224,TASK_BEGIN,020,0.4362525253762246,-0.03999954313798913,-4.354273595919451,0.5376553485719658,0.09068135447764593,-0.23523489761984367,-2.2186206850062495,0.4024590087037496,3
47,2024-09-26 22:35:20.525021952,TASK_BEGIN,020,0.44770433600251375,-0.04564496613198266,-4.425784790438198,0.5506677701996955,0.09440508824273727,-0.2527444863866954,-2.026208069064817,0.3297520529977126,3
48,2024-09-26 22:35:20.577833984,TASK_BEGIN,020,0.4584405675274522,-0.049638478662756676,-4.483279825841387,0.5632379380461935,0.09747675740620014,-0.2693076744887725,-1.8199359727567077,0.2600045836360987,3
49,2024-09-26 22:35:20.654982144,TASK_BEGIN,020,0.4688080361290395,-0.052036613740967075,-4.519584827005212,0.5733483930475306,0.1001604817239845,-0.28487216686462663,-1.605021784752442,0.19467151022357365,3
50,2024-09-26 22:35:20.717042944,TASK_BEGIN,020,0.47907167213161633,-0.052940787302868754,-4.530047511885884,0.5794584542629125,0.10240923615518799,-0.2993035113937548,-1.3882272363920423,0.13519065918381956,3
51,2024-09-26 22:35:20.795142912,TASK_BEGIN,020,0.48948190741416303,-0.052513431385457554,-4.512779372684482,0.5805875843889,0.10382855551456405,-0.3123745553941271,-1.1774299009099765,0.08288633546368544,3
52,2024-09-26 22:35:21.735544064,TASK_BEGIN,020,0.5003340454506798,-0.05098527611999633,-4.468713475165877,0.5763467213021745,0.10371262108104673,-0.3237705886189744,-0.9807352947066605,0.03884726243863634,3
53,2024-09-26 22:35:21.807180032,TASK_BEGIN,020,0.5119835985698323,-0.0486491720494226,-4.4015976316964975,0.5669427752221988,0.10115768045382084,-0.3331150415306352,-0.8055380374259596,0.003817574992882122,3
54,2024-09-26 22:35:21.875021056,TASK_BEGIN,020,0.5247920722824794,-0.04583880103347744,-4.317844669743052,0.5531530957056583,0.09522865417620302,-0.3400159566479293,-0.6578777726705485,-0.021856741222797217,3
55,2024-09-26 22:35:21.940849152,TASK_BEGIN,020,0.5389975642579312,-0.04289219698376081,-4.226099123979219,0.5362573555604739,0.08514195778894522,-0.3441270218568491,-0.5421784207938817,-0.038190902776472656,3
56,2024-09-26 22:35:21.999291136,TASK_BEGIN,020,0.5545487500798268,-0.04010558092186349,-4.13653584365939,0.5179347199782003,0.07043172558918095,-0.3452085967855763,-0.4611952762401586,-0.04546068352681963,3
57,2024-09-26 22:35:22.076605952,TASK_BEGIN,020,0.5709797487335383,-0.037691597301950736,-4.060025547816503,0.5001423569076394,0.051077002801725814,-0.3431726143911871,-0.41592677675398476,-0.04412487869858545,3
58,2024-09-26 22:35:22.137666048,TASK_BEGIN,020,0.5873877237739117,-0.03575623419421702,-4.007226013555431,0.48496530691064793,0.02756371866092086,-0.3381026850700048,-0.40547865275149003,-0.03482160806954563,3
59,2024-09-26 22:35:23.085337856,TASK_BEGIN,020,0.6025147885945921,-0.034297611904143904,-3.9875443471941767,0.47440902954319675,0.0008530133260907556,-0.33024865588052893,-0.42706894889854535,-0.01839802116551885,3
60,2024-09-26 22:35:23.157200128,TASK_BEGIN,020,0.6148908929542998,-0.033219569625314326,-4.00796269525831,0.47013478137060966,-0.027739705094620686,-0.3199996009885065,-0.47620662545253223,0.004083954494146658,3
61,2024-09-26 22:35:23.225039104,TASK_BEGIN,020,0.6229930890878879,-0.03235219204618881,-4.071890066976742,0.4731881710032459,-0.056722784308658646,-0.30784027544015996,-0.5468633364387148,0.03136685710027188,3
62,2024-09-26 22:35:23.286531072,TASK_BEGIN,020,0.6253956245781963,-0.03147591800711865,-4.178310473168395,0.4837892162031777,-0.08464574059181432,-0.2942950358849849,-0.6315952459204685,0.06202829986984078,3
63,2024-09-26 22:35:23.348610048,TASK_BEGIN,020,0.6208999199260432,-0.030348691793448138,-4.3214789028116325,0.5012329934573707,-0.11033277525470908,-0.2798673340217053,-0.7218271549922161,0.0945390298823744,3
64,2024-09-26 22:35:23.428410112,TASK_BEGIN,020,0.6086409717258907,-0.028734668937101616,-4.491350978075449,0.5239303197497547,-0.13306528093242792,-0.26499008078262265,-0.8084672132218993,0.12735888900690903,3
65,2024-09-26 22:35:23.487382784,TASK_BEGIN,020,0.5881697443157724,-0.026430916183758722,-4.674804732010724,0.5496032219670741,-0.1526506904230193,-0.2499998288315255,-0.8827754105290203,0.1590507765696873,3
66,2024-09-26 22:35:24.411227136,TASK_BEGIN,020,0.559509276303834,-0.023288434791531094,-4.857448540789134,0.5756101567941592,-0.16938157981904453,-0.23513521202410012,-0.9372955506997908,0.18838200912963726,3
67,2024-09-26 22:35:24.482931968,TASK_BEGIN,020,0.5231792381345723,-0.019225602306097923,-5.025535113534935,0.599320922708606,-0.18393328638139508,-0.22055119584327598,-0.9666981564505173,0.21438819562018965,3
68,2024-09-26 22:35:24.549709056,TASK_BEGIN,020,0.4801848362368575,-0.014234542475744355,-5.1674873353442194,0.6184472574865744,-0.1972386467641649,-0.20634256966825948,-0.9683564668639193,0.23638575875883722,3
69,2024-09-26 22:35:24.610761984,TASK_BEGIN,020,0.43196708194574446,-0.008382235387991153,-5.274824181169771,0.6312782480555618,-0.21034835841016042,-0.19257599436551387,-0.9424266667630935,0.2539301795753642,3
70,2024-09-26 22:35:24.686272000,TASK_BEGIN,020,0.3803115942782422,-0.0018068113278577433,-5.342564707222896,0.6368187843993242,-0.22427065880107436,-0.17932948275173996,-0.8913888269935919,0.26673475830704263,3
71,2024-09-26 22:35:24.754071040,TASK_BEGIN,020,0.32722470680284,0.005291824599519928,-5.369260606117139,0.6348427308334873,-0.2398088792307546,-0.1667287051606661,-0.8193054697793999,0.27459395314020324,3
72,2024-09-26 22:35:24.811515136,TASK_BEGIN,020,0.2748010505322672,0.012666388064680883,-5.356748595780011,0.6258648966198346,-0.2574495377752486,-0.15496339709928597,-0.73108623426116,0.2773569670957817,3
73,2024-09-26 22:35:25.764602112,TASK_BEGIN,020,0.2250994789265144,0.02003981937151631,-5.309672585620453,0.6110370194457307,-0.27733837423862945,-0.14427751840852074,-0.6318831252165338,0.2749551730677991,3
74,2024-09-26 22:35:25.828470016,TASK_BEGIN,020,0.1800265773226545,0.02712515425108237,-5.23483131658832,0.5919891870209925,-0.2993348679503891,-0.1349423959404259,-0.5266819558305509,0.26745730771847226,3
75,2024-09-26 22:35:25.900239872,TASK_BEGIN,020,0.14123116531384217,0.033646038456878496,-5.140427138266631,0.5706539933211752,-0.3231097571707588,-0.1272242049454557,-0.42010583816126956,0.2551246590177648,3
76,2024-09-26 22:35:25.968046848,TASK_BEGIN,020,0.11002403286313214,0.03935440793464702,-5.035264903015314,0.5491028095218625,-0.3482433894490728,-0.12135184281241555,-0.31629254264103657,0.23843128520919837,3
77,2024-09-26 22:35:26.030467072,TASK_BEGIN,020,0.08733100453088298,0.0440428420483455,-4.927924996501075,0.5293948248473257,-0.37428243875092093,-0.11749239586863407,-0.21870633483964377,0.21803028146326345,3
78,2024-09-26 22:35:26.103666944,TASK_BEGIN,020,0.07367800059821156,0.04755173481007468,-4.8260171377258105,0.513423033721913,-0.400733507913202,-0.1157429956868629,-0.12995180378511823,0.19470043820890404,3
79,2024-09-26 22:35:26.171503104,TASK_BEGIN,020,0.06919845115439323,0.049773064707783116,-4.73567944337984,0.5027529512537726,-0.4270160622588419,-0.11613945724110344,-0.051725225303003684,0.16931436400975464,3
80,2024-09-26 22:35:27.100235776,TASK_BEGIN,020,0.07364265067500013,0.05065332771232369,-4.661349570690253,0.49847418845526675,-0.45242373457851137,-0.11867129963400738,0.0151166420920987,0.14280663671220556,3
81,2024-09-26 22:35:27.182427904,TASK_BEGIN,020,0.08637863985181315,0.050196878905647696,-4.60564813043472,0.5010958650670156,-0.47611879291672926,-0.12329313661296058,0.07046240051889156,0.11609567452730453,3
82,2024-09-26 22:35:27.238482944,TASK_BEGIN,020,0.10640436040702746,0.04846774461797125,-4.56922836993332,0.5105030350314281,-0.49714756070130245,-0.12993146207877773,0.11482238724342228,0.089967715312688,3
83,2024-09-26 22:35:27.318030080,TASK_BEGIN,020,0.13239625222898055,0.04558744486702891,-4.550651761115006,0.5259724805419632,-0.5144700509576655,-0.1384898864170337,0.14915457403394436,0.0649754792877158,3
84,2024-09-26 22:35:27.377263104,TASK_BEGIN,020,0.16278902492727643,0.04172927259028624,-4.546482884035179,0.5462393553924704,-0.5270184580647397,-0.14885182048895912,0.17472340573252115,0.041385168720603924,3
85,2024-09-26 22:35:27.439291136,TASK_BEGIN,020,0.19586471377539563,0.03711017266901085,-4.551670661859641,0.5696012535348629,-0.5337813327136192,-0.16087755614010665,0.19306321776611127,0.019172178210257105,3
86,2024-09-26 22:35:27.516749056,TASK_BEGIN,020,0.22985495548198984,0.03197764024874801,-4.560071376960504,0.5940412361359134,-0.5338774092358259,-0.17439797705046514,0.2059843525223795,-0.0019420029626805522,3
87,2024-09-26 22:35:28.459905024,TASK_BEGIN,020,0.2630787698673047,0.026588279684933165,-4.564976675929586,0.6173633484319917,-0.5265937989759211,-0.18921244706427762,0.21553664870305453,-0.02241682214126155,3
88,2024-09-26 22:35:28.532588800,TASK_BEGIN,020,0.29410111473780504,0.021182395076621847,-4.559692912386499,0.6373555802389136,-0.5114026460534732,-0.20509594670494918,0.22392037531805986,-0.04279041192263403,3
89,2024-09-26 22:35:28.584931840,TASK_BEGIN,020,0.3218506595595543,0.015966637513940295,-4.538275183196829,0.6519905923986393,-0.4879763105064781,-0.22181352092312445,0.23335758120196012,-0.06356240046308122,3
90,2024-09-26 22:35:28.661660928,TASK_BEGIN,020,0.34564350496666474,0.011113022018034359,-4.496383208016696,0.6596398194296249,-0.45619577716728194,-0.23913647716015848,0.2459414668273012,-0.08509460985417253,3
91,2024-09-26 22:35:28.723704064,TASK_BEGIN,020,0.36511142271131947,0.006770389095938312,-4.432104139770532,0.6592530901756414,-0.41614871813152765,-0.2568548164996477,0.2635126278258905,-0.10757262771083467,3
92,2024-09-26 22:35:28.803724032,TASK_BEGIN,020,0.38008022938234665,0.0030761571884699943,-4.346574136508343,0.6504654071137577,-0.3681439980411477,-0.2747806916921841,0.287616213666025,-0.13103818354615887,3
93,2024-09-26 22:35:28.867294976,TASK_BEGIN,020,0.3904605045249618,0.0001586016094276829,-4.244220250653604,0.6336102635320997,-0.3127679919322673,-0.29274052922794713,0.31953676294990685,-0.15544508959302383,3
94,2024-09-26 22:35:29.778272000,TASK_BEGIN,020,0.39619802317906644,-0.0018720647267706832,-4.132435648079342,0.6096361947203144,-0.25095916975985216,-0.3105605252992464,0.3603129815868884,-0.18068146055416975,3
95,2024-09-26 22:35:29.857595904,TASK_BEGIN,020,0.39729563473313595,-0.002939677178163537,-4.020642163635451,0.5799548630951518,-0.18403531799984613,-0.3280558975631718,0.41060446717084403,-0.20654858254523834,3
96,2024-09-26 22:35:29.925356032,TASK_BEGIN,020,0.39388480321837654,-0.0030199074150311913,-3.9189577615238966,0.5462710315759185,-0.11362462691159791,-0.34503212175410275,0.47036055398668714,-0.2327193031468164,3
97,2024-09-26 22:35:29.979067136,TASK_BEGIN,020,0.38631457405425,-0.0021556929642154773,-3.8368185263117827,0.5104272728084924,-0.04151700980859725,-0.36129680148905413,0.5383432890547108,-0.2586882690546815,3
98,2024-09-26 22:35:30.060940032,TASK_BEGIN,020,0.375226247465754,-0.00046579294383699817,-3.78182695993171,0.4742684323615179,0.030500071888557453,-0.37667333627413424,0.6116467268607363,-0.2837205858263742,3
99,2024-09-26 22:35:30.118688000,TASK_BEGIN,020,0.36157715691112596,0.0018592746826476818,-3.759006561028515,0.4395315726192028,0.10076389698467883,-0.39101024604146245,0.685456040363763,-0.30682662138287625,3
100,2024-09-26 22:35:30.196367872,TASK_BEGIN,020,0.34658317968653485,0.004577442847410116,-3.770551519237468,0.4077723250014152,0.16779334011900732,-0.4041862471750466,0.753292215379556,-0.3268038703373379,3
101,2024-09-26 22:35:31.137389824,TASK_BEGIN,020,0.33157985787067235,0.007428363216261057,-3.8159693452010797,0.38031842033759117,0.23028801683148753,-0.4161122216239104,0.8077867290338275,-0.34236455657964193,3
102,2024-09-26 22:35:31.207703040,TASK_BEGIN,020,0.3178413191237985,0.010169678362460268,-3.8924225335247034,0.35823152239321,0.2871041908286636,-0.4267313800655863,0.8418006131897386,-0.35233365439417313,3
103,2024-09-26 22:35:31.275464960,TASK_BEGIN,020,0.3064164308656304,0.012604682127950344,-3.995181698492527,0.3422785065898977,0.33725396811803743,-0.43602131410560374,0.8496456087507119,-0.35588013197532165,3
104,2024-09-26 22:35:31.337876992,TASK_BEGIN,020,0.2980220221727646,0.014595870228203038,-4.118158715541749,0.33292230570849,0.3799490669916055,-0.4439987171363259,0.8281822040563591,-0.3527199646344145,3
105,2024-09-26 22:35:31.411060992,TASK_BEGIN,020,0.2929949104561388,0.016066473128865884,-4.254452814989641,0.3303340671233288,0.41466009589386404,-0.45071937375111204,0.7775494731160363,-0.3432181187802889,3
106,2024-09-26 22:35:31.477122048,TASK_BEGIN,020,0.2912909723333228,0.01699383570450932,-4.396879724613033,0.3344266022163607,0.44114438532859257,-0.4562657517606597,0.7013447870075876,-0.3283588032329652,3
107,2024-09-26 22:35:31.546658048,TASK_BEGIN,020,0.2925286326960345,0.0173971029246608,-4.538485908541148,0.344904444091346,0.45943162236984586,-0.46072527134261076,0.6062203220553151,-0.3096121549110084,3
108,2024-09-26 22:35:32.485004800,TASK_BEGIN,020,0.29607426903908085,0.017322138114382827,-4.672989140287891,0.3613161938097847,0.46978900088478687,-0.46416934065043425,0.5009386085527335,-0.2887366339149466,3
109,2024-09-26 22:35:32.557812992,TASK_BEGIN,020,0.3011573953459301,0.016826759039748,-4.795091257098604,0.3831004806025712,0.4726759446957697,-0.46663872533518796,0.39502211210141785,-0.26754664504071496,3
110,2024-09-26 22:35:32.625657856,TASK_BEGIN,020,0.30700049968971543,0.015967523552630453,-4.900670352677861,0.40962096139959003,0.4686845105915914,-0.4681354315317072,0.29734721694930444,-0.24768922116626693,3
111,2024-09-26 22:35:32.687155968,TASK_BEGIN,020,0.312945591645251,0.014788976579404695,-4.98677150669573,0.44016598493797293,0.4584782269207504,-0.46862189233997137,0.21508330401807949,-0.2304765711814535,3
112,2024-09-26 22:35:32.750870784,TASK_BEGIN,020,0.3185496763535408,0.013318126140920353,-5.051256452821741,0.4738902669945277,0.442754112807816,-0.4680284740230498,0.15308660460900653,-0.21678481981435072,3
113,2024-09-26 22:35:32.826971904,TASK_BEGIN,020,0.3236225954130522,0.011566753343328457,-5.092271189891473,0.5097369052008944,0.4222357530025586,-0.4662685142075106,0.11356153265861404,-0.20699855852196858,3
114,2024-09-26 22:35:32.889046784,TASK_BEGIN,020,0.32820250096623776,0.009540929820688743,-5.108021042209689,0.5464277791975969,0.39768416476613294,-0.46325962168518237,0.0958438493550491,-0.20099446059288137,3
115,2024-09-26 22:35:33.839315968,TASK_BEGIN,020,0.3324899532556612,0.007253622106322366,-5.097144646965193,0.582566366178763,0.36990404438145696,-0.45894718298325166,0.09644747910786411,-0.19819222847892465,3
116,2024-09-26 22:35:33.907836928,TASK_BEGIN,020,0.3367750297858621,0.0047342045556998235,-5.059440483869993,0.6168060088818319,0.3397290578605433,-0.45332203908523955,0.10962689663727883,-0.1977013474907004,3
117,2024-09-26 22:35:33.962458112,TASK_BEGIN,020,0.34138446125989996,0.0020303407579268184,-4.9964285188495365,0.6480015368298384,0.3079951455354708,-0.44642808677041074,0.12840544180316082,-0.19853315246999473,3
118,2024-09-26 22:35:34.040102144,TASK_BEGIN,020,0.3466504726669756,-0.0007964373002812371,-4.911365014373227,0.675285275084672,0.2755319418383211,-0.43836349478716835,0.1456923792650455,-0.19979295546128972,3
119,2024-09-26 22:35:34.101650944,TASK_BEGIN,020,0.35288133071804867,-0.003675783646310498,-4.808634240895347,0.6980375230633814,0.24319418582635077,-0.4292802660262608,0.15517741114092382,-0.20079036005582537,3
120,2024-09-26 22:35:34.164957952,TASK_BEGIN,020,0.36031451598672465,-0.00652973033507808,-4.692771537288348,0.7157643281485563,0.21192202229470486,-0.4193816264441527,0.1519184477391065,-0.20106737859656115,3
121,2024-09-26 22:35:34.246881024,TASK_BEGIN,020,0.36905282710744985,-0.00926930816822506,-4.56760260501107,0.7279542874677288,0.18278319386146352,-0.40891259381860434,0.1326359887989291,-0.20037107509031374,3
122,2024-09-26 22:35:35.163477760,TASK_BEGIN,020,0.3790044051210385,-0.011789660062770478,-4.435918798010112,0.7340026823167668,0.15694911318531224,-0.3981420747779856,0.09580121926964459,-0.19860420977739993,3
123,2024-09-26 22:35:35.226003968,TASK_BEGIN,020,0.38985926060218906,-0.013969500937231611,-4.2997755942337905,0.7332427498231715,0.1356009218348204,-0.3873431906172806,0.04165833790943412,-0.19579115002049322,3
124,2024-09-26 22:35:35.288118016,TASK_BEGIN,020,0.40112912419679086,-0.015679389139658363,-4.1612052813964775,0.7250670036955587,0.11979647156354849,-0.37677966712484956,-0.027760162714658726,-0.19207192227038117,3
125,2024-09-26 22:35:35.368472064,TASK_BEGIN,020,0.41224535322315636,-0.016797655672719028,-4.023043669492896,0.7091041731301796,0.11031765398527348,-0.36669591140038305,-0.10870381441192706,-0.18769777012825997,3
126,2024-09-26 22:35:35.436314112,TASK_BEGIN,020,0.42267388361500746,-0.01722957839391595,-3.889547355305165,0.6854078293734506,0.10750717782238729,-0.3573026887135516,-0.19601868439456918,-0.18298498341483146,3
127,2024-09-26 22:35:35.504115968,TASK_BEGIN,020,0.43200529187492237,-0.016926764070614227,-3.7664863787487177,0.6545839945936859,0.11113786119541336,-0.3487597203690938,-0.28382622496264914,-0.17820134695468537,3
128,2024-09-26 22:35:35.570756864,TASK_BEGIN,020,0.4400021870181297,-0.01590384198352957,-3.6606265034585475,0.6177968378464063,0.12038428337023402,-0.3411671297930525,-0.3664993869883512,-0.17341194937577004,3
129,2024-09-26 22:35:36.515208960,TASK_BEGIN,020,0.44659886269946947,-0.014246832355339243,-3.57884724193535,0.5766618248280516,0.13392873326774507,-0.33457419546731026,-0.43964958662192344,-0.16836711987697997,3
130,2024-09-26 22:35:36.583048960,TASK_BEGIN,020,0.45185054832756927,-0.012107126753397361,-3.5271896324503293,0.5330759632047036,0.1501661940544592,-0.32900201742001434,-0.5007541501665773,-0.16251149017430064,3
131,2024-09-26 22:35:36.645625088,TASK_BEGIN,020,0.45584530557636777,-0.009679869481795157,-3.509953216223479,0.48901874102334086,0.16743659700631955,-0.32446894747034843,-0.549148241972285,-0.15512848990447983,3
132,2024-09-26 22:35:36.706714112,TASK_BEGIN,020,0.4586184526321261,-0.007173476338955395,-3.528920743923495,0.44635060750543415,0.18421801374637115,-0.3210073621654878,-0.5853909867489218,-0.1455647995196028,3
133,2024-09-26 22:35:36.785315840,TASK_BEGIN,020,0.4601159685936014,-0.004781690976422454,-3.582848881377947,0.40664682212252884,0.1992468096919283,-0.3186653034909409,-0.6104185340705724,-0.13343447680374154,3
134,2024-09-26 22:35:36.854240000,TASK_BEGIN,020,0.4602220388943551,-0.0026658230008192807,-3.667325839275822,0.3710973929928652,0.2115691746447276,-0.31749408419485786,-0.6250216947980979,-0.11870993652703439,3
135,2024-09-26 22:35:36.909210880,TASK_BEGIN,020,0.45882598525907675,-0.000947105100907374,-3.7750245001148834,0.3404856955886068,0.2205489191952036,-0.31752948151609056,-0.6298009022835538,-0.10167802421561184,3
136,2024-09-26 22:35:37.863045888,TASK_BEGIN,020,0.45589649648469177,0.0002935594245843841,-3.8963317660715853,0.31523667941805383,0.2258502148175917,-0.3187753263715715,-0.6253129310631595,-0.08281543227751115,3
137,2024-09-26 22:35:37.930862848,TASK_BEGIN,020,0.4515514238705566,0.0010088463247440674,-4.0202756213501525,0.2954963081267472,0.22739895968843923,-0.3211944147093569,-0.6121075088067345,-0.06266377979923728,3
138,2024-09-26 22:35:37.998658048,TASK_BEGIN,020,0.4461113567404015,0.0011732407552824582,-4.1356594895613865,0.2811952428203656,0.22532107100670867,-0.3247060829950364,-0.5906262609273283,-0.04176314696941692,3
139,2024-09-26 22:35:38.065231872,TASK_BEGIN,020,0.44009600652850767,0.0007747250516258364,-4.232319818237155,0.27207834071579234,0.2198580462095131,-0.3291847072619573,-0.5611361152293729,-0.02065613271982752,3
140,2024-09-26 22:35:38.134269952,TASK_BEGIN,020,0.4341297437398327,-0.00018219675805779476,-4.302343267248153,0.2677215647695182,0.2112700397405627,-0.3344534539021855,-0.5238232020922727,6.767520943548838e-05,3
141,2024-09-26 22:35:38.187926016,TASK_BEGIN,020,0.42878799380270877,-0.0016650100569232011,-4.341021594126322,0.26757621052708686,0.19975260629817998,-0.3402741554911667,-0.4789792993651167,0.01973080693237356,3
142,2024-09-26 22:35:38.265051904,TASK_BEGIN,020,0.4244622091534481,-0.003603546338309719,-4.347378697312289,0.2710545316372335,0.18539119692211242,-0.34633909434267435,-0.42709177623804745,0.03755389842993048,3
143,2024-09-26 22:35:39.213113088,TASK_BEGIN,020,0.42129878357395534,-0.005888763697667985,-4.324180423147304,0.2776229929613665,0.1681524257435468,-0.3522698235733675,-0.36871981450297564,0.052654145810012945,3
144,2024-09-26 22:35:39.279994880,TASK_BEGIN,020,0.4192134206603771,-0.008378834512210904,-4.277429856213405,0.2868606221342742,0.14789648228259597,-0.35762607946141023,-0.30426072420278744,0.0640388574627096,3
145,2024-09-26 22:35:39.341583872,TASK_BEGIN,020,0.41795183956786464,-0.010908790685525497,-4.2154923118918015,0.29847606700189544,0.12440999470517816,-0.3619255233562116,-0.23387838437944244,0.070625949092329,3
146,2024-09-26 22:35:39.416583936,TASK_BEGIN,020,0.417174875210019,-0.013301953091660774,-4.148073219030434,0.31230300809353545,0.09747110054603302,-0.36467129945864035,-0.15776305591245152,0.0713533083455883,3
147,2024-09-26 22:35:39.480431104,TASK_BEGIN,020,0.41655364630560715,-0.015381836720670127,-4.0852370681368955,0.3282948362107442,0.06693670060429538,-0.3653812289179555,-0.07659403950990135,0.06539014232263154,3
148,2024-09-26 22:35:39.545597952,TASK_BEGIN,020,0.41584629904043324,-0.016981854063374775,-4.036588793482382,0.34653609100330657,0.032821861727978414,-0.3636148772869504,0.008091928918106683,0.052381191480986175,3
149,2024-09-26 22:35:39.604582912,TASK_BEGIN,020,0.41492669599561444,-0.01795057216212176,-4.0106856265474855,0.3672711868399455,-0.004640513749636156,-0.3590014215602097,0.09382694609638789,0.032621841147182924,3
150,2024-09-26 22:35:40.531439872,TASK_BEGIN,020,0.41376428358015105,-0.018152147020244914,-4.01469409265004,0.3909238718763312,-0.04495626993268103,-0.3512705605878715,0.17742313628462278,0.007103025554442549,3
151,2024-09-26 22:35:40.593925120,TASK_BEGIN,020,0.41238058969346086,-0.017463811960294014,-4.054211453734463,0.41807323478980535,-0.08735878924157743,-0.3402782494618885,0.2553151975101721,-0.022563207545867874,3
152,2024-09-26 22:35:40.674760960,TASK_BEGIN,020,0.4108069540256243,-0.015774177794817365,-4.133057612265697,0.4493642660396882,-0.13086274239191986,-0.3260145861120891,0.32390042515735223,-0.05429396532428879,3
153,2024-09-26 22:35:40.742374144,TASK_BEGIN,020,0.4090478018651342,-0.012984912006386316,-4.252873257649967,0.4853512324594523,-0.17439011279746156,-0.3085930631170814,0.37984876510127796,-0.08573838129769659,3
154,2024-09-26 22:35:40.796012032,TASK_BEGIN,020,0.40703931711305774,-0.009015257680862128,-4.4125514999625235,0.5262977611245466,-0.21692344563725013,-0.2882353401010811,0.4203612979590661,-0.11451855950497357,3
155,2024-09-26 22:35:40.878668032,TASK_BEGIN,020,0.4046039718969246,-0.0038078973139379466,-4.607687197574048,0.5719782824383285,-0.2576223236049139,-0.2652635184189163,0.4433258863948355,-0.13847340633774521,3
156,2024-09-26 22:35:40.935457024,TASK_BEGIN,020,0.40142236890492766,0.002664942895262678,-4.830269512684418,0.6215370478868484,-0.2958767548846328,-0.2400968596294826,0.4474215681293729,-0.15586904431773713,3
157,2024-09-26 22:35:41.888840704,TASK_BEGIN,020,0.39704546069215235,0.010396671551803119,-5.068792894628651,0.6734590952111997,-0.3313115479429205,-0.21324369236638574,0.43229456446339154,-0.165559268660081,3
158,2024-09-26 22:35:41.956707072,TASK_BEGIN,020,0.39095228782685576,0.019344294080588922,-5.308844803734277,0.7256766327228075,-0.36375887491771847,-0.18528460846036363,0.3987759162069421,-0.1670868807876932,3
159,2024-09-26 22:35:42.019054080,TASK_BEGIN,020,0.3826406258259077,0.029429442866383528,-5.5341509123588,0.7757864536376244,-0.3932012142858281,-0.1568483175811304,0.3489437784906877,-0.16071145693387068,3
160,2024-09-26 22:35:42.092297984,TASK_BEGIN,020,0.37172453990572824,0.040541234765033914,-5.728019223844477,0.8213269326900309,-0.41968188364434783,-0.12858559694168611,0.28591434183973335,-0.1473470061305936,3
161,2024-09-26 22:35:42.160103936,TASK_BEGIN,020,0.3580049830441647,0.05253882766460621,-5.874991647369763,0.8600583713973742,-0.44320267891901677,-0.10114847887321017,0.21343509921190856,-0.1284071182173556,3
162,2024-09-26 22:35:42.227881728,TASK_BEGIN,020,0.341491155854541,0.0652524664742578,-5.9623715311707794,0.890187027150327,-0.46366228960810196,-0.07517488314350396,0.13541688145679062,-0.10558548409260964,3
163,2024-09-26 22:35:42.295680000,TASK_BEGIN,020,0.3223776912270292,0.07848373926008813,-5.9813693211573336,0.910492058022118,-0.48088055460100604,-0.05127004795439712,0.055502284401368576,-0.08061753306597313,3
164,2024-09-26 22:35:43.236131840,TASK_BEGIN,020,0.3010010615335526,0.09200633715004854,-5.927838829353793,0.920373929973696,-0.4946929742326594,-0.0299779874633693,-0.02328629720043682,-0.05506398746578321,3
165,2024-09-26 22:35:43.297476096,TASK_BEGIN,020,0.2778003618332859,0.10556847412378179,-5.802689311234892,0.9198826418947595,-0.5050569620673852,-0.01174577356302225,-0.09877629967689099,-0.030157389788625855,3
166,2024-09-26 22:35:43.359160832,TASK_BEGIN,020,0.2532970110090083,0.11889889430162374,-5.611955229046467,0.9097457167879257,-0.5121271071399311,0.003110861212469219,-0.1696496865602343,-0.006745008629291671,3
167,2024-09-26 22:35:43.436389888,TASK_BEGIN,020,0.22808657397194906,0.1317181386670236,-5.366373339361018,0.8913522374798034,-0.5162896336682476,0.014432379885532233,-0.2351759566079813,0.014685345490095168,3
168,2024-09-26 22:35:43.510137088,TASK_BEGIN,020,0.2028267089755915,0.14375344060859901,-5.080382022263723,0.8666480593454813,-0.5181586005586951,0.022225265886734118,-0.29480223792456134,0.033947497428352416,3
169,2024-09-26 22:35:43.577907968,TASK_BEGIN,020,0.1782223496761815,0.15475212012307457,-4.770677255221879,0.8379456441253814,-0.5185369949365229,0.026655520137695742,-0.3478037625537162,0.051102047907829094,3
170,2024-09-26 22:35:43.645706752,TASK_BEGIN,020,0.15501725600003277,0.1644901924687603,-4.4545674865119835,0.8076814332480085,-0.5183459984353866,0.028027774496299958,-0.39314081475335677,0.06641497116473413,3
171,2024-09-26 22:35:44.582648832,TASK_BEGIN,020,0.13397881241920861,0.1727795678632313,-4.148309127608303,0.7781540818719213,-0.5185282229421241,0.02675226281264391,-0.42958201463730755,0.08033487902588653,3
172,2024-09-26 22:35:44.657444096,TASK_BEGIN,020,0.11584926291374777,0.17947955022468823,-3.865574837654846,0.7512720184342655,-0.5199387961857431,0.023303110538023294,-0.45607691349589974,0.09348512137023979,3
173,2024-09-26 22:35:44.724185088,TASK_BEGIN,020,0.1012620139307107,0.18451187128844748,-3.616252857227311,0.7283372196932414,-0.5232447594096261,0.01817625150386937,-0.4722750723297261,0.1066538174590747,3
174,2024-09-26 22:35:44.783117824,TASK_BEGIN,020,0.0906580516402914,0.18787151691346768,-3.405763601392699,0.7099002421098842,-0.5288520650018121,0.011857997989521552,-0.4789937724951861,0.12076138843583244,3
175,2024-09-26 22:35:44.860357888,TASK_BEGIN,020,0.08424244686779733,0.18962642786996656,-3.234973580064334,0.6957261852581432,-0.5368754730739426,0.004809279556584871,-0.47843758872395487,0.13679533106889344,3
176,2024-09-26 22:35:44.922412032,TASK_BEGIN,020,0.08198939895162749,0.18990586980540264,-3.1006687168963034,0.6848862438856901,-0.5471550860676083,-0.002539584052310068,-0.4740974735085801,0.1557199647717,3
177,2024-09-26 22:35:44.996378880,TASK_BEGIN,020,0.08367077585355134,0.18888290027588656,-2.9964757260379407,0.6759486035049732,-0.559299817096652,-0.00979275882434697,-0.4703491192154389,0.17837008444603888,3
178,2024-09-26 22:35:45.933970944,TASK_BEGIN,020,0.08888472886692503,0.18675658568267997,-2.9140598220729608,0.6672197885699149,-0.5727259118315589,-0.016598467606647953,-0.47176491830252243,0.20532123125333474,3
179,2024-09-26 22:35:45.996456960,TASK_BEGIN,020,0.09708886321591784,0.1837362762987931,-2.844362008678727,0.6569871251201175,-0.5866768946684786,-0.022668651200559796,-0.4821994318617773,0.2367374983640721,3
180,2024-09-26 22:35:46.075355904,TASK_BEGIN,020,0.10765704802064932,0.18002730891450028,-2.7786413798528735,0.6437177404664142,-0.6002429164988183,-0.027807326017783775,-0.5038800324972144,0.27223899803459073,3
181,2024-09-26 22:35:46.143127808,TASK_BEGIN,020,0.1199654506177489,0.17581641863234182,-2.709222407244223,0.6261841734011535,-0.6124106803481817,-0.03193639939967428,-0.5368201284179241,0.3108536345201128,3
182,2024-09-26 22:35:46.210944768,TASK_BEGIN,020,0.13348616786031,0.17125699461675586,-2.630029182965392,0.6035258295128567,-0.6221586600903334,-0.03510520630929983,-0.5787398870534556,0.3510877394816358,3
183,2024-09-26 22:35:46.278733824,TASK_BEGIN,020,0.14784861666433402,0.1664588370431548,-2.537013109985053,0.5752876158618169,-0.6285834943293598,-0.037479660892474495,-0.6255192314378718,0.39109288740538883,3
184,2024-09-26 22:35:46.340163072,TASK_BEGIN,020,0.1628333009911883,0.16148961711118212,-2.428459001029837,0.5414659484265496,-0.631020840043896,-0.03931752052992724,-0.6720873016921521,0.42886492436795465,3
185,2024-09-26 22:35:47.264699904,TASK_BEGIN,020,0.17829019265389429,0.1563904895821988,-2.3051292143312705,0.5025604522046857,-0.6291172647475741,-0.040939191511977245,-0.7134702726689393,0.4624128402077266,3
186,2024-09-26 22:35:47.332572928,TASK_BEGIN,020,0.1940135868731505,0.15119895900160957,-2.1702591453133664,0.459607440466132,-0.6228250454049685,-0.04270042100539542,-0.7456211197014566,0.48987409072887234,3
187,2024-09-26 22:35:47.398635008,TASK_BEGIN,020,0.2096243120381998,0.14596899431428445,-2.029354648373384,0.41416098835870585,-0.6123211124733197,-0.04496895202053494,-0.7657971151668922,0.5095869395914705,3
188,2024-09-26 22:35:47.468102144,TASK_BEGIN,020,0.22449476197665894,0.14078364950951702,-1.889669754152977,0.3681912162420074,-0.5978847589960281,-0.048104276217222804,-0.7725075989266028,0.5201390466571426,3
189,2024-09-26 22:35:47.522649088,TASK_BEGIN,020,0.23773675526165078,0.13575889388226786,-1.7593591429587376,0.3238985861427656,-0.5797921440233302,-0.05243785923597125,-0.765263386568333,0.520416658852021,3
190,2024-09-26 22:35:47.599376896,TASK_BEGIN,020,0.24827314408090978,0.13103616551974245,-1.646502621443842,0.2834941017626808,-0.5582730880207789,-0.05825219849423143,-0.7443992390003699,0.509675888593238,3
191,2024-09-26 22:35:47.661005056,TASK_BEGIN,020,0.25499861538931057,0.12676351187238416,-1.5582730109764305,0.2490198631226724,-0.5335375245238164,-0.06576023425263877,-0.7110573818334266,0.487629358044181,3
192,2024-09-26 22:35:48.614862080,TASK_BEGIN,020,0.25698728701919776,0.12307311139791989,-1.5004114222426375,0.22223806720126624,-0.5058492414327943,-0.07508704486982604,-0.6672102019643559,0.45451254425762194,3
193,2024-09-26 22:35:48.674795776,TASK_BEGIN,020,0.2536688226826477,0.12006613192764787,-1.4769981285796028,0.20454886429475483,-0.47560325974751033,-0.08625513120813955,-0.6156122189356403,0.4110989107314547,3
194,2024-09-26 22:35:48.750480896,TASK_BEGIN,020,0.24491597436360749,0.11780830151591455,-1.4904336775812843,0.1969005184717922,-0.44335855940937635,-0.09917717092023434,-0.5597327583821204,0.35867254481814853,3
195,2024-09-26 22:35:48.818234880,TASK_BEGIN,020,0.23104084832312258,0.11633161993182214,-1.541608180868805,0.19972065439617756,-0.4098086185410661,-0.11366098791920799,-0.5037416669271139,0.298993166336478,3
196,2024-09-26 22:35:48.876651008,TASK_BEGIN,020,0.21273083626652872,0.1156377442313686,-1.6302435417974235,0.2129242711445397,-0.37570569570537815,-0.12942697394784206,-0.4524491641783164,0.23425695470047536,3
197,2024-09-26 22:35:48.953824000,TASK_BEGIN,020,0.19095516835212126,0.1157007017806762,-1.7552253628200791,0.23600303092895372,-0.34176341464858934,-0.14613385370953907,-0.4110290844152926,0.1670168942282341,3
198,2024-09-26 22:35:49.015961856,TASK_BEGIN,020,0.16686607235018985,0.11646605132773147,-1.9146401883199788,0.26814102896174885,-0.3085675515962912,-0.1634085642766849,-0.38450719117655763,0.10003833554918293,3
199,2024-09-26 22:35:49.959633152,TASK_BEGIN,020,0.14171884007983707,0.1178451255555629,-2.105457523228504,0.3083009641323064,-0.2765299987839466,-0.18087581628246685,-0.3771290646409845,0.03609648959401109,3
200,2024-09-26 22:35:50.023366912,TASK_BEGIN,020,0.11682286985638185,0.11970892414015541,-2.323154027349318,0.3552654668313757,-0.245907174242231,-0.19817996921474262,-0.39174069291784946,-0.022254291038978684,3
201,2024-09-26 22:35:50.100629760,TASK_BEGIN,020,0.09351084964619985,0.12188895498107187,-2.5616429560600933,0.40764560566870617,-0.21687648210040053,-0.21499346306527095,-0.4293531667109863,-0.07288227852322222,3
202,2024-09-26 22:35:50.168364032,TASK_BEGIN,020,0.07310997350383976,0.12418612050147612,-2.813570132129681,0.46386620122873284,-0.18964040545143657,-0.23101404241762527,-0.4890716635220973,-0.11419503781811097,3
203,2024-09-26 22:35:50.236154112,TASK_BEGIN,020,0.05691013532481779,0.12638260034291643,-3.0707700112681215,0.5221461883249633,-0.16451524874936754,-0.24595837117350863,-0.5684262759525738,-0.1451629433264797,3
204,2024-09-26 22:35:50.301274880,TASK_BEGIN,020,0.0461169796923957,0.12825392270312538,-3.324746518393193,0.580522528753355,-0.14196050570509672,-0.2595608323785599,-0.6639134107123635,-0.1652872740987364,3
205,2024-09-26 22:35:50.371751936,TASK_BEGIN,020,0.04177596362786096,0.129581973199695,-3.5672418935029757,0.6369585812532537,-0.1225297783383553,-0.2715844181690192,-0.7714061207969937,-0.17456256623097172,3
206,2024-09-26 22:35:51.280974080,TASK_BEGIN,020,0.04467804999694444,0.13016889295043202,-3.7909741387216536,0.689516834258333,-0.10677802387767758,-0.2818408625810876,-0.8861716340580856,-0.1734698562539571,3
207,2024-09-26 22:35:51.342641152,TASK_BEGIN,020,0.055271909781223476,0.12985099790851456,-3.99045857420402,0.73653195076257,-0.09518531496015738,-0.2902074631369525,-1.0025745786758768,-0.1629983730314101,3
208,2024-09-26 22:35:51.419876096,TASK_BEGIN,020,0.07359734526712623,0.12851171238434797,-4.1626466791902805,0.7767302445052144,-0.08812026449823059,-0.2966312935549992,-1.1138988946181214,-0.144643974348024,3
209,2024-09-26 22:35:51.493357824,TASK_BEGIN,020,0.09924914337946271,0.12609103689822498,-4.307122997515333,0.8092760577042111,-0.0858286273090455,-0.3011201947529421,-1.2127107641799044,-0.12032725705214918,3
210,2024-09-26 22:35:51.559297024,TASK_BEGIN,020,0.13138518788356682,0.12258946790149637,-4.4258364941393085,0.8337578142015606,-0.08843474306599376,-0.3037235906758223,-1.2917712886733714,-0.09222637087244694,3
211,2024-09-26 22:35:51.621323008,TASK_BEGIN,020,0.16878231851530684,0.11806806997801579,-4.522531470541747,0.8501449462005062,-0.09595268606507695,-0.30450884320510474,-1.3451347756692933,-0.06256160184408156,3
212,2024-09-26 22:35:51.696727040,TASK_BEGIN,020,0.20991890755553963,0.1126482335095181,-4.602020025810129,0.8587411044244255,-0.10831034619592518,-0.3035403649969838,-1.3690900783894235,-0.03335809025617358,3
213,2024-09-26 22:35:52.640698880,TASK_BEGIN,020,0.2530596518163847,0.10651091297017619,-4.66936171224177,0.8601340658603441,-0.1253993784008855,-0.3008639270969348,-1.3627867165058405,-0.006212580497007058,3
214,2024-09-26 22:35:52.704320000,TASK_BEGIN,020,0.29634210296328795,0.09989084117268014,-4.729023818055836,0.8551237214196739,-0.14715039269637917,-0.2964940008325654,-1.328393478583321,0.017864859952614703,3
215,2024-09-26 22:35:52.766372864,TASK_BEGIN,020,0.3378790250985677,0.09306237210446634,-4.7841510505686635,0.8446215591708872,-0.17359559128449,-0.2904053530863895,-1.270666290951777,0.038470106318323524,3
216,2024-09-26 22:35:52.844102912,TASK_BEGIN,020,0.37587261538069583,0.08631926776503589,-4.836112285702844,0.8295491293222427,-0.20487101114420642,-0.28253471850119893,-1.1961044599174797,0.055722156538900704,3
217,2024-09-26 22:35:52.906049024,TASK_BEGIN,020,0.40871232622336195,0.07995529468087834,-4.88448744636905,0.8107777370628266,-0.2411485325615837,-0.2727951004540475,-1.1120701859354865,0.07017124465943272,3
218,2024-09-26 22:35:52.967625984,TASK_BEGIN,020,0.43503787750554995,0.07425099000099426,-4.927560328898675,0.7891235512859901,-0.28253026561661154,-0.26109885425220325,-1.026004642889163,0.08271862568344956,3
219,2024-09-26 22:35:53.044399872,TASK_BEGIN,020,0.4537783191211158,0.06946650168026765,-4.963171159039693,0.7653708991162078,-0.32894864319909894,-0.24738426002660432,-0.9446100867464458,0.0944935512499189,3
220,2024-09-26 22:35:53.989625088,TASK_BEGIN,020,0.46418280527227657,0.06583777400504397,-4.989585387919965,0.7402877142843071,-0.38010350016450617,-0.23164183555289683,-0.8729728797026172,0.10666131132587899,3
221,2024-09-26 22:35:54.052187136,TASK_BEGIN,020,0.46584299034750637,0.0635739834490416,-5.006039075706867,0.7146212244957147,-0.4354446687458725,-0.21393647483085398,-0.8138308632228656,0.12020411719065785,3
222,2024-09-26 22:35:54.113689088,TASK_BEGIN,020,0.4586986873198581,0.06285428795227743,-5.012833482085892,0.6890839918407857,-0.4941897465314599,-0.1944194701865398,-0.767249773738864,0.13573803904798634,3
223,2024-09-26 22:35:54.192228096,TASK_BEGIN,020,0.44302390466948044,0.06382224787838636,-5.011083381117855,0.6643415526689855,-0.5553741620861303,-0.17332401583228818,-0.7308804831069333,0.1534056595738073,3
224,2024-09-26 22:35:54.260904960,TASK_BEGIN,020,0.4194011478193624,0.06657803884020543,-5.00234703751259,0.6410072217020961,-0.6179470190575773,-0.15094292858510225,-0.700758801060554,0.17286319896562777,3
225,2024-09-26 22:35:54.315406080,TASK_BEGIN,020,0.388692839449291,0.07117023974241968,-4.988387580810243,0.619659279747376,-0.680912495446118,-0.1275963620524741,-0.6723826799528818,0.19337442895262197,3
226,2024-09-26 22:35:54.396438016,TASK_BEGIN,020,0.352004817238337,0.07759017933039,-4.971185594063122,0.600900649444176,-0.74347474038419,-0.10360359072860417,-0.6417451959410894,0.2139858949449707,3
227,2024-09-26 22:35:55.338443008,TASK_BEGIN,020,0.31062685332651885,0.08577221886266874,-4.953055400824942,0.5854422953349729,-0.805118306792157,-0.0792703883450075,-0.6060770996268524,0.23370006082889044,3
228,2024-09-26 22:35:55.406872064,TASK_BEGIN,020,0.2659447134685341,0.09560036318950403,-4.9365775438729695,0.5741437303552159,-0.8655920845874879,-0.05489079386806913,-0.5641654851689962,0.25157763070036276,3
229,2024-09-26 22:35:55.474689024,TASK_BEGIN,020,0.2193397835055617,0.10691652416081263,-4.924231723123773,0.5679630841504555,-0.924838227173025,-0.030750672072246542,-0.5163354717766548,0.2667897312717916,3
230,2024-09-26 22:35:55.542465024,TASK_BEGIN,020,0.17210889158385118,0.1195244859054833,-4.917887421989842,0.5678403880287805,-0.9829283354801686,-0.007124066477363608,-0.46434097446458433,0.27868304930477983,3
231,2024-09-26 22:35:55.610235904,TASK_BEGIN,020,0.12543100012318592,0.13318804413139917,-4.91837306525323,0.5745722148978939,-1.0400178158987414,0.015735365342579317,-0.41122830053516424,0.2868599284671887,3
232,2024-09-26 22:35:55.673571072,TASK_BEGIN,020,0.0803742279159435,0.1476278913573673,-4.92524116321349,0.5887124132843446,-1.0962870814481542,0.03760218643340529,-0.36098886516319156,0.2912126506861298,3
233,2024-09-26 22:35:55.735191040,TASK_BEGIN,020,0.03790652276346025,0.1625247410440938,-4.936789848897204,0.6105045750116764,-1.1518513146037,0.0582837104799758,-0.3179618146987765,0.29188626236645876,3
234,2024-09-26 22:35:56.689351936,TASK_BEGIN,020,-0.0011172341003488132,0.1775330073065521,-4.950365987837054,0.6398419810543495,-1.2066490053555279,0.07761868956985227,-0.28628146092630374,0.2892168594328164,3
235,2024-09-26 22:35:56.746185984,TASK_BEGIN,020,-0.03597921944157288,0.19230174953726178,-4.962890527115818,0.6762518460473234,-1.2603245489110426,0.09546538229609429,-0.26966186120093694,0.28369252291861496,3
236,2024-09-26 22:35:56.823969024,TASK_BEGIN,020,-0.06610273013451347,0.20649545807228453,-4.97148232855905,0.7189021429060914,-1.3121223820093098,0.11167749152704526,-0.2714780883263165,0.2759322924183794,3
237,2024-09-26 22:35:56.892791040,TASK_BEGIN,020,-0.09103589148005209,0.21981122802458766,-4.974019071302484,0.7666208463504214,-1.3608321635926588,0.12607636338432848,-0.29488982994990326,0.26666375319732233,3
238,2024-09-26 22:35:56.947574016,TASK_BEGIN,020,-0.11044792258567909,0.23199304973638535,-4.969445172864489,0.8179111131136356,-1.404827983302745,0.13843312186164278,-0.34279669048465894,0.25669836694877307,3
239,2024-09-26 22:35:57.028357888,TASK_BEGIN,020,-0.12415464006135497,0.2428415658701505,-4.95769956909877,0.8709627434778996,-1.442198536024936,0.1484674911323504,-0.4174929088946782,0.24689819427559728,3
240,2024-09-26 22:35:57.087383040,TASK_BEGIN,020,-0.13215599255276791,0.25221595441245637,-4.9393151673660025,0.923685688599803,-1.4709220109914753,0.15586144453505812,-0.520025059109792,0.2381202917543559,3
241,2024-09-26 22:35:58.008239872,TASK_BEGIN,020,-0.1346629223116411,0.2600286128192591,-4.914908505043345,0.973793942607565,-1.489051844961513,0.16028566802939478,-0.6495257658216722,0.23115325493547845,3
242,2024-09-26 22:35:58.069808128,TASK_BEGIN,020,-0.1320972161643436,0.2662359759094351,-4.884810304461298,1.0189464325013473,-1.4949164632823504,0.16143916104810827,-0.8028336140780509,0.22666884855421732,3
243,2024-09-26 22:35:58.148076288,TASK_BEGIN,020,-0.12505319210318955,0.2708275485622254,-4.84899131398302,1.0569264725534404,-1.4873409055427116,0.15909904246484868,-0.9744056547625549,0.2251714604437637,3
244,2024-09-26 22:35:58.209621760,TASK_BEGIN,020,-0.11422689232669131,0.27381486093033547,-4.807276776989501,1.0858291618655846,-1.4658587330443038,0.15316920898684036,-1.156420300059075,0.22692131611225358,3
245,2024-09-26 22:35:58.285559808,TASK_BEGIN,020,-0.10033446796655887,0.2752222516904325,-4.759697093162667,1.1042327204104199,-1.4308380291200073,0.14370993770363086,-1.3391995911747707,0.2318659211782303,3
246,2024-09-26 22:35:58.353362944,TASK_BEGIN,020,-0.08404590251759901,0.27508075309063806,-4.70676406688907,1.1113367161355798,-1.383453502254239,0.13093503598139364,-1.512138332745296,0.23964491497620224,3
247,2024-09-26 22:35:58.409814016,TASK_BEGIN,020,-0.06595750288148215,0.27342564094935407,-4.649516506668465,1.107035706103543,-1.32550376989658,0.11517750377386002,-1.6650000304880295,0.24967569964297562,3
248,2024-09-26 22:35:59.355560960,TASK_BEGIN,020,-0.046600835137326664,0.27029533223335866,-4.589357021574665,1.0918929378828768,-1.2591352496000157,0.09683570558059364,-1.7891048809194083,0.26125027121735717,3
249,2024-09-26 22:35:59.418046976,TASK_BEGIN,020,-0.026452276149357776,0.26572708716472054,-4.527869167977046,1.0670205473727432,-1.1865496615535855,0.07631481984249303,-1.878019596960962,0.27357600143642463,3
250,2024-09-26 22:35:59.500169984,TASK_BEGIN,020,-0.005918344277620591,0.2597495141271383,-4.466746816648202,1.03392173383709,-1.1097632005415987,0.05397895421094069,-1.9277713989799474,0.2857636889789331,3
251,2024-09-26 22:35:59.567939840,TASK_BEGIN,020,0.01468733198457405,0.25237846040269146,-4.407799375000974,0.9943566057167895,-1.0304687273637672,0.030127016754001763,-1.9368203232064531,0.29681130270031264,3
252,2024-09-26 22:35:59.635713024,TASK_BEGIN,020,0.035147180908586144,0.24362358205954154,-4.352955319559113,0.9502558162526185,-0.9500169582263536,0.004996074700707763,-1.9059049618679211,0.30562767947415387,3
253,2024-09-26 22:35:59.696177920,TASK_BEGIN,020,0.05531497080491503,0.23350738190850562,-4.304215273713838,0.9036570308502353,-0.8694866529232198,-0.021215417710421312,-1.837798895565281,0.31112859292577405,3
254,2024-09-26 22:35:59.762969856,TASK_BEGIN,020,0.07507833765208426,0.22208992348385703,-4.263526045149127,0.8566284761670432,-0.78978767152684,-0.04831734862721101,-1.7370246380446546,0.3123999057785162,3
255,2024-09-26 22:36:00.714555904,TASK_BEGIN,020,0.09432951080423001,0.20948799850620126,-4.232599235755288,0.8111785705557949,-0.7117537902935288,-0.07609977912094323,-1.6094785474263005,0.30885130716431086,3
256,2024-09-26 22:36:00.782391040,TASK_BEGIN,020,0.11295104233494582,0.19588315871811837,-4.212718810646578,0.7691699837592576,-0.6362191247365944,-0.10430868030692417,-1.4619063978861535,0.30027174514970945,3
257,2024-09-26 22:36:00.846801152,TASK_BEGIN,020,0.13080804683313524,0.1815215810838448,-4.204558172050115,0.7322375695814191,-0.5640872806060115,-0.1326260724364691,-1.3013760779563959,0.28677545845018076,3
258,2024-09-26 22:36:00.917954048,TASK_BEGIN,020,0.14773576396479277,0.16671007505012372,-4.20805025090773,0.7016998134322135,-0.49637658611340946,-0.16065976647026167,-1.135008239578069,0.2686990953211284,3
259,2024-09-26 22:36:00.971335936,TASK_BEGIN,020,0.1635162559108835,0.15180867958310992,-4.222349393634098,0.6784655762319634,-0.4342025210136421,-0.18794802494516777,-0.9700566496316962,0.24652532588676368,3
260,2024-09-26 22:36:01.049016832,TASK_BEGIN,020,0.17785316023597997,0.13721799482122193,-4.245837107156222,0.6629452240912284,-0.37867881610451,-0.21397847717145274,-0.8141870494000901,0.22088500233601518,3
261,2024-09-26 22:36:01.111145984,TASK_BEGIN,020,0.19037509115477383,0.12335905669742397,-4.276150867533753,0.6549870187097916,-0.3307615899335795,-0.23821667283458767,-0.6756639068827757,0.1926251695707506,3
262,2024-09-26 22:36:02.064645120,TASK_BEGIN,020,0.2006944087076493,0.11064409128661266,-4.310357111649486,0.6538824360654947,-0.2910925871664028,-0.2601384551567548,-0.5631726368543852,0.16286583008841052,3
263,2024-09-26 22:36:02.133049088,TASK_BEGIN,020,0.20850931624552665,0.09944043189337495,-4.3453366493660734,0.6584751673736515,-0.25989913051042973,-0.2792597228351768,-0.48519221382616895,0.1329816100353811,3
264,2024-09-26 22:36:02.187330048,TASK_BEGIN,020,0.2137027012079838,0.09003616794343962,-4.37823959748858,0.6673567427390703,-0.2369728580321712,-0.29516062410204225,-0.4490225313971179,0.10450210569001459,3
265,2024-09-26 22:36:02.268681216,TASK_BEGIN,020,0.216393245760676,0.08261721190229888,-4.406855763625989,0.6790912933565301,-0.2217024727179749,-0.3075074507253681,-0.4596383620748338,0.07895000269029695,3
266,2024-09-26 22:36:02.325715968,TASK_BEGIN,020,0.21692862887803052,0.07725888271245523,-4.429900480529203,0.692413242318284,-0.2131241899347728,-0.3160759764754071,-0.5186083180323403,0.05764581086508362,3
267,2024-09-26 22:36:02.402867968,TASK_BEGIN,020,0.2158463980802322,0.07392845951734668,-4.447218556210236,0.7063605443770936,-0.2099827880047838,-0.3207733450755138,-0.6233970839409017,0.04152454338134007,3
268,2024-09-26 22:36:02.464402944,TASK_BEGIN,020,0.21383218887298686,0.07249470791366505,-4.4597693898428,0.7203224787475965,-0.21082208064636568,-0.32165121726120904,-0.7673086278496226,0.03101282667244699,3
269,2024-09-26 22:36:03.389801984,TASK_BEGIN,020,0.2116791893909232,0.0727430354665418,-4.469262228946265,0.7340030717783473,-0.21411299615893079,-0.3189064971169688,-0.9401545015340893,0.026010197344173695,3
270,2024-09-26 22:36:03.444707072,TASK_BEGIN,020,0.210233546861468,0.07439573939089315,-4.477546870876311,0.7473312890705761,-0.21838986755008144,-0.3128721943982261,-1.1295502379138314,0.025996766341249717,3
271,2024-09-26 22:36:03.521933056,TASK_BEGIN,020,0.21031851764243473,0.07713568830979668,-4.486064394108266,0.7603600243088566,-0.22234570885616484,-0.30400353670805647,-1.3225275045875344,0.030223212334445335,3
272,2024-09-26 22:36:03.593313024,TASK_BEGIN,020,0.21264606460827487,0.08063077008611846,-4.49560100211701,0.7731769492962044,-0.2248707218826743,-0.2928628640419289,-1.506993055585896,0.0378830909192649,3
273,2024-09-26 22:36:03.660150016,TASK_BEGIN,020,0.21772627232561115,0.08455727084790877,-4.506384474603473,0.7858378964266491,-0.22507283343333678,-0.2801016674646918,-1.6726940942603794,0.04820591849279371,3
274,2024-09-26 22:36:03.721767936,TASK_BEGIN,020,0.22577906142078882,0.0886232211231723,-4.518412727138989,0.7983415803185072,-0.22233133808190933,-0.2664318263271616,-1.8116744420405946,0.06049232643549251,3
275,2024-09-26 22:36:03.785048064,TASK_BEGIN,020,0.23665777744999694,0.09259346800442878,-4.531816668270152,0.8106499020838972,-0.21639529663109316,-0.25257855820213915,-1.9183630855407579,0.07412280550059994,3
276,2024-09-26 22:36:04.734196992,TASK_BEGIN,020,0.24981163504160894,0.09631379042082143,-4.547023483661679,0.822710491797,-0.20748602498100394,-0.23921911515556668,-1.9893724628293084,0.08852660359854277,3
277,2024-09-26 22:36:04.796929024,TASK_BEGIN,020,0.2643189409804566,0.09972719478875378,-4.564615510453942,0.834427381964981,-0.19633786724666888,-0.2269244954769168,-2.0230788388668035,0.10309443965290135,3
278,2024-09-26 22:36:04.874917120,TASK_BEGIN,020,0.27899711704121877,0.1028769660501868,-4.585029030417558,0.8455840046757442,-0.1841354985410264,-0.21612204038155444,-2.0191732032621323,0.1170635622633283,3
279,2024-09-26 22:36:04.942708992,TASK_BEGIN,020,0.29256168944338307,0.10589466029497725,-4.608301327136465,0.8557733711808003,-0.17236032022138606,-0.20708493203045883,-1.9784039795546196,0.12943918362203485,3
280,2024-09-26 22:36:05.010550016,TASK_BEGIN,020,0.3037959104693378,0.10897326724619702,-4.6338930797710915,0.8643767884228758,-0.16259854206936739,-0.19994333568475117,-1.9025761958409155,0.1390080734096279,3
281,2024-09-26 22:36:05.075725056,TASK_BEGIN,020,0.31169682079973166,0.1123295443478921,-4.660501590208648,0.8705971009773225,-0.15636922246514148,-0.19470728826971026,-1.7946128990563794,0.14444669783401307,3
282,2024-09-26 22:36:05.137366016,TASK_BEGIN,020,0.31556479042268415,0.11616583749540539,-4.685879235287804,0.8735395076280201,-0.15500340498339776,-0.19129204358544147,-1.6583570404767303,0.14446649142288634,3
283,2024-09-26 22:36:06.089319168,TASK_BEGIN,020,0.31501899036695064,0.12064238223437487,-4.7067904746991465,0.8723330317032895,-0.15956842947844577,-0.1895415932998041,-1.497980650549052,0.13792965525163856,3
284,2024-09-26 22:36:06.157164032,TASK_BEGIN,020,0.3099556027985707,0.1258632504106804,-4.719232696948466,0.8662797089625209,-0.1708247293140192,-0.18925157303807533,-1.3172565023953182,0.12392846189398929,3
285,2024-09-26 22:36:06.213775872,TASK_BEGIN,020,0.30048181619159864,0.13187288811473344,-4.718925429223305,0.8550015239307307,-0.18921678515629153,-0.190193448234343,-1.119167816442611,0.10188629779464628,3
286,2024-09-26 22:36:06.292833024,TASK_BEGIN,020,0.2868465425817471,0.13866103314787584,-4.701903065632408,0.8385388572393428,-0.214894767189542,-0.19213691063365732,-0.906110090645311,0.07171612973917815,3
287,2024-09-26 22:36:06.360675072,TASK_BEGIN,020,0.2693777668300793,0.14617492195862855,-4.664964323131664,0.8173624512879644,-0.24774618014426875,-0.19486318785275394,-0.6805055931665847,0.033981743235725934,3
288,2024-09-26 22:36:06.413172224,TASK_BEGIN,020,0.2484343919430369,0.15433574149248772,-4.605845511919238,0.7922931146114512,-0.28741524663311746,-0.19816621042757812,-0.445479606373574,-0.010033371297969385,3
289,2024-09-26 22:36:06.490305024,TASK_BEGIN,020,0.22438039567778695,0.16305560519061185,-4.523178936109003,0.7643540208296573,-0.3333004179607282,-0.2018466953328307,-0.20534571239151464,-0.058396953569426556,3
290,2024-09-26 22:36:07.440001024,TASK_BEGIN,020,0.197592674293432,0.17225270068787846,-4.416383408207425,0.7345981915487022,-0.38453511725635786,-0.20570553825284887,0.034271689075571134,-0.10871804998064119,3
291,2024-09-26 22:36:07.502904832,TASK_BEGIN,020,0.16850773396605,0.18186258397609964,-4.285598627389648,0.7039586842078422,-0.4399735514845489,-0.20953712809661212,0.26677310312665753,-0.1584003454147598,3
292,2024-09-26 22:36:07.568077824,TASK_BEGIN,020,0.13768437498158775,0.19184400722617273,-4.1317093874425925,0.6731566572813775,-0.49821942865170954,-0.21311840726712633,0.4852660026202127,-0.20489012518178995,3
293,2024-09-26 22:36:07.643441920,TASK_BEGIN,020,0.10583696514757318,0.2021799587155382,-3.9564544608228154,0.6426756076297985,-0.5577274670469036,-0.21619290471364974,0.6832835501428162,-0.24585511842249197,3
294,2024-09-26 22:36:07.711229952,TASK_BEGIN,020,0.07380925118262062,0.21287556542120306,-3.7625736714731244,0.6127849173371835,-0.6169637481184955,-0.218457626639835,0.8552638306832892,-0.27927636675413897,3
295,2024-09-26 22:36:07.766413056,TASK_BEGIN,020,0.04249872947879027,0.22395284171268787,-3.553921677157916,0.5835937797494254,-0.6745653024008712,-0.21956294798915996,0.9967136268768085,-0.3034878206088255,3
296,2024-09-26 22:36:07.846896896,TASK_BEGIN,020,0.012767512552954947,0.2354413971304171,-3.3355114279836204,0.555133652994233,-0.7294365159269731,-0.21912982967116781,1.1041215713213113,-0.3171950347367412,3
297,2024-09-26 22:36:08.762113024,TASK_BEGIN,020,-0.01462902200816693,0.24736482731220982,-3.113502637819002,0.5274654531189853,-0.7807639672611109,-0.21678256229820217,1.1747441651280082,-0.31947373415334074,3
298,2024-09-26 22:36:08.823733760,TASK_BEGIN,020,-0.03908615323929305,0.25972307805039874,-2.895107155777158,0.5007849507392703,-0.8279807564364841,-0.21219030412416762,1.206487429219438,-0.3097588726461887,3
299,2024-09-26 22:36:08.885793024,TASK_BEGIN,020,-0.060177818333738496,0.27247343647692107,-2.6883194779337156,0.47550250229145286,-0.8707174548056401,-0.2051093137970819,1.198126154720615,-0.28786518796993826,3
300,2024-09-26 22:36:08.963901184,TASK_BEGIN,020,-0.07768969157143527,0.28551707813633287,-2.5014633950078027,0.4522953396866063,-0.9087475628999145,-0.19542234601754233,1.1498256536549147,-0.2540621007097723,3
301,2024-09-26 22:36:09.026245120,TASK_BEGIN,020,-0.09166482335188492,0.2986982797937532,-2.342648906788296,0.4321231279065881,-0.9419268368259042,-0.1831717993669866,1.0636060533599103,-0.209165414201334,3
302,2024-09-26 22:36:09.102948096,TASK_BEGIN,020,-0.10243839174497607,0.3118163945883013,-2.219158392904431,0.41617425972921024,-0.9701485492905216,-0.16857581461762058,0.9434351478189994,-0.15457530328280691,3
303,2024-09-26 22:36:09.164946944,TASK_BEGIN,020,-0.11062358473908276,0.324642904498761,-2.136713414825948,0.40572235108811,-0.9933453131127522,-0.15201694912843494,0.7949518726125872,-0.09220930637088616,3
304,2024-09-26 22:36:10.108649984,TASK_BEGIN,020,-0.11703512916537658,0.33693556812408276,-2.0987156197115193,0.40191697716632596,-1.0115414869083426,-0.1340049410345344,0.6250317854425692,-0.024325048350706893,3
305,2024-09-26 22:36:10.170787072,TASK_BEGIN,020,-0.1225721552534301,0.34844773695150016,-2.1056804791443624,0.4055660443275301,-1.0249251162086943,-0.1151240556784773,0.4413597735988305,0.04672147809160588,3
306,2024-09-26 22:36:10.248406016,TASK_BEGIN,020,-0.12808692963655707,0.35893522985088233,-2.155010554612713,0.4169640252390386,-1.0338915790791974,-0.09597714542040486,0.25199939389858317,0.11870251439944471,3
307,2024-09-26 22:36:10.318360064,TASK_BEGIN,020,-0.13425352029518098,0.36816370175058605,-2.2411592778503464,0.43579646568838837,-1.0390228824969343,-0.07713818448054598,0.064913618523004,0.18965414667808483,3
308,2024-09-26 22:36:10.386173952,TASK_BEGIN,020,-0.1414574309882705,0.3759196645441244,-2.3562148376850733,0.46113889975252437,-1.0410074320512752,-0.05912014013045184,-0.11245957449284845,0.2578874999795331,3
309,2024-09-26 22:36:10.454016768,TASK_BEGIN,020,-0.14974131937307542,0.3820272117077929,-2.4908749638723453,0.49156163360855737,-1.0405403088344582,-0.0423562617542283,-0.27342974310493645,0.32190675360112236,3
310,2024-09-26 22:36:10.510940160,TASK_BEGIN,020,-0.15882584025243665,0.38636749025144196,-2.6356561226062967,0.525322256174011,-1.0382412093361946,-0.027189654739545623,-0.4120952449617237,0.38030985016917623,3
311,2024-09-26 22:36:11.465209088,TASK_BEGIN,020,-0.1681870638562983,0.3888926447623537,-2.782086621503447,0.5605891024405173,-1.034611072313769,-0.013868872766073091,-0.5233830049521554,0.43174404810299777,3
312,2024-09-26 22:36:11.533051136,TASK_BEGIN,020,-0.1771578643552483,0.38962771999515544,-2.9236082786561153,0.5956242623785778,-1.0300348142385514,-0.0025494569697302022,-0.6032244547920228,0.474950458334796,3
313,2024-09-26 22:36:11.591736064,TASK_BEGIN,020,-0.18503990236645126,0.38866289049192493,-3.055950812258635,0.628879385706443,-1.024811170316836,0.006698956695078873,-0.6487970661623236,0.508874450124868,3
314,2024-09-26 22:36:11.668605952,TASK_BEGIN,020,-0.19122657897878065,0.3861435390989554,-3.1769363857234354,0.6590158572300012,-1.0191753638381895,0.013881690475899476,-0.6586306630987296,0.5327686349224139,3
315,2024-09-26 22:36:11.736419072,TASK_BEGIN,020,-0.1953200320011624,0.38226068808514074,-3.2859533245891073,0.6849032307307774,-1.0133026095590927,0.0190668515529196,-0.6324747938999962,0.5462210856220534,3
316,2024-09-26 22:36:11.791075072,TASK_BEGIN,020,-0.1972002160588824,0.3772369002716863,-3.3834182849081023,0.7056381395397758,-1.0073057985341582,0.022373966964535027,-0.571015142534936,0.5491071215112561,3
317,2024-09-26 22:36:11.869181952,TASK_BEGIN,020,-0.1970118380650826,0.37130264124030654,-3.4703844999113853,0.7205939481405611,-1.001233910825707,0.02396259285917027,-0.4756431545589317,0.5415302155145113,3
318,2024-09-26 22:36:12.806989056,TASK_BEGIN,020,-0.19507689367333578,0.36466560458189456,-3.5482995899341856,0.7294886791409612,-0.9950603632637153,0.02401648344769214,-0.3484572891781617,0.5238301911148266,3
319,2024-09-26 22:36:12.867364096,TASK_BEGIN,020,-0.19177468371392925,0.35748368405245423,-3.6188675863408455,0.7324376570812571,-0.9886573618751416,0.0227208475743002,-0.19252369067401423,0.4966790898339488,3
320,2024-09-26 22:36:12.944578816,TASK_BEGIN,020,-0.18742835937004534,0.34985196653131684,-3.683967942291265,0.7299566691473928,-0.9817777048313477,0.02023905337309535,-0.012252392058358715,0.4611960599523003,3
321,2024-09-26 22:36:13.016540160,TASK_BEGIN,020,-0.18221263223020567,0.3418040872870712,-3.745594330058607,0.7229156364181182,-0.9740756790844087,0.01670056363910903,0.186344961232788,0.41897871432668865,3
322,2024-09-26 22:36:13.069065216,TASK_BEGIN,020,-0.17608648468786922,0.3333207001489345,-3.8057547654503834,0.7124638966885458,-0.965175416395292,0.012206066485422551,0.39571579235738275,0.3720035859243225,3
323,2024-09-26 22:36:13.150540032,TASK_BEGIN,020,-0.16876266159185385,0.32434072527898333,-3.8662858727473575,0.6999342120270142,-0.9547560207724322,0.006844093738832046,0.6072028758174391,0.32242510624818854,3
324,2024-09-26 22:36:13.208163072,TASK_BEGIN,020,-0.15972265463825883,0.31477547833462083,-3.9286667821204064,0.6867352211250113,-0.9426086000968259,0.0007063260459019149,0.8117358868354907,0.2723451061129391,3
325,2024-09-26 22:36:14.138883072,TASK_BEGIN,020,-0.14827245272389847,0.30452487948096235,-3.9940001688415308,0.6742636734955209,-0.9286515268661496,-0.006107041898194462,1.0005351480826887,0.2236294716902257,3
326,2024-09-26 22:36:14.195404032,TASK_BEGIN,020,-0.1336355850443165,0.29349470776472664,-4.063212141940905,0.6638530532751445,-0.9129276403740547,-0.013489489026790454,1.1656135479386056,0.1778067682034994,3
327,2024-09-26 22:36:14.272262144,TASK_BEGIN,020,-0.11507998805199171,0.28161612390571633,-4.137319798012392,0.6567317883348163,-0.8956009176190018,-0.021330539412739182,1.3000707280991326,0.13602142650535345,3
328,2024-09-26 22:36:14.334749952,TASK_BEGIN,020,-0.09205727142746895,0.26886787032534665,-4.217475827304949,0.6539468350436587,-0.8769452428265504,-0.029515050816522715,1.398341849765513,0.09900379037914986,3
329,2024-09-26 22:36:14.396944128,TASK_BEGIN,020,-0.06432267400002334,0.2552978382145603,-4.3046038461488,0.6562411422007154,-0.8573204904389665,-0.03792156995207593,1.4564590186648168,0.06706812773220593,3
330,2024-09-26 22:36:14.477940992,TASK_BEGIN,020,-0.032015770847015596,0.241038871692002,-4.398765352612176,0.6639259633891239,-0.8371436836738836,-0.04642376340000207,1.4721843399008758,0.0401781525392655,3
331,2024-09-26 22:36:14.545762816,TASK_BEGIN,020,0.0043017281843381995,0.22631450915809878,-4.498566200469332,0.676801868537409,-0.8168646463103063,-0.05489630567051606,1.444917666714416,0.018081550060442746,3
332,2024-09-26 22:36:15.488882944,TASK_BEGIN,020,0.04364792817170921,0.21143231013933825,-4.600805836772878,0.6941511108356857,-0.7969593510840267,-0.0632218295815919,1.3755376042136747,0.0004535472639914861,3
333,2024-09-26 22:36:15.556724224,TASK_BEGIN,020,0.08465922512686161,0.19676652080692703,-4.700481452908221,0.7147987999243804,-0.7779516684041512,-0.07129399043297686,1.2664280681359465,-0.013025748110993593,3
334,2024-09-26 22:36:15.624535808,TASK_BEGIN,020,0.12566307197875193,0.18273651998884605,-4.791223771312267,0.7372329523113635,-0.7604483420656902,-0.07901440704448041,1.1216697271792633,-0.022678978853743013,3
335,2024-09-26 22:36:15.692332032,TASK_BEGIN,020,0.16478720251809414,0.1697861771166878,-4.8661296748700025,0.7597647413265797,-0.7451443859599917,-0.08628452181619997,0.9470535368270839,-0.02886227966221185,3
336,2024-09-26 22:36:15.760144896,TASK_BEGIN,020,0.20010997717951087,0.15836236533758058,-4.918844548030693,0.7807078120133502,-0.7327662154359889,-0.09299515466620116,0.7496458647361527,-0.0319389744837349,3
337,2024-09-26 22:36:15.813500928,TASK_BEGIN,020,0.22983515192741166,0.14888927956447637,-4.944695789224685,0.7985654209307801,-0.7239667960891252,-0.09901665395231592,0.5370380948547088,-0.03218506153082169,3
338,2024-09-26 22:36:15.895702016,TASK_BEGIN,020,0.25244223910105995,0.1417419669996942,-4.941652094433005,0.8122168873817156,-0.719223237852465,-0.10419073628422951,0.3166945921858644,-0.02969310359478692,3
339,2024-09-26 22:36:16.826152960,TASK_BEGIN,020,0.2667778565164598,0.13722532651758287,-4.9109172673353205,0.8210853426070167,-0.7187860887271581,-0.10832208556831142,0.0957081152836413,-0.024345567042217093,3
340,2024-09-26 22:36:16.904261888,TASK_BEGIN,020,0.27210917304409526,0.1355584996381588,-4.8570347894012365,0.8252595541933573,-0.7227061010702915,-0.1111674324512941,-0.11906965960686262,-0.015868781633673067,3
341,2024-09-26 22:36:16.974219008,TASK_BEGIN,020,0.26817597087698625,0.13686100570974125,-4.787405732049073,0.8255319384770058,-0.7309261813097297,-0.11242463303551031,-0.3208167049796147,-0.003919908402808118,3
342,2024-09-26 22:36:17.027718912,TASK_BEGIN,020,0.25523168410056984,0.1411428486272736,-4.711194692983013,0.8233074250037868,-0.7433876701111911,-0.11172929777326784,-0.5027579826183753,0.011846368677714759,3
343,2024-09-26 22:36:17.104914176,TASK_BEGIN,020,0.23402903929887822,0.1483061438063072,-4.637809330848784,0.8203672254925148,-0.760101869138315,-0.10866571187380733,-0.6585193188355604,0.03173776785800167,3
344,2024-09-26 22:36:17.177941248,TASK_BEGIN,020,0.20573153756587068,0.15816077501977036,-4.575362752266885,0.8185414156075395,-0.7811760073848706,-0.10279362525952314,-0.7826537887616217,0.05597213144263163,3
345,2024-09-26 22:36:17.245734912,TASK_BEGIN,020,0.17177925937204475,0.17044693479764322,-4.529532225470359,0.8193911066245572,-0.8068010981286475,-0.09368754646364313,-0.8710842879807207,0.08458076316630717,3
346,2024-09-26 22:36:18.184004096,TASK_BEGIN,020,0.13374935830178894,0.184855819331651,-4.502985683375279,0.8239810453922534,-0.8372002120540852,-0.08098199620945887,-0.9213940298913853,0.11728909609870253,3
347,2024-09-26 22:36:18.257425152,TASK_BEGIN,020,0.09323297462874,0.2010457950952591,-4.495323501813129,0.8327725340880215,-0.8725441158454366,-0.06441482481412365,-0.9330848286047302,0.15344387119625544,3
348,2024-09-26 22:36:18.325218048,TASK_BEGIN,020,0.05173663169816513,0.21865493270300704,-4.503443706158022,0.8456279250973341,-0.9128661271099849,-0.04386142897578306,-0.907835357389343,0.1920402359970016,3
349,2024-09-26 22:36:18.384439040,TASK_BEGIN,020,0.01061039321643755,0.23731058165324867,-4.5222119253183255,0.8618928695027886,-0.9580067980015349,-0.01935611231340609,-0.8495775495687972,0.2318336492790113,3
350,2024-09-26 22:36:18.447228928,TASK_BEGIN,020,-0.029002451702723163,0.2566373204543087,-4.5452134165926665,0.8805115832542934,-1.0075905325464052,0.008898546484063994,-0.764178854866203,0.2714749430614696,3
351,2024-09-26 22:36:18.525336832,TASK_BEGIN,020,-0.06620011371498537,0.27626573011157096,-4.565391918219822,0.9001477094999831,-1.0610223734592412,0.04053253145827048,-0.6587118050031422,0.30962104622896186,3
352,2024-09-26 22:36:18.596420096,TASK_BEGIN,020,-0.10033952886549422,0.2958434870776584,-4.575589302371237,0.9193175366842893,-1.117502437517089,0.075019936471223,-0.5405309729788478,0.3450177627200484,3
353,2024-09-26 22:36:19.514714880,TASK_BEGIN,020,-0.13103822331195358,0.3150489422183153,-4.569128362327793,0.9365499595726029,-1.176054479254253,0.11170078100189085,-0.41649320432569775,0.37657988402605175,3
354,2024-09-26 22:36:19.582590976,TASK_BEGIN,020,-0.158180336450192,0.33360808742985093,-4.540453461676618,0.9505503187266293,-1.2355594254285986,0.14981129250016217,-0.2925464489427955,0.4034813803618691,3
355,2024-09-26 22:36:19.636183040,TASK_BEGIN,020,-0.181935652946475,0.3513142183296575,-4.485626333617481,0.9603144867993305,-1.294803894547744,0.18852427275812983,-0.1736457395705512,0.4252289153644433,3
356,2024-09-26 22:36:19.713373696,TASK_BEGIN,020,-0.20275430777039324,0.3680423131857611,-4.402471746676666,0.9651666672045666,-1.352561202802905,0.227000515313284,-0.06377292148023284,0.441674778772643,3
357,2024-09-26 22:36:19.779272960,TASK_BEGIN,020,-0.22128757659162315,0.38374710114021526,-4.290399251375981,0.9647419687598487,-1.4076871632288956,0.2644430673017701,0.03415717182652008,0.452949871738498,3
358,2024-09-26 22:36:19.838665984,TASK_BEGIN,020,-0.23824103895821894,0.39844347773698735,-4.150132173479622,0.9589488081213677,-1.4591915819821069,0.3001414377122823,0.11858968656618599,0.4593325096351375,3
359,2024-09-26 22:36:19.915915008,TASK_BEGIN,020,-0.25422399772651316,0.41218000608028843,-3.9835808472873455,0.9479370242510022,-1.5062681236910147,0.3334993917947369,0.18969124501935214,0.46109311225703375,3
360,2024-09-26 22:36:20.856229120,TASK_BEGIN,020,-0.269653238962164,0.4250163384136567,-3.7939135250763134,0.9320780620861047,-1.5482839882942503,0.36404783640863336,0.24948066534283522,0.4583814829287907,3
361,2024-09-26 22:36:20.918790912,TASK_BEGIN,020,-0.28472044668307867,0.4370064097664424,-3.5856743513996143,0.9119407901200958,-1.584733120726138,0.3914456622518762,0.30151739292663154,0.4512298452881169,3
362,2024-09-26 22:36:21.000432896,TASK_BEGIN,020,-0.29940140736506987,0.4481843166055951,-3.3647768943745873,0.88825376289374,-1.615170898014335,0.41547068847084856,0.35021353882778333,0.43968136949715425,3
363,2024-09-26 22:36:21.058469120,TASK_BEGIN,020,-0.31348533915056276,0.45855118571355075,-3.138331956847518,0.8618693677024485,-1.6391650012194159,0.43600439034791777,0.39997285741693256,0.42396738710087956,3
364,2024-09-26 22:36:21.120954112,TASK_BEGIN,020,-0.3266081809976568,0.46806332640252646,-2.914358580084035,0.8337379082927368,-1.6562868822323904,0.4530147063448456,0.4542939825783489,0.4046453324906057,3
365,2024-09-26 22:36:21.198216704,TASK_BEGIN,020,-0.3382852946192345,0.47662471655917693,-2.7013869331143683,0.804875933140311,-1.666144142941925,0.46654039290288896,0.5149836227542024,0.38266079599942465,3
366,2024-09-26 22:36:21.271596032,TASK_BEGIN,020,-0.34796000882830813,0.4840897699708098,-2.5078916701611655,0.7763181355640506,-1.668440546417805,0.47667905894101653,0.581733691374661,0.35933028048556676,3
367,2024-09-26 22:36:22.212791040,TASK_BEGIN,020,-0.3550831443223379,0.49027973147316195,-2.3415883689330776,0.7490632828703355,-1.663042520653311,0.4835765747409908,0.6522231122252478,0.33625201376821484,3
368,2024-09-26 22:36:22.274390016,TASK_BEGIN,020,-0.359207062201964,0.4950086960420985,-2.2088215249326058,0.7240281522832501,-1.6500273229667188,0.48741247115691105,0.7225990712222781,0.3151773019531026,3
369,2024-09-26 22:36:22.335587840,TASK_BEGIN,020,-0.36005600569572677,0.49811084912039955,-2.114241636896802,0.7020117030253085,-1.629697216524148,0.4883807649165264,0.7880588325938558,0.2978868108549567,3
370,2024-09-26 22:36:22.418305024,TASK_BEGIN,020,-0.3575511835882793,0.4994626378613439,-2.0607020430326832,0.6836607771324487,-1.6025616954167599,0.48667279164932775,0.8434301169364947,0.2860852859356383,3
371,2024-09-26 22:36:22.474563072,TASK_BEGIN,020,-0.35180085661443367,0.49899739923874253,-2.049198567264166,0.6694302125559315,-1.569300496444303,0.48246871395079066,0.8837916448824451,0.2813019663974478,3
372,2024-09-26 22:36:22.552710912,TASK_BEGIN,020,-0.3430711841822587,0.4967106955736338,-2.0788571359154364,0.6595518823477889,-1.5307180116943049,0.4759377063185043,0.9050836415403601,0.28478995604753654,3
373,2024-09-26 22:36:22.615269120,TASK_BEGIN,020,-0.3317372975442404,0.492655143105368,-2.1471011957892774,0.6540428809923997,-1.4876972919107623,0.4672424614656593,0.9045560209475236,0.2974227179524024,3
374,2024-09-26 22:36:23.564935936,TASK_BEGIN,020,-0.3182138714454243,0.486927204811402,-2.2500021800562773,0.652762104581086,-1.441161724911456,0.4565450539454085,0.8809503640330113,0.31958539025212984,3
375,2024-09-26 22:36:23.618285824,TASK_BEGIN,020,-0.3028854297915859,0.47965223357664233,-2.382675176141694,0.6554881787909407,-1.3920419357435747,0.44401104876118,0.8344070422249795,0.351071616736067,3
376,2024-09-26 22:36:23.700652032,TASK_BEGIN,020,-0.2860649336710101,0.4709734461201446,-2.5395721734087777,0.6619694633544531,-1.3412377257787087,0.4298078430587311,0.7661622819245086,0.39101142409753253,3
377,2024-09-26 22:36:23.768436992,TASK_BEGIN,020,-0.2679841824607303,0.46104467909177027,-2.7145440098409064,0.6719034495508314,-1.2895809220992536,0.41409971516754807,0.6781843589273187,0.43785528732798384,3
378,2024-09-26 22:36:23.834040064,TASK_BEGIN,020,-0.2487923072168503,0.4500217535306732,-2.9006557485241387,0.684855977133081,-1.2378174193820335,0.397048031522503,0.5729438675282547,0.4894277708060991,3
379,2024-09-26 22:36:23.896087808,TASK_BEGIN,020,-0.22854639043882316,0.43804989141716005,-3.0899689900418674,0.7001874009210262,-1.1866075180235935,0.378819135652055,0.4534505280122004,0.5430487536725102,3
380,2024-09-26 22:36:23.958148864,TASK_BEGIN,020,-0.20720479365238884,0.4252514346098605,-3.273576840228021,0.7170406971944108,-1.1365240542583859,0.3595925859853535,0.32354361644421376,0.5957059218750831,3
381,2024-09-26 22:36:24.879430144,TASK_BEGIN,020,-0.18464563739171055,0.41172031817208227,-3.4419946807413533,0.7343890297899451,-1.0880390611836541,0.33956140459339357,0.18824524174124915,0.6442598180910505,3
382,2024-09-26 22:36:24.955746816,TASK_BEGIN,020,-0.16071825742613302,0.397525141051413,-3.5858128541493874,0.7511105106849816,-1.041514154562541,0.3189242884315989,0.05390812957038284,0.68566739904628,3
383,2024-09-26 22:36:25.018618112,TASK_BEGIN,020,-0.1353056940005804,0.38271719063516,-3.6964896187157246,0.7660692104351956,-0.9972155381275549,0.29787758689103777,-0.07199207617166958,0.7172063610335702,3
384,2024-09-26 22:36:25.093409280,TASK_BEGIN,020,-0.10836525841130552,0.3673393822913632,-3.767216222224413,0.7782014071062288,-0.9553561995812616,0.27661363542060957,-0.18142392226330367,0.7366786065687433,3
385,2024-09-26 22:36:25.157857024,TASK_BEGIN,020,-0.07993406578374965,0.3514350358731535,-3.793756056561188,0.786605597561812,-0.9161500876347445,0.25532553038160305,-0.2666638151721677,0.7425724740719465,3
386,2024-09-26 22:36:25.229025024,TASK_BEGIN,020,-0.0501076128996784,0.33505693839650746,-3.775076094441631,0.7906186756209922,-0.8798626997101999,0.2342154165919042,-0.32129424450355165,0.7341684931153276,3
387,2024-09-26 22:36:25.296824064,TASK_BEGIN,020,-0.01900333162877672,0.31827584542363024,-3.713586348910482,0.789857480820993,-0.8468477613526826,0.21350347733638025,-0.3410781427045196,0.7115886002305822,3
388,2024-09-26 22:36:26.240017920,TASK_BEGIN,020,0.013277885533494238,0.3011854921113216,-3.6148979244542985,0.7842188615314222,-0.817560923803013,0.19343391883944375,-0.3245177870479173,0.6757948107347106,3
389,2024-09-26 22:36:26.292389888,TASK_BEGIN,020,0.04667279552549366,0.28390222293593903,-3.4871471793893916,0.7738467379195813,-0.7925475015137763,0.17427424333321828,-0.27311172107587556,0.6285297295586596,3
390,2024-09-26 22:36:26.370016000,TASK_BEGIN,020,0.08114510530721994,0.26656054475425817,-3.3400576459458136,0.7590837116477239,-0.772411541677463,0.15630656002568014,-0.19144710571024562,0.5721889364627017,3
391,2024-09-26 22:36:26.432503040,TASK_BEGIN,020,0.11664492825185185,0.2493069068185387,-3.183946037521047,0.7404215447725719,-0.7577731513379107,0.1398109838746609,-0.0871341908512326,0.5096317827557253,3
392,2024-09-26 22:36:26.511274240,TASK_BEGIN,020,0.15304424351014706,0.23229451690411937,-3.0288257720252063,0.7184564750233488,-0.7492087984587773,0.12504182364491606,0.02966392526811798,0.44394487686740847,3
393,2024-09-26 22:36:26.579068160,TASK_BEGIN,020,0.1900500706000188,0.21568296095962852,-2.8837098436671815,0.6938570295375615,-0.7471604313980764,0.11220052842033773,0.1473524552517667,0.3781730992600615,3
394,2024-09-26 22:36:26.632018944,TASK_BEGIN,020,0.2271135536166469,0.19964258080377095,-2.7561837783609913,0.667357216175169,-0.7518122864146112,0.10141190782741455,0.2545389904186333,0.3150574698674655,3
395,2024-09-26 22:36:27.584039936,TASK_BEGIN,020,0.26338244802498306,0.1843565764099415,-2.6522496792550103,0.6397812884250029,-0.7629730582644108,0.09270923174082628,0.34165019971363414,0.2568554283200815,3
396,2024-09-26 22:36:27.657377024,TASK_BEGIN,020,0.2977398166506303,0.17001361383192137,-2.5763074980452347,0.6120777666717765,-0.7800298326668217,0.08603207512308937,0.4020063267888632,0.2053003135601327,3
397,2024-09-26 22:36:27.725189888,TASK_BEGIN,020,0.3289202354746435,0.15679212522018904,-2.5310536725770425,0.5853075262003958,-0.802009995394387,0.08123802667010943,0.4321831805320595,0.16166763953557903,3
398,2024-09-26 22:36:27.785520896,TASK_BEGIN,020,0.3556519841834936,0.1448445006870353,-2.5171950181184743,0.560541789999389,-0.827711758045917,0.07812411968342138,0.4318371429776316,0.1268496884833034,3
399,2024-09-26 22:36:27.847564032,TASK_BEGIN,020,0.3767820225782609,0.13428807345800983,-2.533090461442973,0.5386802691884526,-0.8558244783451993,0.07644997210739998,0.4032464029115388,0.10137519052481565,3
400,2024-09-26 22:36:27.924773888,TASK_BEGIN,020,0.39137047643743555,0.12520385768553327,-2.574520964372962,0.5202460486434841,-0.8850005958698627,0.07595698847539095,0.3506997128723061,0.08539280412950646,3
401,2024-09-26 22:36:27.996352000,TASK_BEGIN,020,0.39875741281800325,0.11763938907531167,-2.634777721682782,0.5052339333542541,-0.9139007976935511,0.0763832923445926,0.27978132097011404,0.07866842338474325,3
402,2024-09-26 22:36:28.939708928,TASK_BEGIN,020,0.3986093903968865,0.11161026649373831,-2.70523191962043,0.4930813395113782,-0.9412397937271901,0.07747504591884381,0.1966220719809246,0.08061892963285767,3
403,2024-09-26 22:36:28.994621184,TASK_BEGIN,020,0.390950109558977,0.10709673045740845,-2.776409445597699,0.482782790251484,-0.9658346805007157,0.07899343747186409,0.10720338760189194,0.09037694710664733,3
404,2024-09-26 22:36:29.071879936,TASK_BEGIN,020,0.37616987500042776,0.10403718595739396,-2.839342392243202,0.4731033898620598,-0.9866558854679767,0.08071883887824374,0.016806764448669742,0.10687258076002476,3
405,2024-09-26 22:36:29.133466112,TASK_BEGIN,020,0.35500567150455875,0.10232504266463849,-2.8868357690468387,0.4628143956381832,-1.0028810140098832,0.08245507349800699,-0.07026688663186363,0.12890301604053,3
406,2024-09-26 22:36:29.210742016,TASK_BEGIN,020,0.32848912203127156,0.10181328609163232,-2.914397593500675,0.45089060655472235,-1.0139269285395978,0.08403289117684277,-0.15068187477550105,0.1551624004211836,3
407,2024-09-26 22:36:29.273251072,TASK_BEGIN,020,0.2978682788892331,0.10232505971550493,-2.920731554780465,0.43664050713298197,-1.019436838115705,0.0853113422820938,-0.2219324620251826,0.18424975746644207,3
408,2024-09-26 22:36:29.335577856,TASK_BEGIN,020,0.2645227577072064,0.10366491943308132,-2.907688540940958,0.41975418404642684,-1.019247141233436,0.08618203372250985,-0.28221544847707014,0.21469255475053303,3
409,2024-09-26 22:36:30.264219904,TASK_BEGIN,020,0.22989313009965695,0.10562837654771172,-2.8795739067289063,0.40026194874867754,-1.0133750561185861,0.08657962452707543,-0.3302463210390387,0.24499084182759495,3
410,2024-09-26 22:36:30.320251904,TASK_BEGIN,020,0.1954201214897516,0.1080131468228734,-2.841914299321142,0.37842166130887284,-1.002021016807744,0.08648908331774768,-0.36504588042633823,0.2736775071788746,3
411,2024-09-26 22:36:30.399860224,TASK_BEGIN,020,0.16247252771609477,0.11063542282116182,-2.8000775429717404,0.35458627229398487,-0.9855428836614366,0.08593591088077214,-0.3858769307706043,0.29940225440911855,3
412,2024-09-26 22:36:30.467649024,TASK_BEGIN,020,0.1322660689556974,0.11334760442540671,-2.75823557890122,0.32911271240108,-0.9643793059949016,0.08495686486864669,-0.39235906194137743,0.32101711405066397,3
413,2024-09-26 22:36:30.535424000,TASK_BEGIN,020,0.10580426419767712,0.11604932148411427,-2.7189585668427636,0.30234441321130556,-0.9389443655720219,0.08356139259363869,-0.3846076929787771,0.3376054886615653,3
414,2024-09-26 22:36:30.597520128,TASK_BEGIN,020,0.08386771404679595,0.11868613898870897,-2.6833928271535994,0.27465620698408705,-0.9095485109273348,0.08170130671607818,-0.3632970913146744,0.3484283960342286,3
415,2024-09-26 22:36:30.659795968,TASK_BEGIN,020,0.06704758960290542,0.12123659066381541,-2.6517531610631204,0.2465208909440434,-0.8764008598614464,0.07926645735968257,-0.3296586284186881,0.3528376083988861,3
416,2024-09-26 22:36:31.601033984,TASK_BEGIN,020,0.055789362448266946,0.12369379790773821,-2.623840944771887,0.21855027214739617,-0.8397011341151146,0.07611011460286118,-0.28546426297161687,0.35024473012150953,3
417,2024-09-26 22:36:31.682043904,TASK_BEGIN,020,0.050408550850798636,0.12604974584313358,-2.599436898247661,0.19148854471489796,-0.7997762305433027,0.07208974013184404,-0.23303471908895051,0.3402066289782636,3
418,2024-09-26 22:36:31.749927936,TASK_BEGIN,020,0.05106343723311759,0.12828767048046835,-2.5785809500460775,0.16617756371493167,-0.7572063518269947,0.06710646558089571,-0.1752284288621733,0.32261435845252395,3
419,2024-09-26 22:36:31.803296000,TASK_BEGIN,020,0.0576971760019544,0.13038298224350997,-2.5617616965485235,0.14351829756643295,-0.7128946076206404,0.061134252627232266,-0.11527555835338572,0.29789009990284787,3
420,2024-09-26 22:36:31.885515008,TASK_BEGIN,020,0.06997832571991199,0.13230843811250373,-2.549939029752175,0.12441872519926242,-0.6680446504404111,0.05423342362500942,-0.05636273920503794,0.26706394637649733,3
421,2024-09-26 22:36:31.953270016,TASK_BEGIN,020,0.08726924206111712,0.13403901675453472,-2.5443687182684323,0.10971406937879839,-0.6240540722214715,0.046547410221022566,-0.00106354660957418,0.23167717017795522,3
422,2024-09-26 22:36:32.021075968,TASK_BEGIN,020,0.10863869396391145,0.13555522369303277,-2.546343561851083,0.10007618610892606,-0.5823774947323074,0.038288065858509295,0.049069900617348124,0.19359010179910774,3
423,2024-09-26 22:36:32.959474176,TASK_BEGIN,020,0.1329227366967594,0.13684403101107198,-2.5569472943458686,0.09593661655456505,-0.5444020104186884,0.029714493588026858,0.09345044300352877,0.15481416967680386,3
424,2024-09-26 22:36:33.032276992,TASK_BEGIN,020,0.15882505288209237,0.137896009782915,-2.5768226750934407,0.09743629946526731,-0.5113450532778672,0.021106643935954104,0.132011328263947,0.11739839177809946,3
425,2024-09-26 22:36:33.100083968,TASK_BEGIN,020,0.18503105166254766,0.13870005185285103,-2.606004383975841,0.1044133653103333,-0.48418989100437515,0.012738585961379438,0.16480348001635414,0.08331607360972727,3
426,2024-09-26 22:36:33.161178112,TASK_BEGIN,020,0.21031221456043353,0.13923879406775222,-2.6439182660296274,0.11642959637611129,-0.46367788082329126,0.004860133259716803,0.19197939539736059,0.05431147131808133,3
427,2024-09-26 22:36:33.222758912,TASK_BEGIN,020,0.2336206305692192,0.13948594431478614,-2.689533529126881,0.13282168379259945,-0.4503377435150215,-0.002311398533294103,0.2141693826183752,0.03171998804796963,3
428,2024-09-26 22:36:33.303512832,TASK_BEGIN,020,0.25417543873312143,0.13940666536420163,-2.7415499959902343,0.1527770966548743,-0.44450027188344854,-0.00859653615615389,0.23300382944374468,0.016306126021600517,3
429,2024-09-26 22:36:33.371232000,TASK_BEGIN,020,0.27151244093173166,0.13896427988541246,-2.7985772050674607,0.175446394619741,-0.44626526556986496,-0.013863622366855637,0.2514680846030722,0.008166910371845592,3
430,2024-09-26 22:36:34.314511872,TASK_BEGIN,020,0.2854576184693554,0.13813499592717496,-2.8593563611158075,0.20007018851173547,-0.45542652145586215,-0.01804598415551369,0.27387928462118927,0.006731199916663855,3
431,2024-09-26 22:36:34.382299904,TASK_BEGIN,020,0.2960287391703704,0.13692610361669333,-2.922976431661358,0.22605241117712602,-0.47138938183534446,-0.021162014604849223,0.30546050907520733,0.010858367634978067,3
432,2024-09-26 22:36:34.450084096,TASK_BEGIN,020,0.30332481599843736,0.13538815377295982,-2.9888851918058905,0.25292780068567755,-0.49312611928895383,-0.023326821832865278,0.35162668999264846,0.019012841410343,3
433,2024-09-26 22:36:34.507977984,TASK_BEGIN,020,0.30746430683636405,0.13361479407122084,-3.0566168145398738,0.28026127321572425,-0.5191970550103122,-0.024746155746335877,0.41713850386870127,0.02947495398018519,3
434,2024-09-26 22:36:34.585641984,TASK_BEGIN,020,0.30857934019749056,0.13173339993763614,-3.1254388993528157,0.30757604834401076,-0.5478342956252469,-0.025694730276762532,0.5052788354936834,0.04055194214108559,3
435,2024-09-26 22:36:34.653511936,TASK_BEGIN,020,0.3068284351633185,0.12989447641769877,-3.1941417351984245,0.33435517568278406,-0.5770750399662298,-0.02648691657541903,0.6172165997008403,0.05076292327797321,3
436,2024-09-26 22:36:34.721236992,TASK_BEGIN,020,0.3023955106049806,0.12826286505904425,-3.26098133098809,0.36008070945416687,-0.6049360130813131,-0.02744389863568528,0.7517224668620756,0.058976911944051066,3
437,2024-09-26 22:36:35.636500992,TASK_BEGIN,020,0.2954782409754185,0.12700745391450768,-3.3236977216588133,0.38426794601719594,-0.6296042399288306,-0.028858834560412036,0.9053263130953536,0.06448710496642086,3
438,2024-09-26 22:36:35.698533888,TASK_BEGIN,020,0.28628754220954605,0.1262872814245468,-3.3795863022366297,0.40648827116218994,-0.649591364481779,-0.030964214329012963,1.0728222305383779,0.06701705100130691,3
439,2024-09-26 22:36:35.775227136,TASK_BEGIN,020,0.2750646007848384,0.12623770059705652,-3.4256722355515037,0.42639755340714763,-0.6638060982737383,-0.033907112788528634,1.247834877507636,0.06667985951676075,3
440,2024-09-26 22:36:35.839683072,TASK_BEGIN,020,0.2621003326665673,0.1269613956472446,-3.459084644969557,0.4437893263058881,-0.6715471669713697,-0.037736392891021917,1.423182476221556,0.0639291899633583,3
441,2024-09-26 22:36:35.900083968,TASK_BEGIN,020,0.24774274596968754,0.12852350428128886,-3.4776496782971833,0.45866901698936857,-0.6724590949132891,-0.0424037868264044,1.5910319575125582,0.059525165493114214,3
442,2024-09-26 22:36:35.978583040,TASK_BEGIN,020,0.23239128373640336,0.1309464673851373,-3.480546203284299,0.4713162188919704,-0.6664911947035652,-0.04777809283692573,1.74307904028402,0.05450059633875641,3
443,2024-09-26 22:36:36.040157952,TASK_BEGIN,020,0.21648463205744384,0.13420439511356913,-3.468782132357232,0.48229989988738853,-0.6538724563380298,-0.05366807121834394,1.8709971297800785,0.050084589367699286,3
444,2024-09-26 22:36:36.989715968,TASK_BEGIN,020,0.20049061384715947,0.13822153991931413,-3.445294621292704,0.49242772685059644,-0.6350969136680783,-0.05984777420308703,1.9671890193869914,0.047555773958594276,3
445,2024-09-26 22:36:37.057568000,TASK_BEGIN,020,0.18490718775146198,0.14287664785847884,-3.4146009462421882,0.5026281583011486,-0.6109153912605205,-0.06607973739568901,2.0256049007047103,0.048057466872263165,3
446,2024-09-26 22:36:37.123410944,TASK_BEGIN,020,0.17027774611316812,0.14800860241548894,-3.3821193179222764,0.5137942189767608,-0.5823299458176313,-0.07213429261422045,2.042296074180731,0.052442838515938645,3
447,2024-09-26 22:36:37.193093888,TASK_BEGIN,020,0.15721160625209174,0.1534184105099327,-3.3534547078889916,0.5266523557117644,-0.5505740204738299,-0.07780439680403534,2.0155343285739207,0.061184802953322896,3
448,2024-09-26 22:36:37.247844864,TASK_BEGIN,020,0.1463865364827741,0.15886979318515204,-3.333932616342994,0.5417165987729319,-0.5170580789652494,-0.08291585798411699,1.94558454630029,0.07434114864833391,3
449,2024-09-26 22:36:37.324332032,TASK_BEGIN,020,0.13850613563868036,0.16409658480173708,-3.3284112576141376,0.55933318364652,-0.48328343372527477,-0.08733521186652227,1.834329293957619,0.0915670120248966,3
450,2024-09-26 22:36:37.386818816,TASK_BEGIN,020,0.1342025366911638,0.16882185144936693,-3.341126493131881,0.5797583055215414,-0.45074518085154136,-0.09097859007380198,1.6848328445717022,0.11218588032706851,3
451,2024-09-26 22:36:38.333523968,TASK_BEGIN,020,0.13390567817327925,0.1727848538086488,-3.3753246346943016,0.6031967175360474,-0.4208403338032417,-0.0938202710604087,1.5008493039579118,0.13531332764629142,3
452,2024-09-26 22:36:38.394663936,TASK_BEGIN,020,0.1377238650972979,0.17576681950956236,-3.4327174464485086,0.629763544592236,-0.3947901153547077,-0.09589503161182632,1.2863775365854415,0.15998851282384866,3
453,2024-09-26 22:36:38.472187904,TASK_BEGIN,020,0.14538148319312388,0.17760810283512637,-3.513025451469687,0.6593761184844682,-0.37357743368998375,-0.0972915300744372,1.0454042318375267,0.1852750051748151,3
454,2024-09-26 22:36:38.534838016,TASK_BEGIN,020,0.15623423856829313,0.17821484133871676,-3.61379712036285,0.691607255910579,-0.3578851451532944,-0.0981403948967129,0.7818568562033752,0.21033665669815707,3
455,2024-09-26 22:36:38.610507008,TASK_BEGIN,020,0.16934691984331635,0.17755836474380282,-3.7304370249427907,0.7255387123508696,-0.34802470981994144,-0.09860199729504145,0.4997137190315563,0.23449517080293833,3
456,2024-09-26 22:36:38.678242048,TASK_BEGIN,020,0.1836038956883602,0.17567145569193743,-3.8563150393478156,0.7596618246373146,-0.343882708254128,-0.09885454582007969,0.20322435263577718,0.2572440440755249,3
457,2024-09-26 22:36:38.735129088,TASK_BEGIN,020,0.19783634364583724,0.172641105217114,-3.983003789488762,0.7918776661975466,-0.3449401979935052,-0.0990800238867295,-0.10280298339106198,0.27820178169920945,3
458,2024-09-26 22:36:39.674189824,TASK_BEGIN,020,0.21096093902610588,0.16859379745280692,-4.100789373707265,0.8196309185097225,-0.3503808518607145,-0.09944893651466279,-0.41264139273530986,0.29701710753888505,3
459,2024-09-26 22:36:39.753475840,TASK_BEGIN,020,0.22210760060682394,0.16367391746865767,-4.199506341354571,0.8401706349125142,-0.35922623186611774,-0.10010888334986039,-0.7191639645282814,0.31324267885573914,3
460,2024-09-26 22:36:39.824891136,TASK_BEGIN,020,0.23070035392218852,0.15802303168984277,-4.269586001652223,0.8508827119342821,-0.37042498850656536,-0.10117739161773705,-1.0133571656015847,0.3262028503630037,3
461,2024-09-26 22:36:39.877788160,TASK_BEGIN,020,0.23647835865825056,0.15176701142792887,-4.3030589338798775,0.8496069177354965,-0.38289528648102933,-0.10273341840555894,-1.2842191664277613,0.3349135039227135,3
462,2024-09-26 22:36:39.960505088,TASK_BEGIN,020,0.23947075388340247,0.1450129846863747,-4.294226488945383,0.8348646182725228,-0.39556693011057326,-0.10480667842610185,-1.5193606887102313,0.3381056460452681,3
463,2024-09-26 22:36:40.017437952,TASK_BEGIN,020,0.2399405169305996,0.13785545160833143,-4.239888865585267,0.8059733006016018,-0.4074423952640703,-0.10737036991790912,-1.7061637687911126,0.33434136215184485,3
464,2024-09-26 22:36:40.095068160,TASK_BEGIN,020,0.2383151115408135,0.13038684973638512,-4.139236220256316,0.7630667385604962,-0.4176651555134775,-0.11033839637141729,-1.8330359835010017,0.3221683141456523,3
465,2024-09-26 22:36:41.000647936,TASK_BEGIN,020,0.23512605343770707,0.1227048159933711,-3.9936181945778295,0.7070590407775761,-0.42558704783572415,-0.11356317726048581,-1.8904013217877456,0.30027351461961554,3
466,2024-09-26 22:36:41.081545216,TASK_BEGIN,020,0.2309617897741871,0.11491366426654688,-3.8064098709266334,0.6395915479889114,-0.43083052301867664,-0.11683416736158334,-1.871371340724068,0.2676271579778858,3
467,2024-09-26 22:36:41.139863040,TASK_BEGIN,020,0.22641992721901258,0.10712490352004919,-3.583038786403152,0.5629727288702217,-0.4333359837347068,-0.11988031574272152,-1.7722433023223225,0.22362286843556478,3
468,2024-09-26 22:36:41.217053952,TASK_BEGIN,020,0.22205164295734908,0.09946148079918854,-3.3309772348222366,0.4800844087760892,-0.4333836456264385,-0.12237731329010218,-1.5929515957045972,0.1682191840390473,3
469,2024-09-26 22:36:41.282929920,TASK_BEGIN,020,0.21831126589222416,0.09206421814982994,-3.059454629873659,0.39423373214143376,-0.43158269644921665,-0.12395967596069071,-1.3375120021706084,0.10208151618393582,3
470,2024-09-26 22:36:41.341404160,TASK_BEGIN,020,0.21553488461150305,0.08509362555057778,-2.778908433218046,0.3089712201316378,-0.42882647632831083,-0.1242384750777296,-1.0144612505325636,0.026721754193390283,3
471,2024-09-26 22:36:41.418562048,TASK_BEGIN,020,0.2139563759581961,0.07872244587486345,-2.5004247315860737,0.22791733337123365,-0.426221332557708,-0.12282429597472502,-0.6371392608373841,-0.05539081892750554,3
472,2024-09-26 22:36:42.360191232,TASK_BEGIN,020,0.21373646963981993,0.07312283759522435,-2.2353202533072367,0.15461590174455955,-0.42500493173391796,-0.1193526658932659,-0.22344342269639197,-0.1408152103249492,3
473,2024-09-26 22:36:42.431804928,TASK_BEGIN,020,0.21496969628201623,0.06845679065727064,-1.9947539522363815,0.09238994785912599,-0.4264700374729323,-0.11350734949797446,0.20526097124523074,-0.22529336606743877,3
474,2024-09-26 22:36:42.499407872,TASK_BEGIN,020,0.21766500563394153,0.06487332149846828,-1.78921859129646,0.044177618544296714,-0.4318913508661863,-0.10503870825244814,0.6260382441445314,-0.30409207319706405,3
475,2024-09-26 22:36:42.561430784,TASK_BEGIN,020,0.22173167529238255,0.06250808367786015,-1.6279225075369321,0.012367964513383109,-0.4424356113229656,-0.09377931350043076,1.0167182716103886,-0.3724795544471785,3
476,2024-09-26 22:36:42.635153152,TASK_BEGIN,020,0.22699499304195725,0.061480125503932025,-1.5180894879771103,-0.0013448484160095814,-0.45904933686527183,-0.07965913685039493,1.358201172048711,-0.42624254838303305,3
477,2024-09-26 22:36:42.702940928,TASK_BEGIN,020,0.23322860372737297,0.06188629618441183,-1.4641340491607397,0.0038909283248331475,-0.48234241237703757,-0.06271675313867701,1.6363168372985313,-0.4621432342762153,3
478,2024-09-26 22:36:42.763565824,TASK_BEGIN,020,0.24017543170000777,0.06379691931904573,-1.4667678170738632,0.02792359171801739,-0.5124900822684056,-0.0431010655283418,1.8429281512373359,-0.478231061477711,3
479,2024-09-26 22:36:43.708861184,TASK_BEGIN,020,0.24755092050081728,0.06725346738758864,-1.5222882343402322,0.06946739968266402,-0.5491717824190457,-0.021064097561267522,1.9761443739745665,-0.4739570860359979,3
480,2024-09-26 22:36:43.779474176,TASK_BEGIN,020,0.25504492253281297,0.07226759447415232,-1.6224212312121569,0.1260802181832498,-0.5915581617412389,0.003048978481825181,2.0396852584689977,-0.4500791965217425,3
481,2024-09-26 22:36:43.842748160,TASK_BEGIN,020,0.26233526248145767,0.07882346464890753,-1.7550444851290155,0.19430330993452843,-0.6383436200433323,0.02880873959445977,2.041551596350079,-0.40839976166701597,3
482,2024-09-26 22:36:43.917277184,TASK_BEGIN,020,0.26910733044389235,0.08688477380389545,-1.9058150020600708,0.2699557027440203,-0.6878161908763939,0.055712248288460456,1.992347378416958,-0.35144396950856166,3
483,2024-09-26 22:36:43.981498112,TASK_BEGIN,020,0.2750595311199206,0.09640354426105925,-2.0602956494411617,0.34852690184526997,-0.7379662068538662,0.08320171928886745,1.9037523517054373,-0.2822016871632926,3
484,2024-09-26 22:36:44.043499008,TASK_BEGIN,020,0.279879829576796,0.10732575597878549,-2.2059606257211994,0.42559379639437533,-0.7866383041096934,0.11069400354052693,1.7874821503012186,-0.20396891563395048,3
485,2024-09-26 22:36:44.120181760,TASK_BEGIN,020,0.28320751322840315,0.11959024336499936,-2.3335822936555872,0.4971805397386589,-0.8317161161947002,0.13761629921885335,1.6547000081251286,-0.12022293516871162,3
486,2024-09-26 22:36:45.051749888,TASK_BEGIN,020,0.284612343522633,0.13312043340209345,-2.437796551819808,0.5599999476428941,-0.8713124966985895,0.16343777331740547,1.5155989025236525,-0.034460112001208645,3
487,2024-09-26 22:36:45.129547008,TASK_BEGIN,020,0.2836047427576087,0.14781205105494485,-2.5168895067824093,0.6115731344476575,-0.9039339959458245,0.18768877309706392,1.3789309697981667,0.04999812591600354,3
488,2024-09-26 22:36:45.200787968,TASK_BEGIN,020,0.2796751307531875,0.16351985068094776,-2.5719614360740826,0.6502650034293865,-0.9285908916829149,0.2099666384891698,1.2515390431917857,0.13017151687223882,3
489,2024-09-26 22:36:45.268563968,TASK_BEGIN,020,0.27237087155141393,0.1800437015805661,-2.6057420479598883,0.6752754528251929,-0.94483474130946,0.22993377033888224,1.1381335018530747,0.2035207934154782,3
490,2024-09-26 22:36:45.332799744,TASK_BEGIN,020,0.2614027963669838,0.19711729275942722,-2.6214856824126205,0.6866244793470985,-0.9527294651023555,0.24731663070100418,1.041439144892868,0.2679873377489353,3
491,2024-09-26 22:36:45.393741056,TASK_BEGIN,020,0.2467263639888735,0.21440902235395332,-2.622297317870272,0.6851468046032771,-0.9527815234021066,0.2619111413135937,0.9625698121767745,0.32199343750092385,3
492,2024-09-26 22:36:45.470916096,TASK_BEGIN,020,0.2285463580778538,0.2315407903708268,-2.610879820076123,0.672452812481066,-0.945855714812531,0.2735925025227087,0.9013623161086725,0.3644245649639336,3
493,2024-09-26 22:36:46.412464128,TASK_BEGIN,020,0.2072530853990417,0.24811777193574386,-2.589462451171791,0.6507919957248787,-0.9330932683414281,0.2823228396210025,0.8564974901747031,0.3946190699292937,3
494,2024-09-26 22:36:46.483644160,TASK_BEGIN,020,0.18333463476862583,0.2637563964677292,-2.559788065979261,0.6228165206390034,-0.9158337423113668,0.28815064248078304,0.8254301337427623,0.4123777506837197,3
495,2024-09-26 22:36:46.536998912,TASK_BEGIN,020,0.15730477573598997,0.27810320365202196,-2.5231979976885817,0.5913100592291749,-0.895524307805626,0.2911990796111714,0.804327671731478,0.417972891391347,3
496,2024-09-26 22:36:46.619248896,TASK_BEGIN,020,0.1296632050358885,0.2908460635325765,-2.4808325276207803,0.5589520503364396,-0.8735941622539831,0.2916443370845639,0.7883005260368161,0.41211855542663883,3
497,2024-09-26 22:36:46.675502848,TASK_BEGIN,020,0.100880652577446,0.3017232560656554,-2.433892947644076,0.5281523728309634,-0.8513046842921204,0.2896912618134115,0.7720324984926384,0.3958902338864473,3
498,2024-09-26 22:36:46.754812928,TASK_BEGIN,020,0.07140373856884402,0.3105315312637612,-2.3838947307696765,0.500957552573808,-0.8296386612342455,0.28555915566047463,0.7505530545762706,0.3706315097290247,3
499,2024-09-26 22:36:46.822628864,TASK_BEGIN,020,0.0416929597646849,0.31712836192523425,-2.332839819866343,0.4790095059685419,-0.8092863753272853,0.2794865177271653,0.7197654218918672,0.3379010730759051,3
500,2024-09-26 22:36:47.728056832,TASK_BEGIN,020,0.012292915429138034,0.32142586902794024,-2.283240770095753,0.4635311886876502,-0.7907180752486378,0.27175067320054813,0.6766083259573905,0.2994686470174837,3
501,2024-09-26 22:36:47.805711872,TASK_BEGIN,020,-0.016100579494999524,0.3233803341956671,-2.2379899652121065,0.4553214509567445,-0.7742873651450534,0.26268953214776447,0.6190270433524364,0.2573131655449041,3
502,2024-09-26 22:36:47.874931968,TASK_BEGIN,020,-0.04261909420967366,0.3229834452968312,-2.200162171127358,0.45475842256903454,-0.7603105420841705,0.25271197966587006,0.5459591935394068,0.21357946332371702,3
503,2024-09-26 22:36:47.930708992,TASK_BEGIN,020,-0.06627207555542876,0.32026052268321015,-2.172832290230556,0.46181427490482285,-0.7490834616151965,0.24228755847018346,0.45740526259402586,0.17048924836505402,3
504,2024-09-26 22:36:48.010553856,TASK_BEGIN,020,-0.08606927039081065,0.3152781601851254,-2.1588663028202277,0.4760704331009967,-0.7408391214174092,0.2319171592148869,0.3545806043783684,0.13020896912240562,3
505,2024-09-26 22:36:48.078300928,TASK_BEGIN,020,-0.1011789866356177,0.30815842312270686,-2.1605917419704865,0.4967266811110615,-0.7356958014414682,0.22209790370013324,0.24008838855940462,0.09467551051486954,3
506,2024-09-26 22:36:48.146115072,TASK_BEGIN,020,-0.11106551336456527,0.2990926085484536,-2.1793524689450714,0.5226283830744148,-0.733639960138833,0.21329382443024003,0.11791217119559931,0.06542394901434603,3
507,2024-09-26 22:36:49.084058112,TASK_BEGIN,020,-0.11556639593805354,0.2883470365720304,-2.2150564811438582,0.5523413791360833,-0.7345458692515903,0.20591306738591927,-0.006968514912924904,0.0434873343031949,3
508,2024-09-26 22:36:49.157200128,TASK_BEGIN,020,-0.11490497680266214,0.2762565668598386,-2.265835938250069,0.5842575458218676,-0.7382125295729148,0.20028684381815245,-0.12923956072450518,0.029382094780878623,3
509,2024-09-26 22:36:49.223751936,TASK_BEGIN,020,-0.1096502838048175,0.2632066851343095,-2.3279352808215403,0.6166821187022439,-0.7443988398511022,0.1966477530059843,-0.24385641968038874,0.02313262021410343,3
510,2024-09-26 22:36:49.292743936,TASK_BEGIN,020,-0.10063024822024008,0.24960755086326905,-2.3959728813449486,0.647895958659874,-0.7528432526722284,0.19511041374517732,-0.3463796498558191,0.024303054327185016,3
511,2024-09-26 22:36:49.360559104,TASK_BEGIN,020,-0.08880664568149797,0.23586440545354206,-2.4636559623718814,0.6762377209464043,-0.7632696671083866,0.19566253342062698,-0.4330658753665262,0.032040165342129494,3
512,2024-09-26 22:36:49.424979968,TASK_BEGIN,020,-0.07514384725871767,0.22235122098591684,-2.524830997065794,0.7002299367102993,-0.7753943024221595,0.19817393938655725,-0.5008211764752879,0.045132705913035975,3
513,2024-09-26 22:36:49.496134144,TASK_BEGIN,020,-0.060512318742863114,0.2093938910348616,-2.57459816992436,0.7187180524539623,-0.7889361867641018,0.20242166096678485,-0.5471172727517714,0.06208400079498102,3
514,2024-09-26 22:36:50.426247936,TASK_BEGIN,020,-0.04564054473699355,0.19726363115614629,-2.610190663031104,0.7309767961146311,-0.80361225627068,0.2081199929405079,-0.5699181270472723,0.08119547944597111,3
515,2024-09-26 22:36:50.507329792,TASK_BEGIN,020,-0.031097590917264595,0.18617636895567388,-2.631376219177229,0.7367582390082533,-0.8191062691544051,0.2149459972373434,-0.5675931894547545,0.1006649687154526,3
516,2024-09-26 22:36:50.573752064,TASK_BEGIN,020,-0.017280949637797655,0.17629251085649728,-2.640307453483257,0.7362773200516444,-0.8350435677538945,0.222559708835569,-0.5388518078392432,0.11871385472222878,3
517,2024-09-26 22:36:50.642894080,TASK_BEGIN,020,-0.004397164139461018,0.16771336634144512,-2.640960814341346,0.7301492199289791,-0.8510257691780885,0.23062392284862762,-0.48284340725759173,0.13374761915913133,3
518,2024-09-26 22:36:50.710711808,TASK_BEGIN,020,0.007549028006662458,0.16047740690509651,-2.638382681841314,0.7193024609863341,-0.8667284935383416,0.23882600757316086,-0.39947756287583636,0.14451135003402413,3
519,2024-09-26 22:36:50.767003904,TASK_BEGIN,020,0.018718893829629803,0.1545658832381064,-2.637915021274407,0.7048835427330895,-0.8819866616215885,0.24689575544245795,-0.28981322327709064,0.15018230841159394,3
520,2024-09-26 22:36:50.846298880,TASK_BEGIN,020,0.02934398160461875,0.14992233174756744,-2.6445110492936785,0.6881570157785591,-0.8967856302358641,0.25460708991001707,-0.15630888384181663,0.1503828018979655,3
521,2024-09-26 22:36:51.764556800,TASK_BEGIN,020,0.03961239681957739,0.14647888314122945,-2.6621728203547663,0.6704007048962374,-0.9111514988625437,0.2617565769080371,-0.002844535085269104,0.14514736327635533,3
522,2024-09-26 22:36:51.832039936,TASK_BEGIN,020,0.04959518075548738,0.1441788114169613,-2.6934828713606285,0.652796626245511,-0.9250003419144553,0.26812580460292923,0.1654039364410466,0.13488879038009535,3
523,2024-09-26 22:36:51.899866880,TASK_BEGIN,020,0.059233318555387666,0.14299010849689034,-2.7392309607053016,0.6363256031570913,-0.9380094971873711,0.27344558299040017,0.3421318973424961,0.12037575341066277,3
524,2024-09-26 22:36:51.967982848,TASK_BEGIN,020,0.06835833246729796,0.14291028575532158,-2.798178041308205,0.6216800382344315,-0.9495495923615292,0.2773806737095675,0.5201881473026079,0.10268827794374226,3
525,2024-09-26 22:36:52.035802112,TASK_BEGIN,020,0.0767084174536008,0.14396390884536595,-2.867004561431286,0.6092040014489933,-0.9587016549167618,0.27954530885356155,0.6921663195744885,0.08310253506585065,3
526,2024-09-26 22:36:52.103624960,TASK_BEGIN,020,0.08394008984716486,0.1461918703039913,-2.940540872112093,0.5988709590921708,-0.9643639430822933,0.27954493327034696,0.8513498133555109,0.06289320461565519,3
527,2024-09-26 22:36:52.163100160,TASK_BEGIN,020,0.08966505372399025,0.14963088351948467,-3.0123635878821116,0.5903180521017408,-0.9654149522371928,0.2770267990659048,0.9927438705045855,0.04310716836188401,3
528,2024-09-26 22:36:53.114614016,TASK_BEGIN,020,0.09351174685296046,0.15428776094494387,-3.0756137548118843,0.5829366690096732,-0.9608680276424211,0.2717216054687839,1.1137661640400311,0.024397665805858434,3
529,2024-09-26 22:36:53.168111104,TASK_BEGIN,020,0.09517123615687141,0.1601180069423174,-3.123723125133517,0.5759857528861708,-0.9499622480256951,0.26346877576035793,1.2143628570195766,0.006968192312281784,3
530,2024-09-26 22:36:53.246216192,TASK_BEGIN,020,0.09440471564323213,0.16701385329516077,-3.150915489154552,0.5687005438828505,-0.9321831796894191,0.25222774338228904,1.2966244463011598,-0.00938448041313375,3
531,2024-09-26 22:36:53.317974016,TASK_BEGIN,020,0.0910358472948697,0.174799966876327,-3.1526217193506887,0.5604033132425524,-0.9072495514430988,0.23808066854108642,1.3640535348698999,-0.025145892856110855,3
532,2024-09-26 22:36:53.385487104,TASK_BEGIN,020,0.08496062973100042,0.18323517566038228,-3.125909493036775,0.5506193022780901,-0.8751041167596778,0.22123090921077224,1.4206143076637263,-0.04089296122302497,3
533,2024-09-26 22:36:53.447522048,TASK_BEGIN,020,0.07618042494948662,0.19202228393829499,-3.069795728248716,0.5391624206633912,-0.8359294994329682,0.20199943996492883,1.4698020871107966,-0.057092470235670656,3
534,2024-09-26 22:36:53.509588992,TASK_BEGIN,020,0.06484459385722123,0.2008274371341531,-2.985259691019883,0.5261491049156465,-0.7901998531175475,0.1808201964554096,1.514048928730556,-0.0739697413285604,3
535,2024-09-26 22:36:54.452861184,TASK_BEGIN,020,0.05129181504105509,0.209305432676834,-2.8749189369260275,0.5119348561786252,-0.7387629514609124,0.15823324446893078,1.5545729582141024,-0.09147745017464079,3
536,2024-09-26 22:36:54.532548864,TASK_BEGIN,020,0.0360804169599294,0.21712488418081963,-2.7424648239373863,0.4969989787465523,-0.68290660791769,0.13486842368650676,1.5914591790817387,-0.10933025117302864,3
537,2024-09-26 22:36:54.591149824,TASK_BEGIN,020,0.019991484666680784,0.2239904627370563,-2.5920328254408367,0.48181246723898163,-0.6243487207107032,0.1114116935147025,1.6237317636192692,-0.12706515038203095,3
538,2024-09-26 22:36:54.661217024,TASK_BEGIN,020,0.003995097126914181,0.22966202657819573,-2.4277142045135522,0.4667249559872557,-0.5651441110275998,0.08855851744223636,1.649452739427679,-0.14411477074160195,3
539,2024-09-26 22:36:54.730769920,TASK_BEGIN,020,-0.010809559705476922,0.23396784499481096,-2.2533656109646714,0.45190432694647237,-0.5075474953307961,0.06696561034778771,1.6660657114474737,-0.1598917068069336,3
540,2024-09-26 22:36:54.793360128,TASK_BEGIN,020,-0.0232586652064204,0.23680678994667315,-2.072681864085499,0.4373363327697343,-0.4538556705464826,0.04720602130290876,1.6710049861953507,-0.17386883070094047,3
541,2024-09-26 22:36:54.871438848,TASK_BEGIN,020,-0.03218056750854803,0.23813799876619096,-1.8892764705628218,0.42284649848347167,-0.4062351266542552,0.029728687905473134,1.6622483428190797,-0.18562901078984936,3
542,2024-09-26 22:36:55.814075904,TASK_BEGIN,020,-0.03645653349838773,0.23796470506245845,-1.7065866768361502,0.4081102286868263,-0.3665531323655214,0.014826379961096819,1.6385010319520674,-0.19487365613811658,3
543,2024-09-26 22:36:55.881920256,TASK_BEGIN,020,-0.035115235918829785,0.2363243449528158,-1.5277585584245996,0.392678889677455,-0.33623671961451224,0.0026164249759359198,1.5990232190407054,-0.20140110171972495,3
544,2024-09-26 22:36:55.949773824,TASK_BEGIN,020,-0.027469159022881915,0.23329129599042692,-1.3558051218259513,0.3760736011414,-0.31617960328251987,-0.006962095402971313,1.5433303481230125,-0.2050717256304885,3
545,2024-09-26 22:36:56.005700096,TASK_BEGIN,020,-0.013248608725699178,0.22898506719040515,-1.1940473116003103,0.357937405876518,-0.30670917797773417,-0.014131481698187284,1.4709880169705805,-0.20578202839206852,3
546,2024-09-26 22:36:56.082892800,TASK_BEGIN,020,0.00732490662393549,0.22357236154967136,-1.0464860967662033,0.3381713771436069,-0.3076132725625033,-0.019241215377665342,1.3816194166306357,-0.20347298980417036,3
547,2024-09-26 22:36:56.153077760,TASK_BEGIN,020,0.03354068801843126,0.21726081206817807,-0.9177740778711978,0.31699500848570344,-0.3182135670431698,-0.022725335838251374,1.27513499228862,-0.19818208913681137,3
548,2024-09-26 22:36:56.220872960,TASK_BEGIN,020,0.06425943748626098,0.21028847820508145,-0.8127956322669344,0.2949277906740989,-0.3374571620434492,-0.0250599647100258,1.1521022662627496,-0.1901203313535244,3
549,2024-09-26 22:36:57.152733952,TASK_BEGIN,020,0.09802223213606363,0.20290870668192498,-0.7360513870976612,0.2727068294855022,-0.3639930607517392,-0.026725532013729444,1.0141153448340656,-0.17974276662135005,3
550,2024-09-26 22:36:57.232662016,TASK_BEGIN,020,0.1331939566787754,0.19536791788658653,-0.6909809063900783,0.25114986109208176,-0.39622613956554414,-0.0281758465299456,0.8640189113654867,-0.16778491537349768,3
551,2024-09-26 22:36:57.300482048,TASK_BEGIN,020,0.16810920206706068,0.1878802153830037,-0.6793633528782563,0.23099891724069346,-0.43236898702517396,-0.029814769075149957,0.7058685726566518,-0.15523111924829766,3
552,2024-09-26 22:36:57.368239104,TASK_BEGIN,020,0.20119586191280175,0.18060670857787633,-0.7010196551158645,0.21280726048749501,-0.4705103086126595,-0.0319807987449414,0.5445922110227686,-0.1431910940969344,3
553,2024-09-26 22:36:57.431549952,TASK_BEGIN,020,0.23106879492978513,0.17364487135509918,-0.7538976289435058,0.19689795465554144,-0.5087013298986124,-0.03494100976725689,0.38547639483442425,-0.13272749191438687,3
554,2024-09-26 22:36:57.493172224,TASK_BEGIN,020,0.2565852076208753,0.1670299037695106,-0.8343177999884661,0.18336177220912947,-0.5450430113100752,-0.038896173056586075,0.2337051353895951,-0.12473562986335768,3
555,2024-09-26 22:36:57.570481920,TASK_BEGIN,020,0.2768610090117151,0.16074641885270652,-0.937138892836495,0.1720637259180223,-0.5777541652897749,-0.04399456154025879,0.09410849889137604,-0.11994255012141468,3
556,2024-09-26 22:36:58.478318848,TASK_BEGIN,020,0.2912696221117605,0.15474500320498608,-1.0559099632440025,0.16267618776506335,-0.6052303028240553,-0.050344624720779156,-0.02889578457589183,-0.11899265997175928,3
557,2024-09-26 22:36:58.556299008,TASK_BEGIN,020,0.29944471637791037,0.14895942647244376,-1.1832481303094406,0.15476442871482088,-0.6261166914536457,-0.05801723674153528,-0.13130727613189525,-0.12251975779747373,3
558,2024-09-26 22:36:58.617940992,TASK_BEGIN,020,0.301285300923401,0.14332531628861683,-1.3115376150178792,0.14791322394473153,-0.6393802854705878,-0.06703934242038252,-0.20960396926228575,-0.13113290226605104,3
559,2024-09-26 22:36:58.693340160,TASK_BEGIN,020,0.29694895642171815,0.13780269841726586,-1.4338352456121541,0.14185736301213156,-0.6443452398058903,-0.07738691647437498,-0.26086419506253744,-0.14532496094176622,3
560,2024-09-26 22:36:58.757613056,TASK_BEGIN,020,0.2868249046953001,0.132400521507461,-1.5447403366680572,0.1365743351545694,-0.6406930308810423,-0.08897914109791165,-0.2829515014381545,-0.16535374076311732,3
561,2024-09-26 22:36:58.828921088,TASK_BEGIN,020,0.2714875607682036,0.12719508310465721,-1.6409534604799287,0.13230370197465216,-0.6284489309787799,-0.10167242493398557,-0.2748296007683289,-0.19112989961546015,3
562,2024-09-26 22:36:58.896385024,TASK_BEGIN,020,0.2516345522641508,0.12233321285241178,-1.721376027126408,0.12948368697726256,-0.6079642514985821,-0.11525806729023001,-0.23700212988353722,-0.2221252630892575,3
563,2024-09-26 22:36:59.834572032,TASK_BEGIN,020,0.22801487531881695,0.11801887191568544,-1.7868199066860495,0.12862929942875836,-0.5799075595160101,-0.1294685888133972,-0.1719069388916016,-0.257312307177083,3
564,2024-09-26 22:36:59.896897024,TASK_BEGIN,020,0.20136086409235818,0.11449010845569842,-1.8394867814336788,0.13019055025435808,-0.545274500188078,-0.14399239363652996,-0.08406464302969026,-0.2951562292361403,3
565,2024-09-26 22:36:59.974592000,TASK_BEGIN,020,0.17235151103910232,0.11199180601145158,-1.8823617818570035,0.13442924722105362,-0.5053815882264797,-0.1584945296506269,0.020121335097431244,-0.333687524961726,3
566,2024-09-26 22:37:00.037175808,TASK_BEGIN,020,0.14163185013084129,0.11074515695036467,-1.918683412545927,0.14134938233536098,-0.46179024897707416,-0.17264255090848327,0.13293485628208074,-0.37066078621036647,3
567,2024-09-26 22:37:00.102695168,TASK_BEGIN,020,0.10987880101768555,0.1109177939497555,-1.951606226755989,0.15069580974031394,-0.4161589789733022,-0.18613349597772344,0.24623208008255693,-0.4037719748003821,3
568,2024-09-26 22:37:00.179047168,TASK_BEGIN,020,0.07787239389070791,0.11260131508794177,-1.9840064394393648,0.16200290426665775,-0.37007148558044495,-0.19871600589905744,0.3524560398083992,-0.43089220389145466,3
569,2024-09-26 22:37:00.239876864,TASK_BEGIN,020,0.046534202862012736,0.11579816780882174,-2.018288455717936,0.17466238128071535,-0.3248917152907458,-0.21020447127455302,0.44548318314266444,-0.45027551997106063,3
570,2024-09-26 22:37:01.187476992,TASK_BEGIN,020,0.01691139873071326,0.12041747129716311,-2.056155110502417,0.18799739541776023,-0.2816962927468556,-0.2204807362450439,0.5210635962765908,-0.46070608212916103,3
571,2024-09-26 22:37:01.257905152,TASK_BEGIN,020,-0.009904131175904213,0.12628370859847166,-2.098455237283991,0.2013422647863821,-0.2413178209918804,-0.2294784260850538,0.5768508839200445,-0.46156980884489773,3
