,time,MARKER,pid,L_O_DSI,L_D_DSI,L_O_DSphi,L_D_DSphi,R_O_DSI,R_D_DSI,R_O_DSphi,R_D_DSphi,trial_id
0,2024-09-26 22:18:36.638649856,TASK_BEGIN,020,-0.42514505740835684,0.21029612322597,0.19279704555674634,-0.2688925443126467,-0.30458506287319964,0.33874960447508495,-4.1621892234916595,0.5892561442666249,0
1,2024-09-26 22:18:36.709826816,TASK_BEGIN,020,-0.46635309142405673,0.22385515065954986,-0.2807436180366461,-0.022955612029253426,-0.24775006971722285,0.3435820452516809,-3.87906186807842,0.6968853536012019,0
2,2024-09-26 22:18:36.777604864,TASK_BEGIN,020,-0.5062760239067533,0.2370007574887347,-0.7274577424955293,0.2131354001776406,-0.1942749088310947,0.34880584936251946,-3.615494449279467,0.8032153420355655,0
3,2024-09-26 22:18:36.840173056,TASK_BEGIN,020,-0.5436589066451921,0.24927547720338988,-1.1297145524501455,0.43215607322812993,-0.14747840525072126,0.35463463138046986,-3.379909484419915,0.9059267966509917,0
4,2024-09-26 22:18:37.753290752,TASK_BEGIN,020,-0.577259058574661,0.2602198676441689,-1.4732133967329306,0.628076020169198,-0.11003765229368409,0.3612066595396336,-3.1784826484373374,1.0026729374138927,0
5,2024-09-26 22:18:37.830602752,TASK_BEGIN,020,-0.6059078084321785,0.26938777275934467,-1.7476406508970932,0.7963166864449146,-0.08384308061886103,0.36857639790417956,-3.014900895980724,1.0911778918470232,0
6,2024-09-26 22:18:37.893084928,TASK_BEGIN,020,-0.628586103463885,0.27636899976012974,-1.946919507577331,0.9338464023822725,-0.06995514926334029,0.37671731715259216,-2.8904329289464568,1.1693591778840813,0
7,2024-09-26 22:18:37.954752000,TASK_BEGIN,020,-0.6444838805279028,0.2808125200367689,-2.0691568188278935,1.0391529462979956,-0.06861350779230586,0.3855266874377135,-2.8040600769784407,1.2354360475455972,0
8,2024-09-26 22:18:38.031401984,TASK_BEGIN,020,-0.6530327250540247,0.28244615400347783,-2.1162333318699504,1.1121219248144176,-0.07927203198703946,0.3948285898616201,-2.7525812442473754,1.288025314491712,0
9,2024-09-26 22:18:38.102579200,TASK_BEGIN,020,-0.6539228838923947,0.28109286199143,-2.093107278515656,1.1538716640219802,-0.1006524212871399,0.4043755479249652,-2.730827795224751,1.3262425707766765,0
10,2024-09-26 22:18:38.170337024,TASK_BEGIN,020,-0.6471142051166104,0.27668401323360975,-2.007136223329429,1.1666061184639294,-0.13081867866295052,0.41385115220314106,-2.7320545329061305,1.3497878484318233,0
11,2024-09-26 22:18:39.100417024,TASK_BEGIN,020,-0.6328324974040168,0.2692666882118804,-1.8676705944291456,1.1535039827751472,-0.1672844280283874,0.4228773183545401,-2.748420379575862,1.3589671512397736,0
12,2024-09-26 22:18:39.178350848,TASK_BEGIN,020,-0.6115410658027155,0.2590011221945397,-1.6858588519858868,1.1186034374675822,-0.20716026101566498,0.43102847870588284,-2.7715240419148612,1.3546377331668022,0
13,2024-09-26 22:18:39.239887872,TASK_BEGIN,020,-0.5839004975679543,0.24614851336858348,-1.4744070914038658,1.0666304134474902,-0.24733461256976455,0.4378527724698877,-2.793019684726727,1.3381126121384979,0
14,2024-09-26 22:18:39.317106944,TASK_BEGIN,020,-0.5507466452254524,0.23105395437863835,-1.247152908061491,1.0027549872537695,-0.2846869488460579,0.4429004783861536,-2.8052155507074916,1.3110482665587069,0
15,2024-09-26 22:18:39.379883008,TASK_BEGIN,020,-0.5130987681143103,0.21412850759689536,-1.0184916701626248,0.9322964270266557,-0.31634109618088424,0.4457599474317708,-2.801493131146963,1.2753023142939581,0
16,2024-09-26 22:18:39.440984832,TASK_BEGIN,020,-0.472172212129702,0.19582960909755392,-0.8026707722174925,0.8604109094118126,-0.3399460377370412,0.4460978770462247,-2.776547078364635,1.2327628455036321,0
17,2024-09-26 22:18:39.520456960,TASK_BEGIN,020,-0.42935682787679597,0.17663761008056855,-0.6129352150721259,0.7918041004653211,-0.3539361078533855,0.44369686938925584,-2.726589191350002,1.1851959663869636,0
18,2024-09-26 22:18:40.463834112,TASK_BEGIN,020,-0.38614632584362973,0.15703024461747758,-0.46065361913927083,0.7305092602027764,-0.3577059019362065,0.43848235020124254,-2.6495695338096628,1.1341581388604702,0
19,2024-09-26 22:18:40.528453120,TASK_BEGIN,020,-0.3440330175353154,0.13745923897453446,-0.3546216191391953,0.6797384452322073,-0.35164821304833627,0.4305326466617964,-2.545385711346807,1.080992974261212,0
20,2024-09-26 22:18:40.591162112,TASK_BEGIN,020,-0.304388228980742,0.11833033157370394,-0.3005889222697618,0.6417778860331249,-0.3370418804281938,0.42006978129969097,-2.4161825582093495,1.0269212917679085,0
21,2024-09-26 22:18:40.667259904,TASK_BEGIN,020,-0.26834157449293544,0.09998459875989969,-0.3009431816240888,0.6179055696410889,-0.3158222552944541,0.40743389984784406,-2.2668333464835086,0.973198702362694,0
22,2024-09-26 22:18:40.731133952,TASK_BEGIN,020,-0.23667979433327002,0.08268111990254086,-0.3545387945681233,0.6083466766281515,-0.2902941755704988,0.39304831982422606,-2.105330360648555,0.921253710740442,0
23,2024-09-26 22:18:40.802916096,TASK_BEGIN,020,-0.2097973837735622,0.06658568165519259,-0.4567522131688549,0.6123092833177505,-0.26285096337731034,0.37738239953929703,-1.942588405221122,0.8727184711457034,0
24,2024-09-26 22:18:40.855464960,TASK_BEGIN,020,-0.18771585626908907,0.05177012906448828,-0.5998482692458261,0.6281282350213809,-0.23574870339431767,0.3609168896487714,-1.791448645277753,0.8293406470270115,0
25,2024-09-26 22:18:41.800328960,TASK_BEGIN,020,-0.1701571621796962,0.03822279073164547,-0.7736468069615845,0.6534914266470419,-0.21094982569027212,0.34411361441008,-1.6651262054906548,0.7928292892618916,0
26,2024-09-26 22:18:41.881722880,TASK_BEGIN,020,-0.15664172281098723,0.025867769995502398,-0.966404819365813,0.6856946699035025,-0.19001442505172103,0.3273899830015832,-1.5755136299591814,0.7646843516213865,0
27,2024-09-26 22:18:41.949474048,TASK_BEGIN,020,-0.1465845703453304,0.014590457332184604,-1.1658320157017306,0.7218955783455722,-0.17402051099837149,0.3111000976763715,-1.5316536880300156,0.7460269717499697,0
28,2024-09-26 22:18:42.017157888,TASK_BEGIN,020,-0.13937018675423957,0.004266017554115256,-1.360143934880114,0.7593511246300878,-0.16352365965586527,0.2955255484341078,-1.5386095819885321,0.7374461570034682,0
29,2024-09-26 22:18:42.085040896,TASK_BEGIN,020,-0.13439795122586456,-0.0052133032525604785,-1.5390195897314047,0.7956214162480391,-0.158572001952168,0.280875788010468,-1.5969227582665373,0.7388956201309134,0
30,2024-09-26 22:18:42.152914176,TASK_BEGIN,020,-0.131100808367508,-0.013917068465131377,-1.6943434657389012,0.8287382897966248,-0.15877323222122608,0.26729378714849805,-1.7026899499222417,0.7496594690497642,0
31,2024-09-26 22:18:42.216146944,TASK_BEGIN,020,-0.12894175125503568,-0.02186602889352839,-1.8206168682291688,0.8573285100043808,-0.16340070073235344,0.25486498676156183,-1.8480664444578343,0.7683774275653346,0
32,2024-09-26 22:18:43.164038912,TASK_BEGIN,020,-0.12739920773016256,-0.02903203790206468,-1.914941188323543,0.8806461913352882,-0.17151948451065818,0.2436315971519951,-2.0220137831102303,0.7931369307363433,0
33,2024-09-26 22:18:43.229268992,TASK_BEGIN,020,-0.12595786625078417,-0.035345490197210123,-1.9766444841360413,0.8984888396551884,-0.18209981426877345,0.2336100126042442,-2.2113362758725734,0.8216620999637249,0
34,2024-09-26 22:18:43.290913024,TASK_BEGIN,020,-0.12410461335257061,-0.040709495937505516,-2.0067781718489277,0.9110323032748233,-0.19409030453546033,0.22480110153077465,-2.4020417577593824,0.8515826844255896,0
35,2024-09-26 22:18:43.351975936,TASK_BEGIN,020,-0.12131983784236264,-0.04502085564508666,-2.007631654053626,0.9186437937779528,-0.20645479170749462,0.21718547949916522,-2.580773452028517,0.8806970307812475,0
36,2024-09-26 22:18:43.430289152,TASK_BEGIN,020,-0.11707982943158947,-0.04819291479794492,-1.9822768407638183,0.9217235080049817,-0.21819986526770718,0.21070898780969355,-2.7359940032932166,0.9071568284059724,0
37,2024-09-26 22:18:43.491912192,TASK_BEGIN,020,-0.11089671797306368,-0.050172765815958205,-1.9341253624452508,0.9206086690424811,-0.22840794745633458,0.20527074844672577,-2.858840861325212,0.9295735007270515,0
38,2024-09-26 22:18:43.570769920,TASK_BEGIN,020,-0.10238186653235265,-0.05095116532425341,-1.866492654331745,0.9155417572989623,-0.23626467707911755,0.20071988894210585,-2.9436835097216734,0.9470696523997868,0
39,2024-09-26 22:18:44.511534848,TASK_BEGIN,020,-0.09128864736237545,-0.05056901633630699,-1.7822292789427776,0.9066828452210965,-0.2410659748717721,0.1968590902613944,-2.988298096609203,0.9592683175492042,0
40,2024-09-26 22:18:44.580975104,TASK_BEGIN,020,-0.07752725335329637,-0.049119948613581675,-1.6835826325929575,0.8941560798379175,-0.2422107096525147,0.19345305409215283,-2.993523282084134,0.9662034739008442,0
41,2024-09-26 22:18:44.648798720,TASK_BEGIN,020,-0.0611889144873598,-0.046742843044917,-1.572422768477467,0.8781280729742446,-0.2392062473392324,0.19024452045585655,-2.962448793979314,0.9681745460680803,0
42,2024-09-26 22:18:44.716568832,TASK_BEGIN,020,-0.042593184267777626,-0.04360314971434492,-1.4507588508808624,0.8588983577430491,-0.23170279426651094,0.1869789941269051,-2.899474270605029,0.96561418087382,0
43,2024-09-26 22:18:44.774139904,TASK_BEGIN,020,-0.022319150891590086,-0.03987122614723976,-1.3212481080596143,0.8369620926227949,-0.21953106325119898,0.18342976622008758,-2.8096190979431936,0.9590308483426945,0
44,2024-09-26 22:18:44.852148992,TASK_BEGIN,020,-0.0011872026454785817,-0.03570575838460223,-1.1873490866842775,0.8130046449811534,-0.20271517455202806,0.17941346569067157,-2.6982234570771757,0.9490297235396423,0
45,2024-09-26 22:18:44.918766080,TASK_BEGIN,020,0.01979042171394981,-0.031241842814775336,-1.052968327249449,0.7878158446198639,-0.18147932217885762,0.1747988203241458,-2.5710194527552543,0.9363809459248492,0
46,2024-09-26 22:18:45.837539840,TASK_BEGIN,020,0.039462979440037474,-0.02657967752709512,-0.9217638301471107,0.7621640597813802,-0.15627515069111228,0.16951688054175792,-2.4345096301498517,0.9221029687927722,0
47,2024-09-26 22:18:45.905374976,TASK_BEGIN,020,0.056616241242296785,-0.021775845451166908,-0.7964383766631691,0.7366983588377177,-0.12780685878699166,0.16357083276180756,-2.296371739594231,0.9075099421705568,0
48,2024-09-26 22:18:45.963610880,TASK_BEGIN,020,0.07010268259556335,-0.016844807169121147,-0.6782936451272135,0.7119120330196435,-0.09700140402320803,0.15703509659078405,-2.16544426751089,0.8941663694675788,0
49,2024-09-26 22:18:46.027511040,TASK_BEGIN,020,0.07900842298335574,-0.011773421094087133,-0.5671898215177699,0.6881499459777382,-0.0649006250347057,0.15003827448637197,-2.051173323005682,0.8837497647919628,0
50,2024-09-26 22:18:46.102736128,TASK_BEGIN,020,0.08279389034955147,-0.006542380869355074,-0.4619084938098656,0.6656276032197702,-0.03250561152101035,0.14273547940689577,-1.9628302502825232,0.8778757790966306,0
51,2024-09-26 22:18:46.164280064,TASK_BEGIN,020,0.08137398539529257,-0.0011482904513550776,-0.3607084920139536,0.64443666675358,-0.0006308187703529122,0.13528031695943066,-1.908768603192452,0.877921708693477,0
52,2024-09-26 22:18:46.241632000,TASK_BEGIN,020,0.075151794020446,0.004374491908637973,-0.2618428250888802,0.6245330387739623,0.030193958453061217,0.1278018079672807,-1.895735374397231,0.8848548422071963,0
53,2024-09-26 22:18:47.188237824,TASK_BEGIN,020,0.06501922329902202,0.009933270121191242,-0.16402583047533417,0.6057366110665934,0.05976465299975331,0.12038718225250944,-1.9282044877447841,0.8990892960973937,0
54,2024-09-26 22:18:47.256040960,TASK_BEGIN,020,0.05232202437406009,0.015361587531542032,-0.06685510684082827,0.5877659248362644,0.08818100510913034,0.11307507660448887,-2.0077939896581327,0.9204078081647579,0
55,2024-09-26 22:18:47.317308928,TASK_BEGIN,020,0.038795560819119224,0.020411683815268016,0.029013149254400888,0.5702880549752898,0.11575837596338237,0.10586488349173286,-2.1328717388524487,0.9479482266469472,0
56,2024-09-26 22:18:47.379793920,TASK_BEGIN,020,0.02647356728076415,0.02475741842901803,0.12207682811297357,0.5529540147832954,0.14289233372997318,0.09873926571738557,-2.2984020336319873,0.9802177606295248,0
57,2024-09-26 22:18:47.457414912,TASK_BEGIN,020,0.017546650528114497,0.02801267039530306,0.21049651865219943,0.5354066441242841,0.16991675826212582,0.09168857274815016,-2.4960396452110705,1.0151237098771095,0
58,2024-09-26 22:18:47.519531008,TASK_BEGIN,020,0.014160372445719707,0.029766416958434357,0.292753327448977,0.5172523727331406,0.19700231908244117,0.0847275280587619,-2.714491935766654,1.0500573297196838,0
59,2024-09-26 22:18:47.594272000,TASK_BEGIN,020,0.01819318625269317,0.029626948455112285,0.36826154750467344,0.49801921557997836,0.22412051132882177,0.07790099827623534,-2.9401518543947978,1.0820603828339064,0
60,2024-09-26 22:18:48.509833984,TASK_BEGIN,020,0.031072919236206087,0.0272641898131487,0.43762906676264957,0.47717005706037596,0.251056507746572,0.07127929049734563,-3.157988611921326,1.1080612649546207,0
61,2024-09-26 22:18:48.571428096,TASK_BEGIN,020,0.05365953616639744,0.02244219870320474,0.5023993615334131,0.4542075874988395,0.27743301805265924,0.06494596128904823,-3.3527161334408637,1.1251474334979477,0
62,2024-09-26 22:18:48.647787008,TASK_BEGIN,020,0.08618551014192123,0.015038937607467136,0.5644630603263087,0.42881752425441366,0.3027169493563271,0.05898581805688365,-3.510168163604302,1.1308422471305875,0
63,2024-09-26 22:18:48.715569152,TASK_BEGIN,020,0.1282389672802364,0.005054504943272038,0.6254878596358924,0.4009692502481118,0.32620242848460024,0.05348241808048645,-3.618600683882601,1.1233553675930867,0
64,2024-09-26 22:18:48.783377920,TASK_BEGIN,020,0.17878929813950126,-0.007389289317759021,0.6866002495652774,0.3709350377306212,0.3469963499642159,0.04852703117498313,-3.6696467991298984,1.1017783199010907,0
65,2024-09-26 22:18:48.851196928,TASK_BEGIN,020,0.23625770545868796,-0.022055585923279372,0.748348923274264,0.3392354711834629,0.3640557079999734,0.04422982178018851,-3.658929410866678,1.0662145825408362,0
66,2024-09-26 22:18:48.919032064,TASK_BEGIN,020,0.2986248448079486,-0.03860425903868881,0.8107762664185192,0.30655500768412564,0.3763068543834409,0.04072027598444166,-3.586536054115738,1.017857801040471,0
67,2024-09-26 22:18:49.859572992,TASK_BEGIN,020,0.3635641103857129,-0.05660825076922087,0.8733512711723163,0.2736845275317612,0.3828278231497694,0.03813090742378092,-3.45742473581962,0.9590174761749125,0
68,2024-09-26 22:18:49.930030080,TASK_BEGIN,020,0.4285949548153889,-0.07557384941706576,0.9346940219597162,0.24151775327570232,0.3830336901356149,0.0365685296348842,-3.281475360369488,0.8930318654267916,0
69,2024-09-26 22:18:49.997904128,TASK_BEGIN,020,0.491260503782258,-0.09496621119317966,0.9922770522799649,0.21108179854612438,0.37680083931384745,0.036083418511019906,-3.0727574797494004,0.8239960870380297,0
70,2024-09-26 22:18:50.058684160,TASK_BEGIN,020,0.5493295973540389,-0.11424268834366424,1.0423664599507219,0.18355325179792917,0.3645030784508971,0.036647097214717594,-2.8479878099162748,0.7563303988146444,0
71,2024-09-26 22:18:50.133441792,TASK_BEGIN,020,0.6009886405523939,-0.13289130946715957,1.080321758173428,0.16021911218925458,0.34696647460954305,0.038146135582897533,-2.624684540959548,0.6943089319252143,0
72,2024-09-26 22:18:50.198251008,TASK_BEGIN,020,0.6449617136990161,-0.15046470584064445,1.1011636437612147,0.14238261315129538,0.3253481695667952,0.040394694936481394,-2.4195272612762726,0.6416528741781562,0
73,2024-09-26 22:18:50.269037056,TASK_BEGIN,020,0.680525557916863,-0.16660045772525198,1.1002235277885224,0.1312451946993271,0.3009529574360133,0.043162993508197495,-2.247086420398088,0.6012343893946654,0
74,2024-09-26 22:18:51.207280128,TASK_BEGIN,020,0.7074377535930655,-0.18102545521927088,1.0737252762160618,0.12779407884534902,0.27504676780120246,0.04621250896020166,-2.118900806288266,0.5749127887673067,0
75,2024-09-26 22:18:51.269956096,TASK_BEGIN,020,0.7258147499561711,-0.1935467462924141,1.0192181922565533,0.13270891361627113,0.24873636419924722,0.049327244179392445,-2.042829049033514,0.5634902591403694,0
76,2024-09-26 22:18:51.347937024,TASK_BEGIN,020,0.7359923532887154,-0.2040342426221186,0.9358135355934065,0.14629068541130355,0.22292690620168606,0.052335406794848945,-2.0225939331878946,0.5667362148784417,0
77,2024-09-26 22:18:51.415733760,TASK_BEGIN,020,0.7384037208649381,-0.21240297159290977,0.8242008933246577,0.168416364095806,0.19832411256257118,0.05511891363237872,-2.0575110204855784,0.5834408509305734,0
78,2024-09-26 22:18:51.471516160,TASK_BEGIN,020,0.7334965080401804,-0.2185997687297971,0.686516399195195,0.19851855342271,0.1754512784096522,0.05761049178054465,-2.142431887348281,0.6114931635857067,0
79,2024-09-26 22:18:51.551300096,TASK_BEGIN,020,0.7216800819888807,-0.22259309036895172,0.5262279108328488,0.2355780675559215,0.15465876276570367,0.05978561105534627,-2.267939122978838,0.6480015727000054,0
80,2024-09-26 22:18:51.610758144,TASK_BEGIN,020,0.703294746637482,-0.22436496625418653,0.34809838175836816,0.2781308530020741,0.13611508389403779,0.06165802289616105,-2.420897700051919,0.6894899007557102,0
81,2024-09-26 22:18:52.557519104,TASK_BEGIN,020,0.6786234861375489,-0.2239095905861001,0.15809716090113088,0.3243197133875115,0.11980011183090902,0.063277695851147,-2.5855080786540405,0.7321889336685181,0
82,2024-09-26 22:18:52.620003840,TASK_BEGIN,020,0.6479632915024913,-0.22124209524838492,-0.036834812480810365,0.3720066382174085,0.10553462406042896,0.06472238651110473,-2.744876351021404,0.7723947825062675,0
83,2024-09-26 22:18:52.698110208,TASK_BEGIN,020,0.611732573073888,-0.2164132749546085,-0.22911622208040333,0.4189227353130031,0.09305162294131829,0.066078457016539,-2.8828130247329113,0.8068150336851952,0
84,2024-09-26 22:18:52.766237952,TASK_BEGIN,020,0.5705670826948931,-0.20952200724441147,-0.41099177157370076,0.4628444560730021,0.08207602085688813,0.06741810406885687,-2.985375842430922,0.8328194049360333,0
85,2024-09-26 22:18:52.834031104,TASK_BEGIN,020,0.5253745074306081,-0.20072132704401538,-0.575274058828725,0.5018104058766285,0.07237600471172194,0.06878559402930702,-3.0418766444154475,0.8485666224800791,0
86,2024-09-26 22:18:52.899517184,TASK_BEGIN,020,0.47734795777512096,-0.19021999402423095,-0.7162347571758522,0.5343513288730681,0.06377635981532147,0.07019711836223931,-3.045433647151704,0.8530348999105462,0
87,2024-09-26 22:18:52.961552896,TASK_BEGIN,020,0.4279436437538293,-0.17828045342118673,-0.8301861788145226,0.5596467884745567,0.05614367086840238,0.07164770605570414,-2.9932217102190037,0.8459866943341036,0
88,2024-09-26 22:18:53.912456960,TASK_BEGIN,020,0.3788125104855799,-0.1652084587275367,-0.9154366928053566,0.5775445912106686,0.04936503443055632,0.07311485680419764,-2.8864488736661995,0.8278890158369611,0
89,2024-09-26 22:18:53.965648896,TASK_BEGIN,020,0.3316775703557295,-0.1513310880363226,-0.9718182735567873,0.588468116404498,0.04334672614444673,0.07455318976141534,-2.7301142843148605,0.7998213221117206,0
90,2024-09-26 22:18:54.048121088,TASK_BEGIN,020,0.28817379718497854,-0.13696940933173518,-1.0002789620964154,0.5932924359986443,0.038032293424941584,0.07588507165267223,-2.532678522722955,0.7633932808126737,0
91,2024-09-26 22:18:54.104850176,TASK_BEGIN,020,0.2496860067009353,-0.12241626771350929,-1.0028088364605858,0.5932402294511926,0.03340912772581406,0.07699966953420724,-2.305589369195119,0.7206520609927972,0
92,2024-09-26 22:18:54.181620992,TASK_BEGIN,020,0.21722534048152425,-0.10792460573203629,-0.982540109071831,0.5897863815194143,0.029494529871189216,0.07776702527718357,-2.0623495621757235,0.6739357985693155,0
93,2024-09-26 22:18:54.251533056,TASK_BEGIN,020,0.19137518462683256,-0.0937058822105591,-0.9437147460244228,0.5845417283962296,0.026335113373728937,0.07805994299018024,-1.8170040794546767,0.6256661927351419,0
94,2024-09-26 22:18:54.319343104,TASK_BEGIN,020,0.17230253830384373,-0.07993514106443576,-0.8913979029606,0.5791122400130508,0.02404298782928291,0.07777201167212668,-1.5824625787021516,0.5781349478968135,0
95,2024-09-26 22:18:55.262545152,TASK_BEGIN,020,0.15979692363224193,-0.06675715083402604,-0.831011235701736,0.5749528554051556,0.022848900542797704,0.07682775397498003,-1.3692411131914324,0.533340069480602,0
96,2024-09-26 22:18:55.320826880,TASK_BEGIN,020,0.15330098707553275,-0.05428777785397126,-0.7678210011007925,0.5732402198365708,0.02314685855689394,0.07518477191607872,-1.184811643231861,0.4928667409799614,0
97,2024-09-26 22:18:55.397496832,TASK_BEGIN,020,0.1519276173844185,-0.04260908337297711,-0.70651689090111,0.5747868448577785,0.02552220027583464,0.07282584552544157,-1.0334108429639361,0.45779710460726925,0
98,2024-09-26 22:18:55.465989888,TASK_BEGIN,020,0.15448732773426077,-0.03176295220209607,-0.6509520533531192,0.580004185668309,0.030746941827681215,0.06974449454110031,-0.9162469217516468,0.42868677828108614,0
99,2024-09-26 22:18:55.528783872,TASK_BEGIN,020,0.1595564604803908,-0.021749866995400227,-0.6040433772060427,0.5889072147888346,0.039708144649910716,0.06593691373455181,-0.8321868983068559,0.40564397122288076,0
100,2024-09-26 22:18:55.601607168,TASK_BEGIN,020,0.16559794215377607,-0.01253552803578902,-0.5678728676652246,0.601164888107344,0.05324878141698183,0.06141090302364667,-0.7788415707660403,0.38847892262749567,0
101,2024-09-26 22:18:55.660514048,TASK_BEGIN,020,0.17111425050281479,-0.004063053293443824,-0.5440104791802478,0.6162013079121733,0.07195712774255333,0.05620706506651965,-0.753652943314829,0.37685433627433595,0
102,2024-09-26 22:18:56.586519040,TASK_BEGIN,020,0.17478924589683015,0.003734040931259891,-0.5338650076017883,0.6333126738187882,0.09599507379085079,0.050414654265007956,-0.7545518107625803,0.3703885424402051,0
103,2024-09-26 22:18:56.648019968,TASK_BEGIN,020,0.17557882428126564,0.010922323545793613,-0.5387649129754761,0.6517452953390559,0.12504001884820892,0.044169556305945885,-0.7800878852951365,0.368700045301357,0
104,2024-09-26 22:18:56.723895040,TASK_BEGIN,020,0.17274262442642416,0.017562778079444306,-0.5596636971931548,0.6707140348693245,0.15833955698009222,0.03763961751267396,-0.8292264514757582,0.37139728521733634,0
105,2024-09-26 22:18:56.787368960,TASK_BEGIN,020,0.16584826130457198,0.02370476606210499,-0.5965924421409097,0.6893789736159209,0.19482422395131538,0.031011298846522227,-0.9009828601949195,0.37802002059097783,0
106,2024-09-26 22:18:56.848899840,TASK_BEGIN,020,0.15478504216009933,0.029375807846593174,-0.6480765529010093,0.7068119131556827,0.23322739382766491,0.02448396214009507,-0.9939761598810666,0.3879605339274439,0
107,2024-09-26 22:18:56.926181120,TASK_BEGIN,020,0.13978807012767308,0.03456928811201571,-0.7107872548538873,0.721993258456583,0.27219089511841554,0.0182679554276044,-1.10596379201432,0.40040616082405744,0
108,2024-09-26 22:18:56.991416064,TASK_BEGIN,020,0.12144061013501732,0.03923700837712046,-0.7796187952593286,0.7338705661604596,0.3103557134027367,0.012580181997905228,-1.2333700683808317,0.4143206487789578,0
109,2024-09-26 22:18:57.933736960,TASK_BEGIN,020,0.10063063254912087,0.043291827197982365,-0.8481144194560776,0.7414662509908164,0.346440928250852,0.0076327064229511,-1.3708965438536949,0.42847314305165046,0
110,2024-09-26 22:18:57.995960832,TASK_BEGIN,020,0.07847088094076536,0.04661921688478335,-0.909042413662584,0.7439955992205851,0.37930498727067485,0.0036144315969699066,-1.5115240210443757,0.4415455369935409,0
111,2024-09-26 22:18:58.074523904,TASK_BEGIN,020,0.0562090248435158,0.04909258598901966,-0.955064923504094,0.7409728920380577,0.40797630898096426,0.0006725286398987206,-1.6471287161799053,0.4523238190943937,0
112,2024-09-26 22:18:58.134790144,TASK_BEGIN,020,0.03514325010186033,0.05058888916786281,-0.9795181763487909,0.7322954252670316,0.4316553555822544,-0.0010993292524536184,-1.769459302438116,0.4598985628538963,0
113,2024-09-26 22:18:58.196376832,TASK_BEGIN,020,0.016541087592323495,0.051003222236564075,-0.9772055682650445,0.7182877882800748,0.44971942263695613,-0.0016673911201359867,-1.870975735836891,0.4637743945058213,0
114,2024-09-26 22:18:58.273172224,TASK_BEGIN,020,0.0015567762860606103,0.05026018029372345,-0.9449963053088704,0.699685168317965,0.46176151474889376,-0.0010654452461181206,-1.9453448926799914,0.4638653080715349,0
115,2024-09-26 22:18:58.335699968,TASK_BEGIN,020,-0.008848291847096125,0.04831997216394865,-0.8820759871156477,0.6775401491539892,0.467653859930542,0.0005956702610366717,-1.987770769815776,0.4604361552294625,0
116,2024-09-26 22:18:59.263959040,TASK_BEGIN,020,-0.01397549916060114,0.04518164786836076,-0.7898782940792045,0.6530638549071727,0.4675943287814513,0.003124132437201255,-1.9953637912377367,0.4540512253075236,0
117,2024-09-26 22:18:59.321208064,TASK_BEGIN,020,-0.013447835392156122,0.0408883434973797,-0.6718733492227662,0.627458733363323,0.4621027519668185,0.006256988490141575,-1.9675361908551723,0.44553660743679624,0
118,2024-09-26 22:18:59.399607040,TASK_BEGIN,020,-0.007254558076402337,0.0355351470429179,-0.5333214355727647,0.6018068123343544,0.45195758131920916,0.009685628376039125,-1.9062570020100746,0.43592957932325305,0
119,2024-09-26 22:18:59.467361792,TASK_BEGIN,020,0.00422425857054219,0.029275526091212336,-0.3808759924933822,0.5770150957304353,0.4380849020598675,0.013090354027428313,-1.8160011159362073,0.4263948923249939,0
120,2024-09-26 22:18:59.522484992,TASK_BEGIN,020,0.020220335521147964,0.02232271835650474,-0.22190081306341275,0.5537768718941597,0.42143609498197354,0.01617274619505352,-1.7033680562512061,0.41811368659394826,0
121,2024-09-26 22:18:59.603022848,TASK_BEGIN,020,0.03962167015142017,0.014943180339976676,-0.06365997601313224,0.5325427697518956,0.4028919795673561,0.018678111831579355,-1.576522434878002,0.41217860540910994,0
122,2024-09-26 22:18:59.661478912,TASK_BEGIN,020,0.06107242342627829,0.007438837924486903,0.08729997725139337,0.5135305859550203,0.3832034881595213,0.02040905262492237,-1.4445777795494372,0.4095268804153283,0
123,2024-09-26 22:19:00.614075904,TASK_BEGIN,020,0.08312025674649581,0.00011813830035310382,0.225471198708027,0.4967789634249322,0.3629629639485773,0.021235361053399713,-1.3168830749406324,0.41091130751588245,0
124,2024-09-26 22:19:00.681950208,TASK_BEGIN,020,0.10438610212158461,-0.006738654737695193,0.34656966219220625,0.48221379768821754,0.34260290516589603,0.021102125055595344,-1.2021981645024586,0.41688978423463086,0
125,2024-09-26 22:19:00.749710080,TASK_BEGIN,020,0.12373095557209722,-0.012911499114515076,0.4477631639364921,0.46969503550690356,0.3224164733520193,0.020033658920994277,-1.1079003655288087,0.4278090066419853,0
126,2024-09-26 22:19:00.812815872,TASK_BEGIN,020,0.14039500441113187,-0.018262219840932566,0.5279473631355618,0.45903846809012844,0.30258758131522023,0.018132079703710686,-1.0394116399533153,0.44376452476024697,0
127,2024-09-26 22:19:00.875387904,TASK_BEGIN,020,0.1540832951556297,-0.022741585458099078,0.5878957938508359,0.4500339480597959,0.283216173508681,0.015573085006666897,-0.9999452041375988,0.46455504284948484,0
128,2024-09-26 22:19:00.953152768,TASK_BEGIN,020,0.16497536518388853,-0.026381683010090966,0.6300825227511463,0.4424830894789109,0.2643317756586885,0.012599632625858226,-0.9905320746006001,0.4896736453945184,0
129,2024-09-26 22:19:01.020956928,TASK_BEGIN,020,0.17364674651630374,-0.02927627231159036,0.6581600678152957,0.43625117949980946,0.2459047563254618,0.009509105849179205,-1.01025716306586,0.5183565691651044,0
130,2024-09-26 22:19:01.963112960,TASK_BEGIN,020,0.18091664017926629,-0.03155472222570166,0.6762780002499158,0.43130401694819076,0.2278723456385625,0.006629708243478375,-1.0566879642581182,0.5496720879071483,0
131,2024-09-26 22:19:02.016951808,TASK_BEGIN,020,0.18766772551332722,-0.03335774987113166,0.6884082199028876,0.42771505852229047,0.21018607437462794,0.004286663833092793,-1.1263865957230066,0.582605445760129,0
132,2024-09-26 22:19:02.094284800,TASK_BEGIN,020,0.19468986801342336,-0.03482163867589633,0.6977624883877906,0.42565098672473667,0.19286721614359956,0.002764752933665007,-1.2152542425441657,0.6160974743812564,0
133,2024-09-26 22:19:02.166526976,TASK_BEGIN,020,0.20257727766098432,-0.03607101288262724,0.7064697265586609,0.42533751182974516,0.1760435742086696,0.002277823652386445,-1.3185692368499853,0.6490374250659877,0
134,2024-09-26 22:19:02.232608256,TASK_BEGIN,020,0.21168033046690024,-0.03721357316275536,0.7156786790798356,0.42700390411123496,0.15995170486946178,0.002952371065117171,-1.4308367333462924,0.6802519215057301,0
135,2024-09-26 22:19:02.294415104,TASK_BEGIN,020,0.2220935243828949,-0.03833001407140877,0.7259722101385973,0.4308248316444379,0.14491158122756828,0.004824443487614412,-1.5456840186255114,0.708524982253309,0
136,2024-09-26 22:19:02.357292032,TASK_BEGIN,020,0.2336604224499788,-0.03945878190702036,0.7377539888225083,0.43688303346972435,0.1312882341827203,0.007846171772081705,-1.6560096747566595,0.7326558293867761,0
137,2024-09-26 22:19:03.299974144,TASK_BEGIN,020,0.24598674979948557,-0.04058114120137647,0.7513851678172476,0.44515430448847043,0.11944658185370147,0.011898781713949948,-1.7544849731028553,0.751552537677149,0
138,2024-09-26 22:19:03.378026752,TASK_BEGIN,020,0.2584547897531232,-0.041612684904273556,0.7671112580979227,0.4555003580340966,0.10970022735934618,0.01680861605731971,-1.8343145380731773,0.764355863584357,0
139,2024-09-26 22:19:03.440102912,TASK_BEGIN,020,0.2702362259194958,-0.042404877128545425,0.7849068905429092,0.4676644662684162,0.10226920689949019,0.022361677736927484,-1.8900164375532285,0.7705603326581121,0
140,2024-09-26 22:19:03.502351104,TASK_BEGIN,020,0.28032023207695234,-0.04275739518127861,0.80427758651221,0.4812862151669567,0.09727546446136429,0.028312854974692495,-1.9179991199159723,0.7700710630962345,0
141,2024-09-26 22:19:03.579533312,TASK_BEGIN,020,0.2875854875589923,-0.04244033870136385,0.8240157553816477,0.4959525841829451,0.0947769211206531,0.03439109921895612,-1.9168341806632976,0.763155258441954,0
142,2024-09-26 22:19:03.652228096,TASK_BEGIN,020,0.29092604241258546,-0.0412241147562057,0.841958600834271,0.5112765501598165,0.09480356657314376,0.04030602356209075,-1.8872250918085542,0.7503145558068371,0
143,2024-09-26 22:19:03.718795776,TASK_BEGIN,020,0.2894053874424567,-0.03891199650568487,0.854837260532976,0.5269786586545689,0.097367544491211,0.04575834786605467,-1.8317273412530282,0.732151878402206,0
144,2024-09-26 22:19:04.660049920,TASK_BEGIN,020,0.2823884162002545,-0.03536698686615827,0.8583658986623486,0.5429439862336464,0.1024477805525352,0.05045362209436432,-1.7543032234362252,0.7092851690127142,0
145,2024-09-26 22:19:04.721884928,TASK_BEGIN,020,0.26960622359197606,-0.030525762790563005,0.8477653164898988,0.5592154928080619,0.1099639351205002,0.05412062704965637,-1.6597815382376593,0.6823073713840968,0
146,2024-09-26 22:19:04.784371968,TASK_BEGIN,020,0.251149308519042,-0.02440008264908413,0.818746925675533,0.5759054004791689,0.1197587351136965,0.05653506121021224,-1.5532858418859818,0.6517793775419433,0
147,2024-09-26 22:19:04.866701824,TASK_BEGIN,020,0.22743203778209325,-0.017073231468147827,0.7686693033484634,0.5930655021601815,0.13160240322870484,0.05754342890964454,-1.4397109420670553,0.6182624305141906,0
148,2024-09-26 22:19:04.922700800,TASK_BEGIN,020,0.1991733784178124,-0.008697743114520434,0.6974763077294771,0.610570396704306,0.1452266593172951,0.057078614624176995,-1.3232891788646626,0.5823834849752062,0
149,2024-09-26 22:19:05.000743936,TASK_BEGIN,020,0.16739413092255837,0.0005065109446753838,0.6081727225996032,0.6280288235729533,0.1603903750252855,0.055161146680188726,-1.207250477663487,0.5448906947756792,0
150,2024-09-26 22:19:05.061790976,TASK_BEGIN,020,0.1333950010701928,0.01025882607023258,0.5067192999684383,0.6447342754840442,0.17695320695450026,0.05188725998326978,-1.0936170219745271,0.5066612594690684,0
151,2024-09-26 22:19:06.005788160,TASK_BEGIN,020,0.09868064659436587,0.020233186238249257,0.4012902764439366,0.6596929690059219,0.1949116345226716,0.047411221449271984,-0.9831713091939873,0.4686617608281816,0
152,2024-09-26 22:19:06.066883072,TASK_BEGIN,020,0.06481759295756823,0.03008506117309536,0.3009916854999505,0.6717492006677742,0.21437721963989426,0.04192827709473671,-0.8755799089473787,0.43187662013121353,0
153,2024-09-26 22:19:06.149040128,TASK_BEGIN,020,0.033249238243667587,0.03948759769598105,0.21435306290776077,0.6797727203499767,0.23551053941885491,0.03566017272279719,-0.7696921198170624,0.397222331447018,0
154,2024-09-26 22:19:06.216798976,TASK_BEGIN,020,0.005125079139514572,0.04816965341190868,0.14797580452401823,0.6828487042507765,0.25842066519983675,0.028845916846722074,-0.6640922339721425,0.3654808972802919,0
155,2024-09-26 22:19:06.283059968,TASK_BEGIN,020,-0.018790653750989095,0.055943866205169605,0.10560062817498977,0.6804300465166425,0.2830431536531964,0.02173977336393359,-0.5578591045964043,0.3372847015873996,0
156,2024-09-26 22:19:06.352360192,TASK_BEGIN,020,-0.03809101000542725,0.06271420727257666,0.08770299473046257,0.6724338585501319,0.3090396793535869,0.014610241245884732,-0.4512972749442476,0.3131525516596332,0
157,2024-09-26 22:19:06.406158080,TASK_BEGIN,020,-0.05259449003418258,0.06846255643793078,0.09165118936989161,0.6592690703229414,0.33576167660334266,0.007731506776336946,-0.34641413215849914,0.29354949068663294,0
158,2024-09-26 22:19:07.326899968,TASK_BEGIN,020,-0.06218755971879632,0.07322670463947781,0.11241388867099977,0.6417819488309149,0.3622780697079636,0.001369321345158324,-0.24704887239868584,0.27893742415310085,0
159,2024-09-26 22:19:07.402384896,TASK_BEGIN,020,-0.06673131424319122,0.07708494345542977,0.14370434944559554,0.6211197267643523,0.3874414756768436,-0.004231232547686188,-0.15861877410297331,0.2697892692975778,0
160,2024-09-26 22:19:07.463941120,TASK_BEGIN,020,-0.06606249801801899,0.08015281306939362,0.17929923146237275,0.5985460144918001,0.40997957917543987,-0.008856276412416925,-0.0875047902202362,0.2665530491197125,0
161,2024-09-26 22:19:07.541125888,TASK_BEGIN,020,-0.06005390086545907,0.08258632304086304,0.21416643888510345,0.5752738338337537,0.42860991446741625,-0.012335920150400612,-0.040233475076502635,0.26957848308678606,0
162,2024-09-26 22:19:07.609133056,TASK_BEGIN,020,-0.048687899962862775,0.08458152448280065,0.2450896343194114,0.5523759200183596,0.4421562594759251,-0.014554816832590066,-0.022676529534198617,0.2790475118181265,0
163,2024-09-26 22:19:07.664283904,TASK_BEGIN,020,-0.03212045694698549,0.08636288317733819,0.2706712231755003,0.5307844531538894,0.4496249157020913,-0.015450115240399624,-0.039394359471700266,0.2949486976465373,0
164,2024-09-26 22:19:07.744689920,TASK_BEGIN,020,-0.010727210565573356,0.08815956215532475,0.29084039730958094,0.51134017898949,0.4502255381218798,-0.014994614572196127,-0.09314849015420067,0.31709158137516713,0
165,2024-09-26 22:19:08.684229888,TASK_BEGIN,020,0.014873106260730037,0.09017634764630478,0.30618007289795457,0.49483034396585823,0.443364705670973,-0.013175407166206198,-0.18459764309582838,0.3451105355709139,0
166,2024-09-26 22:19:08.756313856,TASK_BEGIN,020,0.043811278570018486,0.09257030028421738,0.3173799860801148,0.4819786501518176,0.4286420869800749,-0.009978300393129275,-0.31221733910428334,0.37841635879890984,0
167,2024-09-26 22:19:08.824111872,TASK_BEGIN,020,0.07496760555223915,0.09544100614648131,0.32495952060119815,0.4733937902587788,0.4058536758110014,-0.005378516120193489,-0.4724894993450188,0.4161193591047365,0
168,2024-09-26 22:19:08.891879936,TASK_BEGIN,020,0.10699211523510041,0.09883340954092432,0.3292647738760889,0.4695060264917696,0.3750036037577928,0.0006641556142415036,-0.6603283566095312,0.45698350780997693,0
169,2024-09-26 22:19:08.947058944,TASK_BEGIN,020,0.13836642890962494,0.10274665385781412,0.3306685323498671,0.47051446709672123,0.3363363123625248,0.00820179642931786,-0.869557815479879,0.4994346409489462,0
170,2024-09-26 22:19:09.027504896,TASK_BEGIN,020,0.16750874087213002,0.10714415614922138,0.32983635231567654,0.4763524455589053,0.29038237851809806,0.01728342630434391,-1.0932481069064819,0.5416167978900531,0
171,2024-09-26 22:19:09.086697984,TASK_BEGIN,020,0.19290680572172172,0.11196255986325304,0.32788971456461774,0.4866766940411641,0.2379782253118565,0.027933882174965525,-1.3239345504010005,0.5815087466526252,0
172,2024-09-26 22:19:10.038637056,TASK_BEGIN,020,0.2132606275840779,0.11711578592420605,0.32632360402273647,0.5008984024707951,0.18023194312226393,0.040133154221499795,-1.5539180997983082,0.6171128078034792,0
173,2024-09-26 22:19:10.092667904,TASK_BEGIN,020,0.22761261038401043,0.12249128006347282,0.32662173963384283,0.5182725412760325,0.11845897516598357,0.0537968428992191,-1.7757728719702135,0.6466908479586921,0
174,2024-09-26 22:19:10.170758144,TASK_BEGIN,020,0.23543916342332089,0.12794242210098045,0.3296900474110823,0.538022003034117,0.05412882652440761,0.06875748844920133,-1.9829761044722756,0.6689961602817095,0
175,2024-09-26 22:19:10.242003968,TASK_BEGIN,020,0.23667962467675538,0.13328580838026183,0.33542100250696555,0.5594289395240969,-0.01116776399402952,0.0847516177767561,-2.1704578576722646,0.6834497509203905,0
176,2024-09-26 22:19:10.309254912,TASK_BEGIN,020,0.23168861205853092,0.13830886071141782,0.3426869334085758,0.5818408478273742,-0.07575214655746389,0.10141915510711809,-2.3349055538528525,0.6902175234664272,0
177,2024-09-26 22:19:10.377559808,TASK_BEGIN,020,0.2211239148496129,0.14278691674869928,0.34978183287878556,0.6046085252441781,-0.13791401984725146,0.11831866100792883,-2.474755501256666,0.6901605368648994,0
178,2024-09-26 22:19:10.445323008,TASK_BEGIN,020,0.20581010509179049,0.14650476075191007,0.3550339611655296,0.6270200122814897,-0.19598695102285912,0.13495615798116975,-2.589866174953024,0.6846599812351605,0
179,2024-09-26 22:19:11.353305088,TASK_BEGIN,020,0.18662026451392932,0.14927629617493726,0.35725687972843856,0.648279713006809,-0.2484140739988069,0.15081911995477473,-2.680917675165534,0.6753532369871833,0
180,2024-09-26 22:19:11.430716160,TASK_BEGIN,020,0.16440227972790125,0.15095782237293728,0.3559019404746039,0.6675400066813038,-0.2937902627771445,0.16540695541136535,-2.74869718122933,0.6638449787564866,0
181,2024-09-26 22:19:11.499539968,TASK_BEGIN,020,0.13996177844784938,0.15145391139769626,0.3510304777855069,0.6839573563020581,-0.33090048987811443,0.17825640848340785,-2.7935687155123343,0.6514729696492747,0
182,2024-09-26 22:19:11.559379200,TASK_BEGIN,020,0.11409458806130718,0.15071750562998878,0.34330803707433155,0.6967326146155491,-0.3587703236348815,0.1889646124510675,-2.815383811693666,0.6391977673942465,0
183,2024-09-26 22:19:11.635096832,TASK_BEGIN,020,0.08763980093162461,0.14874631361718352,0.3340451063244657,0.7051292754871361,-0.37671961974511003,0.1972098997135053,-2.8137904149936483,0.6276269597980987,0
184,2024-09-26 22:19:11.693166080,TASK_BEGIN,020,0.061521635033653474,0.14557677430779886,0.3251017518459321,0.708510903130961,-0.3844092830768449,0.20276877208150135,-2.788611575528282,0.6171107832014022,0
185,2024-09-26 22:19:11.770667008,TASK_BEGIN,020,0.0367667985342305,0.14127556170384947,0.3185342337999956,0.7064268503954193,-0.38187808139097307,0.205528226877401,-2.740015013696809,0.6078340556331858,0
186,2024-09-26 22:19:12.713726976,TASK_BEGIN,020,0.014498379225719003,0.13592820904908426,0.3161218739353873,0.6987146342844615,-0.3695560565619872,0.2054915168646918,-2.6685326726199805,0.5998832034479781,0
187,2024-09-26 22:19:12.772553984,TASK_BEGIN,020,-0.004095820476726071,0.1296266419210721,0.31906225481564027,0.6855558399118364,-0.3482326915970194,0.20277523608190484,-2.5752348305933306,0.5933160570897346,0
188,2024-09-26 22:19:12.834566144,TASK_BEGIN,020,-0.017821442461916547,0.1224591193321673,0.3279916244624811,0.6674544791898868,-0.3189766089696227,0.19759879642437292,-2.4622117115443904,0.5882572781192333,0
189,2024-09-26 22:19:12.917104896,TASK_BEGIN,020,-0.025547689193507344,0.11450357232596849,0.3432191234891946,0.6451628685933865,-0.2830420861339405,0.19026970389034992,-2.3331006377961034,0.5849849620944589,0
190,2024-09-26 22:19:12.974400000,TASK_BEGIN,020,-0.026270270547009318,0.10582275447235795,0.36494795681839187,0.6195993458830342,-0.24180899499715558,0.18116649644104424,-2.193190670529193,0.5839246213608925,0
191,2024-09-26 22:19:13.052713984,TASK_BEGIN,020,-0.019165358026535125,0.09646209700875984,0.3933190850528121,0.5917828956023451,-0.19675391150353358,0.17071725920423908,-2.0488972034273285,0.5854996172447376,0
192,2024-09-26 22:19:13.113185792,TASK_BEGIN,020,-0.0036455388906922294,0.0864539528981136,0.42820532599198324,0.5627932728146124,-0.14940267727382864,0.1593698344624893,-1.906849376415501,0.5898842497902986,0
193,2024-09-26 22:19:14.063872000,TASK_BEGIN,020,0.020580661262182692,0.0758286187837298,0.4688620790250691,0.5337501798725527,-0.10123849172912143,0.14755374772771584,-1.7730538688629667,0.5967856075293848,0
194,2024-09-26 22:19:14.122780928,TASK_BEGIN,020,0.05345632790694273,0.06462782960542424,0.5137753493417225,0.5057773085659358,-0.05358914421478415,0.13564074084418187,-1.6524567004223087,0.6053784024589789,0
195,2024-09-26 22:19:14.184270080,TASK_BEGIN,020,0.09454120944384051,0.05291657377157585,0.561002082170558,0.4799140006848294,-0.00752278974522368,0.12391204020894332,-1.5488548100927522,0.6144178037750113,0
196,2024-09-26 22:19:14.261032192,TASK_BEGIN,020,0.1430013584687256,0.04079117354001742,0.6088961868323463,0.45698137760270086,0.036238801344027266,0.11253436942576733,-1.4648575541150926,0.6224491516999225,0
197,2024-09-26 22:19:14.322695936,TASK_BEGIN,020,0.19762573973221606,0.028382504291680974,0.656776116884501,0.43745370815154827,0.07738396297695078,0.1015441634101697,-1.4017067183597551,0.6280171657987841,0
198,2024-09-26 22:19:14.400784896,TASK_BEGIN,020,0.2568662488703914,0.01585405914350203,0.7051538002735119,0.4213907823222728,0.1160372542457909,0.09084282234767958,-1.3590244998477714,0.6298144529488864,0
199,2024-09-26 22:19:14.470526976,TASK_BEGIN,020,0.31889972903204183,0.003395776039224857,0.7554537949110182,0.4084669517092916,0.15273286159240806,0.08020553780182389,-1.334722183781906,0.6267580973880096,0
200,2024-09-26 22:19:15.413870080,TASK_BEGIN,020,0.3817162826220775,-0.008784929908789683,0.8093309095327458,0.39810474140302327,0.18832657457691102,0.06930389592712892,-1.3252881284408498,0.6180411175255812,0
201,2024-09-26 22:19:15.481693184,TASK_BEGIN,020,0.44323842036654126,-0.02047515799555685,0.8677222659081452,0.3896814265456578,0.22385198959494584,0.057743141835177696,-1.326388258783038,0.6032016643166543,0
202,2024-09-26 22:19:15.549444864,TASK_BEGIN,020,0.5014670810582827,-0.03147257992416406,0.9299428111793976,0.38272668724115,0.26034788246187957,0.04511293226991104,-1.3334293185755894,0.5821829589997741,0
203,2024-09-26 22:19:15.610021120,TASK_BEGIN,020,0.5546283287886982,-0.04160195227845453,0.9933150430633017,0.37701582553216567,0.2986976845092984,0.03104379285672588,-1.341894176008938,0.5553388913864833,0
204,2024-09-26 22:19:15.675599104,TASK_BEGIN,020,0.6012792288680423,-0.05072495394952957,1.0535828753456988,0.37252682302555934,0.33953212385788833,0.015255529793661559,-1.347597719486076,0.5233906837717989,0
205,2024-09-26 22:19:15.750885888,TASK_BEGIN,020,0.6403536723478335,-0.05874191437992324,1.1059006749460725,0.3693099555939455,0.38323182653491467,-0.0024153382855323564,-1.3470116303598099,0.48736637560325174,0
206,2024-09-26 22:19:15.820223232,TASK_BEGIN,020,0.6711656199960544,-0.06559102352059666,1.1460135759695826,0.3673362621360336,0.4299973484687093,-0.022009822379569256,-1.3375795691959778,0.44853332478428537,0
207,2024-09-26 22:19:16.751502080,TASK_BEGIN,020,0.6933957688026958,-0.07124942615077083,1.1713165370865215,0.3663646161293444,0.4799015778090642,-0.04345010470003742,-1.3178910529380021,0.40831963279160316,0
208,2024-09-26 22:19:16.828869120,TASK_BEGIN,020,0.707075200690621,-0.07573562161872086,1.1815370192982113,0.36585255144096024,0.5328779040782228,-0.06654295998205818,-1.28774980203951,0.3682447101670557,0
209,2024-09-26 22:19:16.899603968,TASK_BEGIN,020,0.7125708209523157,-0.07911035220009013,1.178842217321134,0.36494079998438744,0.5886669470606575,-0.09098504349470804,-1.2482530163451486,0.3298864227968369,0
210,2024-09-26 22:19:16.966211072,TASK_BEGIN,020,0.7105694288814645,-0.08147316074355944,1.167337112422219,0.36253893904830375,0.6467733103535578,-0.11637659921061783,-1.2018162479364518,0.29485331898980843,0
211,2024-09-26 22:19:17.035151104,TASK_BEGIN,020,0.7020458998881843,-0.0829532078418043,1.1521332764298322,0.35751416738686365,0.7064690378230276,-0.14224593976223907,-1.1519394716253442,0.2646907276276087,0
212,2024-09-26 22:19:17.102936064,TASK_BEGIN,020,0.6882005880998466,-0.08369584804900103,1.1383149141012316,0.3489383772873198,0.7668364638997008,-0.16807932288261127,-1.1026971511239496,0.24071358026559325,0
213,2024-09-26 22:19:17.166439936,TASK_BEGIN,020,0.670362384783537,-0.08384694380348628,1.1301906816384033,0.33630265107886237,0.8268136539379501,-0.1933461170716341,-1.0581783449809359,0.22384536609540037,0
214,2024-09-26 22:19:18.088439040,TASK_BEGIN,020,0.6498627233070532,-0.08353436894424299,1.1311036281536755,0.3196137044732455,0.8852254240822117,-0.21751410135397695,-1.0220698335587541,0.21454722550750005,0
215,2024-09-26 22:19:18.156303104,TASK_BEGIN,020,0.6278959332077647,-0.08284717519406465,1.1437298453942584,0.2993524739712098,0.9408107112114937,-0.24005918838656964,-0.9974006358997253,0.212860619962823,0
216,2024-09-26 22:19:18.208867840,TASK_BEGIN,020,0.6053971282362991,-0.08181786354834096,1.1705177028233569,0.27633665799578905,0.9922594021390803,-0.2604779583577982,-0.986370405149166,0.21851219692105467,0
217,2024-09-26 22:19:18.291927040,TASK_BEGIN,020,0.582974255690305,-0.08041558262556678,1.2139474475874383,0.2515467612110147,1.0382656574156754,-0.278307542920882,-0.9901433677221717,0.2309829096815517,0
218,2024-09-26 22:19:18.359644160,TASK_BEGIN,020,0.5609081207902662,-0.07855430437199723,1.2764496308877145,0.22597631244611296,1.0775882808014514,-0.29314837096470003,-1.0085397138470298,0.24948526170012283,0
219,2024-09-26 22:19:18.425353984,TASK_BEGIN,020,0.5391948991070037,-0.0761117953185276,1.359892919601252,0.20056373498784208,1.109094021778968,-0.3046810229629293,-1.0397721787973653,0.27289741752762847,0
220,2024-09-26 22:19:18.488363008,TASK_BEGIN,020,0.5175981054098775,-0.07295101327648283,1.4646722785709614,0.1762204074553473,1.1317829207560122,-0.31267476722560045,-1.0804939042878707,0.29974322903813017,0
221,2024-09-26 22:19:19.437556992,TASK_BEGIN,020,0.49570974640169735,-0.06894031235373457,1.5887320257885869,0.1538963743930479,1.1448247912619451,-0.3169923443187582,-1.1261807946442262,0.3282429772840257,0
222,2024-09-26 22:19:19.505996800,TASK_BEGIN,020,0.47303203296338675,-0.06397302642409332,1.7270623337177404,0.13459848739276656,1.1476142423598088,-0.31759377123420524,-1.171571941528855,0.35639625421076826,0
223,2024-09-26 22:19:19.561203200,TASK_BEGIN,020,0.4490645410422581,-0.05798423876549073,1.872016676265072,0.11932165373446026,1.1398004913461668,-0.3145345814074339,-1.2109443682307912,0.38207253886808673,0
224,2024-09-26 22:19:19.638864896,TASK_BEGIN,020,0.42337251084750194,-0.05096105271346399,2.0143504583931997,0.10891989615238723,1.1212517209990942,-0.3079523211332397,-1.238244407480885,0.4031248232794039,0
225,2024-09-26 22:19:19.700558848,TASK_BEGIN,020,0.3956314178520019,-0.042945725969699096,2.144526649133322,0.10397908190736246,1.0919910070510779,-0.29804526987109653,-1.2472362968104849,0.4175438841899412,0
226,2024-09-26 22:19:19.777142016,TASK_BEGIN,020,0.3656490994244773,-0.0340316745160365,2.2538055880394174,0.10474711452664877,1.0521862492724199,-0.2850565340238254,-1.231869347323495,0.4236510675369319,0
227,2024-09-26 22:19:19.839686912,TASK_BEGIN,020,0.33336104204386846,-0.024351924711555017,2.3349051522367326,0.11115219532086595,1.0022207953041096,-0.2692716661340966,-1.1869819920303801,0.42030446067048405,0
228,2024-09-26 22:19:20.781560832,TASK_BEGIN,020,0.2988086649145318,-0.014063663800748978,2.3823101799178623,0.12290787704007855,0.942797930500293,-0.25102611297763694,-1.1091928303388625,0.4070614499003771,0
229,2024-09-26 22:19:20.843576832,TASK_BEGIN,020,0.26212733450201964,-0.0033355508146686737,2.3924091351910266,0.13965787635213794,0.8750172264981654,-0.2307112574546096,-0.9976269067840552,0.3842296359177624,0
230,2024-09-26 22:19:20.923863040,TASK_BEGIN,020,0.22355642227765515,0.007659058551132737,2.3635845138640112,0.16108218417809453,0.800380435445716,-0.2087683492439418,-0.8542487672625673,0.3527876301093045,0
231,2024-09-26 22:19:20.982693888,TASK_BEGIN,020,0.18345747254718886,0.01874459580027626,2.296304987817686,0.18690859227517367,0.7207211925313878,-0.18567004060948536,-0.6838455099533598,0.3142359509624152,0
232,2024-09-26 22:19:21.059391232,TASK_BEGIN,020,0.14232391757014365,0.029744334276907168,2.1932031198330946,0.2168312399788093,0.6380995165005581,-0.161901226673217,-0.4937793281154937,0.2704569699541744,0
233,2024-09-26 22:19:21.127201792,TASK_BEGIN,020,0.10078246058282758,0.0404810485346257,2.059067705360832,0.25038732654459156,0.5547089698175742,-0.13794911031601173,-0.2935172546068758,0.22360538408636774,0
234,2024-09-26 22:19:21.184865024,TASK_BEGIN,020,0.05960087821882471,0.05077504636563396,1.9006458805524764,0.28685960716511105,0.4727941083002858,-0.11429774102445105,-0.09390641621988553,0.1760062435676508,0
235,2024-09-26 22:19:22.128993792,TASK_BEGIN,020,0.01971373845542007,0.06043707694020226,1.7261559238521087,0.325248892103253,0.3945439100950736,-0.09141501992387484,0.09377019368514362,0.13004582192484665,0
236,2024-09-26 22:19:22.205674752,TASK_BEGIN,020,-0.017748281716978228,0.06925908471675486,1.544484100479626,0.3643221307729182,0.32196943373535675,-0.06973126571911156,0.2588936704124195,0.08805242267974092,0
237,2024-09-26 22:19:22.273922048,TASK_BEGIN,020,-0.05146322473014673,0.07701066226452376,1.364231305959061,0.4027087355812288,0.25682019889321245,-0.04962008026855043,0.3926717970832961,0.0521631570393139,0
238,2024-09-26 22:19:22.328861952,TASK_BEGIN,020,-0.0799841059218172,0.0834463403523916,1.1929768143225767,0.4389933214447097,0.20055945691892785,-0.0313872600633511,0.48916287324436747,0.024174482701841193,0
239,2024-09-26 22:19:22.406023936,TASK_BEGIN,020,-0.10185776846527021,0.08832177316173509,1.0370396804621527,0.47176476513314436,0.15435645145565458,-0.015264306208170701,0.5458958139554291,0.0053795633800225945,0
240,2024-09-26 22:19:22.477235968,TASK_BEGIN,020,-0.1157655766243526,0.09141356501821075,0.9016467820449325,0.4996389602052031,0.11905527463428894,-0.0014044659357347197,0.563924438050971,-0.0035829930965593487,0
241,2024-09-26 22:19:22.530891776,TASK_BEGIN,020,-0.1206592292872701,0.09253845339131897,0.7911699355763935,0.5213126337380504,0.09512704585324731,0.010115256158381753,0.5473374739522383,-0.002813023215553717,0
242,2024-09-26 22:19:23.483810048,TASK_BEGIN,020,-0.11586321010258717,0.0915670950805205,0.709183649481594,0.5356771402481733,0.08264093458295727,0.019280786648787743,0.5023625143143969,0.0068883550300173095,0
243,2024-09-26 22:19:23.547138816,TASK_BEGIN,020,-0.10111065150337648,0.08842790516535826,0.6583102045715806,0.5419621524677809,0.08128237828682937,0.026113782964523883,0.43627358649177567,0.024183848617610408,0
244,2024-09-26 22:19:23.623786752,TASK_BEGIN,020,-0.07651450590573114,0.08310322502558679,0.6399290872402806,0.5398544540956232,0.0904157728595646,0.030636792081922284,0.35638923805692735,0.0474406028229427,0
245,2024-09-26 22:19:23.684638976,TASK_BEGIN,020,-0.04252200183523912,0.07562554636050729,0.653835581083309,0.5295560111489417,0.10916401262337157,0.03284500693573878,0.26938791950871954,0.07495840598713288,0
246,2024-09-26 22:19:23.746306816,TASK_BEGIN,020,0.00010993718149159362,0.06607624170604005,0.6979890037818948,0.5117658383256136,0.13648609305949097,0.03269525704463002,0.18091117920605218,0.1051231337249987,0
247,2024-09-26 22:19:23.823976192,TASK_BEGIN,020,0.050324363957898716,0.054582720743439304,0.7685697826023383,0.48757615691718026,0.17125114564746038,0.030112610233842194,0.09522469866582729,0.1364972296058372,0
248,2024-09-26 22:19:23.895229952,TASK_BEGIN,020,0.10678551916917961,0.0413113817670772,0.8604060682581045,0.45830148602535636,0.2123004526252921,0.025010275028705557,0.014785044302615822,0.1678980483044252,0
249,2024-09-26 22:19:24.807204096,TASK_BEGIN,020,0.16793677985423547,0.026456723545378678,0.9674916126946168,0.42530642715494205,0.2584845402476665,0.01731834687207399,-0.06019941804555124,0.19848261365787837,0
250,2024-09-26 22:19:24.880105984,TASK_BEGIN,020,0.23210427998992123,0.010227600860532792,1.08326410474287,0.3898981679698305,0.30868297301361936,0.0070138571243589755,-0.13194956307032188,0.2278067191995659,0
251,2024-09-26 22:19:24.946057216,TASK_BEGIN,020,0.29762022216269307,-0.0071664197114798,1.2006898111791304,0.35328414271332964,0.36182601653177343,-0.005857459876838348,-0.20474007483529674,0.2558059243386619,0
252,2024-09-26 22:19:25.015670272,TASK_BEGIN,020,0.3629220926276953,-0.025524333801630134,1.3125303465027471,0.31653593396964363,0.4169108461573632,-0.021170139758061424,-0.2838371338808136,0.282672879859743,0
253,2024-09-26 22:19:25.070172160,TASK_BEGIN,020,0.4266078915582955,-0.04465671732775035,1.4119910815319532,0.28051572853347406,0.4729749634884534,-0.03871148180210853,-0.3739673696542625,0.30866134363763903,0
254,2024-09-26 22:19:25.147956992,TASK_BEGIN,020,0.48745708509494784,-0.0643826119768044,1.4935006229661112,0.2457850227170857,0.5290110801439912,-0.058171026532555105,-0.47778538090366696,0.33388056029424534,0
255,2024-09-26 22:19:25.212360960,TASK_BEGIN,020,0.5444338706937691,-0.08452098197318347,1.5532334982311409,0.21255072227783578,0.5838670234632874,-0.07913063385976428,-0.5947776583939656,0.35813947537206353,0
256,2024-09-26 22:19:26.148752896,TASK_BEGIN,020,0.5966845009497663,-0.10487973886985474,1.5892258840928732,0.18068823673317044,0.6362014713380827,-0.10106655703795671,-0.720858564215747,0.3808830447346282,0
257,2024-09-26 22:19:26.230208000,TASK_BEGIN,020,0.6435315962179627,-0.12524646536581202,1.6011549398558038,0.14984768516695593,0.6845316012179194,-0.12337088489519335,-0.8487229875049028,0.4012363665060578,0
258,2024-09-26 22:19:26.292763904,TASK_BEGIN,020,0.6844618586001395,-0.145382509525238,1.5899004970534214,0.1196197244599163,0.727346342258954,-0.1453866061335542,-0.9688217589793483,0.4181334508727249,0
259,2024-09-26 22:19:26.365856000,TASK_BEGIN,020,0.719112040758111,-0.1650208218496816,1.5570262898635616,0.08971120729144308,0.7632272973413136,-0.16644408155786877,-1.0706440966251085,0.43048270465001115,0
260,2024-09-26 22:19:26.429292032,TASK_BEGIN,020,0.7472708237606562,-0.1838692109004263,1.5043544547792824,0.060072116292642405,0.7909438705602578,-0.18589383946700042,-1.1440118886545,0.4373335607804973,0
261,2024-09-26 22:19:26.488256768,TASK_BEGIN,020,0.7689056115759176,-0.20162041381069684,1.4337348247648927,0.030943497021571207,0.8095251241243474,-0.2031368850357755,-1.1803023733868687,0.43802698580413896,0
262,2024-09-26 22:19:26.564989952,TASK_BEGIN,020,0.7841980690335492,-0.21796792997682188,1.3469613123393112,0.002839599360876224,0.8183103224813558,-0.217650385471352,-1.1735652995499246,0.43230214370253606,0
263,2024-09-26 22:19:27.506010880,TASK_BEGIN,020,0.7935642810809393,-0.2326246888032372,1.2457732932957577,-0.023508580075033612,0.8169654914510481,-0.22900457235355512,-1.1213741332287557,0.4203315569085468,0
264,2024-09-26 22:19:27.580235008,TASK_BEGIN,020,0.7976526049869465,-0.24534148250049034,1.1319571811428795,-0.04723109376634438,0.8054682393712385,-0.23687270156913728,-1.0253274016984515,0.4027061565967565,0
265,2024-09-26 22:19:27.648153088,TASK_BEGIN,020,0.7973228858910828,-0.25592265690996313,1.0075519341140562,-0.06740260542310786,0.7840956024163979,-0.24104218388191023,-0.8913213420991395,0.3804299639187086,0
266,2024-09-26 22:19:27.709104128,TASK_BEGIN,020,0.7935998090056737,-0.2642362747923108,0.8751224883716214,-0.08312024689983752,0.753447066192452,-0.24143303297654645,-0.7296087333220562,0.354940477352447,0
267,2024-09-26 22:19:27.770693120,TASK_BEGIN,020,0.7875834020428918,-0.2702153533791916,0.7380266660138148,-0.09357583684758963,0.7144834114975748,-0.2381195496926471,-0.5543333090452816,0.3280923882320656,0
268,2024-09-26 22:19:27.848800768,TASK_BEGIN,020,0.7803077760633672,-0.27384810871992354,0.6005099420908667,-0.09812250340526338,0.668520961859483,-0.23134172822126228,-0.38225469619137276,0.30203761932687584,0
269,2024-09-26 22:19:27.913884160,TASK_BEGIN,020,0.772567996076453,-0.27516042202126023,0.46749472090376903,-0.09634011060930796,0.6171484411607011,-0.22149481242129757,-0.23086483534036226,0.2790090650071772,0
270,2024-09-26 22:19:28.828150016,TASK_BEGIN,020,0.7647754853690334,-0.2742005846998619,0.3441711312177482,-0.08811608759696632,0.5621022577393542,-0.20909802203021516,-0.11648386236744329,0.26107581158635773,0
271,2024-09-26 22:19:28.905812992,TASK_BEGIN,020,0.7569100162890935,-0.27103599764434283,0.23565171216735797,-0.07374107544530266,0.5051628646960321,-0.19475375305144488,-0.05281679088397684,0.24994089265105532,0
272,2024-09-26 22:19:28.967036928,TASK_BEGIN,020,0.7485831070956899,-0.2657612732463119,0.14680805882583742,-0.05398143228003807,0.448094693232922,-0.17910735519459156,-0.050073407842177536,0.24682545460229507,0
273,2024-09-26 22:19:29.029082880,TASK_BEGIN,020,0.7391666647280566,-0.25850913779259627,0.08214684439879069,-0.030080551443432312,0.3926105216887821,-0.16281090574514986,-0.11445541011683609,0.25243768583192383,0
274,2024-09-26 22:19:29.109942784,TASK_BEGIN,020,0.7279344769027498,-0.24945843791096645,0.045511551194808306,-0.003667565945216276,0.34034575579200366,-0.14649238396609177,-0.24773619686562345,0.26697243647324004,0
275,2024-09-26 22:19:29.167853056,TASK_BEGIN,020,0.7141935143601451,-0.23883969207102124,0.03957534778068212,0.023404561702512997,0.2928423123881745,-0.13073306063006532,-0.4468750158258888,0.2900888578811227,0
276,2024-09-26 22:19:29.245233920,TASK_BEGIN,020,0.6973961213486864,-0.2269394344128303,0.06531071182562712,0.04924379611334475,0.2515304208847945,-0.11605314271360619,-0.7039644190031138,0.3208837036241071,0
277,2024-09-26 22:19:30.188851200,TASK_BEGIN,020,0.6772227443574889,-0.2141026343110282,0.12169739381174566,0.07209465835396987,0.21768211812701357,-0.10289970260533725,-1.0068146139476573,0.357915526997601,0
278,2024-09-26 22:19:30.254254080,TASK_BEGIN,020,0.6536318902395803,-0.20073165400656284,0.20585651183826523,0.09049219441058784,0.1923200049176774,-0.09163058579606748,-1.3400452416048274,0.3992880528378111,0
279,2024-09-26 22:19:30.324412160,TASK_BEGIN,020,0.6268844558101831,-0.18727959894523774,0.3136249394792376,0.10337065931628425,0.17609812106526862,-0.08249564142758296,-1.6862843429203251,0.4427608686920914,0
280,2024-09-26 22:19:30.392174080,TASK_BEGIN,020,0.5975452546180255,-0.17423499901051323,0.44037036339686103,0.11010333330089887,0.1692102511936057,-0.07562464190325952,-2.0272845365520835,0.48588196601639816,0
281,2024-09-26 22:19:30.460006912,TASK_BEGIN,020,0.5664515836741171,-0.16209617717376,0.5817156970669934,0.11049050340296025,0.17138999159547538,-0.07103283600750299,-2.3450983331193638,0.5261719308543105,0
282,2024-09-26 22:19:30.527851008,TASK_BEGIN,020,0.534643129855858,-0.1513393234416693,0.7338899703485994,0.10474661899925874,0.18201704492225215,-0.06864837877893898,-2.6235083216117365,0.5613744308256776,0
283,2024-09-26 22:19:30.593364992,TASK_BEGIN,020,0.5032712127581261,-0.14238930279326156,0.8936080711161446,0.09351644416819699,0.20027044153252374,-0.06835395356524591,-2.849626684824206,0.5897329918225268,0
284,2024-09-26 22:19:31.523917056,TASK_BEGIN,020,0.4735179218443919,-0.1356001203382965,1.057610778661389,0.07788945174904499,0.225246139757936,-0.07002626133128718,-3.015224769054185,0.610212337532927,0
285,2024-09-26 22:19:31.602811136,TASK_BEGIN,020,0.44654406548498027,-0.13124583683394322,1.2221870824759624,0.059346060472094245,0.25599444212647304,-0.07355872821022158,-3.1172565137466868,0.6225849741345992,0
286,2024-09-26 22:19:31.674521856,TASK_BEGIN,020,0.4234604951296786,-0.12951838753455586,1.3829946822839565,0.03960435371226817,0.29149213782277567,-0.07886405637490579,-3.15727377479657,0.6273376362269392,0
287,2024-09-26 22:19:31.742283264,TASK_BEGIN,020,0.4052938379796247,-0.1305262475540523,1.5352708006763174,0.020400622024018364,0.33061106161777776,-0.08586534924056918,-3.1399065293972788,0.6254110291358261,0
288,2024-09-26 22:19:31.802988032,TASK_BEGIN,020,0.39291895287277245,-0.13428884535604332,1.6743162306750583,0.0032593270801288864,0.3721381418568437,-0.09448675707495766,-3.0711092418702495,0.6178693779512533,0
289,2024-09-26 22:19:31.865030912,TASK_BEGIN,020,0.38696609270451304,-0.14072820771706643,1.7960168244479093,-0.010697098955430277,0.41484656735965986,-0.10464754014125031,-2.95702289118253,0.6056454719764952,0
290,2024-09-26 22:19:31.942657024,TASK_BEGIN,020,0.3877428188809768,-0.14966515211471615,1.897088744329452,-0.020839419214850486,0.4575831649931056,-0.11625791286297428,-2.8038046208702205,0.5894491030277306,0
291,2024-09-26 22:19:32.874303232,TASK_BEGIN,020,0.39520319197208226,-0.16082521184160742,1.974866679957262,-0.02698292880087799,0.4993505079102502,-0.12921548258262183,-2.6180677935833523,0.569800562469414,0
292,2024-09-26 22:19:32.952328960,TASK_BEGIN,020,0.40896726164298686,-0.1738537290141746,2.026791345308463,-0.029226016846001464,0.5393837786629372,-0.14340344751041278,-2.4073274929785935,0.547091529755011,0
293,2024-09-26 22:19:33.013912064,TASK_BEGIN,020,0.42837748874073306,-0.18833821917737376,2.04992245501628,-0.027750986617139053,0.5772231130533638,-0.15869205134872838,-2.18012679942947,0.5216337556600595,0
294,2024-09-26 22:19:33.092344064,TASK_BEGIN,020,0.4525817882475002,-0.20383746858259297,2.040708821876658,-0.022657253251660184,0.6127696671025977,-0.1749424634453982,-1.9458542899364515,0.4937237964987457,0
295,2024-09-26 22:19:33.160135936,TASK_BEGIN,020,0.48063545688397097,-0.21991496727201046,1.995135708590459,-0.013874335794080596,0.6463064364532196,-0.1920104467061322,-1.7143633267596474,0.463735254217483,0
296,2024-09-26 22:19:33.213941248,TASK_BEGIN,020,0.5116012206341346,-0.23617051936303002,1.9092885992644024,-0.001172713144806813,0.6784713512822373,-0.20974877057068753,-1.495449426516654,0.43219546569948625,0
297,2024-09-26 22:19:33.291164928,TASK_BEGIN,020,0.5446174352365479,-0.252263765756491,1.780224810305036,0.01574034099835588,0.710184209170199,-0.22800934083491378,-1.2981600033257308,0.39979178977448077,0
298,2024-09-26 22:19:34.238957056,TASK_BEGIN,020,0.5789200669392681,-0.2679264193258104,1.6069108913428283,0.03706384928718993,0.7425363361870025,-0.2466449769875876,-1.1299084073015124,0.3672865895897192,0
299,2024-09-26 22:19:34.295876096,TASK_BEGIN,020,0.6138282409349992,-0.2829617157308339,1.3909864309268412,0.06271753490932071,0.7766537482830432,-0.26550983809825285,-0.9955316018732543,0.3353631569475162,0
300,2024-09-26 22:19:34.373217024,TASK_BEGIN,020,0.6487197868216811,-0.29723154403980645,1.1372241849192817,0.0921852863717291,0.813556453834347,-0.2844600862237467,-0.8966229607069363,0.30445833920746485,0
301,2024-09-26 22:19:34.435220992,TASK_BEGIN,020,0.6830247223293653,-0.3106355971004419,0.8536481547835014,0.12444962438349046,0.8540427251272169,-0.3033576389629537,-0.8313815875874617,0.2746471868705839,0
302,2024-09-26 22:19:34.500278016,TASK_BEGIN,020,0.7162389208242628,-0.32308780041450297,0.5512808067525847,0.15803514068339086,0.8986043661309379,-0.322074851234134,-0.7949007612476973,0.24561305660529034,0
303,2024-09-26 22:19:34.574321152,TASK_BEGIN,020,0.7479367669664749,-0.33449451380052075,0.24351960002730821,0.19112410888233358,0.9473571306903644,-0.3404936428375994,-0.7797107370785653,0.21668962106533007,0
304,2024-09-26 22:19:34.645844992,TASK_BEGIN,020,0.7777784456541479,-0.34474164583749234,-0.054756933854615664,0.2216950409740907,0.9999829380798145,-0.35849797042471554,-0.7765645465255362,0.18695201549005597,0
305,2024-09-26 22:19:35.564092160,TASK_BEGIN,020,0.8055256712871995,-0.35369705104700117,-0.3282301152090933,0.24767191081775022,1.055703944402206,-0.3759664239936795,-0.775507718621034,0.1553558223675141,0
306,2024-09-26 22:19:35.631912192,TASK_BEGIN,020,0.8310572116827728,-0.36122491417154945,-0.5622586180420223,0.2670985400558866,1.1133122330238832,-0.3927700903598162,-0.7670862321247286,0.12091957738764238,0
307,2024-09-26 22:19:35.694879232,TASK_BEGIN,020,0.8543547703016955,-0.3672016205571311,-0.7439695668936219,0.27832387893640115,1.171267099930554,-0.40877553273938366,-0.7433761699047189,0.08290738679111052,0
308,2024-09-26 22:19:35.767479040,TASK_BEGIN,020,0.8754453775129585,-0.371526482659159,-0.8631655749548277,0.2801504538611611,1.2278526618078216,-0.42385280286018956,-0.6985577742289154,0.04094772547762519,0
309,2024-09-26 22:19:35.833527040,TASK_BEGIN,020,0.8943140852758673,-0.3741280905274435,-0.9129529708538443,0.27191696411077915,1.2813681271461188,-0.4378885989045661,-0.6290113733305149,-0.004935371653404262,0
310,2024-09-26 22:19:35.903076864,TASK_BEGIN,020,0.9108237500506141,-0.3749705826798601,-0.8901326515120939,0.25352782510474525,1.3303152811331589,-0.4508022514088962,-0.5331302493748065,-0.054348928127349594,0
311,2024-09-26 22:19:35.957843968,TASK_BEGIN,020,0.9246811518194971,-0.3740634012129864,-0.7954777534788572,0.2254584193444221,1.3735453137171383,-0.46255994869036704,-0.4110042475683796,-0.1065885351991221,0
312,2024-09-26 22:19:36.898654976,TASK_BEGIN,020,0.9354566232892069,-0.37147342703393293,-0.633932596557529,0.18874944520229553,1.4103260315968933,-0.4731794005650819,-0.26403365765225534,-0.16072909797654025,0
313,2024-09-26 22:19:36.975465984,TASK_BEGIN,020,0.9426358897587971,-0.3673338903578453,-0.41455492659696197,0.1449768441026154,1.440320994058969,-0.48271836010386665,-0.09456341558296827,-0.21573628483983578,0
314,2024-09-26 22:19:37.037466112,TASK_BEGIN,020,0.9456844877394183,-0.36184490851458695,-0.1499596037631305,0.09617013507607529,1.4635258192709293,-0.4912514844965795,0.0943959087218068,-0.2705551336332872,0
315,2024-09-26 22:19:37.116623104,TASK_BEGIN,020,0.9441104976962178,-0.35526348426936427,0.14477730386427676,0.044669494449850466,1.4802162703844963,-0.4988487601723564,0.2993693004859736,-0.32414671563798,0
316,2024-09-26 22:19:37.184382720,TASK_BEGIN,020,0.937516705073315,-0.3478841656562822,0.4535664776926695,-0.007057086996378041,1.4909118867583766,-0.5055636953657437,0.5164894558924941,-0.3754776924528115,0
317,2024-09-26 22:19:37.252209920,TASK_BEGIN,020,0.9256523007347076,-0.34001643510664165,0.7608648121209083,-0.05660726013186579,1.4963167727362772,-0.5114291644990221,0.7413682458850219,-0.42348610507079715,0
318,2024-09-26 22:19:37.313841920,TASK_BEGIN,020,0.9084808660724392,-0.331966371878132,1.0531256006370335,-0.1018296542968576,1.497210305482778,-0.5164540170976065,0.9688865629121697,-0.46706498447151945,0
319,2024-09-26 22:19:38.262628096,TASK_BEGIN,020,0.8862532403812727,-0.3240239762609568,1.3198989309402074,-0.14098388562532213,1.494295673221381,-0.5206147042416194,1.193130831265141,-0.5051073610405062,0
320,2024-09-26 22:19:38.330492928,TASK_BEGIN,020,0.8595496571114006,-0.3164528153662975,1.554376871842046,-0.17285404688581923,1.4880450438157233,-0.5238426571921624,1.407566589909646,-0.5366159593072278,0
321,2024-09-26 22:19:38.386118912,TASK_BEGIN,020,0.8292755279315254,-0.3094829888227453,1.7533454786966094,-0.19680172783747113,1.4786006787989494,-0.5260161733783245,1.6053686896604134,-0.5608296157964533,0
322,2024-09-26 22:19:38.464226048,TASK_BEGIN,020,0.7966250788520974,-0.30331171262472273,1.916682755167024,-0.21275558665018138,1.4657778563198147,-0.5269661787272487,1.779767494982123,-0.5773044972420949,0
323,2024-09-26 22:19:38.527190016,TASK_BEGIN,020,0.7630242120847953,-0.2981099877295824,2.0465702748337606,-0.22113614671530804,1.4491678541826447,-0.5264989202471804,1.9243346991952646,-0.5859248142122094,0
324,2024-09-26 22:19:38.589211904,TASK_BEGIN,020,0.7300509442234739,-0.29402862229336374,2.1465324689677447,-0.22272346182484526,1.428299035727378,-0.5244310290683493,2.033230160257693,-0.5868663530528031,0
325,2024-09-26 22:19:38.666316032,TASK_BEGIN,020,0.6993403204089773,-0.2912005834921384,2.220454389242345,-0.2185025051734919,1.4028031457866266,-0.5206257633687286,2.101445193107482,-0.5805519878557791,0
326,2024-09-26 22:19:39.582708992,TASK_BEGIN,020,0.6724974833079623,-0.28974237316912177,2.2718032331952873,-0.20953098057428501,1.3725479908390175,-0.5150204763757883,2.1250922480082592,-0.5676243383273549,0
327,2024-09-26 22:19:39.656128000,TASK_BEGIN,020,0.6510355639333617,-0.28975563680216576,2.3032056432850556,-0.196846799006227,1.3377234069911288,-0.5076447255221498,2.1018044384571537,-0.5489303598819595,0
328,2024-09-26 22:19:39.723751936,TASK_BEGIN,020,0.6363269827532457,-0.29132471266322685,2.316338169146107,-0.18140433948022805,1.2988812669698768,-0.49863278606709643,2.031192935906546,-0.5254847670165481,0
329,2024-09-26 22:19:39.784188928,TASK_BEGIN,020,0.6295402917374859,-0.294505618612931,2.311981645928396,-0.16402962151900774,1.2569293372644543,-0.4882300592011546,1.915216183607347,-0.4983926634154376,0
330,2024-09-26 22:19:39.846487040,TASK_BEGIN,020,0.6315440709569868,-0.29930782904107034,2.2901822123235416,-0.14540427650047363,1.213084131714696,-0.4767893602953766,1.7583382808433003,-0.4687515029836816,0
331,2024-09-26 22:19:39.923248128,TASK_BEGIN,020,0.6427862575055143,-0.30567605560170263,2.2505954083395032,-0.12609311921963193,1.1687980920830163,-0.4647541331042021,1.5673231239952572,-0.4375577573851971,0
332,2024-09-26 22:19:39.985288960,TASK_BEGIN,020,0.6631834156201554,-0.313479937889897,2.1929930400921496,-0.10659704913978807,1.1256696029248152,-0.4526290808006331,1.3505278624675707,-0.4056212683603757,0
333,2024-09-26 22:19:40.933280000,TASK_BEGIN,020,0.692064318195336,-0.32251522953928224,2.1177076080127892,-0.08738848449115373,1.085329952545231,-0.44094372362128237,1.1168326697398563,-0.3735011462461768,0
334,2024-09-26 22:19:41.006157056,TASK_BEGIN,020,0.7281994759194989,-0.33251578449629343,2.025885300867389,-0.06892547518844101,1.0493082077918932,-0.4302170066629363,0.8745877958227025,-0.3415061656143462,0
335,2024-09-26 22:19:41.073964032,TASK_BEGIN,020,0.7699095864133585,-0.34317245904538196,1.9196783075862067,-0.051679970590743064,1.0188931638063026,-0.4209268015725538,0.6308304664381799,-0.3097697669317603,0
336,2024-09-26 22:19:41.133586944,TASK_BEGIN,020,0.8152090157842566,-0.3541519583767398,1.8024451160427037,-0.036176364399225676,0.9950153970833917,-0.4134831252855833,0.3907727902379352,-0.2783382668092321,0
337,2024-09-26 22:19:41.209538816,TASK_BEGIN,020,0.8619455937545624,-0.3651100472084441,1.6787521629206166,-0.022980880989595123,0.978171789767331,-0.4082058490276315,0.15757885099642926,-0.24721508900395062,0
338,2024-09-26 22:19:41.277332992,TASK_BEGIN,020,0.9079292201314697,-0.37569974428133357,1.5539798513020069,-0.012606522434086574,0.9684128093639435,-0.4053104470499178,-0.06738639408557849,-0.2163829512068176,0
339,2024-09-26 22:19:41.334612992,TASK_BEGIN,020,0.9510560022203997,-0.38557803351041986,1.4336784354960774,-0.005378999771708252,0.9653872792865378,-0.40490118664732205,-0.28372579370837997,-0.18586572206767166,0
340,2024-09-26 22:19:42.288176128,TASK_BEGIN,020,0.989427733937402,-0.39441260270926753,1.3230461169457446,-0.0013514477413062152,0.9684115888376653,-0.4069668314378616,-0.4908328469650267,-0.15584655195963634,0
341,2024-09-26 22:19:42.354712832,TASK_BEGIN,020,1.021457647455795,-0.40189010656304014,1.226722349101358,-0.0003142822470570295,0.9765383716325671,-0.41137743067964355,-0.6868486370811121,-0.12678943201601625,0
342,2024-09-26 22:19:42.424040960,TASK_BEGIN,020,1.0459512066523657,-0.40772912266056055,1.1487615355534544,-0.0018712149878797278,0.9886235325794512,-0.4178867841472098,-0.8681070310536497,-0.0994905947178633,0
343,2024-09-26 22:19:42.478686976,TASK_BEGIN,020,1.0621539686216679,-0.4116980602781508,1.092559473891285,-0.005519640932899016,1.0034000864126658,-0.4261458607045939,-1.0291426975921476,-0.07502263705959825,0
344,2024-09-26 22:19:42.559570176,TASK_BEGIN,020,1.0697627277353408,-0.4136324625763508,1.060649037287205,-0.010698793892739599,1.0195652914553106,-0.4357282900918329,-1.1632025658845393,-0.054583259086352684,0
345,2024-09-26 22:19:42.618792960,TASK_BEGIN,020,1.0689010141921402,-0.4134450962015029,1.0544611111312485,-0.016820083374754935,1.035876183002142,-0.4461638817744591,-1.2631744777731653,-0.039289236473161314,0
346,2024-09-26 22:19:42.695154688,TASK_BEGIN,020,1.0600707730956918,-0.41112842163663443,1.0742287900587166,-0.023325971853712643,1.0512328217912577,-0.4569725246838987,-1.3227806428978324,-0.02995976949527057,0
347,2024-09-26 22:19:43.637859072,TASK_BEGIN,020,1.044102091429997,-0.4067553501031601,1.1190981899806525,-0.02979344488331925,1.0647243378041793,-0.46769089030187067,-1.337752967053938,-0.026931275881693636,0
348,2024-09-26 22:19:43.699396096,TASK_BEGIN,020,1.0221135847113516,-0.40048268344793264,1.1872964448350354,-0.036032940716767325,1.0756249857868179,-0.47788815798870615,-1.3066033206022964,-0.02995709355164392,0
349,2024-09-26 22:19:43.774183168,TASK_BEGIN,020,0.9954721398636921,-0.3925553644315106,1.2762072815143042,-0.04212308500759073,1.083345568927429,-0.48717059428333576,-1.2307419655789407,-0.038237216251652446,0
350,2024-09-26 22:19:43.838241280,TASK_BEGIN,020,0.9657312653339903,-0.38330603837057536,1.3823827072147759,-0.04837123672510502,1.0873608369845396,-0.49517645866632487,-1.1140875975953732,-0.05056277840240944,0
351,2024-09-26 22:19:43.909725952,TASK_BEGIN,020,0.934538179301482,-0.37314418401860516,1.5015622740141985,-0.05522491362667832,1.087151882106964,-0.5015671035675844,-0.9625434245892157,-0.06549886447153219,0
352,2024-09-26 22:19:43.962469888,TASK_BEGIN,020,0.9035109130665347,-0.3625316746898328,1.628749886812943,-0.06316866068325576,1.0822176857531873,-0.5060268830699272,-0.7835460330604468,-0.08153935737456322,0
353,2024-09-26 22:19:44.039331072,TASK_BEGIN,020,0.8740913547462192,-0.35194703015247875,1.758430514721698,-0.0726443772861503,1.0721833395701885,-0.5082828625947903,-0.5856487442929581,-0.09722314699011514,0
354,2024-09-26 22:19:44.988647936,TASK_BEGIN,020,0.8473905421762777,-0.3418449639124642,1.884902323010838,-0.08400836983003306,1.056960281494866,-0.5081418413303628,-0.37811930257273885,-0.11121436463370234,0
355,2024-09-26 22:19:45.053230080,TASK_BEGIN,020,0.8240659110434044,-0.3326194845702679,2.00255050717433,-0.0974976663529134,1.0368696716098333,-0.5055290115250797,-0.17062772803505746,-0.12233011850542563,0
356,2024-09-26 22:19:45.115237120,TASK_BEGIN,020,0.8042833744183389,-0.3245791345832979,2.1059875023357786,-0.11317656899172493,1.01267513688454,-0.500511423128452,0.027024818976193493,-0.12952632077389573,0
357,2024-09-26 22:19:45.177188096,TASK_BEGIN,020,0.7877857710076075,-0.31794008324388195,2.1902064764721563,-0.1308815724243509,0.985531970401384,-0.4932986620212457,0.2053403756534393,-0.1318963546889286,0
358,2024-09-26 22:19:45.259891200,TASK_BEGIN,020,0.7740335376726121,-0.3128365094873592,2.250956734133923,-0.15022365364044413,0.9568810480245356,-0.4842230975930167,0.3557970386759217,-0.12871516891338258,0
359,2024-09-26 22:19:45.327667968,TASK_BEGIN,020,0.7623655274025627,-0.309342653811506,2.285409503063534,-0.17068455219510992,0.9283061850163205,-0.47370559665500855,0.4715622607055705,-0.11950502347291908,0
360,2024-09-26 22:19:45.393148928,TASK_BEGIN,020,0.752154749190356,-0.3074991543902729,2.292960633630059,-0.19177282936904214,0.9013650623858742,-0.462210635246594,0.5479775737881655,-0.10409630534832187,0
361,2024-09-26 22:19:46.336467968,TASK_BEGIN,020,0.7429491225371818,-0.30733557918838733,2.275839716790715,-0.21315853788038927,0.8774090832717313,-0.45019421399452786,0.5827247233200289,-0.08269013270771013,0
362,2024-09-26 22:19:46.398548992,TASK_BEGIN,020,0.7345660351290633,-0.3088803728548144,2.239191240966055,-0.2347244352117327,0.8574212988111302,-0.43805210360248553,0.5757604326342307,-0.05591430406802663,0
363,2024-09-26 22:19:46.459631872,TASK_BEGIN,020,0.7270972373085095,-0.31215231181887315,2.1905355138938645,-0.2565349026320852,0.8419035153562883,-0.4260795179524043,0.5291027831462237,-0.024817936527184975,0
364,2024-09-26 22:19:46.542964224,TASK_BEGIN,020,0.7208208581484767,-0.31713718338224023,2.13881951359737,-0.27877228407692406,0.8308327301043896,-0.41445153692529163,0.44646093120228075,0.009231222918141126,0
365,2024-09-26 22:19:46.598912768,TASK_BEGIN,020,0.7160734933832273,-0.3237627192628502,2.09334455293396,-0.30168324979829186,0.8236982297749601,-0.4032273841686395,0.33271607844560025,0.044711748097057184,0
366,2024-09-26 22:19:46.676587264,TASK_BEGIN,020,0.7131427523833173,-0.3318831282998238,2.0627600553145142,-0.32554024706802487,0.8196147369622806,-0.3923734942964583,0.19339223369751735,0.08011232738687407,0
367,2024-09-26 22:19:46.746418944,TASK_BEGIN,020,0.7122068361278897,-0.3412749656813791,2.0542612024832514,-0.3506021925669693,0.8174761131566405,-0.38179425419031293,0.034324860347371276,0.11404802795089776,0
368,2024-09-26 22:19:47.659756800,TASK_BEGIN,020,0.7133220119543844,-0.35164161366512886,2.073087850057091,-0.37705723485690934,0.8160989083533879,-0.3713609551354489,-0.138372810781149,0.14530213052183713,0
369,2024-09-26 22:19:47.731606016,TASK_BEGIN,020,0.7164502196852938,-0.36262671317344297,2.122291022505097,-0.40493609672794895,0.8143286944304021,-0.36093758685394195,-0.3181605541924525,0.172802919421639,0
370,2024-09-26 22:19:47.788716032,TASK_BEGIN,020,0.7215074734579927,-0.3738370356907322,2.2026159794298206,-0.4340017582727997,0.8111161900690407,-0.3504070085808106,-0.4979467991350051,0.1955834189551799,0
371,2024-09-26 22:19:47.861756160,TASK_BEGIN,020,0.7283980394600735,-0.38486920666715624,2.3124005918131108,-0.4636511482672185,0.8055802444167441,-0.3396977644066201,-0.6700650642146216,0.21276647948322197,0
372,2024-09-26 22:19:47.935053312,TASK_BEGIN,020,0.7369983528365525,-0.39533047054283305,2.4475884697820733,-0.49288853835275315,0.7970634304592963,-0.32880578717428205,-0.8263209250120559,0.22359180272610688,0
373,2024-09-26 22:19:48.001626880,TASK_BEGIN,020,0.7470805971133928,-0.40484644829330774,2.602060364175467,-0.5204127669082486,0.7851680027991166,-0.31780293954983824,-0.958191889353643,0.22748933482805603,0
374,2024-09-26 22:19:48.063702016,TASK_BEGIN,020,0.7582070489852469,-0.41305800188540714,2.7682892154577834,-0.5447936445258605,0.7697499246666909,-0.3068275626113552,-1.0573552477518284,0.22418704095152997,0
375,2024-09-26 22:19:48.998818048,TASK_BEGIN,020,0.7696508258574817,-0.41961908733243486,2.9380639054934776,-0.5646621759050959,0.7508648926817095,-0.29605962104414946,-1.1165727544463582,0.21382132527930733,0
376,2024-09-26 22:19:49.080519936,TASK_BEGIN,020,0.7803848175903147,-0.4242068739106462,3.103077687767477,-0.5788603583787306,0.7286984389690796,-0.2856915575442594,-1.1307555402829257,0.19701734041842475,0
377,2024-09-26 22:19:49.138510080,TASK_BEGIN,020,0.7891439262740886,-0.4265434719844014,3.255401751851716,-0.5865391727659015,0.7035334111728969,-0.2759090987095818,-1.097964178397855,0.17491811257562828,0
378,2024-09-26 22:19:49.215825920,TASK_BEGIN,020,0.7945402813129057,-0.4264193754409111,3.387898850901638,-0.5871980347540368,0.6757817545546605,-0.2668878056009997,-1.0200982212539864,0.1491519558037796,0
379,2024-09-26 22:19:49.277854976,TASK_BEGIN,020,0.7952114782582449,-0.4237115441109201,3.494535930462604,-0.580659516905862,0.6460579566827097,-0.25879859021890644,-0.9030725259568636,0.12173727378329212,0
380,2024-09-26 22:19:49.339982848,TASK_BEGIN,020,0.7899907989109568,-0.4183962519960816,3.570572466978309,-0.5670027870947931,0.6152470068217121,-0.25181292995438975,-0.7564548073496296,0.09493312145506543,0
381,2024-09-26 22:19:49.420139776,TASK_BEGIN,020,0.7780756731485404,-0.41055599322250547,3.6126764598876897,-0.5464992441108416,0.5845272088583003,-0.24610348244163902,-0.5926991043905309,0.07104812327940409,0
382,2024-09-26 22:19:50.338915072,TASK_BEGIN,020,0.7591462031496978,-0.4003741506603473,3.6189983290571055,-0.5195761038828306,0.5553240811465687,-0.24183757225714644,-0.4260447532530779,0.05222469029519677,0
383,2024-09-26 22:19:50.401402112,TASK_BEGIN,020,0.733396392247417,-0.38811491447936863,3.5891827419522957,-0.48680449296748,0.5291916932943708,-0.2391620393464056,-0.2710329836618359,0.040224504622878146,0
384,2024-09-26 22:19:50.462917888,TASK_BEGIN,020,0.7014852724019845,-0.37409749662375175,3.524324420819497,-0.4488943455771833,0.5076443968385811,-0.23818260960910637,-0.14069432117637412,0.036238630718141554,0
385,2024-09-26 22:19:50.542413056,TASK_BEGIN,020,0.6644471665299765,-0.3586775342673608,3.4269013124269185,-0.40667935541020694,0.49197719687643937,-0.23894420390595555,-0.044718471477428384,0.04073364355228461,0
386,2024-09-26 22:19:50.601438976,TASK_BEGIN,020,0.6236004103494333,-0.3422403310824672,3.3006726329806706,-0.36108838799724075,0.4831143530773946,-0.24141787149810198,0.011938956186439866,0.053348148157603345,0
387,2024-09-26 22:19:50.678018048,TASK_BEGIN,020,0.580469659768934,-0.32520034151652016,3.1504811750454533,-0.3131148508239945,0.48152568019801595,-0.24549843835355897,0.029672205615870056,0.07286831488378212,0
388,2024-09-26 22:19:50.742137856,TASK_BEGIN,020,0.5367136215038493,-0.30799902696223763,2.9819267509916116,-0.2637936358679516,0.48723361435662266,-0.25101438843340373,0.013973276431227,0.0973131745171448,0
389,2024-09-26 22:19:51.689014016,TASK_BEGIN,020,0.49404748812350596,-0.2910973257485881,2.8009514610714166,-0.21418166960610283,0.4998898062406415,-0.257746406880412,-0.025554208960131514,0.12412863423220026,0
390,2024-09-26 22:19:51.756882688,TASK_BEGIN,020,0.4541549039255515,-0.27496167207724115,2.613415148913332,-0.16533272892164236,0.5188589290780482,-0.26544596137103454,-0.07662305069565047,0.15043769873169144,0
391,2024-09-26 22:19:51.824666112,TASK_BEGIN,020,0.41859280304381363,-0.2600439030171789,2.424722093279665,-0.1182589492656254,0.5432555236255685,-0.2738453429696891,-0.1257710336329989,0.17328475860116094,0
392,2024-09-26 22:19:51.885256960,TASK_BEGIN,020,0.38870331808569225,-0.24675800042905274,2.2395540295617757,-0.07387710526704848,0.5719400910190684,-0.28265835925760846,-0.15963916190395067,0.18984900889231998,0
393,2024-09-26 22:19:51.946959104,TASK_BEGIN,020,0.36554087096638904,-0.2354566655618845,2.061759433776576,-0.032951024397614576,0.6035320196290321,-0.2915804571616422,-0.16586896214614874,0.19762176160640732,0
394,2024-09-26 22:19:52.024688896,TASK_BEGIN,020,0.34981177946518016,-0.22640876043245445,1.8943713528307873,0.003948888360437067,0.6364868199202365,-0.3002980120187928,-0.13372762271367855,0.19454263018606138,0
395,2024-09-26 22:19:52.086350848,TASK_BEGIN,020,0.341837360825267,-0.21978013643352645,1.739678325012582,0.03644938015705979,0.6692286193190161,-0.30850763776671597,-0.054774467075758754,0.17910791552603889,0
396,2024-09-26 22:19:53.033446144,TASK_BEGIN,020,0.3415704374730833,-0.21562367224616488,1.59934181435263,0.06433405608221617,0.700278393165081,-0.3159370547977551,0.07627465308757006,0.1504693466810464,0
397,2024-09-26 22:19:53.095444736,TASK_BEGIN,020,0.3486796455063035,-0.21388316615688177,1.4746090717378169,0.0874739134145079,0.7283291768297652,-0.3223588585337848,0.2607545244955531,0.1085100348413879,0
398,2024-09-26 22:19:53.172604928,TASK_BEGIN,020,0.36266822642428526,-0.2144089748158128,1.3666460266235825,0.105752828068308,0.7522831559966394,-0.3275964430957297,0.49576076110199185,0.05386964514603137,0
399,2024-09-26 22:19:53.234129920,TASK_BEGIN,020,0.38296632817374926,-0.2169778092786695,1.2769459662307803,0.11900206799333334,0.7712902290537702,-0.33152563479291414,0.774528210180176,-0.01208924723388962,0
400,2024-09-26 22:19:53.295812864,TASK_BEGIN,020,0.40896759237944635,-0.22131231093568363,1.2076926300409745,0.12695431178719438,0.7847859917411378,-0.33407341968743665,1.087301497068029,-0.0873648084893989,0
401,2024-09-26 22:19:53.378660864,TASK_BEGIN,020,0.44003434239205363,-0.22710350228302023,1.1619297482805628,0.12923497489659033,0.7925040206881246,-0.3352160070349856,1.4224048623952033,-0.16944261061573604,0
402,2024-09-26 22:19:53.434665984,TASK_BEGIN,020,0.47550525635556046,-0.2340388982781977,1.1434264573003057,0.12540373321046258,0.7944667370577793,-0.3349811671159762,1.7672966771965675,-0.2554626902356651,0
403,2024-09-26 22:19:54.388360960,TASK_BEGIN,020,0.5147037044079585,-0.2418304082558348,1.1562632501806622,0.11502860978020012,0.7909798556687722,-0.33345567856690067,2.109407961342731,-0.3423976418927042,0
404,2024-09-26 22:19:54.441513216,TASK_BEGIN,020,0.5569194330656996,-0.25023129287786905,1.204332907510001,0.0977512703026255,0.7826301788628707,-0.33079149646844747,2.436507696634715,-0.42717238187808354,0
405,2024-09-26 22:19:54.518878976,TASK_BEGIN,020,0.6013558088841334,-0.2590374340526238,1.2908983824809028,0.07333031778244072,0.7702517242118186,-0.32720258206709035,2.736579138421877,-0.5066933372559347,0
406,2024-09-26 22:19:54.580487168,TASK_BEGIN,020,0.6470757583621389,-0.2680790306292186,1.4181300723906334,0.04168989670929125,0.7548398970441926,-0.32294984039014757,2.99764625980294,-0.5778548159629857,0
407,2024-09-26 22:19:54.659128832,TASK_BEGIN,020,0.692992190544543,-0.27721317247718136,1.586535141926226,0.002982172122657928,0.7374477644893878,-0.31831922988047656,3.20805768424905,-0.6376213945018319,0
408,2024-09-26 22:19:54.727358208,TASK_BEGIN,020,0.7379177513345391,-0.2863216985232133,1.7943762017422895,-0.042368465461046695,0.7191093583625552,-0.3135993346092169,3.3573552874993893,-0.683224669636037,0
409,2024-09-26 22:19:54.782061056,TASK_BEGIN,020,0.7806486930510049,-0.2953110873687311,2.0372276827934845,-0.09365801461858932,0.7007879143075865,-0.3090589321388914,3.4375037985090904,-0.7124430950200632,0
410,2024-09-26 22:19:55.738233856,TASK_BEGIN,020,0.820045363332562,-0.30410987037441184,2.3077523060224876,-0.14991098074543202,0.6833235161925822,-0.30492278625472613,3.4441256523646278,-0.7238881979876314,0
411,2024-09-26 22:19:55.800363008,TASK_BEGIN,020,0.8550895459257846,-0.31266096757426104,2.595837495747155,-0.2098902124514427,0.6673779361156214,-0.30134822453999405,3.3773835379833375,-0.717207945605323,0
412,2024-09-26 22:19:55.862850048,TASK_BEGIN,020,0.8849187655096468,-0.3209072524544544,2.889302836698535,-0.2721389090126647,0.6533904249558421,-0.2984079333097641,3.2422722528811705,-0.6931549159423531,0
413,2024-09-26 22:19:55.941662976,TASK_BEGIN,020,0.9088381967249315,-0.32877111617623594,3.1751658848850974,-0.3350862726683269,0.6415511451818748,-0.29608330308003655,3.048315100548804,-0.6535246457385787,0
414,2024-09-26 22:19:56.009481984,TASK_BEGIN,020,0.9263129624761124,-0.33613489401557023,3.4410919272992,-0.39719295468802956,0.6317909660845198,-0.294270832020515,2.8088370233133615,-0.6010034171694344,0
415,2024-09-26 22:19:56.077285120,TASK_BEGIN,020,0.936964178560918,-0.3428331740179988,3.676598588215306,-0.45707941681754843,0.623792046277307,-0.2928022601216204,2.5399430969315806,-0.5389654691574209,0
416,2024-09-26 22:19:56.145101056,TASK_BEGIN,020,0.9405919412095324,-0.3486625665276678,3.8737969204753786,-0.5135971769178587,0.6170460622791548,-0.2914775083201568,2.25922311003207,-0.4712373893769457,0
417,2024-09-26 22:19:57.080259072,TASK_BEGIN,020,0.9372079362146037,-0.35340252972035746,4.0276159550018305,-0.5658277107880237,0.6109829228235816,-0.29010541671793455,1.9842727773645605,-0.4018292570316073,0
418,2024-09-26 22:19:57.156157952,TASK_BEGIN,020,0.9270377541237491,-0.3568353674217559,4.135612537855486,-0.6130247316398377,0.605133766410454,-0.2885399221287094,1.7312502970521342,-0.3346456241799949,0
419,2024-09-26 22:19:57.223948032,TASK_BEGIN,020,0.9104863478138533,-0.3587607012845196,4.197660793863374,-0.6545581518163582,0.5992591581810854,-0.2867000202802803,1.51366919652503,-0.27321517623781727,0
420,2024-09-26 22:19:57.291719936,TASK_BEGIN,020,0.8880971879210063,-0.3590097577754157,4.215787356045713,-0.6899169234902147,0.5934168189589035,-0.28457405135793634,1.341543461685911,-0.22047161155817216,0
421,2024-09-26 22:19:57.359502848,TASK_BEGIN,020,0.8605302538324797,-0.35746502482909537,4.194103535495957,-0.7187602943696675,0.5879747456296733,-0.28221420033040256,1.2209329032024312,-0.17858284237619446,0
422,2024-09-26 22:19:57.419502848,TASK_BEGIN,020,0.828560525003521,-0.354082709179794,4.138558903483727,-0.7409565866332278,0.5835523890398899,-0.2797194526898616,1.1538570103565635,-0.14881550280244443,0
423,2024-09-26 22:19:57.495066880,TASK_BEGIN,020,0.7930863257169876,-0.3489103877209746,4.056361507151646,-0.7565744498599392,0.5808739827573515,-0.27720452860171024,1.1384989364063405,-0.13145284448247466,0
424,2024-09-26 22:19:58.397336832,TASK_BEGIN,020,0.755138605838555,-0.3420951973441742,3.9551593605088944,-0.765832553212828,0.5805716091030549,-0.2747643385787637,1.1696253055660122,-0.12579981226695416,0
425,2024-09-26 22:19:58.475919872,TASK_BEGIN,020,0.7158891856803508,-0.33388280717031116,3.842182995431302,-0.76901582886041,0.5830121051434369,-0.27244932465108757,1.239161736924441,-0.13028654814330398,0
426,2024-09-26 22:19:58.548044032,TASK_BEGIN,020,0.6766477094281373,-0.3246072197669994,3.723529708675994,-0.7663629722079748,0.5882046752849743,-0.2702593875934485,1.3368998656231135,-0.1426589787565303,0
427,2024-09-26 22:19:58.615591168,TASK_BEGIN,020,0.6388193789734249,-0.31466818598199386,3.6037192663629942,-0.7579529917130604,0.5958084463899371,-0.2681544559162461,1.4513348847961987,-0.16023104341806974,0
428,2024-09-26 22:19:58.683657984,TASK_BEGIN,020,0.6038027170004416,-0.30449404522764234,3.4855705087193383,-0.7436429373674236,0.6052295877743192,-0.2660751757751796,1.5705728242648405,-0.1801581185819489,0
429,2024-09-26 22:19:58.738814208,TASK_BEGIN,020,0.5728366340726933,-0.2944939677297081,3.3703802664870333,-0.7231008288613953,0.6157598750900968,-0.2639644909594453,1.6831601551381223,-0.19969094688224126,0
430,2024-09-26 22:19:58.816956160,TASK_BEGIN,020,0.546831050152237,-0.2850095771346114,3.2583922067058064,-0.695942515426847,0.6266749052094762,-0.2617797879292171,1.778708738259488,-0.21638696602771743,0
431,2024-09-26 22:19:59.756752896,TASK_BEGIN,020,0.5262289139069652,-0.2762782199028179,3.149528317693492,-0.6619397473565003,0.6372491623651915,-0.2594926915766388,1.848335791134656,-0.22827489310004986,0
432,2024-09-26 22:19:59.818748928,TASK_BEGIN,020,0.5109417289587057,-0.2684159663885875,3.0442156064848405,-0.6212321215035936,0.6467369387097293,-0.2570854604851726,1.8850500122582838,-0.23397455858639732,0
433,2024-09-26 22:19:59.897531904,TASK_BEGIN,020,0.5003693751433586,-0.26141827121394867,2.9439955790066343,-0.5744659710443378,0.6543911393989649,-0.2545532174193685,1.8841216142416457,-0.23276365678220617,0
434,2024-09-26 22:19:59.958078976,TASK_BEGIN,020,0.49348825364704224,-0.255170562437255,2.8516369941192505,-0.522812156204987,0.6595360462452098,-0.25191142225660834,1.8432733092438187,-0.2245766615238274,0
435,2024-09-26 22:20:00.019696128,TASK_BEGIN,020,0.4889891902590284,-0.24946616964246637,2.7707070240681366,-0.4678653166594365,0.6616765553202252,-0.24920407616800894,1.7625209609028332,-0.20993478483395228,0
436,2024-09-26 22:20:00.097100032,TASK_BEGIN,020,0.48544369227545886,-0.24403364205187852,2.7048113423105806,-0.4114628975558441,0.6606226100549992,-0.2465095769188928,1.6437170969488446,-0.18982156632614122,0
437,2024-09-26 22:20:00.168709888,TASK_BEGIN,020,0.48146412615422907,-0.23857089043221874,2.656791560291992,-0.35547348684980673,0.6565793436504992,-0.24393928439419596,1.490043164778888,-0.16552697000340136,0
438,2024-09-26 22:20:01.074352128,TASK_BEGIN,020,0.4758262920889011,-0.2327786178418208,2.6281043229438508,-0.301609015600399,0.6501428562887477,-0.24162429772789779,1.305698363492739,-0.13849059507806552,0
439,2024-09-26 22:20:01.151543040,TASK_BEGIN,020,0.4675508873015813,-0.22638833462221758,2.6184928181362235,-0.2513038581373198,0.642204426526707,-0.23969429781914975,1.0958347752606086,-0.11016497207275203,0
440,2024-09-26 22:20:01.213062912,TASK_BEGIN,020,0.45595895230410094,-0.21918498666688577,2.625918941399234,-0.20566224495052185,0.6338325217239749,-0.2382593745898077,0.8665320471351494,-0.08189672325958723,0
441,2024-09-26 22:20:01.289323008,TASK_BEGIN,020,0.4407010275453691,-0.2110237039940295,2.6466716985242034,-0.1654429572816079,0.6261830332796604,-0.23740219364921625,0.6246032832741947,-0.05482484318365923,0
442,2024-09-26 22:20:01.359810048,TASK_BEGIN,020,0.42174434524652843,-0.2018381519994564,2.6756593615318214,-0.1310586196507764,0.6204228967190372,-0.2371785995002991,0.37728475053123534,-0.029812281403119922,0
443,2024-09-26 22:20:01.427576832,TASK_BEGIN,020,0.399316775515075,-0.19164028252429993,2.7069687323286926,-0.10259290031318753,0.6176344105394163,-0.23762036463387964,0.13203765435093578,-0.0074306065250054135,0
444,2024-09-26 22:20:01.495376128,TASK_BEGIN,020,0.3738296918979197,-0.18051529005284367,2.7346737273146244,-0.07984749440816775,0.6187049039766371,-0.23873606697521754,-0.10339511346465981,0.011984607459796813,0
445,2024-09-26 22:20:02.438329856,TASK_BEGIN,020,0.3458137885708895,-0.16861618380332427,2.753639702883981,-0.062409544880156084,0.6242298541553937,-0.24050995325899233,-0.320794674879524,0.028212131177138493,0
446,2024-09-26 22:20:02.500935936,TASK_BEGIN,020,0.3158906641710728,-0.15615859068025692,2.760004781166049,-0.0497122405512193,0.6344347988396661,-0.24289980556258084,-0.5114362917495798,0.04101355108835753,0
447,2024-09-26 22:20:02.574347776,TASK_BEGIN,020,0.28476721800990396,-0.14341167816841158,2.7512980729157026,-0.041083221810912354,0.6491003504017744,-0.24583293787946492,-0.6664356042696621,0.050070462107592945,0
448,2024-09-26 22:20:02.640682752,TASK_BEGIN,020,0.25321763105785894,-0.13068122365048138,2.726417201013822,-0.035798538694816494,0.6674990983912333,-0.2491997467263352,-0.7775013325681392,0.055025030789182146,0
449,2024-09-26 22:20:02.709940992,TASK_BEGIN,020,0.22203957980967726,-0.11828648129167131,2.6856044367815555,-0.03314414908926032,0.6883899431411101,-0.2528478139880006,-0.838037638110361,0.055598523055212214,0
450,2024-09-26 22:20:02.777808896,TASK_BEGIN,020,0.19200885431655484,-0.10653740406962224,2.6303739009192313,-0.0324735856514515,0.7101079959669908,-0.25658042666950664,-0.8443909618385262,0.051736255027875766,0
451,2024-09-26 22:20:02.841399040,TASK_BEGIN,020,0.1638613976760166,-0.09571811540849973,2.563339934133124,-0.033263401133116315,0.7307403331342616,-0.26016239086860726,-0.7968196404699136,0.0437215329863497,0
452,2024-09-26 22:20:03.776985856,TASK_BEGIN,020,0.1383021399492744,-0.08607814368982779,2.487947353648825,-0.035164662056425516,0.7483381033291827,-0.26333612288817443,-0.6997732339851918,0.03219592356533689,0
453,2024-09-26 22:20:03.854675968,TASK_BEGIN,020,0.11601799897316875,-0.07782987242263825,2.4080445012712266,-0.038018263618820165,0.7611130721730256,-0.26584772333772433,-0.5614069426957377,0.018058737552189497,0
454,2024-09-26 22:20:03.916704768,TASK_BEGIN,020,0.09767436696116329,-0.07114945318345041,2.3272330841432938,-0.041792958028663785,0.7675910225246076,-0.26747701820344827,-0.39264179506433505,0.0023093442609953283,0
455,2024-09-26 22:20:03.977807104,TASK_BEGIN,020,0.08387849591527277,-0.06617603592582967,2.2481462315150935,-0.04644803276714407,0.7667173524132108,-0.2680643181974213,-0.20617265632427148,-0.014056301456645375,0
456,2024-09-26 22:20:04.054993920,TASK_BEGIN,020,0.07510019129243346,-0.06300349057845639,2.1720314819841584,-0.05178461682335971,0.7579143138571575,-0.26752824800848135,-0.015609139317774957,-0.030054072779306235,0
457,2024-09-26 22:20:04.116651008,TASK_BEGIN,020,0.071565295466063,-0.06166472628393944,2.0988795267256473,-0.05736573497051899,0.7410831601916706,-0.2658698925563453,0.1653138378877807,-0.04468755108849301,0
458,2024-09-26 22:20:04.195006208,TASK_BEGIN,020,0.07315985824038605,-0.06211578554891078,2.0279444983582247,-0.06253860155158009,0.7165495982794757,-0.26316193997579085,0.3235757950473727,-0.05696794346559504,0
459,2024-09-26 22:20:05.138804992,TASK_BEGIN,020,0.07938237400789894,-0.0642273835229331,1.9583578592290887,-0.06654452497547306,0.684967915345308,-0.2595259494147557,0.44776034800910947,-0.06599038060163324,0
460,2024-09-26 22:20:05.206616064,TASK_BEGIN,020,0.08937006637089022,-0.06778780755125986,1.8896907010300454,-0.06868732143974124,0.6472168284033795,-0.25510289926687224,0.5288399098785459,-0.07102207045326174,0
461,2024-09-26 22:20:05.274422016,TASK_BEGIN,020,0.10200462783255826,-0.07251739615831462,1.8223366849114038,-0.06851133469406741,0.6043301770336842,-0.25002609545946003,0.5606442776709515,-0.07154733836471701,0
462,2024-09-26 22:20:05.333313024,TASK_BEGIN,020,0.11606842045585171,-0.0780912489878188,1.7575296675153234,-0.06591980031919258,0.5574821315804666,-0.2444077850316357,0.5399201881095789,-0.06725137780497895,0
463,2024-09-26 22:20:05.395339008,TASK_BEGIN,020,0.13040077645409914,-0.08416485007634085,1.6970563049102794,-0.06119900343257443,0.5079938188209089,-0.23834131785575918,0.4661271022963928,-0.05798224736551071,0
464,2024-09-26 22:20:05.473445888,TASK_BEGIN,020,0.1440188063909491,-0.09039870883447887,1.6430014724017707,-0.054973854246591305,0.45731016670548513,-0.231908812540693,0.3412676720281787,-0.043750212072069354,0
465,2024-09-26 22:20:05.535532032,TASK_BEGIN,020,0.15619050826545683,-0.09647972132278017,1.5976962414135836,-0.0481294608350068,0.40693560447086863,-0.22518662890169877,0.16994963328651702,-0.0247838350851628,0
466,2024-09-26 22:20:06.487245056,TASK_BEGIN,020,0.16645165261670322,-0.102136701452288,1.5637019363361577,-0.04170974438397591,0.358359534372539,-0.21825080336654512,-0.04039364364541334,-0.001611621119099439,0
467,2024-09-26 22:20:06.549248000,TASK_BEGIN,020,0.17456910586581656,-0.10714948938454623,1.5436492393488634,-0.03680320998923578,0.31300565573235273,-0.2111865042620385,-0.2793882232743732,0.024880120460584482,0
468,2024-09-26 22:20:06.624561152,TASK_BEGIN,020,0.18048948121200498,-0.1113548294277956,1.5399618304440488,-0.034435695192669216,0.2722154786887894,-0.20410107394254828,-0.5340076011491613,0.053455230564238496,0
469,2024-09-26 22:20:06.687449088,TASK_BEGIN,020,0.18432817078284777,-0.11465217202045216,1.554614734900916,-0.035489973172710056,0.23724943290299136,-0.19713670802952876,-0.7894641023506156,0.08262438532891417,0
470,2024-09-26 22:20:06.757603072,TASK_BEGIN,020,0.18641766107530366,-0.11700994849332523,1.5890278284476933,-0.0406673045028999,0.20927448399479315,-0.1904763232790835,-1.0306326642136068,0.11081782178051207,0
471,2024-09-26 22:20:06.827408896,TASK_BEGIN,020,0.18738010986699905,-0.11847156837855373,1.6440605669145478,-0.050493647955450076,0.18931412657035956,-0.18433617933671362,-1.24361141950586,0.13658147308062127,0
472,2024-09-26 22:20:06.889894912,TASK_BEGIN,020,0.18816472578692547,-0.11915833008553096,1.7199814975810572,-0.06535132622305923,0.17816032540230628,-0.17894465518971334,-1.416956945909694,0.15873283863092624,0
473,2024-09-26 22:20:07.836288768,TASK_BEGIN,020,0.19000341709196353,-0.11926326857517179,1.8163021258114496,-0.08549682424748149,0.17627612614444066,-0.17451434283579034,-1.542396634326582,0.17644566365957917,0
474,2024-09-26 22:20:07.906801920,TASK_BEGIN,020,0.19427276248602246,-0.11903083964919509,1.9315212465061453,-0.11103750406266663,0.18373279224496974,-0.1712170851251896,-1.6151215264587164,0.18927582483096247,0
475,2024-09-26 22:20:07.974564864,TASK_BEGIN,020,0.2022927347740022,-0.11872410187615794,2.063031259861965,-0.1418860179280374,0.2002038946536273,-0.1691673106849107,-1.6338065299956392,0.19714618335185768,0
476,2024-09-26 22:20:08.042334976,TASK_BEGIN,020,0.21512172818856834,-0.11858831830282476,2.2073821695049403,-0.1777272971737964,0.22500047236182308,-0.16841330840855553,-1.6003564099691783,0.20028837030984598,0
477,2024-09-26 22:20:08.099037952,TASK_BEGIN,020,0.23339883065204828,-0.11882099085339504,2.3607741669722375,-0.2179998234394456,0.25712187808610154,-0.16893447585470633,-1.5193153315627423,0.1991428710539684,0
478,2024-09-26 22:20:08.176666880,TASK_BEGIN,020,0.25725297263756125,-0.11955371004167985,2.519488570627543,-0.261874916276296,0.29531798853839225,-0.17064452671850655,-1.3969930163614876,0.19423709265140968,0
479,2024-09-26 22:20:08.239527936,TASK_BEGIN,020,0.28628528645708756,-0.12084691427218616,2.680093983241945,-0.30823868881153305,0.3381738933711001,-0.17340142417682902,-1.2405115029681528,0.18606677988706846,0
480,2024-09-26 22:20:09.164024064,TASK_BEGIN,020,0.31962553563526536,-0.12269549760864554,2.8394056620671906,-0.3556997287761121,0.384212877892008,-0.17702186993387048,-1.0570282138089366,0.17501510956019475,0
481,2024-09-26 22:20:09.231863040,TASK_BEGIN,020,0.3560364875075866,-0.12503943853101396,2.9942527362974087,-0.4026407548111223,0.43198257301337945,-0.18129427463684464,-0.8532844370230088,0.1613455014082916,0
482,2024-09-26 22:20:09.299670016,TASK_BEGIN,020,0.39402479541146673,-0.12777361945534946,3.1412099317898265,-0.4473177168033221,0.48008667755843065,-0.18598476147408582,-0.635439128795924,0.14526136059581957,0
483,2024-09-26 22:20:09.352190976,TASK_BEGIN,020,0.43194116749830325,-0.13075599630829302,3.2765133244529734,-0.48799849789784605,0.5271642834617656,-0.19083724125132112,-0.40907873824960855,0.12697852190909173,0
484,2024-09-26 22:20:09.435229952,TASK_BEGIN,020,0.46807486020253,-0.1338162704274763,3.396318691309299,-0.5231311194986064,0.5718621928847532,-0.19557537996807217,-0.17935278755827214,0.10676394366179857,0
485,2024-09-26 22:20:09.491022336,TASK_BEGIN,020,0.5007445785216283,-0.13676573129103742,3.497296060719717,-0.5515261563240429,0.6128512243981583,-0.19991522825952002,0.048806242899595044,0.08493676495972392,0
486,2024-09-26 22:20:09.568666112,TASK_BEGIN,020,0.5283916447113941,-0.13940824335244698,3.577356768214242,-0.5725195272053508,0.6489049990924497,-0.20359194709801395,0.2704475242614595,0.061861254526429224,0
487,2024-09-26 22:20:10.503529984,TASK_BEGIN,020,0.5496968382626912,-0.1415544536670834,3.6362253849514086,-0.586073575354323,0.6790191358422384,-0.20639565096578957,0.480411945794207,0.03796207055111783,0
488,2024-09-26 22:20:10.580829952,TASK_BEGIN,020,0.5637279474379218,-0.14304085195413904,3.6756619454654147,-0.5927937433909365,0.7025213932192834,-0.2082035326950051,0.673269990755456,0.013758724933909188,0
489,2024-09-26 22:20:10.649798144,TASK_BEGIN,020,0.5700760894142228,-0.1437495910878418,3.6992897391541684,-0.5938632708407648,0.7191238357321956,-0.20899424307093245,0.8434788290162997,-0.010113792264188133,0
490,2024-09-26 22:20:10.717549056,TASK_BEGIN,020,0.5689185120252785,-0.1436213019131923,3.712077113262629,-0.59090617352397,0.7289057475950879,-0.20884015455108493,0.9857505704417773,-0.03292570256192971,0
491,2024-09-26 22:20:10.784376064,TASK_BEGIN,020,0.5609872821612265,-0.14265709774355245,3.7195716524205027,-0.5857869125589198,0.7322553584208525,-0.2078854782910125,1.0954879617930262,-0.0539132490068201,0
492,2024-09-26 22:20:10.842746112,TASK_BEGIN,020,0.5474719578153204,-0.14091144834853594,3.7270580233949455,-0.5803671572372696,0.7298005587136275,-0.20632061359165835,1.1691255001421295,-0.07235846328690874,0
493,2024-09-26 22:20:10.920924928,TASK_BEGIN,020,0.5298898762991959,-0.13847910745938966,3.7388585239478402,-0.576263863677043,0.7223448189423045,-0.20435714843779929,1.2043602751569462,-0.08767409057508563,0
494,2024-09-26 22:20:11.833148928,TASK_BEGIN,020,0.5099393681466228,-0.13547903945196252,3.7579140413906895,-0.5746603208297657,0.7108136719309777,-0.20220364395122586,1.2003905948763647,-0.09948540236103062,0
495,2024-09-26 22:20:11.894906880,TASK_BEGIN,020,0.4893410374708723,-0.13203737855481248,3.7856301048874728,-0.5762026512843466,0.6962013104416566,-0.2000420994779263,1.1582182191695878,-0.10767707773449083,0
496,2024-09-26 22:20:11.972624128,TASK_BEGIN,020,0.46967702288098573,-0.1282701305223827,3.8218870585711446,-0.5809873289206986,0.6795080321377579,-0.19800743951722422,1.0809331654585232,-0.1123693741004604,0
497,2024-09-26 22:20:12.034173184,TASK_BEGIN,020,0.4522533904118292,-0.12426795460392662,3.86515125287663,-0.5886297917578862,0.661681546036803,-0.19617574047696865,0.9738607848026799,-0.11383558837375152,0
498,2024-09-26 22:20:12.109304832,TASK_BEGIN,020,0.4380225080876885,-0.12008903039419772,3.9127245060306124,-0.598394160610965,0.6435822527420023,-0.19456565765172645,0.8444579413704099,-0.11241178859068748,0
499,2024-09-26 22:20:12.177117184,TASK_BEGIN,020,0.427589094786723,-0.11576511834410605,3.9611888754352953,-0.6093471403036419,0.6259807082834915,-0.193150978360604,0.7018707108859316,-0.10843409351559076,0
500,2024-09-26 22:20:12.244928000,TASK_BEGIN,020,0.42128705658931515,-0.1113193533474471,4.006975105356615,-0.6204883213540959,0.6095721753476323,-0.19187642979459776,0.5561808888745734,-0.10220171053504126,0
501,2024-09-26 22:20:13.188267008,TASK_BEGIN,020,0.4192884415981794,-0.10678875823802757,4.046845316456679,-0.6308248981987482,0.5949708630213602,-0.19066839258431786,0.4175064097107423,-0.09395727005949527,0
502,2024-09-26 22:20:13.248993792,TASK_BEGIN,020,0.42170724625901745,-0.10224363815717795,4.078152932722322,-0.6393971864095698,0.582671725206733,-0.18943943195658802,0.2951342874424224,-0.08389790552171192,0
503,2024-09-26 22:20:13.323888128,TASK_BEGIN,020,0.4286690039096224,-0.09779819696004612,4.09896135493285,-0.645286109007325,0.5730211160753559,-0.18809502311319565,0.19676631255835123,-0.07222559292771652,0
504,2024-09-26 22:20:13.391628032,TASK_BEGIN,020,0.44032474089830087,-0.09361042614506992,4.108134112866354,-0.6476216497145033,0.5662375830823838,-0.1865511690656175,0.12790922439181562,-0.05921271137870874,0
505,2024-09-26 22:20:13.447749888,TASK_BEGIN,020,0.4568084154895903,-0.08987299289689263,4.105315018317781,-0.6455942216271238,0.5624764434197526,-0.18476228580447526,0.09150953036881798,-0.04525956542381504,0
506,2024-09-26 22:20:13.525412096,TASK_BEGIN,020,0.4781617370149449,-0.08679829849457064,4.0906563510890885,-0.6384747780680262,0.5618905212979093,-0.18274642867489885,0.08792658088583553,-0.030935647938640374,0
507,2024-09-26 22:20:13.587898880,TASK_BEGIN,020,0.5042546685928965,-0.08460016561976158,4.06437869657743,-0.6256518063638038,0.5646213510587624,-0.1805873614519041,0.11514009669719315,-0.01697556652163417,0
508,2024-09-26 22:20:14.538310144,TASK_BEGIN,020,0.5347218886071989,-0.08347447446855258,4.0264349491156795,-0.6066823866539385,0.5706923592228157,-0.17840362681060573,0.16901765663884818,-0.004204326984140964,0
509,2024-09-26 22:20:14.602160896,TASK_BEGIN,020,0.5689359905626858,-0.08358247047510013,3.9764421228067954,-0.5813425443582927,0.5798633790221196,-0.1763004367414752,0.24370272329517167,0.006563716336446567,0
510,2024-09-26 22:20:14.664105984,TASK_BEGIN,020,0.6060278983818691,-0.08503896986850047,3.913850475079023,-0.5496589504312023,0.5915453150382635,-0.1743317970011585,0.3323151312182781,0.01457583849481789,0
511,2024-09-26 22:20:14.741677056,TASK_BEGIN,020,0.6449357708538547,-0.0879019045795715,3.8382734899659425,-0.5119166260128795,0.6048208393732953,-0.17248634153709785,0.4279158140263871,0.019135239889904766,0
512,2024-09-26 22:20:14.809570048,TASK_BEGIN,020,0.6844593516518398,-0.0921586757377674,3.7499128263506623,-0.4686539518623605,0.6185486389842789,-0.17069327537020168,0.5244067601633658,0.01960374778694496,0
513,2024-09-26 22:20:14.877416960,TASK_BEGIN,020,0.72332292749442,-0.0977125850674067,3.649992164234134,-0.42065843459158864,0.6315050443429421,-0.16884099894667132,0.6170520360853468,0.015462585709726669,0
514,2024-09-26 22:20:14.942482944,TASK_BEGIN,020,0.7602591387409511,-0.1043775870996606,3.541103714106908,-0.36897032436661437,0.6425231942116292,-0.16680303449164668,0.702536992154554,0.0064194526372300005,0
515,2024-09-26 22:20:15.884840960,TASK_BEGIN,020,0.7941114948857828,-0.11188462529980435,3.4273652922885196,-0.3148926453535596,0.6506053928544286,-0.16446662539319665,0.7787084445682855,-0.007496159760273984,0
516,2024-09-26 22:20:15.956278016,TASK_BEGIN,020,0.8239394995832178,-0.11989633478767187,3.314280805734846,-0.2599931402887615,0.6550056176535608,-0.16176095717600672,0.8442163006116173,-0.025908903721117236,0
517,2024-09-26 22:20:16.010206976,TASK_BEGIN,020,0.8490962297893216,-0.12802557218381105,3.208261414543648,-0.20607606525434702,0.655292347833577,-0.1586820661055879,0.8981998358102056,-0.04815127604854483,0
518,2024-09-26 22:20:16.086918144,TASK_BEGIN,020,0.8692420240021309,-0.13585371141940306,3.115910136207853,-0.1551087460439453,0.6513960666744449,-0.15530771292495468,0.9401145865430942,-0.07335401751919353,0
519,2024-09-26 22:20:16.159625984,TASK_BEGIN,020,0.8842840875427055,-0.142946180486815,3.043267567244343,-0.1091029288284974,0.6436356718543141,-0.1517955242862571,0.9697833595106339,-0.10053846755665935,0
520,2024-09-26 22:20:16.226129152,TASK_BEGIN,020,0.8942753527484054,-0.14886758084350227,2.9951346994803156,-0.06995611616444744,0.6327137519941617,-0.14836534277922322,0.9875733223141534,-0.12869149379580933,0
521,2024-09-26 22:20:16.295175168,TASK_BEGIN,020,0.8993212504293013,-0.15320075687640272,2.974456085111061,-0.03925520494437722,0.6196710219470296,-0.14527393540012162,0.9944845789174949,-0.15680865047743286,0
522,2024-09-26 22:20:17.235920896,TASK_BEGIN,020,0.8995230810259925,-0.15556937872356746,2.981826821463396,-0.01807059776679779,0.6058004027322572,-0.14279049471761054,0.992176188138073,-0.18392055121971407,0
523,2024-09-26 22:20:17.306395136,TASK_BEGIN,020,0.8949609324602431,-0.15566057333469768,3.0153917583929246,-0.006814342159497158,0.5925306492544621,-0.14117549922243627,0.9831298641990005,-0.2091420241037692,0
524,2024-09-26 22:20:17.374220032,TASK_BEGIN,020,0.8857027231587603,-0.1532458234572807,3.0713263257692547,-0.005223931111781378,0.581289097867398,-0.14066046229618934,0.9708909051990527,-0.23174770787449603,0
525,2024-09-26 22:20:17.435789056,TASK_BEGIN,020,0.8718186797186944,-0.148197599485171,3.144693632636849,-0.012452465658670987,0.5733559624029173,-0.14142763030422156,0.9600411047282056,-0.2512240023480027,0
526,2024-09-26 22:20:17.498631168,TASK_BEGIN,020,0.8533881953963511,-0.14049800105222804,3.230254496664889,-0.027189789193690514,0.5697211968833201,-0.14359069840369648,0.9556726229775095,-0.26725532801204827,0
527,2024-09-26 22:20:17.575331072,TASK_BEGIN,020,0.8305095579368966,-0.13024035582984772,3.323014465766924,-0.04776655220758419,0.5709488727047419,-0.14717655139001087,0.9625033056437672,-0.2796550786824261,0
528,2024-09-26 22:20:17.638231040,TASK_BEGIN,020,0.8033316180871044,-0.11762788737947108,3.418556679870976,-0.07225341240932387,0.5770732618320726,-0.1521104184356258,0.9840600418025822,-0.28828577474616107,0
529,2024-09-26 22:20:18.587022080,TASK_BEGIN,020,0.7720978152621293,-0.10296823268271314,3.5132255224988698,-0.09858819966056623,0.5875728467063682,-0.15820975306475724,1.0223392087963403,-0.2930179956209176,0
530,2024-09-26 22:20:18.651473152,TASK_BEGIN,020,0.7371745750511228,-0.08665961145344823,3.604162412603282,-0.12473730221206322,0.6014421936831581,-0.16519002822843387,1.078016864330408,-0.29375383214609146,0
531,2024-09-26 22:20:18.724231936,TASK_BEGIN,020,0.6990583629027515,-0.06917036998140051,3.6892073889421453,-0.148866047237352,0.6173368604685369,-0.17268440826121276,1.1508816153305301,-0.29048720336616274,0
532,2024-09-26 22:20:18.788033024,TASK_BEGIN,020,0.6583670732438195,-0.05101627973679828,3.7667035264386253,-0.16948721800335081,0.6337569247407596,-0.18027822673897795,1.2400570306802965,-0.28334166906915514,0
533,2024-09-26 22:20:18.849563904,TASK_BEGIN,020,0.6158110490286607,-0.03273533694620704,3.8352692261271066,-0.18557209890826395,0.6492378512842516,-0.18755101819791772,1.34384942804902,-0.2725592280765254,0
534,2024-09-26 22:20:18.926786816,TASK_BEGIN,020,0.5721517626145176,-0.014859043340307194,3.8936427806601563,-0.19661888373531192,0.6625058732245743,-0.19411171186330714,1.4594406054709568,-0.25847353602421597,0
535,2024-09-26 22:20:18.988826880,TASK_BEGIN,020,0.528174515580073,0.002115800716427019,3.9406822619028805,-0.20267049818327815,0.6725624713336685,-0.19961791137839954,1.5828167873126218,-0.24152015639727875,0
536,2024-09-26 22:20:19.939234816,TASK_BEGIN,020,0.48468325503819,0.017748631188782404,3.975517411611384,-0.20427644411533533,0.6786974767998778,-0.20378024233588724,1.7091436778680007,-0.22228870966766331,0
537,2024-09-26 22:20:20.007069184,TASK_BEGIN,020,0.4424938015046535,0.03166813619605924,3.9977510042035123,-0.20240060366564125,0.6804523133422322,-0.20635652631502044,1.8334414546349662,-0.20156230841200506,0
538,2024-09-26 22:20:20.072500992,TASK_BEGIN,020,0.40240165680016343,0.043580488061610245,4.007559623154764,-0.19828198204758551,0.6775641741750614,-0.20714239370425072,1.9512182690789923,-0.18029470833409317,0
539,2024-09-26 22:20:20.136687872,TASK_BEGIN,020,0.36512736803336104,0.05327671597019132,4.005619498145078,-0.19327472411896357,0.6699373198333907,-0.20596877105446862,2.0588006304889768,-0.1595215382756158,0
540,2024-09-26 22:20:20.197909248,TASK_BEGIN,020,0.3312566593240945,0.06063934063067521,3.992921697979204,-0.188713124147677,0.6576768286547564,-0.2027141820475943,2.1532873129250296,-0.14022131757383402,0
541,2024-09-26 22:20:20.276689920,TASK_BEGIN,020,0.3011862936159326,0.0656469102724755,3.9705985627902898,-0.1858310515333884,0.6411601771773585,-0.19732775200940358,2.2322323887118305,-0.12314989663754432,0
542,2024-09-26 22:20:20.338287104,TASK_BEGIN,020,0.2750838631811746,0.06837545947408835,3.9398371258565046,-0.18572774732050273,0.6210636645747872,-0.18984765224798755,2.293348884461758,-0.10870085710451573,0
543,2024-09-26 22:20:21.263689984,TASK_BEGIN,020,0.2528695029442257,0.06899573574331905,3.901879008407247,-0.18934805245376263,0.5982777665483705,-0.18040041679072175,2.3345241455993957,-0.09684493322131034,0
544,2024-09-26 22:20:21.331538944,TASK_BEGIN,020,0.23421690888235588,0.06776640034195915,3.858060928828303,-0.19744490166024192,0.5737350927364868,-0.1691783963522152,2.3540651068326275,-0.0871398575967332,0
545,2024-09-26 22:20:21.399326208,TASK_BEGIN,020,0.21856805230844878,0.06502423199527749,3.809843578082957,-0.2105131625848002,0.5482364688632865,-0.15640313582599585,2.3507843550855347,-0.0787636742709969,0
546,2024-09-26 22:20:21.456163840,TASK_BEGIN,020,0.205170251403359,0.06116897870530498,3.758762091177252,-0.22870677895993285,0.5223290981806894,-0.14228330346080575,2.323772593495115,-0.07057102823069732,0
547,2024-09-26 22:20:21.534843904,TASK_BEGIN,020,0.19314652848456895,0.05663876424834002,3.706240006560053,-0.2517599286413096,0.4962337086185474,-0.1269742543271607,2.2720956322674577,-0.06120997885463158,0
548,2024-09-26 22:20:21.594403072,TASK_BEGIN,020,0.18158669543983558,0.05187826194044691,3.6533159474484656,-0.27894050632710143,0.4698144703828126,-0.11054804098784027,2.194662010612752,-0.04929192408072824,0
549,2024-09-26 22:20:21.656033024,TASK_BEGIN,020,0.16962554252256928,0.047309113684851564,3.6004300147278907,-0.30906635123474957,0.44260256768284323,-0.09298143426410095,2.09029750203389,-0.033559871202230696,0
550,2024-09-26 22:20:22.588818176,TASK_BEGIN,020,0.15648622812857307,0.04330899845797228,3.547403743957583,-0.34059833499673936,0.41387275560284276,-0.07416499115486021,1.9579944906833036,-0.013021784885268005,0
551,2024-09-26 22:20:22.656608256,TASK_BEGIN,020,0.14150284701239,0.04019642659491138,3.4936982389586553,-0.37180821952222837,0.38275914998075616,-0.053933691661345984,1.7973737162965877,0.012939059900175076,0
552,2024-09-26 22:20:22.714524928,TASK_BEGIN,020,0.1241537381617104,0.03821580954399439,3.4389244766260165,-0.40100497231334015,0.34840259817608016,-0.0321165413917716,1.6093821012937186,0.044455874458104935,0
553,2024-09-26 22:20:22.777013248,TASK_BEGIN,020,0.10412015639270274,0.037522104216661356,3.3834059615309173,-0.4267767979847139,0.3101140863844113,-0.008595324835870125,1.3970200600042124,0.0810926334061331,0
554,2024-09-26 22:20:22.859979008,TASK_BEGIN,020,0.08136130209969483,0.038168154304414496,3.3285897355527867,-0.4481930125901969,0.2675101731374628,0.016644296127515584,1.1656753461241016,0.12184979950318608,0
555,2024-09-26 22:20:22.914483968,TASK_BEGIN,020,0.056185064059436504,0.04009784250696036,3.277272947093247,-0.46492544356537174,0.2205817242013259,0.04348282474808051,0.9227938360428242,0.1653064015229046,0
556,2024-09-26 22:20:22.991644928,TASK_BEGIN,020,0.02928524351663244,0.043146462139090784,3.2336244241227265,-0.47725818456491415,0.1697052868347431,0.07165733244348525,0.6770269943302577,0.20985332592394682,0
557,2024-09-26 22:20:23.934316032,TASK_BEGIN,020,0.0017085253305734623,0.04705008562190598,3.202828713760446,-0.48596029414386305,0.11562953730493078,0.10076289505127142,0.43722289964507305,0.25392473353205847,0
558,2024-09-26 22:20:23.996634112,TASK_BEGIN,020,-0.02526817498630677,0.05146638899743411,3.190279801805677,-0.49204933074135987,0.05945046581304422,0.13026127689257946,0.2115514208909905,0.296164642933033,0
559,2024-09-26 22:20:24.073415936,TASK_BEGIN,020,-0.05032040136049009,0.056004296466377085,3.2006267249631497,-0.4965444372225806,0.002566248590249862,0.1595021408346818,0.00688670911357352,0.33550679990429944,0
560,2024-09-26 22:20:24.135155968,TASK_BEGIN,020,-0.07225364424248756,0.060254178776637024,3.237087817437632,-0.5003059084456328,-0.053413962950475534,0.18776535305663136,-0.17156245033144207,0.3711687819283793,0
561,2024-09-26 22:20:24.197261056,TASK_BEGIN,020,-0.09011928173495984,0.06381294078446302,3.3011433574581686,-0.5039881438580947,-0.10682553533467995,0.21432609997660873,-0.32047327418215804,0.4025880810169648,0
562,2024-09-26 22:20:24.274912000,TASK_BEGIN,020,-0.1032429349729857,0.06630361912071364,3.3924648964247908,-0.5080687975711686,-0.1561396736628659,0.23852891924764238,-0.4385561309432395,0.42934335064185997,0
563,2024-09-26 22:20:24.336971008,TASK_BEGIN,020,-0.1111755156550737,0.06739098218485273,3.508964788584675,-0.5128880743213714,-0.2001309984064969,0.2598482573138128,-0.5265778874247588,0.4510879943125122,0
564,2024-09-26 22:20:25.284781056,TASK_BEGIN,020,-0.11361642594726869,0.06679629033022771,3.6468851448358106,-0.5186400656388754,-0.2379916407719054,0.2779231510966327,-0.5871571764978963,0.46750830111388036,0
565,2024-09-26 22:20:25.347728896,TASK_BEGIN,020,-0.11036743043324686,0.06431480767934622,3.8008257084278454,-0.5253031453032785,-0.2693977466217584,0.2925677408147372,-0.6242957175221732,0.4783178497698023,0
566,2024-09-26 22:20:25.424545280,TASK_BEGIN,020,-0.10133790427285848,0.059834938119675996,3.9637273018783294,-0.5325516042369941,-0.2945186565320925,0.303762224030135,-0.6427187282795322,0.48329068402105985,0
567,2024-09-26 22:20:25.485557248,TASK_BEGIN,020,-0.08657476764867471,0.0533517743655723,4.127006687736586,-0.5397160944031356,-0.3139461780747711,0.3116288522546234,-0.6472312869442327,0.4823249125219842,0
568,2024-09-26 22:20:25.549562880,TASK_BEGIN,020,-0.06627702762511438,0.044967603345814504,4.281013143597092,-0.5458353871450908,-0.3285609201623318,0.31640150680949647,-0.6423365921117126,0.47552048700327315,0
569,2024-09-26 22:20:25.625658880,TASK_BEGIN,020,-0.040779475314612686,0.034877623135697415,4.415802473497988,-0.5497929697831417,-0.33938517940609375,0.3183959576229095,-0.632204699699301,0.46324262241890973,0
570,2024-09-26 22:20:25.695779072,TASK_BEGIN,020,-0.010520507236231035,0.023343796653198086,4.52216321340014,-0.5505122067403668,-0.3474576037393745,0.31798091007632007,-0.6209054751941452,0.4461517849052099,0
571,2024-09-26 22:20:26.639054848,TASK_BEGIN,020,0.023981782227416457,0.010661838494235623,4.592802015982974,-0.5471851319464115,-0.3537409240121469,0.3155478941250388,-0.612680807609758,0.42519816980292774,0
572,2024-09-26 22:20:26.706904064,TASK_BEGIN,020,0.062132725130179665,-0.0028712796114999323,4.623400765356305,-0.5394854362845597,-0.35905817182643235,0.31148126928684355,-0.6118777106354835,0.4015549037198936,0
