,time,MARKER,pid,L_O_DSI,L_D_DSI,L_O_DSphi,L_D_DSphi,R_O_DSI,R_D_DSI,R_O_DSphi,R_D_DSphi,trial_id
0,2024-09-26 22:28:04.933538818,TASK_BEGIN,020,-0.037245714748721084,-0.04859669283328684,4.832922056543123,-1.1240830080567366,0.5986133056569982,0.04140749051003687,-2.58610529319995,0.5887256189214047,2
1,2024-09-26 22:28:04.995582031,0,020,-0.05119020573947171,-0.047641431953154165,4.617432463363366,-1.085261152890224,0.572847714309753,0.04335743480627834,-2.4879754536636285,0.5582321521240726,2
2,2024-09-26 22:28:05.072947021,0,020,-0.06541220928301342,-0.04635313424637367,4.421693923155753,-1.0533809777506207,0.5381160266014663,0.04637013280231149,-2.428417210639249,0.5305384456480032,2
3,2024-09-26 22:28:05.134517822,0,020,-0.07895541149261129,-0.044856169824542644,4.252881391236779,-1.029130157383474,0.4967998163451965,0.05010885656773033,-2.4007023209108773,0.5055399281843448,2
4,2024-09-26 22:28:05.196094971,0,020,-0.09077067399630119,-0.04331539473061647,4.115763493088999,-1.0127291111434578,0.45162083555953475,0.0542087868736218,-2.397753991455798,0.4833622321454989,2
5,2024-09-26 22:28:05.277812988,0,020,-0.09989240198665297,-0.04190055846432791,4.012628784287981,-1.0039527076086907,0.4054199003915901,0.05830237143652692,-2.412687618143448,0.46439368841259204,2
6,2024-09-26 22:28:05.334955078,0,020,-0.10559756662501506,-0.04074938566733266,3.943581859854192,-1.0022078317246812,0.36093218155879303,0.06204211739378146,-2.439126041246556,0.4492717019089434,2
7,2024-09-26 22:28:06.285736084,0,020,-0.10750552091236312,-0.03994317811538301,3.907139977396404,-1.006653553486201,0.3205853924104452,0.06511674268694922,-2.4713781195525124,0.43882792341381927,2
8,2024-09-26 22:28:06.348376953,0,020,-0.10561144246361073,-0.03949994309106057,3.9008914447832597,-1.0163230866080866,0.28633885476283866,0.06726315722594693,-2.5045456959414882,0.4339838537411347,2
9,2024-09-26 22:28:06.424431152,0,020,-0.10026837195309936,-0.039381074640197536,3.922003005615983,-1.0302014591098143,0.2595910664498829,0.06827471192973665,-2.5345395537156445,0.43558674338313325,2
10,2024-09-26 22:28:06.492235840,0,020,-0.0921216031715701,-0.039507522087968844,3.967495536463288,-1.0472425529006886,0.2411612403931262,0.0680036495215996,-2.558031510863545,0.44421251418359997,2
11,2024-09-26 22:28:06.560028076,0,020,-0.0819893213313401,-0.03978610145252959,4.034304522008808,-1.0663497984211356,0.2313023048864681,0.06636047554001502,-2.5723690439846867,0.4599844402210562,2
12,2024-09-26 22:28:06.627802979,0,020,-0.07070571298525996,-0.04014408849941668,4.119236099976357,-1.0863713453668518,0.2297023800129606,0.06331536676298273,-2.575388955884921,0.482435711377712,2
13,2024-09-26 22:28:06.695597900,0,020,-0.05897410894894715,-0.04056032374045625,4.218978442109575,-1.1061582489404342,0.23548534019740994,0.05890011038992361,-2.565135527478,0.5104351113728618,2
14,2024-09-26 22:28:07.638902100,0,020,-0.04727376730026026,-0.04107871321546597,4.330222205265938,-1.1246934887855324,0.24725180063139682,0.053204221203641204,-2.539643554212529,0.5422062618183308,2
15,2024-09-26 22:28:07.703373047,0,020,-0.03582696795685104,-0.0418010512279046,4.449774100599956,-1.1412417606813916,0.2631766117464732,0.046363790083620564,-2.4969232929008243,0.5754513080544675,2
16,2024-09-26 22:28:07.774516113,0,020,-0.024607737086078732,-0.04286714812903609,4.574514028055591,-1.1554445356058802,0.28114373176476887,0.038548178481017346,-2.4351764212987947,0.6075587396120453,2
17,2024-09-26 22:28:07.840590088,0,020,-0.013376197278648874,-0.044431047876396325,4.7011960526907774,-1.1673145301295669,0.2988989175625785,0.02994863861909719,-2.3531936404721905,0.6358642997037424,2
18,2024-09-26 22:28:07.908773926,0,020,-0.00173318757294831,-0.04663788158899834,4.826255885249151,-1.1771393856628782,0.3142264562884345,0.020766568436148262,-2.2507699834745503,0.6579215857520025,2
19,2024-09-26 22:28:07.977833984,0,020,0.010806374153238658,-0.049604100350391346,4.945774761971807,-1.185343820271533,0.3251649493576836,0.011195744381665427,-2.128943338671421,0.6717356625319659,2
20,2024-09-26 22:28:08.042305908,0,020,0.02473076689268818,-0.053404762999015115,5.0556017712251755,-1.1923620970950957,0.33024236262782464,0.001397965310144216,-1.9899901558464705,0.6759336099566907,2
21,2024-09-26 22:28:08.959786865,0,020,0.04045786627240979,-0.058070445546418714,5.151547413446032,-1.1985472781680209,0.32866112508282985,-0.008518088655365122,-1.837242450774857,0.6698596176578151,2
22,2024-09-26 22:28:09.021039062,0,020,0.05828027567777336,-0.06359114498387318,5.2296061363405615,-1.2041217716566663,0.320362381381185,-0.018501391075098694,-1.6748542202632977,0.6535866803821865,2
23,2024-09-26 22:28:09.099667969,0,020,0.07832531557676414,-0.06992169547747501,5.2862189242141095,-1.2091676806432425,0.3059585566962899,-0.028543347916435743,-1.507614005090956,0.627854232165634,2
24,2024-09-26 22:28:09.167434082,0,020,0.10052965914706669,-0.07698615917947679,5.318523900316632,-1.2136432752768354,0.28658112525816554,-0.038652763078442884,-1.3407431741103302,0.5939533393566746,2
25,2024-09-26 22:28:09.222025879,0,020,0.12463252276985874,-0.08468080853569573,5.324450507955007,-1.217391213116064,0.26369426951526953,-0.04883206627302162,-1.1795138206775466,0.553569806783622,2
26,2024-09-26 22:28:09.299272949,0,020,0.15018522103170648,-0.09287516436146948,5.302592845167358,-1.2201145689534254,0.23890559045058538,-0.05905892738478512,-1.0286357761805034,0.5085929900071747,2
27,2024-09-26 22:28:09.370834229,0,020,0.17657419192920548,-0.10141245609102278,5.252039710716465,-1.2213490942320868,0.2138025168905166,-0.06927507974605267,-0.8915770003183773,0.460920109957979,2
28,2024-09-26 22:28:10.309745117,0,020,0.2030570765900846,-0.11011231142274776,5.172427379655736,-1.2204893670775825,0.18983842758765232,-0.0793855523450817,-0.770083403324755,0.4122970731290229,2
29,2024-09-26 22:28:10.371760986,0,020,0.22881091701654965,-0.11877709134328415,5.064260275597203,-1.2168853545392888,0.16827066537887234,-0.08926997995380051,-0.664081672280772,0.36422406750647107,2
30,2024-09-26 22:28:10.448543945,0,020,0.25299404245141816,-0.12720203663837637,4.929325683547299,-1.2099725953062481,0.15014093380114182,-0.0988049262892742,-0.5719411645878898,0.31793082957000357,2
31,2024-09-26 22:28:10.510106934,0,020,0.27482057861756776,-0.13518826107014711,4.771029144546384,-1.1993915343068986,0.13629160717428795,-0.10789364768093007,-0.4909374093374327,0.27440300663016154,2
32,2024-09-26 22:28:10.571230957,0,020,0.29363409466184304,-0.14255557806221572,4.5944977851855775,-1.1850587147170115,0.12740584668002716,-0.11649561475604259,-0.4178242700688563,0.2344345994542939,2
33,2024-09-26 22:28:10.653079102,0,020,0.30896325845580846,-0.14915188156184098,4.406283768090011,-1.167158742474176,0.12404918894304355,-0.12464580287301512,-0.34949803904563764,0.19868955374282982,2
34,2024-09-26 22:28:10.718081055,0,020,0.3205520178991329,-0.15485827123946827,4.213653212735755,-1.1460614162149958,0.12668990226726382,-0.1324568934850593,-0.2836771360411274,0.1677570243301813,2
35,2024-09-26 22:28:11.664169922,0,020,0.3283607885863384,-0.15959100530809592,4.023719812154041,-1.1222145573341342,0.1356790574002402,-0.14010263805483072,-0.21946267895385554,0.14218035544573404,2
36,2024-09-26 22:28:11.732065918,0,020,0.33253714558286857,-0.16330139348186698,3.84278844033758,-1.0960725422404052,0.15118577163634664,-0.1477860829913863,-0.15770786450096475,0.12245071641747202,2
37,2024-09-26 22:28:11.799875000,0,020,0.33337489420405464,-0.16597588549015405,3.676087988722873,-1.0680872968389918,0.17311800900687685,-0.15570327846321388,-0.1012297527254777,0.1089853049968201,2
38,2024-09-26 22:28:11.867672119,0,020,0.3312984325908928,-0.16764037410804278,3.527772137616106,-1.0387393735566943,0.20107560818047443,-0.1640149170664966,-0.05487542314954247,0.10211777233146467,2
39,2024-09-26 22:28:11.934768799,0,020,0.32688640260130075,-0.16836926602673863,3.4009359346784054,-1.008560583097934,0.23435014158191994,-0.1728304498355371,-0.025286743797563384,0.10209257174518171,2
40,2024-09-26 22:28:11.997255127,0,020,0.3209050671478304,-0.16829267558728667,3.2975114259538025,-0.9781165644830406,0.271953010040123,-0.18220036051633273,-0.02015258171655173,0.10902451003195049,2
41,2024-09-26 22:28:12.071048096,0,020,0.31431356842857955,-0.16759455289545708,3.218089900798652,-0.9479541209244002,0.3126594916222351,-0.19211144896627969,-0.04695837437928483,0.12280509369874831,2
42,2024-09-26 22:28:13.009333984,0,020,0.3082308695904559,-0.16650150582305276,3.1617839750733445,-0.9185389409280095,0.3550697831842282,-0.2024848293756322,-0.11152541774501618,0.14298023224250828,2
43,2024-09-26 22:28:13.071820068,0,020,0.30387210867128484,-0.16526602661371753,3.1261873518084107,-0.8902039263404903,0.39767865704182764,-0.2131790482445647,-0.21674361620931695,0.16864909670860034,2
44,2024-09-26 22:28:13.149327881,0,020,0.30245700655742613,-0.1641455545072226,3.1074534682506583,-0.8631152128149302,0.43893972424733785,-0.223999269502257,-0.36184772343629623,0.1984360961762648,2
45,2024-09-26 22:28:13.217650879,0,020,0.3050885115783956,-0.163377151975229,3.100553404647663,-0.8372671191978357,0.4773308107088082,-0.2347127227922269,-0.5424089173314507,0.23056250242176407,2
46,2024-09-26 22:28:13.273438965,0,020,0.31261224026271034,-0.16315074839115049,3.0997869363030643,-0.8125293764473145,0.5114409465575797,-0.24507107468824604,-0.7509543510831874,0.2629950786118443,2
47,2024-09-26 22:28:13.351097900,0,020,0.32548726325138094,-0.1635883365369584,3.0995346475411756,-0.7887551021295498,0.540076940860508,-0.2548373522199145,-0.9779576723256259,0.2936207484158511,2
48,2024-09-26 22:28:13.421167969,0,020,0.3437019359439051,-0.16473569967288884,3.095099934225501,-0.7659167857397955,0.5623589671130448,-0.263809849434921,-1.212975870665397,0.32041813462492535,2
49,2024-09-26 22:28:14.334615967,0,020,0.3667463530749699,-0.16656589233738758,3.0833783448842724,-0.744210462209204,0.5777746845723127,-0.271835425558675,-1.4457920815167449,0.34162667368105737,2
50,2024-09-26 22:28:14.407782959,0,020,0.3936293749089883,-0.1689877680642609,3.0631255711714913,-0.7240851976803437,0.586181405816007,-0.2788114774508574,-1.6673955106932652,0.35590392737605736,2
51,2024-09-26 22:28:14.474219971,0,020,0.42293132977356157,-0.17185582392476131,3.034817558525752,-0.7062015304382024,0.5877735629330979,-0.28468247057659624,-1.870585697950172,0.36243556817598627,2
52,2024-09-26 22:28:14.543355957,0,020,0.4529073712267004,-0.17498429918583563,3.000283398303231,-0.691347611554545,0.583055709408191,-0.28943751008279034,-2.0501016847702784,0.3609728385654117,2
53,2024-09-26 22:28:14.597791992,0,020,0.481658034055468,-0.1781685082185429,2.9622532479782717,-0.6803282204432546,0.5728431117871151,-0.2931105459508464,-2.20240551107512,0.35181170339863793,2
54,2024-09-26 22:28:14.674998047,0,020,0.5073411507225631,-0.1812098604276089,2.9238428171182007,-0.6738311597062842,0.5582550422230399,-0.29577773403088187,-2.3253506940449555,0.3357403091188918,2
55,2024-09-26 22:28:14.736543945,0,020,0.5283650830440482,-0.18393802880598023,2.8879907578748907,-0.6722905352685847,0.5406465995138348,-0.29754462975628804,-2.4178269952432445,0.3139552802098293,2
56,2024-09-26 22:28:15.689360107,0,020,0.5435319280483754,-0.18622900845331813,2.856963508527837,-0.6757824832552966,0.5214772518973448,-0.2985237863414814,-2.479336061206173,0.28793548526433393,2
57,2024-09-26 22:28:15.750556885,0,020,0.5521449117974452,-0.1880217356040536,2.8320727224455022,-0.6839814381007416,0.5021624743623454,-0.2988116023162394,-2.509530807580518,0.2592859068050662,2
58,2024-09-26 22:28:15.821090820,0,020,0.5540846899780871,-0.18933148297265362,2.813624651491865,-0.6961796429268183,0.48394509753621295,-0.2984723255006521,-2.5078651553196813,0.229579683309227,2
59,2024-09-26 22:28:15.883083984,0,020,0.5498261389707884,-0.19025438117472057,2.801002083559681,-0.7113565887092309,0.4677991658502714,-0.2975319083333568,-2.4734566141759147,0.200214990520705,2
60,2024-09-26 22:28:15.945490967,0,020,0.5403770396027135,-0.19096042899038665,2.7928054623732,-0.7282859613551649,0.45437322348857234,-0.29598128560272563,-2.4051636936657776,0.172297110568635,2
61,2024-09-26 22:28:16.028447021,0,020,0.5271576984121339,-0.191676146745348,2.7870494275990603,-0.7456644394739256,0.4439715328550603,-0.2937862997792367,-2.30183960700864,0.1465589076682113,2
62,2024-09-26 22:28:16.096262939,0,020,0.5118558740936197,-0.19265950506054083,2.781416928831529,-0.7622354753038433,0.4365627540090154,-0.2909004968742335,-2.1627076811664923,0.12332723053320477,2
63,2024-09-26 22:28:17.032083984,0,020,0.4962792626669495,-0.19417099667172247,2.7735279902407046,-0.7768795708604942,0.43181584575076043,-0.28727963015396424,-1.9877811988727059,0.1025377840030033,2
64,2024-09-26 22:28:17.094162109,0,020,0.48220902544154753,-0.19644478263225676,2.7611498462840243,-0.7886565727949689,0.4291737451534525,-0.28289913265033245,-1.7782478638614707,0.08380418314576378,2
65,2024-09-26 22:28:17.171840820,0,020,0.4712438616008517,-0.1996616838158088,2.7423133487626514,-0.7968071581896022,0.4279580145035316,-0.2777734253142789,-1.5367544008604705,0.0665432362127537,2
66,2024-09-26 22:28:17.234324951,0,020,0.46463079120208123,-0.20392455865682851,2.71536762960452,-0.800736945525699,0.42747167025073973,-0.2719714154245583,-1.2675352689343475,0.05014016707622966,2
67,2024-09-26 22:28:17.310729980,0,020,0.46311325119188035,-0.2092393144244609,2.6790384346622154,-0.8000083494694751,0.4270685973385714,-0.26562169378031025,-0.9763497244636645,0.03411526549295061,2
68,2024-09-26 22:28:17.373537109,0,020,0.466847593081838,-0.21550742575464868,2.6325498731231374,-0.7943535633269203,0.4261761906177082,-0.25890406515135395,-0.6702415864374383,0.01824736112193132,2
69,2024-09-26 22:28:17.446362061,0,020,0.4754091359448106,-0.22253251137663824,2.575818057718008,-0.7837056492722252,0.4242694314883122,-0.252027338744975,-0.35717486916422003,0.0026271949130503777,2
70,2024-09-26 22:28:18.383510009,0,020,0.4878636900476811,-0.23003711023282233,2.5096415099038096,-0.7682347121187392,0.4208116467374391,-0.2451966732932505,-0.045619722531030714,-0.012362568449547171,2
71,2024-09-26 22:28:18.445996094,0,020,0.5028692464911358,-0.23768346685993186,2.4357544079132594,-0.7483709325475503,0.415201941647219,-0.23857867063333843,0.2557994186924775,-0.026125285858467535,2
72,2024-09-26 22:28:18.523625000,0,020,0.5187966594205319,-0.24509527291479163,2.3566471262830175,-0.7247938638559677,0.40676905172378325,-0.23227514040493083,0.5385381941959964,-0.037959690219461134,2
73,2024-09-26 22:28:18.585705078,0,020,0.5338802237089578,-0.25188093403828543,2.2752175063658355,-0.6983827658263868,0.39482503871449426,-0.22631369870370077,0.794392282286519,-0.04718482104101315,2
74,2024-09-26 22:28:18.648191895,0,020,0.5463927974605907,-0.25765849686918046,2.1944393067204815,-0.670146281574252,0.3787706291615702,-0.2206572630826394,1.0159546514269204,-0.053277206564991894,2
75,2024-09-26 22:28:18.728739014,0,020,0.5548074009419466,-0.26208032503475687,2.1171609259463335,-0.641150307012398,0.35822801979929797,-0.21522794543667298,1.1971505683263122,-0.05599468129723308,2
76,2024-09-26 22:28:18.788436035,0,020,0.5579112197175172,-0.2648557946451896,2.0460048636386396,-0.6124487169011389,0.33316018258075697,-0.20993620705884364,1.3335046710860579,-0.05543448579825153,2
77,2024-09-26 22:28:19.710460938,0,020,0.5548699651004649,-0.26577032215706714,1.9833171366162863,-0.5850201956759038,0.30393604262333396,-0.20470589121772947,1.4219448057946993,-0.05199458865402622,2
78,2024-09-26 22:28:19.773107910,0,020,0.5452525261162153,-0.2646972530116115,1.9311706146273222,-0.5597205098467509,0.27132767226900095,-0.199489775200077,1.4603303295887595,-0.04626611986891688,2
79,2024-09-26 22:28:19.837687988,0,020,0.5290170009713818,-0.261599236838746,1.8914112270830687,-0.5372498810718748,0.23645800103618192,-0.19427501377091785,1.4471479488032128,-0.038921319452444425,2
80,2024-09-26 22:28:19.915240967,0,020,0.506461386494834,-0.2565192952377896,1.8656409618750993,-0.5181131895554478,0.20072349638739678,-0.18907932233816044,1.3816747270126408,-0.0306376787837141,2
81,2024-09-26 22:28:19.976205078,0,020,0.47815543417843265,-0.24956479776963775,1.855005829250019,-0.5025517711211184,0.1656961448635621,-0.18393893349467907,1.2645052030978878,-0.022054192747813,2
82,2024-09-26 22:28:20.038781982,0,020,0.4448705105186696,-0.24088733689704245,1.859804345566798,-0.49046070284156473,0.13300070559908042,-0.17889293423322294,1.0981082995579,-0.013744715837554024,2
83,2024-09-26 22:28:20.116887939,0,020,0.4075125198615045,-0.2306613493808854,1.8791072332569128,-0.48133419014374285,0.10417524674570879,-0.17397088286606763,0.8871605426683207,-0.006201395401940536,2
84,2024-09-26 22:28:21.058156982,0,020,0.3670548102529047,-0.21906516911715163,1.9105524962485,-0.47426750887363506,0.0805252630485672,-0.16918494293830394,0.6385783765885729,0.00018215897403051317,2
85,2024-09-26 22:28:21.129947021,0,020,0.3244649702496013,-0.20626618222033416,1.9503127751676061,-0.46800857642632204,0.06297488484460956,-0.16452160091499593,0.36129803749017986,0.005138017792942786,2
86,2024-09-26 22:28:21.197788086,0,020,0.28062771629052624,-0.19241018747328645,1.993181351591811,-0.46104315987611866,0.051931412891985766,-0.15993152613936423,0.06591150022524203,0.008558144851680306,2
87,2024-09-26 22:28:21.265644043,0,020,0.23628658206188374,-0.17761796354804713,2.032809549437802,-0.45171516426350167,0.0472082124865386,-0.15532476456568337,-0.2357772480597262,0.010522570731323087,2
88,2024-09-26 22:28:21.322912109,0,020,0.1920252786962815,-0.16199077768596234,2.0621737599710124,-0.43838983134991755,0.04805450659155622,-0.15058024301871156,-0.5313207278211327,0.01130615165267959,2
89,2024-09-26 22:28:21.401216064,0,020,0.14827583770736286,-0.14561793132136688,2.074288584960572,-0.419651593170107,0.05329261335356801,-0.1455693631671724,-0.8084027666426352,0.011354270491185762,2
90,2024-09-26 22:28:21.468948975,0,020,0.10532561488705973,-0.1285773098449784,2.0630734212991704,-0.39450814914289517,0.061504612366348875,-0.1401824782600465,-1.0557691361676504,0.011230443732302945,2
91,2024-09-26 22:28:22.412218994,0,020,0.06331821902280746,-0.11092990018035165,2.0241981495987544,-0.36256151729026026,0.07120485638448756,-0.1343466696997332,-1.2640361001187626,0.011537580468803457,2
92,2024-09-26 22:28:22.480012939,0,020,0.022263837727066325,-0.09271788597963392,1.955693746416763,-0.32410252906990616,0.0809729944624527,-0.12803255272166533,-1.4260958704131188,0.01281073380722045,2
93,2024-09-26 22:28:22.534845947,0,020,-0.017928371191194205,-0.07397342429551053,1.85812886178933,-0.2800927030532982,0.0895512751032909,-0.1212554428567992,-1.5371717816706625,0.015406427911212528,2
94,2024-09-26 22:28:22.615624023,0,020,-0.057395959162002234,-0.05473687379215308,1.7342920922212213,-0.23203204856328938,0.0959203959520345,-0.11407625474959746,-1.5947867012517356,0.019433167528472083,2
95,2024-09-26 22:28:22.683409912,0,020,-0.09626025329381534,-0.035077600178321865,1.5885085739571008,-0.18175439029591445,0.09937033451155812,-0.10660300547981158,-1.5987553534488113,0.024737477467546957,2
96,2024-09-26 22:28:22.736068848,0,020,-0.13457387862942904,-0.01511049427781541,1.4258141349266413,-0.13120823515453606,0.09956833675972694,-0.09899060661002389,-1.5511676588012016,0.03093181033553532,2
97,2024-09-26 22:28:22.813233887,0,020,-0.17229077912869373,0.004994772512129913,1.2512417725803937,-0.08227287445095163,0.09660463722145755,-0.09143742793296437,-1.4563426522673895,0.03745806232294843,2
98,2024-09-26 22:28:23.762217041,0,020,-0.2092603042625003,0.025011653959275758,1.0694396953200063,-0.036638101855284044,0.09099457704181556,-0.08417892624845139,-1.3206975668155052,0.0436798850351764,2
99,2024-09-26 22:28:23.830154785,0,020,-0.24524300984546196,0.04466221718805032,0.8846596914113699,0.004258059103161649,0.08363176560086505,-0.07747898903700691,-1.1524345342835547,0.0489754262693929,2
100,2024-09-26 22:28:23.887154053,0,020,-0.2799414408271658,0.06363108607807767,0.7009562115377425,0.03926695840627023,0.07569786582890514,-0.07162010778041498,-0.9610418368818696,0.05280166270582426,2
101,2024-09-26 22:28:23.964804932,0,020,-0.3130257879038738,0.08158540712299274,0.5223841254834782,0.0675707771451609,0.06854092902214373,-0.0668933530869285,-0.7567388903127718,0.05473441728787452,2
102,2024-09-26 22:28:24.031440918,0,020,-0.34413259646450783,0.09819536201888662,0.3530747280670193,0.08872090176869896,0.06354284646299506,-0.06358565673176175,-0.5499888374160911,0.054509833456467975,2
103,2024-09-26 22:28:24.088862793,0,020,-0.37284514879311614,0.11315151945034921,0.1972422664512979,0.10263585753222591,0.06199249590309585,-0.06195934524462613,-0.35106997593807815,0.05207767340735828,2
104,2024-09-26 22:28:24.166059082,0,020,-0.39868992836616757,0.1261786356046103,0.05924887424697941,0.10953936788099258,0.06496501424982862,-0.062223145624797964,-0.16960309681828586,0.047646705181613236,2
105,2024-09-26 22:28:25.113152100,0,020,-0.42116333009890433,0.13704599923227834,-0.05631851288776389,0.10987275563423919,0.07320577362597804,-0.06450017010636293,-0.01397298180014202,0.04168342074962163,2
106,2024-09-26 22:28:25.180928955,0,020,-0.4397662078031192,0.1455734425922763,-0.14478851741867968,0.10422995320970685,0.08703493098618775,-0.06880010391003555,0.10930748188730365,0.034837216238027734,2
107,2024-09-26 22:28:25.244860840,0,020,-0.4540183659683932,0.15163268631757407,-0.20187477631232056,0.09331532252380696,0.10629826655682,-0.07500216015027142,0.19616098680915556,0.027802615107312276,2
108,2024-09-26 22:28:25.306950928,0,020,-0.463450628618608,0.15514594633962964,-0.22431562787290968,0.0778871707169546,0.13037483495947888,-0.08285408781828853,0.24529770603290746,0.021155501649278534,2
109,2024-09-26 22:28:25.369435059,0,020,-0.46759565946103576,0.15608540799364945,-0.21041105115870976,0.05867185235845003,0.1582262588431579,-0.091988639429659,0.25832144830514303,0.01519958089304004,2
110,2024-09-26 22:28:25.446641846,0,020,-0.46599403504554954,0.15447566897676057,-0.160279714970037,0.03627763889019413,0.1884624879596536,-0.10195365010061436,0.23970699454958,0.009847492371193449,2
111,2024-09-26 22:28:25.509135986,0,020,-0.4582161725836227,0.15039760720722228,-0.07582709040611608,0.011149071111751964,0.21941374968205926,-0.1122490420829071,0.19673037902813545,0.004557662976828177,2
112,2024-09-26 22:28:26.435906982,0,020,-0.44390234583578136,0.14399040679788438,0.03948695559217208,-0.016426218054352137,0.24922025471052137,-0.12236532705538827,0.13921569934067282,-0.0016486010758617307,2
113,2024-09-26 22:28:26.501193115,0,020,-0.4228217533738848,0.1354489440075261,0.180980072672324,-0.04627375030699508,0.275955481816678,-0.1318221727349426,0.0788568276978807,-0.010070572052558166,2
114,2024-09-26 22:28:26.562915039,0,020,-0.3949321551449853,0.12501474969415957,0.3430903668597195,-0.07826883914689615,0.29778544683171077,-0.14020850488164416,0.028026253637286714,-0.022112292968419822,2
115,2024-09-26 22:28:26.636976074,0,020,-0.3604232211630172,0.11296225385751697,0.5196752259686509,-0.1122669754647313,0.3131491449277507,-0.147223000916114,-0.001742493680879183,-0.03900259861420783,2
116,2024-09-26 22:28:26.698645020,0,020,-0.3197517262036321,0.09958563107096446,0.7042465972885764,-0.1480389636852938,0.32093181454718783,-0.15270724411967956,-0.0012531054425556423,-0.06151921326887963,2
117,2024-09-26 22:28:26.775938965,0,020,-0.2736704828342859,0.0851883413893847,0.890156638061813,-0.1852196453232108,0.32059669128876617,-0.15666119422524677,0.03516499513029396,-0.08978342624230722,2
118,2024-09-26 22:28:26.837931885,0,020,-0.22322054638350286,0.07007110988652102,1.070813841039139,-0.22328850525101313,0.31224398634390216,-0.15923503450410567,0.10893495103056362,-0.12316227380989052,2
119,2024-09-26 22:28:27.775944092,0,020,-0.1696606833613254,0.05451527366572219,1.239999783094913,-0.26159853869968575,0.2965813328982446,-0.160698299091764,0.21706426903126863,-0.16029020670882566,2
120,2024-09-26 22:28:27.854051025,0,020,-0.11435360673726075,0.03876609258575102,1.3922011197875301,-0.2994345916593846,0.274818697412932,-0.16139340712020014,0.3525268937226633,-0.1991978672651934,2
121,2024-09-26 22:28:27.924758789,0,020,-0.05865696859150121,0.02302409672535016,1.5227912118341205,-0.33605694294945265,0.24852525489175595,-0.16168546260737962,0.5050126049503277,-0.23750068836165383,2
122,2024-09-26 22:28:27.982727051,0,020,-0.0038479344434941905,0.007447334348883637,1.6280270364303528,-0.37070745660423193,0.2194825455390288,-0.1619192608181622,0.6617869430961549,-0.2725910712605565,2
123,2024-09-26 22:28:28.055747070,0,020,0.04892491747242267,-0.007839602889872026,1.7049852204551106,-0.40259752492543516,0.1895406461216123,-0.16238633648414919,0.8085583655828026,-0.30182075074590103,2
124,2024-09-26 22:28:28.119842041,0,020,0.09867669912534763,-0.022734349568013804,1.751576449826503,-0.4309160140837811,0.16046832502062533,-0.16329871794278875,0.9304255821946483,-0.32270384362085014,2
125,2024-09-26 22:28:28.181451172,0,020,0.1446124674214139,-0.037144770314295146,1.7666714574510294,-0.4548724967427383,0.13380902752133447,-0.16477017272966413,1.012977763935601,-0.33315437518670116,2
126,2024-09-26 22:28:29.136146973,0,020,0.18614972277662825,-0.05097800341579331,1.750253236181119,-0.47374839468121893,0.11077904372549115,-0.16681173214265288,1.0434668206940805,-0.3317101896025717,2
127,2024-09-26 22:28:29.206993164,0,020,0.2229445188696831,-0.06413397573066963,1.7034899311387348,-0.48692016427914886,0.09222389368170414,-0.16934368029800823,1.011851561128162,-0.31767105884833335,2
128,2024-09-26 22:28:29.274799072,0,020,0.2549166902158994,-0.0765052977378987,1.6287036756221946,-0.49385804811943457,0.07860810543559239,-0.1722173262909883,0.9115982736880933,-0.2911355661164955,2
129,2024-09-26 22:28:29.335997070,0,020,0.28225607259134194,-0.08798208234507372,1.5292841325792375,-0.49413853644036804,0.07001368429178814,-0.17523939393978769,0.7402724181629438,-0.25298167042788455,2
130,2024-09-26 22:28:29.410329102,0,020,0.3053906889550287,-0.0984579329341072,1.4095845689157693,-0.48749478997400814,0.06615384797608331,-0.1781961861489322,0.4999255833629804,-0.20482176347919617,2
131,2024-09-26 22:28:29.475013916,0,020,0.3249123299566315,-0.1078339633013398,1.2747552943474147,-0.4738832948722435,0.06642131915284621,-0.18087613618344345,0.1971726300295481,-0.14892148606819544,2
132,2024-09-26 22:28:29.536954102,0,020,0.3414726393905871,-0.11602029700724203,1.1304219203063066,-0.4535203410651373,0.06997917221418397,-0.18308944863777982,-0.15712855841177023,-0.0880631625041968,2
133,2024-09-26 22:28:30.455280029,0,020,0.3556691159026582,-0.12293628700079025,0.9822004278288439,-0.42686350292220965,0.07588335485475688,-0.1846835757369211,-0.5485907677059474,-0.02534450431454763,2
134,2024-09-26 22:28:30.532145020,0,020,0.36794097647403096,-0.12851138358568234,0.8351672845699571,-0.3945436845666023,0.08320812346229527,-0.185552221481318,-0.9603445454049119,0.03608398900641151,2
135,2024-09-26 22:28:30.595089844,0,020,0.37849854672532657,-0.13268927423736246,0.6934485725589017,-0.35726901786398896,0.09113949471013391,-0.18563492622609068,-1.3743384584634208,0.09331434600959805,2
136,2024-09-26 22:28:30.657144043,0,020,0.3873067948838007,-0.13543715204914647,0.5600520482281213,-0.31573908157921965,0.09901397166299788,-0.18490623300651904,-1.7727616352186741,0.14394650578824064,2
137,2024-09-26 22:28:30.735501953,0,020,0.3941238592623108,-0.1367575606190249,0.4369336093880742,-0.27060484714206245,0.10630235162987545,-0.18335751656858573,-2.1393568866934016,0.186252608288516,2
138,2024-09-26 22:28:30.795842041,0,020,0.39857366741089945,-0.13669583780094868,0.3251712305759237,-0.22247844168241573,0.11255804295743328,-0.18097733786278783,-2.460391972213163,0.21921471180485227,2
139,2024-09-26 22:28:30.858369141,0,020,0.4002304080428929,-0.13533862550473344,0.22517468446191613,-0.17198424500222778,0.11735933388524629,-0.1777358438301032,-2.7252153459537456,0.24246337750412805,2
140,2024-09-26 22:28:31.804999023,0,020,0.39870480994345103,-0.13280682246411582,0.13694008674397806,-0.11984136799884629,0.12027167095114749,-0.173576863128538,-2.926453481488552,0.25615280177789246,2
141,2024-09-26 22:28:31.882707031,0,020,0.39372194410734407,-0.12924932938383835,0.060290959578217215,-0.06694554436761468,0.12084070280368935,-0.16841879680243688,-3.059966257752184,0.2608109756987196,2
142,2024-09-26 22:28:31.950522949,0,020,0.38516709234989444,-0.12483773477403869,-0.005004824715565266,-0.014408097179093875,0.11861166669001351,-0.1621626716772425,-3.1247368838807796,0.25721985206483133,2
143,2024-09-26 22:28:32.006447021,0,020,0.3730787724262113,-0.11975634406139136,-0.05926846754254486,0.03647073899878315,0.11316575475299501,-0.1547050049993456,-3.1227986627026167,0.24635689303850702,2
144,2024-09-26 22:28:32.085211914,0,020,0.3575982298752949,-0.11418453325887237,-0.10303319529047297,0.0842907488553326,0.10416710145552718,-0.1459539290858116,-3.0590978872002044,0.22937868468141273,2
145,2024-09-26 22:28:32.147214844,0,020,0.33891214331771574,-0.10827420466147943,-0.13719339403547828,0.1276770413130336,0.09141346732517001,-0.13584634104721086,-2.9411496961967702,0.20761445052472616,2
146,2024-09-26 22:28:32.209883057,0,020,0.31722124718166733,-0.10212882982697252,-0.16312200262437254,0.16540176363993392,0.07487477528399052,-0.1243625464428266,-2.7785018006225135,0.1825497828269862,2
147,2024-09-26 22:28:33.163790039,0,020,0.292746297586366,-0.09579256519101864,-0.18264721969791103,0.1964633854349422,0.05469667667790237,-0.1115341944322337,-2.58211421923945,0.15578259952005932,2
148,2024-09-26 22:28:33.231384033,0,020,0.2657633022519669,-0.08925513203676881,-0.19776417893977535,0.22010435595399652,0.031158723562684402,-0.09744149753311533,-2.363678005590414,0.12893509234735534,2
149,2024-09-26 22:28:33.299447998,0,020,0.23663938828559097,-0.08246851510472894,-0.21010460127638478,0.23578474759415918,0.00460843254969642,-0.08220116998534908,-2.1348103760770503,0.10351740015086877,2
150,2024-09-26 22:28:33.353241943,0,020,0.20583120231134425,-0.07536413588747472,-0.22038823580881836,0.24315550839618316,-0.024593234419340654,-0.06595462991791724,-1.9061674304927612,0.0807655313736223,2
151,2024-09-26 22:28:33.434999023,0,020,0.17383013685017767,-0.06786326227512623,-0.22810795854379676,0.24206351421708105,-0.05609808009105153,-0.04886540572135545,-1.686673226737112,0.06150969659500919,2
152,2024-09-26 22:28:33.502873779,0,020,0.14107615386488664,-0.05988262964868732,-0.23156657679875706,0.23259024494402755,-0.08956701428570524,-0.03112536677141596,-1.482988288917927,0.04612013310576684,2
153,2024-09-26 22:28:33.570687012,0,020,0.10787708709344705,-0.051339328011589594,-0.22825234943386008,0.21510766041507454,-0.1246406024339512,-0.012962335562952785,-1.2991495898592138,0.03452481343444957,2
154,2024-09-26 22:28:34.509079834,0,020,0.07435907215785736,-0.042155709798396085,-0.2154743348847257,0.19033450424537082,-0.160903067860838,0.005357498416005342,-1.1363617828775483,0.026270864132049793,2
155,2024-09-26 22:28:34.581792236,0,020,0.040462158208113386,-0.032265394924317486,-0.1911491295688388,0.15937998492390118,-0.19786269601791073,0.023533550886669273,-0.993075162494056,0.02061632451057964,2
156,2024-09-26 22:28:34.649619141,0,020,0.005989417336331936,-0.021623257619334795,-0.15459561536896155,0.1237593953810612,-0.23495175251812042,0.04123939115235593,-0.8654141533602489,0.016642196022168265,2
157,2024-09-26 22:28:34.709894775,0,020,-0.0292998164741441,-0.010219153337793042,-0.1071394862369576,0.08536564575797909,-0.2715370505375781,0.05813523263913743,-0.747904764176904,0.013380771677807652,2
158,2024-09-26 22:28:34.785270996,0,020,-0.06558860246800355,0.0019093665710017878,-0.0523103889607914,0.046386815504939775,-0.3069412576851924,0.07388504817043672,-0.6345025679468318,0.009978598357334627,2
159,2024-09-26 22:28:34.853050049,0,020,-0.1029319372700344,0.014669484583382847,0.004479989926088329,0.00916979517421381,-0.340476966269294,0.0881778196626025,-0.5198763935699467,0.005905011767315243,2
160,2024-09-26 22:28:34.909761963,0,020,-0.14122466442009013,0.027910578546904534,0.05668965110069604,-0.023953446212831863,-0.3714786643788441,0.10074946718789551,-0.4006531856950141,0.0011666354031656446,2
161,2024-09-26 22:28:35.864614990,0,020,-0.18018777255662477,0.04142456468293586,0.09759902332002043,-0.050846541483174704,-0.3993143396589835,0.11139984015435983,-0.27620205105202916,-0.0035590274712173674,2
162,2024-09-26 22:28:35.932388916,0,020,-0.21935762822810584,0.05494844254072476,0.12121753490155965,-0.06972746692865689,-0.4233844634664231,0.1200004292982572,-0.14872742024690563,-0.006955087602502774,2
163,2024-09-26 22:28:35.985853027,0,020,-0.2580775837721255,0.06817039999419813,0.1229495341360809,-0.0792888295015502,-0.4431365931114575,0.12649287202674495,-0.022775259849603508,-0.007279480594145347,2
164,2024-09-26 22:28:36.063044189,0,020,-0.29549974196939527,0.08074163215720113,0.09992936972909587,-0.07877481264555808,-0.45811017235882906,0.13088233830593338,0.09558742457743394,-0.0026911438140531973,2
165,2024-09-26 22:28:36.124604980,0,020,-0.33060942662953313,0.09229447898918716,0.05103529249328462,-0.0680086239465063,-0.4680000366112148,0.13323043348715552,0.19973686243089245,0.008424034868804376,2
166,2024-09-26 22:28:36.203177002,0,020,-0.362277180669058,0.1024642694073102,-0.02335251743794806,-0.04735890067060619,-0.47272054847077805,0.13364953923110642,0.2834416029189364,0.02721782746025662,2
167,2024-09-26 22:28:36.271422119,0,020,-0.38932847470154586,0.11091150176939729,-0.12172972206239392,-0.01764954615131356,-0.47245315274869687,0.13229600587869284,0.3415395228684077,0.05427262133806851,2
168,2024-09-26 22:28:37.182380859,0,020,-0.4106231169847218,0.11734295404970148,-0.2418647959909403,0.019960486798323435,-0.46765079579917707,0.12935679478536294,0.3701850877840454,0.08960298703802183,2
169,2024-09-26 22:28:37.244407959,0,020,-0.425146249068458,0.12153084728499347,-0.381190363704892,0.06410431535600956,-0.4589858141721682,0.12502939391916548,0.3668255578203567,0.13270583818471368,2
170,2024-09-26 22:28:37.321614014,0,020,-0.43210826460618723,0.12332877790185372,-0.5371732840558215,0.11332956700400934,-0.44727342763928635,0.11950451376637058,0.33016566204936587,0.18260478598992252,2
171,2024-09-26 22:28:37.393041016,0,020,-0.4310400329056856,0.12268448822646573,-0.7075471438269673,0.16619922311632593,-0.4334140207910373,0.1129600985740678,0.26017109863077054,0.23787973138225985,2
172,2024-09-26 22:28:37.460855957,0,020,-0.42186452525602514,0.11964951948729878,-0.8902597141787094,0.22134414613485262,-0.4183540726261328,0.10556388727492892,0.15805411010910037,0.29670529444059046,2
173,2024-09-26 22:28:37.528639160,0,020,-0.4049204898728856,0.11438195854889363,-1.083077728980954,0.27744821616222853,-0.4030428779309905,0.0974780177317484,0.026300182161158245,0.35691273936325746,2
174,2024-09-26 22:28:37.583272949,0,020,-0.3809177507670392,0.10713741292728342,-1.2829610782527063,0.3331780303757996,-0.38838410600667816,0.08886510405919198,-0.13119953662417175,0.41607534680190666,2
175,2024-09-26 22:28:38.538780029,0,020,-0.35083326903928136,0.0982490846682413,-1.4855210143993083,0.38710711697076894,-0.3751932468666463,0.07989687325369103,-0.3090325341093937,0.471623469165558,2
176,2024-09-26 22:28:38.603198975,0,020,-0.315789722146707,0.08810297716451668,-1.6849355311722944,0.4376966624667488,-0.3641618576234206,0.0707628470576712,-0.5003494181054161,0.5209932331549502,2
177,2024-09-26 22:28:38.673244873,0,020,-0.2769600299961303,0.07711348974020507,-1.8744545287699355,0.4833615022591141,-0.3558252016921859,0.06167629391911549,-0.6971442456271347,0.5617878181413887,2
178,2024-09-26 22:28:38.742193848,0,020,-0.23551951759286668,0.06570205318579517,-2.047250986940396,0.5225944515690495,-0.35053063732097717,0.0528760220715501,-0.8905792196040576,0.5919172544161909,2
179,2024-09-26 22:28:38.798378906,0,020,-0.19264638164225484,0.05428071177670405,-2.197211157241602,0.5540900040204181,-0.3484055421891226,0.04462156223237144,-1.0712917580897068,0.6096971535702272,2
180,2024-09-26 22:28:38.876029053,0,020,-0.14955020992345555,0.04324172999986312,-2.3194040783423677,0.5768192565702099,-0.3493327875766207,0.03718045507950961,-1.2297547498416685,0.6139082885231111,2
181,2024-09-26 22:28:38.942712158,0,020,-0.10749014148397004,0.03295127749281428,-2.4102221645605812,0.590048125458444,-0.35294565266340666,0.030810962171776767,-1.3567553049790708,0.6038358541476303,2
182,2024-09-26 22:28:39.881820801,0,020,-0.06775316561740326,0.023742290658433352,-2.467335917888728,0.5933292311580941,-0.35864531088336804,0.025745746586621484,-1.4439957479803203,0.5793097353269705,2
183,2024-09-26 22:28:39.943825928,0,020,-0.031593385699768085,0.015902136717513133,-2.4895775621255223,0.5864950457500181,-0.36564109063488515,0.02217990256080263,-1.4847784854920894,0.5407448394463843,2
184,2024-09-26 22:28:40.024476074,0,020,-0.000150444182986671,0.00965502749172642,-2.476738413560903,0.5696448569973971,-0.37302195766720186,0.020263837406748905,-1.4746839377522882,0.48915784708278803,2
185,2024-09-26 22:28:40.083292969,0,020,0.025631872785384126,0.005144367711435515,-2.4292347184110885,0.5431090630988321,-0.3798684737947234,0.02010068082647277,-1.412111785193352,0.42614183917455317,2
186,2024-09-26 22:28:40.144937012,0,020,0.045068630368228696,0.0024208075941634355,-2.3477410184556526,0.5074035266912983,-0.38538906405740636,0.021746368038890258,-1.2985704367320556,0.35379410022648144,2
187,2024-09-26 22:28:40.222204834,0,020,0.05777764289713398,0.0014365768783174877,-2.2330455520955352,0.46321268164512,-0.38903275323065,0.02520713069498505,-1.1386482782902725,0.27459317944794825,2
188,2024-09-26 22:28:40.295641846,0,020,0.0637165988207128,0.0020442592810482507,-2.086299519708536,0.41143114294583644,-0.3905396432733726,0.03043001718873349,-0.9396871067625234,0.1912327822492379,2
189,2024-09-26 22:28:41.239705078,0,020,0.0632089896652023,0.004002362581258025,-1.9095024137832346,0.3532466966944035,-0.3899300626200451,0.037288950862972174,-0.7112813785997517,0.10645008322538627,2
190,2024-09-26 22:28:41.299258056,0,020,0.0569358507424953,0.006991884411755041,-1.7058739344417946,0.29020245890046353,-0.3874533300961954,0.04557411411721802,-0.46472624472838187,0.022889493844802107,2
191,2024-09-26 22:28:41.360801025,0,020,0.04588302560497145,0.010642659473665411,-1.4799400021286786,0.22418243304912433,-0.38351211981672123,0.05499031152222777,-0.21241923129211032,-0.056993267138933885,2
192,2024-09-26 22:28:41.437508057,0,020,0.031256290051217724,0.014563164728160176,-1.2374043244791182,0.1573114030882662,-0.378571302057806,0.06516356878596347,0.032862965438192775,-0.13100975252021202,2
193,2024-09-26 22:28:41.510881836,0,020,0.01437616294918633,0.018368907606117667,-0.9848968419855951,0.09179763212762626,-0.3730603593762178,0.07565300071439664,0.25885916269119047,-0.19731622047045114,2
194,2024-09-26 22:28:41.576353027,0,020,-0.00344605709137338,0.02170845703414885,-0.7295955104694438,0.02975609234123234,-0.36727967338701084,0.0859682385183157,0.4548367218551782,-0.25448674352083034,2
195,2024-09-26 22:28:41.646509032,0,020,-0.021039883178951516,0.024286668338818988,-0.4787367166726154,-0.026952284164830653,-0.36131815284841795,0.09559426386585569,0.6125805076414106,-0.30156967785003586,2
196,2024-09-26 22:28:42.550531006,0,020,-0.037485112703324004,0.0258826466530799,-0.23916834920364746,-0.07683008680862054,-0.35499587928877735,0.10402322274533721,0.7271864049313735,-0.3381164707822751,2
197,2024-09-26 22:28:42.628170898,0,020,-0.052174355378711276,0.02636005390892913,-0.017117365525246505,-0.11877908300510924,-0.3478613855980264,0.1107909720784776,0.7975011629166044,-0.3641754609383805,2
198,2024-09-26 22:28:42.699577148,0,020,-0.0648281456189503,0.025670498942152325,0.1818634629924473,-0.15207510271641084,-0.33926826993693854,0.11551548934534916,0.8261008777560777,-0.38025258108475696,2
199,2024-09-26 22:28:42.754632080,0,020,-0.07547173978137159,0.02385245365654492,0.35295913805220014,-0.1763214143854038,-0.328516538741093,0.11793201675965304,0.8187983881363865,-0.38724828840382547,2
200,2024-09-26 22:28:42.829656982,0,020,-0.08437843851508095,0.021025959634954343,0.4922263012246352,-0.19140169967615558,-0.3150107456986375,0.1179182821157506,0.7837497585345515,-0.38636589888263684,2
201,2024-09-26 22:28:42.902981934,0,020,-0.09199457026289809,0.0173823158318425,0.5966520350621263,-0.19741910929332135,-0.2983959102970739,0.1155067866360912,0.7303068392383779,-0.3789821024579194,2
202,2024-09-26 22:28:42.968414062,0,020,-0.09887411556047261,0.013170777646069458,0.6640160451107463,-0.194612577669599,-0.27865471245936735,0.11088548454158499,0.667909407183973,-0.366513944234734,2
203,2024-09-26 22:28:43.913438965,0,020,-0.10563860543277186,0.008686392471582711,0.6926156526319645,-0.18327452460116497,-0.25615493701838593,0.10438811461214766,0.6053687853465499,-0.35034911709170874,2
204,2024-09-26 22:28:43.966998047,0,020,-0.11295268551657987,0.004260999950206018,0.6809828296696818,-0.16369827067749318,-0.23164099003278518,0.09647454509730272,0.5506555874093532,-0.3318580443233619,2
205,2024-09-26 22:28:44.043750977,0,020,-0.12149579819933237,0.00025566975415001824,0.6276882692456089,-0.1361593120618491,-0.2061771818035653,0.08770164743536939,0.5109044080943955,-0.31242375669356226,2
206,2024-09-26 22:28:44.116879883,0,020,-0.13192047570901078,-0.0029488268222019323,0.5313539320675739,-0.10092481019109256,-0.181061822215422,0.07868584219357772,0.49219312525125286,-0.2934072070707864,2
207,2024-09-26 22:28:44.183435059,0,020,-0.1447995703043579,-0.004966439910563282,0.39100706361972687,-0.058292090067947194,-0.15773248787379437,0.07006162649508746,0.4989496031458286,-0.2760318268865121,2
208,2024-09-26 22:28:44.244997070,0,020,-0.16056737746199903,-0.00542654887706195,0.20676217505714242,-0.008655849030319643,-0.13767054989583327,0.06244276910656952,0.5332711423435714,-0.261248113039772,2
209,2024-09-26 22:28:44.320280029,0,020,-0.179458741859461,-0.0040002319479602415,-0.019392310655931663,0.04740683637483068,-0.12229708378752771,0.05638971920507133,0.5945306248391984,-0.24964568597478418,2
210,2024-09-26 22:28:45.263503174,0,020,-0.20145121853183443,-0.0004299290582849641,-0.28301318373890444,0.10905792355955408,-0.11285310117858584,0.05238224903995389,0.6793906732000194,-0.2414273721708152,2
211,2024-09-26 22:28:45.329854004,0,020,-0.22622250713950345,0.005441315325378071,-0.5770326581957863,0.17516014522171905,-0.11027599403108332,0.050794877548203936,0.7821528679660348,-0.23643158759159424,2
212,2024-09-26 22:28:45.398720947,0,020,-0.25314171961217674,0.013647169667496777,-0.8920076259375911,0.24430201134935786,-0.11509793079522859,0.05187398341204565,0.895371200659581,-0.23420296696543264,2
213,2024-09-26 22:28:45.454125977,0,020,-0.28130199025523034,0.024087664946422983,-1.216689422077799,0.3148753718240984,-0.1273790657763566,0.05571827187810941,1.0106805627046462,-0.2341074358406801,2
214,2024-09-26 22:28:45.531316895,0,020,-0.3095873454690606,0.03653354769611881,-1.5388211218538586,0.3851704797467513,-0.14666360275631055,0.06226509256995003,1.1197458639472773,-0.23546312180112486,2
215,2024-09-26 22:28:45.602541016,0,020,-0.33677215569684815,0.050645040614885777,-1.8460684043488607,0.45345925562792266,-0.17195112755670006,0.07128504535735658,1.2151530870967684,-0.23765065637172933,2
216,2024-09-26 22:28:45.670346924,0,020,-0.36165484603143894,0.06600327458997526,-2.126982823966064,0.5180574929561739,-0.20170577222994504,0.0823897306653768,1.2910289747607613,-0.2401788474508938,2
217,2024-09-26 22:28:46.605369141,0,020,-0.3832049363527986,0.08215031113383695,-2.3719065440213396,0.5773730473801487,-0.23392968627437358,0.09505636674723247,1.3433060815830866,-0.24270998790545736,2
218,2024-09-26 22:28:46.681958984,0,020,-0.4006818253226732,0.09863046538401533,-2.5736914691076107,0.6299562427323452,-0.26629469878073403,0.10866449412166501,1.3697131841071566,-0.24506711235358666,2
219,2024-09-26 22:28:46.749769043,0,020,-0.41369314701581567,0.11502357680085197,-2.7280949521412543,0.674569113174682,-0.29630783351021683,0.1225353188097087,1.3695542011161885,-0.24721870916945848,2
220,2024-09-26 22:28:46.805747070,0,020,-0.42218786811591863,0.1309628578882558,-2.8338429124313578,0.7102774587928374,-0.321505593024515,0.13597040649689193,1.3432938709438422,-0.2492139135872999,2
221,2024-09-26 22:28:46.885370850,0,020,-0.42640155779274536,0.1461367447793772,-2.8924955873732543,0.7365481089902984,-0.3396815659206996,0.14829224575410999,1.2921011159763214,-0.2510806199843105,2
222,2024-09-26 22:28:46.944417969,0,020,-0.4267733667623649,0.16027996746962617,-2.9082248199291163,0.7533184301444147,-0.3491192207649435,0.158885598417219,1.2176031487792123,-0.2527443487316668,2
223,2024-09-26 22:28:47.005507080,0,020,-0.42384299427019106,0.173159020811679,-2.8874440960313086,0.7610035291096588,-0.3487744047054685,0.16723363923709827,1.1219238799644213,-0.2540072896846311,2
224,2024-09-26 22:28:47.939305176,0,020,-0.41814087888251317,0.18455652707102546,-2.838152275066273,0.7604215976027886,-0.338377833990948,0.17294552550679174,1.0077795134420857,-0.2545694153198173,2
225,2024-09-26 22:28:48.007122070,0,020,-0.4101064199308512,0.19426171393915415,-2.769003824718729,0.7526534184085307,-0.3184692189022603,0.17577715552109086,0.8783264406736702,-0.25404296206276145,2
226,2024-09-26 22:28:48.069664062,0,020,-0.40007002936697683,0.202074224737981,-2.68833162799124,0.7388846553548027,-0.29036900364207036,0.17564469159985835,0.7367150804423181,-0.25194178822197544,2
227,2024-09-26 22:28:48.131248047,0,020,-0.3883006899195533,0.20782111274167567,-2.6033957288985237,0.7202779885127378,-0.2560584189347014,0.17262296408365244,0.5856609874270403,-0.24768465726187583,2
228,2024-09-26 22:28:48.209510986,0,020,-0.37507765929507625,0.21137761650743175,-2.5200311179768824,0.6978996345501114,-0.2179458156969183,0.1669209951956313,0.4274246699206445,-0.2406624611019946,2
229,2024-09-26 22:28:48.272121826,0,020,-0.3607340885345328,0.21268041335536722,-2.442704860401723,0.6727056113649148,-0.17855434242164722,0.1588379655048657,0.26428975303370966,-0.2303681910660478,2
230,2024-09-26 22:28:48.334610107,0,020,-0.3456532332920283,0.21172938620100337,-2.374783079483157,0.6455687097162215,-0.14020738654664835,0.14871297009808088,0.09924381290104088,-0.2165379128940081,2
231,2024-09-26 22:28:49.289334961,0,020,-0.33023171408363566,0.20858174807636037,-2.3186937895871784,0.6173004662331072,-0.104780475467303,0.13688238400495326,-0.06355343501861356,-0.1992449294621344,2
232,2024-09-26 22:28:49.344572021,0,020,-0.3148299480644662,0.2033440974541236,-2.275825350055253,0.5886284769069329,-0.07355306681944089,0.12365310148903473,-0.2187231337387214,-0.17891657744492004,2
233,2024-09-26 22:28:49.422275879,0,020,-0.29972977694543135,0.19616676380077247,-2.246270498049986,0.56013016648043,-0.04715874739316719,0.10929391543972618,-0.3599679324260865,-0.15628232452688423,2
234,2024-09-26 22:28:49.484364014,0,020,-0.2851191598776891,0.18724336555732207,-2.2286345443369204,0.5321562636853605,-0.025619623645979164,0.09404313450078135,-0.4805678225984648,-0.1322883376893581,2
235,2024-09-26 22:28:49.545936035,0,020,-0.27110952639963853,0.17681581711319447,-2.2200690264060636,0.5047824973335957,-0.008454786080972828,0.07812735590703387,-0.5740043782058601,-0.10800489857952533,2
236,2024-09-26 22:28:49.628339111,0,020,-0.2577765236655164,0.16518193609184792,-2.216581236747734,0.47782061456433433,0.005158488743445232,0.061782667634782976,-0.6346940955546211,-0.08452188476591467,2
237,2024-09-26 22:28:49.696178955,0,020,-0.24521280317326258,0.1527011143432732,-2.2135458272171302,0.450898335269051,0.016214514579922304,0.04526862704162468,-0.658781149844681,-0.06281708581253576,2
238,2024-09-26 22:28:50.634972168,0,020,-0.23358159383142166,0.13979395692979654,-2.20627198068073,0.4235828920704205,0.02574240774045372,0.0288698069619898,-0.6448621207357794,-0.04361052333728506,2
239,2024-09-26 22:28:50.696535156,0,020,-0.22315762365828953,0.12693396423777092,-2.1904974675498514,0.3955027145396179,0.03471621610982916,0.012885798410485998,-0.5944348231140577,-0.027246868092347352,2
240,2024-09-26 22:28:50.773290039,0,020,-0.21434711695638461,0.11463117917705362,-2.162750661673167,0.36643535440337927,0.04399332350868219,-0.0023848882235130825,-0.5119176762590186,-0.013643694757962947,2
241,2024-09-26 22:28:50.834925781,0,020,-0.20768560229309693,0.10340796712742435,-2.120602820639651,0.3363568454255781,0.054254564700104195,-0.01665966621498136,-0.40426088906940416,-0.0023278937065281157,2
242,2024-09-26 22:28:50.910520020,0,020,-0.2038048186866816,0.09376691278819155,-2.062860722623801,0.3054566428240404,0.06593963132152673,-0.029680470687726678,-0.2802320793982826,0.007429039790477589,2
243,2024-09-26 22:28:50.978312012,0,020,-0.20335694599760976,0.08615272832241463,-1.9896919719730988,0.27411483639364065,0.07919204066021478,-0.041216480366334594,-0.14940416638428325,0.016398256283304727,2
244,2024-09-26 22:28:51.046118896,0,020,-0.2069125253076668,0.0809151189336735,-1.9026319043220674,0.24284383701832843,0.09383128982869653,-0.05106496015098183,-0.020948324410228317,0.025169441879640642,2
245,2024-09-26 22:28:51.989492920,0,020,-0.21487439485707652,0.07828267605789871,-1.8044664439074782,0.2122218616465718,0.10936020391333509,-0.05905276924442608,0.09749786125035138,0.03398906968559046,2
246,2024-09-26 22:28:52.047243896,0,020,-0.22743466029373674,0.07835343242369813,-1.6990219717276087,0.18285737486563985,0.12500422857723184,-0.06503841026607413,0.20062406161530655,0.042692096547522054,2
247,2024-09-26 22:28:52.125120117,0,020,-0.24457041149711978,0.08109994453390036,-1.59084581984574,0.15539379851693075,0.1397787952697983,-0.06891563254512992,0.2858135560180386,0.05071140835566124,2
248,2024-09-26 22:28:52.188395996,0,020,-0.26605862064051156,0.08638302574197813,-1.4847323751767776,0.13051750520457683,0.1525841013938921,-0.07061961983592743,0.35310005106245834,0.05714207677716145,2
249,2024-09-26 22:28:52.250421143,0,020,-0.2914913488539225,0.09396880234256354,-1.385114801276117,0.10892252171172377,0.16231821980023692,-0.07013233265129021,0.40473828991182903,0.06085695893676999,2
250,2024-09-26 22:28:52.328451904,0,020,-0.3202852408215219,0.10354560031568705,-1.295443968480606,0.09122352003833381,0.1679858933607973,-0.06748189662292446,0.4444768767233055,0.06067336346696987,2
251,2024-09-26 22:28:52.390455078,0,020,-0.35169132914599277,0.11473874585218494,-1.2177557176074538,0.0778571283344101,0.168779396787673,-0.06273496293431732,0.4767436329480474,0.055548403578049854,2
252,2024-09-26 22:28:53.313233887,0,020,-0.3848062344718415,0.12712241608191238,-1.152605990705559,0.06902902083677899,0.1641249874092658,-0.055985456251821,0.5059365885457572,0.04476692062688369,2
253,2024-09-26 22:28:53.382324951,0,020,-0.41857721158398575,0.14022925524427513,-1.099371732421894,0.06473280160297931,0.1537057917390814,-0.04734418809074717,0.5358271507234194,0.028100797351688994,2
254,2024-09-26 22:28:53.450175049,0,020,-0.45180362152358117,0.15356113447247635,-1.0567212289587173,0.06481452136236363,0.137464590741059,-0.036931022993702926,0.5689709101261207,0.0059336636439135965,2
255,2024-09-26 22:28:53.517893066,0,020,-0.48315701290110696,0.16660546047146405,-1.0230370353081257,0.06903716986974108,0.11557218186928447,-0.024867602817661483,0.6061202436979818,-0.02066372401422837,2
256,2024-09-26 22:28:53.576389893,0,020,-0.5112415898532773,0.17885804784121365,-0.9966855439316405,0.07711884790329183,0.08836019787515018,-0.01126810248618569,0.6457710984622994,-0.049929594634411045,2
257,2024-09-26 22:28:53.652877197,0,020,-0.534690567420387,0.18984895411578795,-0.9761614910276767,0.0887450076768641,0.05625302781582243,0.0037715361686421985,0.6840055602918454,-0.07949087823449444,2
258,2024-09-26 22:28:53.714431885,0,020,-0.552272387211819,0.19916764405838697,-0.9602198419171007,0.10357355637829084,0.019737564699832913,0.020181702935400846,0.714735685296583,-0.10652853760071279,2
259,2024-09-26 22:28:54.659004883,0,020,-0.5629848839752288,0.20648687759473552,-0.9480367127198287,0.12124936557302918,-0.020624808621859385,0.03791861039144663,0.7303331319562929,-0.12801521717167608,2
260,2024-09-26 22:28:54.731838867,0,020,-0.5661234300731528,0.21158371577970492,-0.9392965990491075,0.1414229246871638,-0.06416610377342215,0.05695147391269552,0.7224898515438111,-0.14098676036380142,2
261,2024-09-26 22:28:54.799635986,0,020,-0.5613083861143925,0.2143522797612556,-0.9341065438016911,0.16375754192381337,-0.11008389773612004,0.07723978894110603,0.6831385161235893,-0.1428082817861645,2
262,2024-09-26 22:28:54.859802979,0,020,-0.5484709064534388,0.2148045674491852,-0.9327638368467006,0.18791963682506024,-0.15743450627900277,0.09870799644855997,0.6053796708540502,-0.13142065529657387,2
263,2024-09-26 22:28:54.922266113,0,020,-0.5278220212489515,0.21306155079037417,-0.9354784093194508,0.2135553003002499,-0.2051502349151046,0.12122354172599216,0.48442918540583857,-0.10556047948879159,2
264,2024-09-26 22:28:55.002989990,0,020,-0.49983614973600526,0.20933910809168652,-0.9421411375505718,0.24025624142868876,-0.25207711818291234,0.14458159360330022,0.3184958336661889,-0.06492600947293391,2
265,2024-09-26 22:28:55.070791992,0,020,-0.4652607302540733,0.20393137508911818,-0.952178330953577,0.2675183391521521,-0.2970388293171799,0.16850079871670015,0.10931953245776307,-0.010243486850927299,2
266,2024-09-26 22:28:56.004213135,0,020,-0.42513824565301084,0.19719233334050032,-0.9644762878548983,0.2946992756648471,-0.3389291094412698,0.19263294074186546,-0.13790363889821186,0.05679214837868178,2
267,2024-09-26 22:28:56.065274902,0,020,-0.3808134101890317,0.1895163249435436,-0.9773559000949346,0.32098719941837217,-0.37681156576986596,0.21658248807352434,-0.4151794065025771,0.13367054613337825,2
268,2024-09-26 22:28:56.142978027,0,020,-0.3339008586991023,0.18131750074952616,-0.9886409924243685,0.34540186469994577,-0.4100016673082739,0.23993004164189513,-0.712599865321148,0.21725162312250404,2
269,2024-09-26 22:28:56.215611816,0,020,-0.28620092201907005,0.1730072249108006,-0.9958735293943592,0.3668490220521853,-0.43812263920200634,0.26225838051079936,-1.019126292256569,0.3039597208446201,2
270,2024-09-26 22:28:56.283409180,0,020,-0.23956924257743034,0.16497019833827045,-0.9966186770992079,0.38421827060121655,-0.4611297773362519,0.28318117981213053,-1.3232264179943203,0.39000359665953205,2
271,2024-09-26 22:28:56.351237061,0,020,-0.1957651751799169,0.15754297537610293,-0.9887658325486681,0.39648767234069576,-0.4792965277156406,0.3023720901328667,-1.6134724105982652,0.4716212357125903,2
272,2024-09-26 22:28:56.418988037,0,020,-0.1563101149166549,0.15099827363166132,-0.9708490386987967,0.40282067654040593,-0.4931670051066635,0.31959063153309614,-1.8791239222783604,0.5453082665240583,2
273,2024-09-26 22:28:57.358927979,0,020,-0.12237546570979649,0.1455353800455015,-0.942441582982531,0.4026727921309317,-0.5034778159461206,0.33469851889579333,-2.110661037634678,0.6079972718033997,2
274,2024-09-26 22:28:57.430665039,0,020,-0.09470641240056517,0.1412743179230748,-0.9045429894567306,0.3959071039296466,-0.5110426321500078,0.3476582391093873,-2.300318464364031,0.657203706289358,2
275,2024-09-26 22:28:57.497239014,0,020,-0.07358342950861223,0.13825106699667783,-0.8597736627683071,0.3828769569791657,-0.5166157790009619,0.35851363530375313,-2.4427072985098146,0.6911726409885266,2
276,2024-09-26 22:28:57.566237061,0,020,-0.05882482271017562,0.1364138653232756,-0.8122312636812121,0.36443217263260125,-0.5207812003416967,0.3673619469685757,-2.5354772629048847,0.7090308140684637,2
277,2024-09-26 22:28:57.620305908,0,020,-0.049836909761641575,0.13562516488285062,-0.7670007080817687,0.34184431782257957,-0.5238983716607494,0.37432535086051116,-2.579826857310198,0.7109151562255582,2
278,2024-09-26 22:28:57.701833984,0,020,-0.04571543367356382,0.13567447920482897,-0.7294851344166322,0.31668534329328096,-0.5260972074952334,0.3795250932998385,-2.580599892569261,0.6980281028147219,2
279,2024-09-26 22:28:57.769627197,0,020,-0.045382095235158335,0.13630118984184328,-0.7048107302789597,0.290701620802135,-0.5272940382144763,0.3830612480109725,-2.545698350525821,0.6725566816622713,2
280,2024-09-26 22:28:58.688389160,0,020,-0.04772007283573078,0.13722045866965332,-0.6974325543844466,0.26570044514955415,-0.5272060171488504,0.38500029628996496,-2.484733699255926,0.6374225760488901,2
281,2024-09-26 22:28:58.741643799,0,020,-0.05167525678374823,0.1381460950894805,-0.7108639129720739,0.24343578890245177,-0.5253627133926119,0.3853705868729343,-2.4072349937444955,0.5959071091912597,2
282,2024-09-26 22:28:58.819530029,0,020,-0.056308279013349595,0.1388079332472416,-0.747408224618834,0.22548076993329985,-0.5211355643886247,0.38416660326752183,-2.320961934060196,0.5512434946293687,2
283,2024-09-26 22:28:58.881108154,0,020,-0.06080442518896298,0.1389644575672556,-0.8078661460557243,0.2131015343744592,-0.5138059333945817,0.38136273709866225,-2.2307485072134905,0.5062560766393711,2
284,2024-09-26 22:28:58.959573975,0,020,-0.06446795624837144,0.1384134024256181,-0.8912779189970524,0.20716031959073217,-0.5026690702243216,0.37693276363390565,-2.138079922460133,0.4630982720120809,2
285,2024-09-26 22:28:59.027337158,0,020,-0.06672464930055474,0.13700141972871369,-0.994825543664356,0.2080666330919709,-0.4871469346900199,0.37086758461798947,-2.041431400267381,0.42311925401796013,2
286,2024-09-26 22:28:59.095170898,0,020,-0.06713386473541452,0.13463097500019522,-1.1140101216822846,0.21578292393680243,-0.4668762547025089,0.36318496990678173,-1.9372003672844973,0.3868617960100923,2
287,2024-09-26 22:29:00.032630859,0,020,-0.06539999580521276,0.13126296143619445,-1.2430862601757708,0.22987244429808226,-0.4417517699336265,0.35392957070350334,-1.8209231062418652,0.3541702434671907,2
288,2024-09-26 22:29:00.095118896,0,020,-0.06137745342707867,0.12691503853098388,-1.3756400086989837,0.24956724685818582,-0.41192554767393147,0.343166298520655,-1.6884720523768824,0.3243753052800335,2
289,2024-09-26 22:29:00.171916016,0,020,-0.05506603387507153,0.12165586484149586,-1.505228444501811,0.27385253666380605,-0.3777728745398686,0.330971664700521,-1.5369850920330579,0.2965134536787615,2
290,2024-09-26 22:29:00.233510986,0,020,-0.046595410933028776,0.1155960764709538,-1.6259881630869986,0.30156753917217594,-0.33983878057712785,0.31742629452232946,-1.3653572877339233,0.26954127989340976,2
291,2024-09-26 22:29:00.294577881,0,020,-0.03620440211761119,0.10887798320637047,-1.7330537372951216,0.331495142488252,-0.2987864993486418,0.3026116802567794,-1.1742678514654503,0.24251473043689348,2
292,2024-09-26 22:29:00.372261963,0,020,-0.024221302966195797,0.10166457839277421,-1.8227142846391646,0.3624152321050317,-0.2553588781243058,0.2866131489193012,-0.9658432844718858,0.2147064080010963,2
293,2024-09-26 22:29:00.435592773,0,020,-0.011044799779100627,0.09412680276855091,-1.8924177532048734,0.3931349310497681,-0.21033915622367416,0.2695267885189369,-0.7431098293463957,0.18564778655375172,2
294,2024-09-26 22:29:01.389164062,0,020,0.002872472867720393,0.08643060130864766,-1.9407418894835848,0.4225185458264795,-0.16450038022729144,0.25146756635094814,-0.5094173822335318,0.1551176548999578,2
295,2024-09-26 22:29:01.456971924,0,020,0.01703154916256759,0.07872780164750404,-1.9673278778671688,0.44951995438645564,-0.1185610466590884,0.23258019104519528,-0.2680306415863564,0.12312494683216464,2
296,2024-09-26 22:29:01.510687012,0,020,0.03089012139588498,0.07115216837245417,-1.9727310163661749,0.4732108531401344,-0.07317814569167527,0.2130545375882661,-0.02197200118497364,0.08991426225307977,2
297,2024-09-26 22:29:01.592493896,0,020,0.043872942838075496,0.06381921203256015,-1.9581694059017714,0.49280236436187513,-0.02899382989262769,0.19314202217221854,0.2259862086372312,0.055968432701675876,2
298,2024-09-26 22:29:01.660320068,0,020,0.05539285077102696,0.05682902358111402,-1.925185918687455,0.5076626991733919,0.013279899517836589,0.17316520984128136,0.47326928409342056,0.021970278738683062,2
299,2024-09-26 22:29:01.728087891,0,020,0.06487385353444779,0.050271623796501436,-1.8753309436759527,0.5173363037214024,0.05277959591860328,0.15351455267304476,0.7172986072021431,-0.011267670054333146,2
300,2024-09-26 22:29:01.789347900,0,020,0.07176720734273694,0.044232787272437145,-1.8100312194076154,0.5215652484482102,0.08845103296045155,0.13463180427678295,0.9551086183432638,-0.04287435956754717,2
301,2024-09-26 22:29:02.727102051,0,020,0.07555940064896714,0.03879815353277157,-1.7306809455278722,0.5203033207500578,0.11907030738933097,0.11698444971403381,1.1830400795583123,-0.07198963452023614,2
302,2024-09-26 22:29:02.804284180,0,020,0.07577574587589035,0.03405511783399768,-1.6388178856154623,0.5137118172903634,0.1433269451804889,0.10103692036038799,1.3968119080011294,-0.09783910548698636,2
303,2024-09-26 22:29:02.866281982,0,020,0.07198643184907821,0.030092335886206547,-1.5362579960517235,0.5021355000765648,0.15995884572018676,0.08722331281601887,1.5919429099707492,-0.11979923373344101,2
304,2024-09-26 22:29:02.942444092,0,020,0.0638285672370124,0.026995197783831915,-1.4251812216701585,0.48606754048230866,0.16791068375863702,0.07592306324030743,1.764211867554337,-0.1374391407169102,2
305,2024-09-26 22:29:03.005013916,0,020,0.05105374579265057,0.024836267636342103,-1.3081933982791878,0.4661225589426415,0.16647844887163457,0.06743727824183798,1.9099029966632348,-0.15054798492440138,2
306,2024-09-26 22:29:03.078102051,0,020,0.033590139492814045,0.023663072094104235,-1.1883352447945947,0.44303284300995116,0.15542102132529956,0.06196345668513186,2.025816669786716,-0.15915133490052247,2
307,2024-09-26 22:29:03.145880859,0,020,0.01159404244693069,0.023487271060736344,-1.0689947352715612,0.4176507943218148,0.13503977674423162,0.059569327997743234,2.1091925565712804,-0.1635031155419147,2
308,2024-09-26 22:29:04.064191162,0,020,-0.014525927447985752,0.024278202506157327,-0.9537369786091938,0.39092166724968724,0.10622430582426153,0.06016834876994218,2.157746672521205,-0.1640537657951774,2
309,2024-09-26 22:29:04.132003906,0,020,-0.044113965545616834,0.02596282052152923,-0.8461043481484574,0.3638229069713571,0.0704534068021582,0.06350196125597779,2.1699636289133064,-0.1614147577044505,2
310,2024-09-26 22:29:04.194977051,0,020,-0.0763013918448732,0.02843274173998563,-0.7494000910934745,0.3373009383951686,0.029740211554950147,0.0691382440633965,2.145618328458223,-0.15632557792743096,2
311,2024-09-26 22:29:04.257003174,0,020,-0.11007486850779337,0.031556949919350576,-0.666439093326458,0.31222421703421493,-0.013485610709334465,0.07649526473419149,2.0863094151365824,-0.14960870086700803,2
312,2024-09-26 22:29:04.335016112,0,020,-0.14437591668913569,0.0351972930607863,-0.5993201285604645,0.2893522566663456,-0.056552568600974205,0.08488635650965189,1.99568203276884,-0.1421060022882819,2
313,2024-09-26 22:29:04.396591797,0,020,-0.1782060676087807,0.039222651962770375,-0.5493105088049275,0.2693172774681177,-0.09675508432321776,0.09357430642216195,1.879131632947323,-0.13460599372788362,2
314,2024-09-26 22:29:04.458672119,0,020,-0.2107027545958188,0.043517407269155844,-0.51681894984569,0.25259878522924145,-0.13156960073723703,0.10182323002470581,1.7430778876880675,-0.1277694162828008,2
315,2024-09-26 22:29:05.398544189,0,020,-0.24117493170196144,0.04798266972377939,-0.5013894535420678,0.23947008213706936,-0.15886656679851788,0.10894591724881793,1.5940923337865702,-0.12206067070076367,2
316,2024-09-26 22:29:05.475693848,0,020,-0.26910716260325585,0.0525308983795532,-0.5017864301655042,0.2299380140918179,-0.17710174715088337,0.11434729386211792,1.4381542711819273,-0.11771009022068238,2
317,2024-09-26 22:29:05.537722168,0,020,-0.2941270244046795,0.05707358925411564,-0.5162482451834475,0.22371655436838417,-0.18545330898870824,0.11756004204171569,1.2802465691311642,-0.11473346243651932,2
318,2024-09-26 22:29:05.614989990,0,020,-0.3159213685702575,0.061503007947525994,-0.5428024325660316,0.22024112586112474,-0.18387575505195283,0.11826772258615494,1.124377172633591,-0.11299872506345288,2
319,2024-09-26 22:29:05.684964844,0,020,-0.33411694989379864,0.06567433440787795,-0.5794918392728725,0.21871021592400577,-0.17307113868214907,0.11631692573338343,0.9738877259466135,-0.11229654199586046,2
320,2024-09-26 22:29:05.752779053,0,020,-0.3481769304603424,0.06939693826568558,-0.6244696459885566,0.21814836959144102,-0.15439243991735963,0.11172162497583617,0.8317962428540405,-0.11238469587538234,2
321,2024-09-26 22:29:05.820555908,0,020,-0.357360095406378,0.07243824578240124,-0.6759629930308826,0.2174801317915743,-0.12967983748078546,0.1046556861226443,0.7010263646879639,-0.11301465400510012,2
322,2024-09-26 22:29:06.758574951,0,020,-0.36075108723091476,0.07453632935402257,-0.7321179259554996,0.2156014522818462,-0.10103473575847959,0.09542757478189426,0.5844958054069951,-0.11395952934241266,2
323,2024-09-26 22:29:06.831626953,0,020,-0.3573396891915344,0.07541543929122989,-0.7907920152440049,0.2114516031387154,-0.07057828114052207,0.084441811151712,0.48504192102583216,-0.11504067768024032,2
324,2024-09-26 22:29:06.899437988,0,020,-0.3461237806260277,0.07480161950845717,-0.8493938151803737,0.20410019832866053,-0.04025769814309735,0.07215876348875368,0.40517843985967045,-0.11613673731178159,2
325,2024-09-26 22:29:06.959087891,0,020,-0.32621711130624553,0.07243773649014892,-0.9048479248310753,0.19285362779879353,-0.011722558547617213,0.05905886325437842,0.3467577181200244,-0.11717132467600959,2
326,2024-09-26 22:29:07.021123047,0,020,-0.2969497098340356,0.06809848536814521,-0.9536832416021068,0.17735920842244632,0.013745546629867697,0.04561187473480204,0.31065158221518135,-0.1180923637277182,2
327,2024-09-26 22:29:07.099303955,0,020,-0.25796020979588646,0.06160799250372672,-0.9921713996914873,0.15766942981813756,0.03526215518675407,0.03225282380913131,0.29653865880037356,-0.11885955753124479,2
328,2024-09-26 22:29:07.163523926,0,020,-0.2092828360622633,0.05286158579651649,-1.0164920932513508,0.13424803626086126,0.052327224571664915,0.019365123187143746,0.3028629487101397,-0.11944959549796773,2
329,2024-09-26 22:29:08.107976074,0,020,-0.15141861929747683,0.04184816698592495,-1.0229921599791088,0.10793416627389092,0.06477457634652264,0.007267721347103876,0.32701050361759626,-0.11988322002384318,2
330,2024-09-26 22:29:08.181694092,0,020,-0.08536904261637164,0.028666291642075414,-1.0085842130213043,0.07989072554041161,0.07269596441564473,-0.0037950920730459754,0.3656783811242112,-0.12027193583996505,2
331,2024-09-26 22:29:08.249507812,0,020,-0.01261492939648503,0.013528882983968428,-0.9712258360413497,0.05154438602830582,0.07636048930723269,-0.01365815809707264,0.41527701448458665,-0.12086026391007693,2
332,2024-09-26 22:29:08.317291016,0,020,0.064957931072,-0.0032435350153945924,-0.9103476286457858,0.0245027070489772,0.0761565084130605,-0.022232344866452702,0.4721841880292549,-0.12202521661962469,2
333,2024-09-26 22:29:08.385094971,0,020,0.14516538064893283,-0.021237521195684603,-0.8271092827270061,0.0004351855187948699,0.07256567410273342,-0.02949567166200374,0.5328445825696058,-0.124222867614181,2
334,2024-09-26 22:29:08.451199951,0,020,0.2256421025652954,-0.03996597785845155,-0.7244328748031137,-0.019070383082518353,0.06615049989270594,-0.03548198369709819,0.5938236292903507,-0.1279109308379381,2
335,2024-09-26 22:29:08.518773926,0,020,0.30396233323476113,-0.05889048398065645,-0.6068094795489652,-0.032649107584722836,0.05753961661868664,-0.04027179123163843,0.6518546940380648,-0.1334822453658751,2
336,2024-09-26 22:29:09.435476074,0,020,0.37776110862144446,-0.07744566816487225,-0.47986601922996036,-0.03928247683515284,0.04741291747599414,-0.04398844354061011,0.7038933717102702,-0.14122465748052657,2
337,2024-09-26 22:29:09.507632080,0,020,0.4448468386195281,-0.09506448194136198,-0.34970907422097103,-0.03840340454391848,0.03648736550200907,-0.046797068353449246,0.7472225473644999,-0.15129399185389358,2
338,2024-09-26 22:29:09.575441895,0,020,0.5033016057271605,-0.11120471699952927,-0.22218992923858727,-0.029972186497002666,0.025501384655271516,-0.04890095164261221,0.7795884373745163,-0.16367211683929883,2
339,2024-09-26 22:29:09.643225830,0,020,0.5515788236277007,-0.12537862889060117,-0.10231577245232178,-0.014495765554334235,0.015201548760308188,-0.05053274389726272,0.7993029085631377,-0.1781085694406004,2
340,2024-09-26 22:29:09.710977051,0,020,0.5886029277761081,-0.13718529360620937,0.006088627328766464,0.007023730647975405,0.006327793868480336,-0.0519402837178511,0.8052914265052374,-0.19407793890465594,2
341,2024-09-26 22:29:09.778757080,0,020,0.6138518512431612,-0.14634080758561918,0.1005454698573782,0.03319049888136849,-0.0004132270768803531,-0.05336805451958397,0.7970976761935744,-0.2107793825250952,2
342,2024-09-26 22:29:09.834834961,0,020,0.6273914451767321,-0.15269976135682192,0.17999750487939775,0.062334625768377026,-0.004376735827507041,-0.05503826770273598,0.7748810025261273,-0.22718326104728262,2
343,2024-09-26 22:29:10.783972900,0,020,0.6298523721052462,-0.15626347840969057,0.2447802631982396,0.0926310473179499,-0.004983500594155213,-0.05713698943634395,0.7394662395956886,-0.24212944758625968,2
344,2024-09-26 22:29:10.857410889,0,020,0.6223691231851258,-0.15717422625662048,0.2964854098360532,0.1222063514028985,-0.0016945796609844775,-0.0598067193977853,0.6924490730517,-0.25448389659141435,2
345,2024-09-26 22:29:10.922714844,0,020,0.606502311837664,-0.15569816588468313,0.33776475325374766,0.14922675163395838,0.006010483357610623,-0.06314241096439682,0.6362784269066626,-0.2633376024441579,2
346,2024-09-26 22:29:10.984217773,0,020,0.5841467937617255,-0.15220040027958745,0.3721077844607059,0.17197805822427617,0.018615235881009655,-0.06718841325216683,0.5742664962425094,-0.26820550010115063,2
347,2024-09-26 22:29:11.060743896,0,020,0.5574174334076696,-0.14711311082958076,0.40354707028475845,0.188960076629304,0.03650083748680046,-0.07193630195810329,0.5105621403299337,-0.26917832489150584,2
348,2024-09-26 22:29:11.123915039,0,020,0.5285103696408985,-0.1408979349009088,0.43621347601693744,0.1990031428152918,0.05985867470730075,-0.07732442394977182,0.45009905905062836,-0.26698686545063055,2
349,2024-09-26 22:29:11.196341064,0,020,0.4995545009552331,-0.13400833930851244,0.4737452071510552,0.20138476946584816,0.08860948011270248,-0.08323932023412707,0.3984308271842572,-0.26295038134201343,2
350,2024-09-26 22:29:12.134905029,0,020,0.4724831507162973,-0.12686084873644202,0.5186754977675896,0.19590826422079397,0.1223376977525583,-0.0895185366985766,0.36134402672033317,-0.2588063703041808,2
351,2024-09-26 22:29:12.207433838,0,020,0.4489530601264241,-0.11982095446964386,0.5719813817189807,0.18291145738936895,0.1602463323772473,-0.09595595629996101,0.34420441399822294,-0.25644117518076315,2
352,2024-09-26 22:29:12.275288086,0,020,0.4303125602375898,-0.1132020567512221,0.6329725088155314,0.1631892209335297,0.2011533893099659,-0.10231302683605724,0.3510730959471921,-0.2575545471507494,2
353,2024-09-26 22:29:12.335279053,0,020,0.4175926056711433,-0.1072691458536824,0.6995918873404631,0.1378447358168765,0.2435459678047066,-0.1083375502943594,0.3837464376512017,-0.263317064969725,2
354,2024-09-26 22:29:12.397555176,0,020,0.41148953067569516,-0.10223829585890144,0.7689853428002409,0.1081274954281511,0.2856847042836934,-0.11378834994130332,0.4410038678411806,-0.27410591409033536,2
355,2024-09-26 22:29:12.474258056,0,020,0.41232846925518707,-0.09826857405439812,0.8380921722637265,0.07531800968036309,0.32574622054300484,-0.11846332460745868,0.5183401011953084,-0.28939052997041553,2
356,2024-09-26 22:29:12.546375000,0,020,0.42001771657436443,-0.09544912944987227,0.9040940802953336,0.04067314720009077,0.361994227657535,-0.12222679582112402,0.6082596127620622,-0.30778596831652333,2
357,2024-09-26 22:29:13.488795898,0,020,0.4340119644834243,-0.0937869304109342,0.9646419407684078,0.005413880855978282,0.39295069645103103,-0.1250280846095521,0.7010076135628213,-0.32724314346886113,2
358,2024-09-26 22:29:13.556615967,0,020,0.45330462497850244,-0.0932006893891,1.017844168553988,-0.029267685944266902,0.4175163263476295,-0.1269029771022586,0.7855737636872483,-0.34532750383100397,2
359,2024-09-26 22:29:13.624403076,0,020,0.4764722656438668,-0.09352524823401731,1.062144773881576,-0.06221066057862345,0.4350125278400116,-0.1279575105356832,0.850859061399242,-0.3595368274264886,2
360,2024-09-26 22:29:13.690244873,0,020,0.5017848108917597,-0.09452766016842552,1.096306491457984,-0.09232332754975442,0.44517676131309386,-0.12834471144759518,0.8868759905062832,-0.3676035537670644,2
361,2024-09-26 22:29:13.759958984,0,020,0.5273672019098146,-0.09593176397585466,1.119588686647592,-0.1186577008382674,0.44816191996011,-0.12824766562126952,0.8858275358837664,-0.36773444734709926,2
362,2024-09-26 22:29:13.813522217,0,020,0.5513716834472334,-0.09744460188397942,1.1319847450152334,-0.14049099705550758,0.44454609824424696,-0.12787283124408674,0.8430376976090049,-0.35877904605256034,2
363,2024-09-26 22:29:13.895562988,0,020,0.5721169620430898,-0.09877848667173852,1.1343063142437195,-0.15738015825743498,0.43532469679064345,-0.12744840635640534,0.7577726748163361,-0.3403456515486702,2
364,2024-09-26 22:29:14.808486084,0,020,0.5881710083853922,-0.09966681398249842,1.1280390048155862,-0.16918161988520616,0.4218626601447781,-0.12722149335047125,0.6338011821628764,-0.31286629494913815,2
365,2024-09-26 22:29:14.881640869,0,020,0.5983808207331162,-0.09987541721057956,1.1150516924351264,-0.17605009161700316,0.4057898751758524,-0.12744796182707055,0.4793997818025162,-0.2775878777858026,2
366,2024-09-26 22:29:14.949427002,0,020,0.6018682501225823,-0.09921184878777087,1.0972682352120373,-0.17842541491984765,0.38882612676182954,-0.12836923587483987,0.30666231058845633,-0.23647038691086192,2
367,2024-09-26 22:29:15.017213135,0,020,0.5980149513330499,-0.09753492477325351,1.0763657653510754,-0.1769994157756574,0.3725518142334836,-0.13017686727304625,0.13023756357937502,-0.19200051562101977,2
368,2024-09-26 22:29:15.085001953,0,020,0.5864556777120719,-0.09476628526323157,1.0535432809119296,-0.17265105382700663,0.3581793208353606,-0.13297488999031534,-0.03424082192187157,-0.146954977809682,2
369,2024-09-26 22:29:15.152800049,0,020,0.5670869407651009,-0.09090225437003019,1.0294309184313934,-0.1663619907970008,0.34639131966223097,-0.13675246513547945,-0.1718202996227856,-0.10414514581483443,2
370,2024-09-26 22:29:15.209181885,0,020,0.5400840698668304,-0.08602093392669369,1.0042124437038564,-0.15914876820022578,0.33729130502391835,-0.14137461325692496,-0.2698640533322356,-0.06616155371510955,2
371,2024-09-26 22:29:16.148652100,0,020,0.5059147065727971,-0.08028104351924648,0.9779433534810855,-0.1520349027841914,0.33047120871207025,-0.14659269548247914,-0.3194389892682105,-0.035149077013226185,2
372,2024-09-26 22:29:16.225367920,0,020,0.46534212132018743,-0.0739135802306793,0.9509385897500053,-0.1460479605344765,0.32516031483923563,-0.15207274884619404,-0.31615787436706644,-0.012656749325345636,2
373,2024-09-26 22:29:16.299431885,0,020,0.4194182637628428,-0.06720949784304935,0.9240528865732358,-0.14219909060490732,0.320402429135274,-0.15743663474790254,-0.26037823738767,0.00042158447994986904,2
374,2024-09-26 22:29:16.365558105,0,020,0.3694661593872672,-0.060505650488428694,0.8987088051705613,-0.1414087024985152,0.3152172505549566,-0.16230589362612177,-0.15690929988964927,0.003839401233465583,2
375,2024-09-26 22:29:16.434987061,0,020,0.31704545032308074,-0.05416921296934474,0.8766967544718756,-0.14438661358184948,0.30872223397857557,-0.16633718235298664,-0.014329100446852578,-0.002053184457554524,2
376,2024-09-26 22:29:16.502798096,0,020,0.26389199678003944,-0.04857877270316124,0.8599548642354126,-0.1515228420703474,0.30021261073909206,-0.1692449522077901,0.15610809577317267,-0.016397567143953868,2
377,2024-09-26 22:29:16.566210938,0,020,0.21183018140174617,-0.04410070599132794,0.8504831930011766,-0.16284366627202648,0.289211756940714,-0.1708146752441278,0.34185821343448386,-0.037943446196357346,2
378,2024-09-26 22:29:17.513371826,0,020,0.16266596924885712,-0.041062355711253676,0.8503233112617876,-0.17803802035606964,0.2755074183336434,-0.17091229069271466,0.5304461929969323,-0.06517357449110735,2
379,2024-09-26 22:29:17.581209961,0,020,0.11806977738680854,-0.039725853482079916,0.8614513105063766,-0.19651729831908157,0.25918025233117553,-0.16949245817678057,0.7104994723728875,-0.09641824719727318,2
380,2024-09-26 22:29:17.648993896,0,020,0.07946557300303103,-0.0402679304117162,0.8855360923778981,-0.21747112812097624,0.24060949013931487,-0.1666021480711177,0.8723815171041204,-0.129953812552055,2
381,2024-09-26 22:29:17.708350830,0,020,0.04795660249729151,-0.04277093898064479,0.9235973460979604,-0.23990304678466076,0.220425059949516,-0.16237251966899857,1.0085927243974502,-0.16410140884140595,2
382,2024-09-26 22:29:17.770423828,0,020,0.024303779945623286,-0.0472254587134556,0.9756020912159568,-0.2626496996295307,0.19939307807043244,-0.15699550273238697,1.114155017794653,-0.197347702872995,2
383,2024-09-26 22:29:17.852364014,0,020,0.008931339611750837,-0.05353789135336454,1.0400939083518723,-0.2844086845653251,0.17826017611540268,-0.15068903325944227,1.1869874812895347,-0.22847388240871438,2
384,2024-09-26 22:29:17.909953125,0,020,0.0019195780725772297,-0.06153485277586329,1.114037111817492,-0.30381107763978404,0.15760063691769977,-0.14365916442469964,1.228070484634206,-0.2566518134206962,2
385,2024-09-26 22:29:18.854356934,0,020,0.0029732070867225313,-0.07096182280937872,1.1929695020980062,-0.3195422624253914,0.13770189486646692,-0.13606716905531144,1.2412212705988683,-0.28148189846157934,2
386,2024-09-26 22:29:18.931303955,0,020,0.011385091508674968,-0.08147963857320707,1.2713301944376036,-0.330461981424006,0.118513635369713,-0.12800961382097936,1.2324704525467,-0.30296376470350056,2
387,2024-09-26 22:29:18.999082031,0,020,0.026022294408127738,-0.0926631838607666,1.3427941480886538,-0.33567213478154595,0.09967278484426051,-0.11951737398276735,1.2091567917564996,-0.32139689615039124,2
388,2024-09-26 22:29:19.066875000,0,020,0.045354557146362356,-0.10400549513501743,1.4006202628785687,-0.334531935192308,0.08058820882100834,-0.11057131195357538,1.1789544589567702,-0.33723653779044493,2
389,2024-09-26 22:29:19.134640869,0,020,0.06753386287734942,-0.11493121613908464,1.4380911961920646,-0.32665452225399016,0.06054665430463804,-0.10112488620586157,1.1490841988129974,-0.350958176888661,2
390,2024-09-26 22:29:19.202420898,0,020,0.09051479775251124,-0.1248216524591763,1.449043942139533,-0.31190974301391283,0.03881074605357764,-0.09112652536484735,1.1258101865247956,-0.36296860726637437,2
391,2024-09-26 22:29:19.258590820,0,020,0.11218840589166709,-0.13304830319517763,1.428449792709825,-0.2904382366498238,0.014705317369976444,-0.08054085978366472,1.1141349850445352,-0.3735718284644839,2
392,2024-09-26 22:29:20.188842041,0,020,0.1305076915474676,-0.1390093728468423,1.3730079873211998,-0.2626703662781239,-0.012301443990972449,-0.06936754068078799,1.1175881303246848,-0.3829873522611939,2
393,2024-09-26 22:29:20.251756836,0,020,0.1436086324507633,-0.1421673366428645,1.281675305228481,-0.2293360887134138,-0.04252661619555043,-0.057653100792283876,1.1380724549705439,-0.3914047642380331,2
394,2024-09-26 22:29:20.317208008,0,020,0.14994340820551266,-0.14208900068388644,1.1560018293528764,-0.1914537083659749,-0.07602853313667945,-0.04549227279218963,1.1757969189456716,-0.39904173802566034,2
395,2024-09-26 22:29:20.391881836,0,020,0.148422329841881,-0.13848685997705956,1.0001540338332038,-0.1502933041674762,-0.1126037915831544,-0.033018882160962236,1.2293595588470771,-0.40617567056597514,2
396,2024-09-26 22:29:20.454369141,0,020,0.13853178143870978,-0.13125451925598058,0.82058960164559,-0.10731253082303184,-0.15181805893463882,-0.02039005195900419,1.295959793463609,-0.41313012507161695,2
397,2024-09-26 22:29:20.528079102,0,020,0.1203887323436955,-0.12048614764936477,0.6254904340929652,-0.06407178899320999,-0.19304341701596342,-0.00777077995250971,1.3716035332030911,-0.42020754319496517,2
398,2024-09-26 22:29:20.594155029,0,020,0.09471305145248861,-0.1064741863399556,0.4241498369913992,-0.022157565542774656,-0.23547469942602317,0.0046735220548979085,1.4511963112568866,-0.4275747433097928,2
399,2024-09-26 22:29:21.532392090,0,020,0.06273187528036289,-0.08968749994330297,0.22641870369612094,0.01686222633393452,-0.2781254065027274,0.01677510138993716,1.5285423026335514,-0.43512090522025904,2
400,2024-09-26 22:29:21.594879883,0,020,0.026046102118390337,-0.07073530402694027,0.04217082298480893,0.051465636592114956,-0.31983722119300195,0.028359727929806757,1.5963593892690382,-0.44232270000143126,2
401,2024-09-26 22:29:21.672077881,0,020,-0.013522235951469196,-0.05031999205667696,-0.11924408439574276,0.08022053568379574,-0.35932434982887734,0.03924627463104854,1.646493161720498,-0.4481719909444356,2
402,2024-09-26 22:29:21.742610840,0,020,-0.05409226771470913,-0.029182892317456216,-0.24951751200631742,0.10186057178124304,-0.3952243241280451,0.04924634263137639,1.6705028343654578,-0.4512170963377731,2
403,2024-09-26 22:29:21.794987061,0,020,-0.09388047132689228,-0.008051109463143273,-0.34185688062872366,0.11538723161602635,-0.4261228466898037,0.05815990714470565,1.6606138019754737,-0.449722570073266,2
404,2024-09-26 22:29:21.872632080,0,020,-0.13133392683726905,0.012407539606564964,-0.39143375304342204,0.12018128689802282,-0.4505705241213449,0.0657727980378259,1.6108382404887602,-0.44190875071488245,2
405,2024-09-26 22:29:21.946077148,0,020,-0.16523318308799953,0.03162055975912697,-0.3957462039655996,0.11609922972137136,-0.46713128620511885,0.07186410588362496,1.5180142934724643,-0.42622267292997984,2
406,2024-09-26 22:29:22.889038086,0,020,-0.1947586948510722,0.049138883911891994,-0.35479307486137873,0.10352762166151964,-0.4744732741216966,0.07622391449835296,1.3825352774536515,-0.40159075302392,2
407,2024-09-26 22:29:22.951522949,0,020,-0.21950655669957986,0.06465465103202998,-0.27100791716342004,0.08337331897910548,-0.47148498871703737,0.07867677461302926,1.2085674719097734,-0.36759857926517,2
408,2024-09-26 22:29:23.013514893,0,020,-0.23944289434510468,0.07800465635835375,-0.14895986240886935,0.05697996312694624,-0.4573921582190161,0.07910584127834278,1.0036274502780729,-0.32455486039308434,2
409,2024-09-26 22:29:23.090208008,0,020,-0.25480820820971684,0.08915893575437188,0.0050997063616923105,0.025988433798944232,-0.4318485768264965,0.07747128347065918,0.7775309996279557,-0.27342744768018884,2
410,2024-09-26 22:29:23.160525879,0,020,-0.26600087129644534,0.09819794700871382,0.18369428378892125,-0.007811718241510163,-0.394982310136108,0.07381776901757653,0.540925897821173,-0.21567857866862225,2
411,2024-09-26 22:29:23.212974121,0,020,-0.27347163037651995,0.10528373051157293,0.37846992615804254,-0.04259722552876499,-0.34740310996301266,0.06827221374150752,0.3038012484647928,-0.15305959474764672,2
412,2024-09-26 22:29:23.290616943,0,020,-0.27765900495267376,0.11063181046686152,0.5804528879044931,-0.07658676465255122,-0.2901900396801654,0.06103697152490519,0.07437374313361368,-0.0874214485246526,2
413,2024-09-26 22:29:24.238004883,0,020,-0.2789845180299998,0.1144904274055859,0.7803207821143672,-0.10810237443624228,-0.22486165591013713,0.052380929025235654,-0.14143943198399142,-0.02056089691074667,2
414,2024-09-26 22:29:24.303221924,0,020,-0.27790031908309265,0.11713004953751756,0.9687703579300698,-0.13564553299918372,-0.1533148805702805,0.0426278855433422,-0.3399624537697485,0.04589423813576859,2
415,2024-09-26 22:29:24.363174072,0,020,-0.27495833631895394,0.11884044336892818,1.1369791549429231,-0.1579977396656532,-0.07773273544105236,0.032142978772384895,-0.5192415036147312,0.11055028586630752,2
416,2024-09-26 22:29:24.440321045,0,020,-0.2708619514186252,0.11992804205632059,1.2770595372408537,-0.17432425574311955,-0.00048268131788711387,0.021320207201167604,-0.6782900618312279,0.17226659161004917,2
417,2024-09-26 22:29:24.510500977,0,020,-0.26646686784506773,0.12070710262520669,1.3823805489399847,-0.18423880068723544,0.07597826062773905,0.010572021297256574,-0.8163902970316912,0.23015122042268257,2
418,2024-09-26 22:29:24.563451904,0,020,-0.26272008319717194,0.12148423266354191,1.4477307168679074,-0.18780099444550666,0.14919665176037056,0.00031689084591990667,-0.9326528198373315,0.2835418844863668,2
419,2024-09-26 22:29:24.646133789,0,020,-0.26055579796123346,0.12253979081067941,1.4694108162596038,-0.18545331053630873,0.21682284812970637,-0.009039924636621184,-1.0258589950193373,0.33195928448529644,2
420,2024-09-26 22:29:25.576072998,0,020,-0.2607818352041232,0.124107930344499,1.4453521437652086,-0.17792045554985533,0.27671218342238735,-0.017131109727139635,-1.094522889773921,0.37503285401301467,2
421,2024-09-26 22:29:25.653302979,0,020,-0.2639824154789698,0.12635571490558536,1.3752581570021998,-0.16609024149349333,0.3270132940022026,-0.023651314218945202,-1.1370924259944157,0.4124205597001308,2
422,2024-09-26 22:29:25.714854004,0,020,-0.2704505250396565,0.12936432695875105,1.2606752011904843,-0.1508932386454313,0.36623795844205875,-0.028376631054143665,-1.1521737139032246,0.4437454518445535,2
423,2024-09-26 22:29:25.792791992,0,020,-0.2801581352869502,0.1331170917400271,1.1049194195035639,-0.13319909716334222,0.39331686114640296,-0.031180670082564116,-1.1386830924543896,0.4685638966530536,2
424,2024-09-26 22:29:25.860573975,0,020,-0.29276724225718465,0.13749669081849814,0.9129058700185142,-0.11374944936523107,0.40765273875967956,-0.03204977818384427,-1.0959272728468918,0.48636897250481864,2
425,2024-09-26 22:29:25.928360840,0,020,-0.307675290895539,0.142291420101648,0.6909868177266958,-0.09314654272006039,0.40918109336865693,-0.031097401229843415,-1.023681550198952,0.496617845763339,2
426,2024-09-26 22:29:25.996159180,0,020,-0.3240798053489387,0.14720998348423428,0.4468405000578905,-0.07189756549795895,0.3984234620800744,-0.028572087633043124,-0.9223587502453794,0.498777676220195,2
427,2024-09-26 22:29:26.914536865,0,020,-0.3410421163487101,0.15190335759833926,0.1893504232975866,-0.050486457634527006,0.376492567372083,-0.02484957957660268,-0.7933139786334705,0.49240088050305836,2
428,2024-09-26 22:29:26.982376953,0,020,-0.35753661086741945,0.15599008689704078,-0.07164427731995139,-0.029435963059846117,0.345024824032232,-0.02040369753546873,-0.6391820442541668,0.4772260806915413,2
429,2024-09-26 22:29:27.050162109,0,020,-0.37248979657669246,0.15908108579440394,-0.3258176447489174,-0.00933734393485289,0.3060533813717181,-0.01576018162129316,-0.4640680021240074,0.4532797604802998,2
430,2024-09-26 22:29:27.117941895,0,020,-0.3848244605418213,0.1608025534509508,-0.5630282908418219,0.009159090760523866,0.2618500504800655,-0.011442911022461375,-0.27352617607193236,0.42096654897697056,2
431,2024-09-26 22:29:27.185753174,0,020,-0.393514896372239,0.1608175383871196,-0.7741068237939921,0.025395950057027016,0.21476070120539137,-0.007921716588139498,-0.07437562047403345,0.3811439570861376,2
432,2024-09-26 22:29:27.240030029,0,020,-0.3976399286490237,0.15884582793423385,-0.9516686053202155,0.038798326594299944,0.16705417961688393,-0.005568774767662132,0.12559285086539357,0.3351572577742824,2
433,2024-09-26 22:29:27.317694824,0,020,-0.39641643335778926,0.15468089482365138,-1.0908382295555061,0.04897611572812945,0.12080120825644396,-0.004628463827257226,0.31793043061573606,0.28481127212075397,2
434,2024-09-26 22:29:28.263964844,0,020,-0.3892153242160308,0.1482035801875152,-1.1897297508504554,0.05580543003417658,0.07779441194447369,-0.005204201797000861,0.4937660284718091,0.23228378523463783,2
435,2024-09-26 22:29:28.331222168,0,020,-0.37557967684170745,0.139392263047909,-1.2495370562290753,0.05946647109515817,0.039511069430315265,-0.007263043243279987,0.6440262315918047,0.17999361532009295,2
436,2024-09-26 22:29:28.393706055,0,020,-0.35526022689510306,0.12832753946405498,-1.2741614207406091,0.060427439621973694,0.0071078233948078185,-0.010655029783809153,0.7598824238362644,0.13042699653423115,2
437,2024-09-26 22:29:28.456000977,0,020,-0.32826705069088646,0.11518985840732271,-1.2693863804614756,0.059365894634056525,-0.018573066451483256,-0.015142039116367623,0.8335651388185417,0.08593581691382127,2
438,2024-09-26 22:29:28.533154053,0,020,-0.2949210589629157,0.10025103714333229,-1.2416981639150915,0.05702383512391041,-0.0370027504186973,-0.020430054907218716,0.8593315630994458,0.04854722427091522,2
439,2024-09-26 22:29:28.602878174,0,020,-0.2558813373931788,0.08386018856469606,-1.1969947381710049,0.05402130999945512,-0.04796635837346625,-0.02620113225210663,0.8341645440035071,0.019832248985919745,2
440,2024-09-26 22:29:28.657251952,0,020,-0.2121332106218049,0.06642255940517201,-1.1395653087019055,0.05069254304915471,-0.0515482032664325,-0.032146190222536924,0.7579671667404427,0.0008566490197007221,2
441,2024-09-26 22:29:29.606786865,0,020,-0.16493972000912582,0.04837120081219469,-1.0716842089436003,0.04701446481359779,-0.048096303912336165,-0.03799954790325607,0.6333458429030459,-0.007801069330199738,2
442,2024-09-26 22:29:29.681966064,0,020,-0.11576436685306339,0.03013515382501091,-0.9939351079486656,0.04265897690208518,-0.03817559569282753,-0.04357014241705595,0.4651678514876088,-0.005995502257995552,2
443,2024-09-26 22:29:29.749789062,0,020,-0.06616694250428118,0.012109894976545799,-0.9061168385181819,0.037150646136382165,-0.022520452023119045,-0.048760513949431726,0.2599719066652314,0.006060140950612094,2
444,2024-09-26 22:29:29.807985107,0,020,-0.017678374247274056,-0.005364995741348447,-0.8083905025807273,0.03007598582201828,-0.0019944333670473325,-0.05356640349743007,0.02530329480728869,0.027881338634493123,2
445,2024-09-26 22:29:29.885130859,0,020,0.02832573761073154,-0.022019148417795596,-0.7022524941729702,0.021271809473135207,0.022435763690478505,-0.05805558582435889,-0.23083459471394924,0.05878183134317996,2
446,2024-09-26 22:29:29.948049072,0,020,0.07073086090098736,-0.03765748834536742,-0.5909865650647133,0.010923136931185374,0.04971253808879314,-0.06233191560621474,-0.500222371414725,0.09788035549777559,2
447,2024-09-26 22:29:30.009690918,0,020,0.10875795764760122,-0.05216215955235157,-0.47944025636468846,-0.0004653919387865403,0.07870404854986845,-0.06649669281268972,-0.7744033570347313,0.144039533718736,2
448,2024-09-26 22:29:30.938808105,0,020,0.14200238526657302,-0.06549141695547483,-0.373221812121105,-0.012204971931941117,0.10825244992173251,-0.0706209597857187,-1.044699261194936,0.19579392892967615,2
449,2024-09-26 22:29:31.006586914,0,020,0.17042768513202164,-0.07767272783480433,-0.27762292064761473,-0.023599699467346563,0.1372605298668747,-0.07473612458237046,-1.3025477044200708,0.25133314418096864,2
450,2024-09-26 22:29:31.069251952,0,020,0.19430705689664834,-0.08878643410592141,-0.19661437985251903,-0.034099083740738965,0.1647960183038418,-0.07883988615660839,-1.540135180411418,0.30855729672311993,2
451,2024-09-26 22:29:31.130875000,0,020,0.2141286238326332,-0.09894232206481637,-0.13212994153901522,-0.043400360648240995,0.19019058308197204,-0.08290875273163582,-1.7509884003884586,0.3651751069830253,2
452,2024-09-26 22:29:31.207693115,0,020,0.23049811193335315,-0.10825719450180495,-0.08372677697126227,-0.05150507303998334,0.2131150355940435,-0.08690936455590077,-1.930180299823978,0.4188042945407012,2
453,2024-09-26 22:29:31.277731934,0,020,0.2440559052904337,-0.11683837605633049,-0.04868184395889962,-0.05872375281939548,0.23360285162741357,-0.09080486325081344,-2.0741127656369613,0.4670595356789118,2
454,2024-09-26 22:29:31.331751953,0,020,0.25539683489148496,-0.1247710166818136,-0.022522079101893733,-0.06561065377853206,0.2520054509922678,-0.094558959771572,-2.180129618441898,0.5076480033186443,2
455,2024-09-26 22:29:32.282934814,0,020,0.26498061155945496,-0.13210537652520182,0.00016056501715795867,-0.07283254572381326,0.2688999395635668,-0.09814371492798064,-2.2462144300069986,0.5384898637821572,2
456,2024-09-26 22:29:32.350778076,0,020,0.27304776854390944,-0.13884401153411013,0.0248215296326226,-0.08100446416691377,0.2849755189169323,-0.10154957507789983,-2.2708746050209094,0.5578457353373775,2
457,2024-09-26 22:29:32.425063964,0,020,0.27957622367115476,-0.14493282829700124,0.05611464509456606,-0.09052945180908041,0.3008965756987893,-0.10478635484916211,-2.2532541601409752,0.5644284293770365,2
458,2024-09-26 22:29:32.492804932,0,020,0.2843045642547963,-0.15026148479048126,0.0971118621191929,-0.1014708410080834,0.3171430109784276,-0.107868224636386,-2.193487961807093,0.5575048172073328,2
459,2024-09-26 22:29:32.560575928,0,020,0.2868192077384282,-0.15467693676964256,0.14870086689916653,-0.11348603361018426,0.33386533814687924,-0.11079066267069619,-2.093168912301187,0.5369924874968179,2
460,2024-09-26 22:29:32.626291992,0,020,0.286676440998678,-0.15800873905760493,0.209360593129118,-0.12585083571800507,0.3508063916717149,-0.11351421550483687,-1.9557036798008751,0.5035292078182579,2
461,2024-09-26 22:29:32.683687012,0,020,0.28351642607705274,-0.16009793533346317,0.2754456146865093,-0.1375829660483663,0.36731858052039235,-0.11596338136635681,-1.7864353431306468,0.4584903101717517,2
462,2024-09-26 22:29:33.638902832,0,020,0.2771315445455693,-0.16081950799984743,0.3419305640856951,-0.1476393604803035,0.3824699161422226,-0.1180380596478675,-1.5925387552377932,0.4039401757928102,2
463,2024-09-26 22:29:33.703062012,0,020,0.2674828853808867,-0.1600949796879549,0.40338401836890103,-0.15513555521026015,0.39519969071652084,-0.11962826544461062,-1.3827081794287261,0.3425121804684305,2
464,2024-09-26 22:29:33.765091797,0,020,0.2546895877506278,-0.15789930711244143,0.4548514811159944,-0.15952796549159035,0.4044694123418972,-0.12062318167310249,-1.166656144926334,0.2772291203372659,2
465,2024-09-26 22:29:33.827884033,0,020,0.23901956392910856,-0.15426695514590283,0.4924260767397245,-0.16071488040592447,0.40936303677020547,-0.1209108001071191,-0.9544961455334681,0.21129321642533158,2
466,2024-09-26 22:29:33.910062012,0,020,0.22089989135211396,-0.14929901984348876,0.5134933468412227,-0.15904191093496142,0.40911953737374623,-0.12037028867144929,-0.756126504758674,0.1478776947024363,2
467,2024-09-26 22:29:33.966645996,0,020,0.2009446839970459,-0.14317045700439784,0.5167701444743962,-0.15522750723302875,0.40312153614066915,-0.11886365026803278,-0.5806625531018734,0.0899376840088544,2
468,2024-09-26 22:29:34.045650879,0,020,0.17996814728497684,-0.13613302867206767,0.5022720682633738,-0.15024247592582005,0.3908863324818813,-0.11623388461871102,-0.4358436137918535,0.040033428646738256,2
469,2024-09-26 22:29:34.983064941,0,020,0.1589487673525004,-0.12850775364841674,0.47126881510722063,-0.14517541057602432,0.3720894236248251,-0.1123130698086858,-0.32738840428907273,0.00016372015809945276,2
470,2024-09-26 22:29:35.054120117,0,020,0.13894742743713814,-0.12066414590184826,0.4261931012984699,-0.14110455950799017,0.3466183815350778,-0.10693945438002958,-0.2584283667685475,-0.028356663888620567,2
471,2024-09-26 22:29:35.124871094,0,020,0.12100553294527845,-0.11298893194061953,0.3704568442709516,-0.13899439381913106,0.31463785390188365,-0.0999809671984051,-0.22915973798115974,-0.04494400959492578,2
472,2024-09-26 22:29:35.177248047,0,020,0.10603657757808078,-0.10584923767000405,0.3081600060137926,-0.13962418517973504,0.2766472082790997,-0.09136216710239049,-0.23677201939116513,-0.04973366861798948,2
473,2024-09-26 22:29:35.260401123,0,020,0.09471898552063092,-0.0995561172370176,0.2436835994954603,-0.14352907672041829,0.23351263926123472,-0.08108999161456137,-0.2757021224310897,-0.04354531722959083,2
474,2024-09-26 22:29:35.316061035,0,020,0.08741477393356513,-0.09433478624978327,0.18119350758623215,-0.15093339678737422,0.18645233077629178,-0.06927201622965326,-0.3382437383490532,-0.02783391498127202,2
475,2024-09-26 22:29:35.393215820,0,020,0.08413585475518139,-0.09030516407614313,0.12414689443844457,-0.16168810783966664,0.13696728261266283,-0.05612232545798633,-0.415424157162268,-0.0046049977218493195,2
476,2024-09-26 22:29:36.338724121,0,020,0.08454904432428294,-0.08747271696891605,0.07491460480874661,-0.17524459133371792,0.08673440162236104,-0.04195253312908578,-0.49796874049115986,0.023731280192312618,2
477,2024-09-26 22:29:36.401209229,0,020,0.0879980670391031,-0.08572983754134733,0.03464345487828802,-0.1906948911694379,0.03748471756935869,-0.027148180727782644,-0.577163338343035,0.05456463721734957,2
478,2024-09-26 22:29:36.462844971,0,020,0.09354481343664625,-0.08487005973742394,0.003483210230711292,-0.2069000374542579,-0.009113459465210439,-0.012137219564334908,-0.6454223031762958,0.08529736047525299,2
479,2024-09-26 22:29:36.539622070,0,020,0.10005488446227587,-0.08461651436826705,-0.018865206090660416,-0.222695665007186,-0.05154754221591624,0.002638233481382159,-0.696455892082686,0.11350702299658927,2
480,2024-09-26 22:29:36.610321045,0,020,0.1063387074984599,-0.08466151139711696,-0.032598671248209594,-0.23710721459872466,-0.0885232793120287,0.01674191628132375,-0.7251924105053235,0.1370565377523238,2
481,2024-09-26 22:29:36.663304199,0,020,0.11132512381587152,-0.08471014642033153,-0.037591569684543275,-0.2494876473999559,-0.11900662103923065,0.02975915972589783,-0.7277694029757138,0.1541913669840989,2
482,2024-09-26 22:29:36.745871094,0,020,0.11422435414982204,-0.08452082867121231,-0.033550291496728224,-0.25953838987407984,-0.14225229033224787,0.041311710577756865,-0.7017211520733416,0.16363997265438845,2
483,2024-09-26 22:29:37.664155029,0,020,0.11463730289005428,-0.0839367690851664,-0.02034225383961709,-0.267236344105013,-0.1578146370595965,0.05106927839708604,-0.6462310756716804,0.16469640140822459,2
484,2024-09-26 22:29:37.730396973,0,020,0.1125827260112047,-0.08290290703747898,0.0017333313704556857,-0.27271837337532495,-0.16553357317208306,0.05875450490520162,-0.5623075124424316,0.1572632204312144,2
485,2024-09-26 22:29:37.792434082,0,020,0.10844400320693043,-0.08146668971928972,0.03188054071726974,-0.2761744418536689,-0.165495345267504,0.06414216854615758,-0.4528463987815725,0.1418430199660458,2
486,2024-09-26 22:29:37.867500977,0,020,0.10286805832356162,-0.07976768288064172,0.06896595614018347,-0.27778520585179356,-0.15798333924495245,0.06705724966832691,-0.32254390774486696,0.11946415519804705,2
487,2024-09-26 22:29:37.935312988,0,020,0.0966557269534657,-0.07802235485202867,0.11177546094904973,-0.27770539917452164,-0.14344495203645288,0.06737629016634433,-0.17756904922672784,0.09153753730653526,2
488,2024-09-26 22:29:37.993089844,0,020,0.09066229725209553,-0.076504938540482,0.1591858957501673,-0.2760610063243209,-0.12248557615890393,0.06503287786357309,-0.0249102356846936,0.059669448871125914,2
489,2024-09-26 22:29:38.070751953,0,020,0.08570300395844546,-0.07552037236426412,0.21019192351897992,-0.27293960726756933,-0.0958736905230698,0.06002473973033752,0.12857156053974966,0.025466725549611213,2
490,2024-09-26 22:29:39.000761963,0,020,0.08245615015756762,-0.07536709879503657,0.26388734983079615,-0.2683898129924701,-0.06453161423426379,0.052418692015068956,0.27712257526110906,-0.009635797009584992,2
491,2024-09-26 22:29:39.077524902,0,020,0.08137296143661285,-0.07629448532708188,0.31948761493664884,-0.2624429552836545,-0.029502394486123813,0.04235122023475501,0.4167696366322711,-0.04450523664799486,2
492,2024-09-26 22:29:39.149847900,0,020,0.08261543487730587,-0.07846501331416275,0.376361509336944,-0.255138151227329,0.008090889610525363,0.030026087986276557,0.5456077488092664,-0.07839822694309533,2
493,2024-09-26 22:29:39.215054932,0,020,0.08604016003540267,-0.0819301134359475,0.4339917803727555,-0.24652920043591645,0.04707426651954222,0.01571101684596604,0.6638802859909293,-0.11102022198622503,2
494,2024-09-26 22:29:39.285412109,0,020,0.09123372715453958,-0.08662274290112632,0.49181660585245257,-0.23667295276684655,0.08624565891626669,-0.0002678421826893372,0.7739200752510603,-0.14254302614974407,2
495,2024-09-26 22:29:39.338242920,0,020,0.09759098465534809,-0.0923657120620603,0.5489796030552517,-0.22560654900045565,0.12440813962358048,-0.017535609207147463,0.8797630012184626,-0.17352859205219318,2
496,2024-09-26 22:29:39.416122070,0,020,0.10441533965625975,-0.09889398663134623,0.6041170779203539,-0.21332464337170706,0.16041527386881305,-0.03568101854015391,0.9862719144658284,-0.20472949667813028,2
497,2024-09-26 22:29:40.364542969,0,020,0.11102031281581382,-0.10588771053645654,0.6553372945774685,-0.19977727398078646,0.19321988271975304,-0.0542684276099523,1.0979305662453198,-0.23681667297040343,2
498,2024-09-26 22:29:40.421468994,0,020,0.11681825052533693,-0.11300878644116133,0.7004338224165303,-0.1848991687358824,0.2219250567242107,-0.07285001887229312,1.2177050619699445,-0.27013643174687185,2
499,2024-09-26 22:29:40.499160889,0,020,0.12137463159025454,-0.11993102453635604,0.7372222830639688,-0.1686535297812603,0.24583510499206582,-0.09098112947691546,1.3462924729841546,-0.30457259550338217,2
500,2024-09-26 22:29:40.562242920,0,020,0.12440248630970119,-0.12635684881071987,0.7638537151494063,-0.15106678484103742,0.26448949505363206,-0.10823741989467439,1.481864761496356,-0.33952951674211584,2
501,2024-09-26 22:29:40.635737793,0,020,0.12570356857435314,-0.1320219590885805,0.7790418343871648,-0.13224951407851326,0.2776669959999177,-0.12422877806660357,1.6202738176759233,-0.3740088719825535,2
502,2024-09-26 22:29:40.701058105,0,020,0.12510129168030915,-0.13669522131698994,0.7821716209287947,-0.11240507605275794,0.28536926045031263,-0.13860915120271675,1.7555842130054027,-0.4067338980282784,2
503,2024-09-26 22:29:40.771341064,0,020,0.1224085874542959,-0.14017935609728033,0.7732237351750855,-0.09181925034075501,0.28779584898640576,-0.15108547666504596,1.8807347906966354,-0.43627750117033653,2
504,2024-09-26 22:29:41.714366943,0,020,0.1174466955168996,-0.1423140889715251,0.7525264453779134,-0.0708321205256777,0.28530884779062704,-0.16142497864932132,1.9881528505044739,-0.46117181192306494,2
505,2024-09-26 22:29:41.770051025,0,020,0.11011130823152375,-0.14298220274600237,0.7204669768417545,-0.04980632057991613,0.278387350223693,-0.16945770917323905,2.0702414364853885,-0.4800008144918007,2
506,2024-09-26 22:29:41.849966064,0,020,0.10046367366756022,-0.14211790672742278,0.6772792259357255,-0.029097708092856157,0.26758658457029455,-0.17507616667813222,2.119789454659495,-0.4914884812899315,2
507,2024-09-26 22:29:41.917732910,0,020,0.08880178764014297,-0.13971473352800687,0.6229512243033218,-0.009023954409762258,0.2535150253283141,-0.17823659972734723,2.130422800171705,-0.49458139636695053,2
508,2024-09-26 22:29:41.985519775,0,020,0.07567177757094419,-0.13582961667904803,0.5572908544399165,0.010164239828315923,0.2368223001263371,-0.17896224699526142,2.0971202094899195,-0.48850382006430326,2
509,2024-09-26 22:29:42.053343018,0,020,0.06181682484811631,-0.1305811590533148,0.4801904192591793,0.028290963602364216,0.21817922682218102,-0.1773453115576499,2.016688059641597,-0.4727767215748786,2
510,2024-09-26 22:29:42.109295898,0,020,0.04808881162844898,-0.12414103478416826,0.3920496969910208,0.045225077384142574,0.19824640386405445,-0.17354665034691133,1.88813319139969,-0.44723757977022616,2
511,2024-09-26 22:29:43.039110107,0,020,0.03534738003109918,-0.11671847915172458,0.29422059469621475,0.06080740865636577,0.17764651514053192,-0.16779432304739492,1.7129803331153515,-0.41210781204729074,2
512,2024-09-26 22:29:43.107227051,0,020,0.02436303460606942,-0.10854076941322559,0.18933756099834337,0.07474890218784819,0.15695372204293428,-0.16038071841445953,1.4955367906689392,-0.36810049932415095,2
513,2024-09-26 22:29:43.175050049,0,020,0.015742048950618953,-0.09983612416146401,0.08145283012890342,0.08654124220941861,0.13670158036751603,-0.15165720286897544,1.243009565632725,-0.3165098124424643,2
514,2024-09-26 22:29:43.239425781,0,020,0.009891668283262614,-0.09082509981039659,-0.024070965352792937,0.09543199175296116,0.11740461651252478,-0.1420276197023803,0.9653899807390649,-0.2592397492814865,2
515,2024-09-26 22:29:43.310554932,0,020,0.00702795617765129,-0.0817212270461889,-0.12090195229987005,0.10048315263512878,0.09958207196224811,-0.13194279370358686,0.6750857667072553,-0.19877722385056465,2
516,2024-09-26 22:29:43.363205811,0,020,0.007210747305691521,-0.07273729483862518,-0.20224905588687123,0.1006868884857137,0.08375998616630319,-0.12189356463705663,0.3863145613381712,-0.1381205362443229,2
517,2024-09-26 22:29:43.446115967,0,020,0.010392919585143994,-0.06409328138949563,-0.26148276457162384,0.09509802407614562,0.07043232258418292,-0.11239553647162707,0.11426802465429853,-0.08064686679346712,2
518,2024-09-26 22:29:44.389151123,0,020,0.016476788740548566,-0.05602123513787037,-0.2927920236528419,0.08295628959897178,0.05999281495472465,-0.1039616791973561,-0.12595448668270742,-0.029898029532612565,2
519,2024-09-26 22:29:44.457499023,0,020,0.02536302869608776,-0.048762068569694866,-0.29176344130536475,0.0637946543092361,0.052668436936745014,-0.09706530436184964,-0.32061548942640267,0.01071225465062339,2
520,2024-09-26 22:29:44.513359131,0,020,0.03697650241893553,-0.04255325422733996,-0.2558257909421152,0.03754354290669927,0.04847685370171105,-0.09209950449699328,-0.4586901323779464,0.038234136535416796,2
521,2024-09-26 22:29:44.590048096,0,020,0.05126809905118299,-0.03761162821826483,-0.18457447024235624,0.004625235648254919,0.04722169439940225,-0.08934040409720073,-0.5330251965947178,0.050490462238216564,2
522,2024-09-26 22:29:44.660789062,0,020,0.06820517505775017,-0.03411711873383416,-0.07994631706301317,-0.03399299355696649,0.04852846192861838,-0.08892111677460594,-0.54097175993475,0.04628299336400293,2
523,2024-09-26 22:29:44.713180908,0,020,0.08775951915433153,-0.03220123668028238,0.053853668356991846,-0.07682357412038333,0.05189740773617694,-0.09082000299956065,-0.48434517053462944,0.025468845953177152,2
524,2024-09-26 22:29:44.796324951,0,020,0.10988580486225963,-0.03194038880769564,0.21071944916290203,-0.12197562832216156,0.0567393811155049,-0.09486256278109909,-0.3688674997483114,-0.011066410197907474,2
525,2024-09-26 22:29:45.732928955,0,020,0.1344771318348547,-0.033350989256774904,0.38322277193543713,-0.16734469940538713,0.06238315199700122,-0.10073342122341766,-0.20336279804266436,-0.06150546329073725,2
526,2024-09-26 22:29:45.794930908,0,020,0.16129463980214442,-0.03638253543858292,0.5632864929879392,-0.21083996453930537,0.0680649047519084,-0.10799397020637279,0.0011471228337467374,-0.12325170454919683,2
527,2024-09-26 22:29:45.872575928,0,020,0.18988040196644862,-0.04090592931154121,0.7428721718591116,-0.25061510583580177,0.0729141331009107,-0.11610291385408313,0.2324195715307747,-0.19313247900618039,2
528,2024-09-26 22:29:45.943047119,0,020,0.2194723506501447,-0.04669856327117642,0.9145712724287669,-0.28525821269904494,0.07595124151525588,-0.12444047131958365,0.4779415457812399,-0.2676351232393975,2
529,2024-09-26 22:29:46.010832031,0,020,0.2489513060514038,-0.05343422548280522,1.071990112826714,-0.3138938221524387,0.07611820122845395,-0.1323398977475515,0.7256317683503846,-0.34313394765259125,2
530,2024-09-26 22:29:46.078629883,0,020,0.2768487391294976,-0.060687351057511364,1.2099636505202145,-0.33619021681741096,0.07235967054173553,-0.13912902188141765,0.9641509417054253,-0.41606384436139204,2
531,2024-09-26 22:29:46.146418945,0,020,0.30142250352436295,-0.06795485276222477,1.3247328099242497,-0.35230938404620354,0.0637476147577553,-0.14417848466600314,1.18292851834006,-0.48303431626084475,2
532,2024-09-26 22:29:47.080327881,0,020,0.3207909190090975,-0.0746927088270276,1.414128191257852,-0.36283676354396377,0.04961596605352897,-0.1469493362494182,1.3722252403605224,-0.5409326809308229,2
533,2024-09-26 22:29:47.147097900,0,020,0.33311216844046204,-0.08036261237022715,1.4776698883583177,-0.36869868225954217,0.02967132378949478,-0.1470358944805632,1.5235443933225765,-0.587075710931709,2
534,2024-09-26 22:29:47.225312988,0,020,0.3367894751998311,-0.08448214294916519,1.5164772141540843,-0.37105591734523485,0.004063021158649569,-0.14420119502608697,1.6304081201215095,-0.6194061124361001,2
535,2024-09-26 22:29:47.293104004,0,020,0.33067557248614476,-0.08667047269251651,1.5329378253565464,-0.3711603694257412,-0.02659749018619747,-0.13839707074857951,1.6891803621047834,-0.6366644936904465,2
536,2024-09-26 22:29:47.358541992,0,020,0.3142468992352342,-0.08668317516244682,1.5301426883470715,-0.3701758877876785,-0.06127419457704451,-0.129760931171368,1.699616541143501,-0.6384806948597743,2
537,2024-09-26 22:29:47.421319092,0,020,0.2877081060335528,-0.08443116273422016,1.5112047343479111,-0.36900128813115846,-0.09859178298878396,-0.1185912054180784,1.6650262811591459,-0.6253846457522763,2
538,2024-09-26 22:29:47.482370117,0,020,0.251989282335342,-0.07997989062676245,1.4787049724431856,-0.3681638171403822,-0.13695143728513023,-0.10531081084562721,1.591991640136544,-0.5987482359466322,2
539,2024-09-26 22:29:48.413767090,0,020,0.20863875989313954,-0.07353086249976361,1.4344567175233371,-0.3678182652477247,-0.17466251406736472,-0.09042700761905262,1.4895871173889497,-0.5606506415062135,2
540,2024-09-26 22:29:48.481590088,0,020,0.1596599299074869,-0.06539419101713807,1.3795467354499498,-0.3678116291685968,-0.2100755001668161,-0.0744925277563463,1.36824072609315,-0.5136791310188996,2
541,2024-09-26 22:29:48.549387939,0,020,0.10733864248057885,-0.05595887537379877,1.3144602753700583,-0.367744795791678,-0.24170723448481118,-0.05806980835927491,1.2385832770981682,-0.4607120741881309,2
542,2024-09-26 22:29:48.617168945,0,020,0.05407345688256635,-0.045661268650037175,1.2391830487005537,-0.3670064164783851,-0.2683553332403566,-0.04169792561299816,1.1105688774871263,-0.40472249003054656,2
543,2024-09-26 22:29:48.683114990,0,020,0.002204785288615889,-0.03495226174398498,1.1533412454196095,-0.3648049274746805,-0.2891916934037199,-0.025862850637714128,0.9928897372707657,-0.3486075989485237,2
544,2024-09-26 22:29:48.744666016,0,020,-0.04615156559454243,-0.02426675349306118,1.056435055498576,-0.36022975390422307,-0.30382009643577457,-0.010974055039796378,0.8925648268352762,-0.29503943855315556,2
545,2024-09-26 22:29:48.806770020,0,020,-0.08924854428630868,-0.01399888107828568,0.9480857806902472,-0.35234739386582214,-0.31228866963567803,0.002649589124914857,0.8146529323165803,-0.24634475046778267,2
546,2024-09-26 22:29:49.763850098,0,020,-0.12580609278300556,-0.004484629190812659,0.8282092501882161,-0.34031908693788687,-0.3150535039249036,0.014783426126386336,0.7621025349780904,-0.20441961319174437,2
547,2024-09-26 22:29:49.817687012,0,020,-0.15504458873216762,0.004008764937537068,0.6971196425047967,-0.32351663451708024,-0.31289469299677464,0.025290966623558224,0.7356895079576613,-0.17065736056503875,2
548,2024-09-26 22:29:49.899472900,0,020,-0.17665254338671366,0.011288878833237205,0.5555588429298434,-0.30160008388831017,-0.3067959681676653,0.03411082991665496,0.7340069099699584,-0.1458726217073757,2
549,2024-09-26 22:29:49.956876953,0,020,-0.19070655335953582,0.017241226851161865,0.40463847942725467,-0.27452927943528277,-0.29781146040448997,0.04123914501399051,0.753616314436703,-0.1302523844251235,2
550,2024-09-26 22:29:50.034229980,0,020,-0.19757047380999576,0.02182910918746645,0.24578979141695945,-0.2425254663999788,-0.2869448339106762,0.046708485553453395,0.7894866510907503,-0.12337684167968317,2
551,2024-09-26 22:29:50.102837891,0,020,-0.19780171126062376,0.025088906156884243,0.08083701982721875,-0.20603014763127692,-0.27505390463769747,0.05056592717203233,0.8356614870741806,-0.1243044653317685,2
552,2024-09-26 22:29:50.170659912,0,020,-0.1920836455305287,0.02711978097949325,-0.08785103653137999,-0.1656896988205879,-0.26278772903436565,0.0528567345714007,0.8859749085663443,-0.1316942269423845,2
553,2024-09-26 22:29:51.113943115,0,020,-0.1811854050584136,0.02806781406460914,-0.25731575714858484,-0.1223557281084024,-0.2505635868057184,0.053620054623155916,0.9346973948061789,-0.14396743942833143,2
554,2024-09-26 22:29:51.181767090,0,020,-0.16593497191312356,0.02810551772587459,-0.42421662064919424,-0.07707063757626305,-0.23858017755111263,0.052896741118111684,0.977067287936318,-0.15950843479931798,2
555,2024-09-26 22:29:51.249542969,0,020,-0.14718748856941988,0.027408852637299457,-0.5852473003976899,-0.031019091790763873,-0.22685208781571803,0.05074391176487381,1.0096697335285374,-0.1768541776773843,2
556,2024-09-26 22:29:51.308177002,0,020,-0.12578276863626803,0.02613684910895467,-0.7375464740913041,0.014546724136605967,-0.21525310335710077,0.04725021126834565,1.0306229170888106,-0.19480618198155686,2
557,2024-09-26 22:29:51.370641846,0,020,-0.10250656407990637,0.024420732477064614,-0.8789584646697431,0.05839763631885987,-0.20356072552057214,0.04254628758312219,1.039497042056747,-0.2124299807631983,2
558,2024-09-26 22:29:51.452916016,0,020,-0.0780739020694011,0.022365494675073514,-1.0082089580941123,0.0994417934715122,-0.19149487069775928,0.03680599531986356,1.0368832888777555,-0.22895152303380908,2
559,2024-09-26 22:29:51.509430908,0,020,-0.05313762929561338,0.020060282141601292,-1.1250797996357584,0.13685742608209261,-0.17874439191383018,0.03023857276333798,1.023708222252927,-0.24360663115761794,2
560,2024-09-26 22:29:52.452282959,0,020,-0.02831711887531167,0.017592145298617096,-1.2304661701652775,0.1701961737625521,-0.16497924346871126,0.023076940040183926,1.0006036113463617,-0.25552853183266344,2
561,2024-09-26 22:29:52.531244873,0,020,-0.00424403915540335,0.015060994502691528,-1.3261159321753568,0.1994002572377383,-0.14985357303647792,0.015565909862374154,0.967607213396405,-0.26373530142187784,2
562,2024-09-26 22:29:52.599733887,0,020,0.018381811305459784,0.012595615149199798,-1.4140546263399982,0.224722845127421,-0.13301145125925448,0.007950075598448353,0.9242374381530872,-0.2672104955567724,2
563,2024-09-26 22:29:52.653037109,0,020,0.038743221554842736,0.010367649500125371,-1.4959370525799833,0.24659661201059652,-0.11410910695574111,0.00046217823274787825,0.8697787262057824,-0.2650091658219681,2
564,2024-09-26 22:29:52.730853027,0,020,0.05588723776195715,0.008596274592747082,-1.5725636590178929,0.26550786663974413,-0.09285895763701672,-0.00668423735336932,0.8035732858953397,-0.25633114302095195,2
565,2024-09-26 22:29:52.803104004,0,020,0.06875968408742233,0.007537422300326796,-1.643663309118731,0.2819038074705674,-0.06908399174053886,-0.013295915566118175,0.7252579685473304,-0.2405779567969081,2
566,2024-09-26 22:29:52.870903076,0,020,0.07629489692089693,0.007458248005987201,-1.707967874532106,0.29613518040770226,-0.04276815456395553,-0.019196229676055804,0.6350178746944577,-0.21744534571142027,2
567,2024-09-26 22:29:53.777801025,0,020,0.07753934682327611,0.008603725607826114,-1.7635205988543488,0.3084290328999014,-0.014103684665345916,-0.02421820227796608,0.5338273964705904,-0.18703947872660293,2
568,2024-09-26 22:29:53.854998047,0,020,0.07177951528750276,0.011163626669534608,-1.808024339488858,0.31887498239894274,0.01645732531993163,-0.028195237397711754,0.4234848248650536,-0.14993546619429282,2
569,2024-09-26 22:29:53.917258056,0,020,0.058649563311705045,0.015246389944617893,-1.8390078382752582,0.3274045218562669,0.04815700817477593,-0.0309533663520992,0.3063325296976268,-0.10712733756831473,2
570,2024-09-26 22:29:53.992721191,0,020,0.038199150742162645,0.020863890073910644,-1.853735630966075,0.33376405378715773,0.07991995195995547,-0.03231063253460354,0.1847939828845729,-0.059908394083267105,2
571,2024-09-26 22:29:54.055308105,0,020,0.010909271016482314,0.027928220231765607,-1.8489876363849926,0.33750562254472044,0.11039830252248173,-0.032086073270324256,0.06098631654448864,-0.009762069282703071,2
572,2024-09-26 22:29:54.117517090,0,020,-0.022337045560781515,0.03625862058615226,-1.8209643687861319,0.33802441130481203,0.13807124602814866,-0.030116645675632957,-0.06340353732737375,0.04170299591200761,2
573,2024-09-26 22:29:54.196034912,0,020,-0.06031071824014562,0.045595466224363015,-1.7655561219826703,0.33466411301692794,0.16137621909776292,-0.02627900745694651,-0.18702869529968513,0.09281746808509174,2
574,2024-09-26 22:29:55.138190918,0,020,-0.10151172247710157,0.05561900495167629,-1.67898807926239,0.32688224505890306,0.1788456625568567,-0.020511458860358264,-0.3087700049739547,0.14196817310057777,2
575,2024-09-26 22:29:55.206430908,0,020,-0.1442628225915152,0.06597062871353795,-1.5585473889494876,0.31441979538371695,0.1892314861876027,-0.01283035869487157,-0.42764470340017624,0.18775042455774385,2
576,2024-09-26 22:29:55.274195068,0,020,-0.18681026523514926,0.07627338122463129,-1.4030553987428473,0.29740455654386705,0.19161406287207888,-0.003339163772538472,-0.542677672877859,0.22910122724825902,2
577,2024-09-26 22:29:55.335756104,0,020,-0.2274144236542029,0.08614860652519563,-1.2130287386986032,0.27636211567583785,0.18549943914191142,0.007767937138939219,-0.6528537061375205,0.26539837236986225,2
578,2024-09-26 22:29:55.397752930,0,020,-0.26442385991543926,0.09522784460474369,-0.9906881015142432,0.25215984014495263,0.1708938093988123,0.020208462494619463,-0.757335970674245,0.29653790831704013,2
579,2024-09-26 22:29:55.474880859,0,020,-0.2963402429877782,0.10316207878704876,-0.7399186718725221,0.2259168487645446,0.14833282745265758,0.0336235667791175,-0.8558663891845211,0.3229685479724373,2
580,2024-09-26 22:29:55.538567139,0,020,-0.3218903647337479,0.10963310760269071,-0.4661855806389696,0.19889297605775694,0.11885960568904148,0.04759894732522702,-0.9490081522402565,0.3456333213163722,2
581,2024-09-26 22:29:56.488756104,0,020,-0.34011517231486627,0.1143715247367999,-0.17639471703206702,0.17235847142692048,0.0839604133802719,0.06169002458497815,-1.0379563485209664,0.36580126936064505,2
582,2024-09-26 22:29:56.556602051,0,020,-0.3504607760967488,0.11718002620325141,0.12132608367171788,0.14745620795296732,0.04546106458991731,0.07544778667428968,-1.1239553242336155,0.3848270891514258,2
583,2024-09-26 22:29:56.615319092,0,020,-0.35283292491973495,0.11795382458633086,0.41796132568675876,0.12508637861817387,0.0053853502290744475,0.08844336619109494,-1.2076464302299754,0.40389683463284115,2
584,2024-09-26 22:29:56.692225098,0,020,-0.3475814834871741,0.11668983996560295,0.7040464045094714,0.10584219315015461,-0.034210975531783344,0.10028928054228997,-1.288685224116541,0.42380848160890205,2
585,2024-09-26 22:29:56.754802002,0,020,-0.33541897104271845,0.11348328378422534,0.9701674918053247,0.08999643836031439,-0.07140875605277447,0.11065657629308305,-1.365753205925662,0.4448307365272273,2
586,2024-09-26 22:29:56.827756104,0,020,-0.31731425388858936,0.10851668020484098,1.207522329954679,0.07751235432479313,-0.10457781196560043,0.11928990099163782,-1.4368971093282905,0.46667778155440515,2
587,2024-09-26 22:29:56.895531982,0,020,-0.2943995187536402,0.10204662282794792,1.4085656285429096,0.0680570562596047,-0.13250200536682916,0.12602287238244872,-1.5000527865382438,0.4886057153543652,2
588,2024-09-26 22:29:57.838485840,0,020,-0.26789591459616774,0.0943894754274259,1.567661050799225,0.061027186957246446,-0.15446650516579918,0.13079238657928433,-1.5535820861736538,0.5095855365897467,2
589,2024-09-26 22:29:57.900125000,0,020,-0.2390455703646576,0.08590466466870693,1.6815313700585182,0.05561893182783194,-0.17029443655630633,0.1336470400788508,-1.5966889813138068,0.528491811970036,2
590,2024-09-26 22:29:57.962611816,0,020,-0.20904492482683842,0.07697455413372822,1.7493381851396488,0.05095299446358198,-0.18032850208914034,0.13474549002034505,-1.6297003757555333,0.544288681411343,2
591,2024-09-26 22:29:58.039354980,0,020,-0.17898381510815997,0.06798028666973625,1.772396352794017,0.04621910441662849,-0.18536582765909,0.1343429248722066,-1.654227631943757,0.5562221151834209,2
