,time,MARKER,pid,L_O_DSI,L_D_DSI,L_O_DSphi,L_D_DSphi,R_O_DSI,R_D_DSI,R_O_DSphi,R_D_DSphi,trial_id
0,2024-09-27 16:40:48.496333984,TASK_BEGIN,021,-0.9384706287726122,0.861325997929011,1.6888158316142392,-0.5455303848847015,1.017613545595324,0.541531307371987,-1.7304667194069132,-1.7420987221448636,2
1,2024-09-27 16:40:48.568797119,0,021,-0.9662889206997349,0.8831760719483488,1.7868787315216488,-0.5582443579252916,1.0803209189577345,0.5181500028838009,-1.4926022261494059,-1.6980092914055211,2
2,2024-09-27 16:40:49.480227051,0,021,-0.992626176396582,0.9012596773558469,1.8662582013541913,-0.5652075387638209,1.1590690828755932,0.496414860659477,-1.2312257651289313,-1.6685725072203639,2
3,2024-09-27 16:40:49.555686035,0,021,-1.0165776039526275,0.9148290780833919,1.9204850888563005,-0.5639443807871594,1.249091100932307,0.47715033839620175,-0.9721703176476787,-1.651429542819626,2
4,2024-09-27 16:40:49.623428223,0,021,-1.0371465932483501,0.9231170344811208,1.9443836983025824,-0.5522626659648094,1.3453654349090345,0.4609140754941604,-0.7381992765417398,-1.6444545871147014,2
5,2024-09-27 16:40:49.682301025,0,021,-1.0532845583529526,0.9253927576785753,1.9343412794227464,-0.5284730566098285,1.4430832557055606,0.44797048068084094,-0.5473119415507051,-1.6461781943478566,2
6,2024-09-27 16:40:49.758954102,0,021,-1.0639516474639292,0.9210482732553315,1.8884776718775218,-0.49158811821865933,1.5379092355847321,0.4383265852186892,-0.4120041860373782,-1.6558670293661395,2
7,2024-09-27 16:40:49.820589111,0,021,-1.0681998019415044,0.9096962706090078,1.806672327873049,-0.4414482494466544,1.6260640014661982,0.43178924171804334,-0.3394260399648203,-1.6731840299120437,2
8,2024-09-27 16:40:49.894463135,0,021,-1.0652709250535266,0.8912516791357651,1.690478264729722,-0.3787572603419348,1.7043619040010454,0.4279971362186648,-0.3318524416914547,-1.6976714647788895,2
9,2024-09-27 16:40:50.823889893,0,021,-1.0546934436445263,0.8659759684967746,1.5430342219192335,-0.305053696805476,1.7702973186452409,0.4264174453015286,-0.38717909361339503,-1.728350813144734,2
10,2024-09-27 16:40:50.906197021,0,021,-1.0363590963241958,0.8344770984500113,1.3690121227594587,-0.22264846590218756,1.822137225450659,0.4263382659180695,-0.49937828330043776,-1.763599579483522,2
11,2024-09-27 16:40:50.962594971,0,021,-1.010567234904588,0.797667821332657,1.1745366340094312,-0.1345423056567776,1.8589215764271598,0.42689684322996946,-0.6586714289517289,-1.801341587386623,2
12,2024-09-27 16:40:51.040239014,0,021,-0.9780304973217808,0.7566897823777455,0.967008682272636,-0.04431880478287417,1.8803420652092975,0.4271575812955689,-0.8514665853055298,-1.839425953170953,2
13,2024-09-27 16:40:51.102279053,0,021,-0.9398400128763124,0.7128171675092136,0.7547805794216047,0.04401151368936989,1.8865663450193613,0.426219345441604,-1.0608659780539476,-1.8759307784101595,2
14,2024-09-27 16:40:51.164304932,0,021,-0.8973906729838305,0.6673586730213912,0.5466463616053965,0.12624365863019407,1.8780991103745655,0.4233199464540298,-1.2685433888334647,-1.909211918094255,2
15,2024-09-27 16:40:51.244701904,0,021,-0.8522719209695958,0.6215714868592762,0.3511734605808568,0.1982837331840139,1.8557247423119942,0.41791762299481633,-1.4577884058012018,-1.937738188853179,2
16,2024-09-27 16:40:52.188442871,0,021,-0.8061345231933656,0.5765910543846898,0.17598739939933014,0.25648389836687774,1.820532395777083,0.40974058174018063,-1.616690961925014,-1.9598411907656565,2
17,2024-09-27 16:40:52.255605957,0,021,-0.7605431048721513,0.5333781613761656,0.027171442548151622,0.2979502449068829,1.7740026344703783,0.39880289486361387,-1.7405709880468558,-1.9734350027662855,2
18,2024-09-27 16:40:52.322795898,0,021,-0.7168260990978331,0.4926885118092091,-0.09107038074875777,0.3207772707176109,1.7181149100148603,0.38538938449761273,-1.833260590500087,-1.9757482196191491,2
19,2024-09-27 16:40:52.385282959,0,021,-0.6759468137860384,0.4550676618647627,-0.17641970372364194,0.32417404875962025,1.6554322105336348,0.3700046292887797,-1.9068940736616817,-1.9632357029738499,2
20,2024-09-27 16:40:52.452123047,0,021,-0.6384277724697415,0.42086357331818286,-0.22819548717494365,0.308468702763065,1.5891190610213763,0.35328494705639235,-1.9799606332300221,-1.9318443888561898,2
21,2024-09-27 16:40:52.527081055,0,021,-0.6043500551698548,0.3902425343148904,-0.24706171657115464,0.2750096392844186,1.5228303640195409,0.335902785825142,-2.0741812323171898,-1.8775523913558552,2
22,2024-09-27 16:40:52.595019043,0,021,-0.5734257154020003,0.3632019909743446,-0.2348750339890707,0.22599003415122526,1.4604210210765896,0.3185072263999181,-2.211255269546973,-1.7969129111280069,2
23,2024-09-27 16:40:53.534207031,0,021,-0.5451193275118921,0.3395871123835878,-0.19463804656958508,0.16420175949228163,1.4055059656259208,0.3017133567235616,-2.409932374898542,-1.687464476934593,2
24,2024-09-27 16:40:53.606355957,0,021,-0.5187824870829445,0.31911955187430663,-0.13039047466156675,0.09273227054925184,1.360993091390853,0.2861117647283762,-2.683299571887904,-1.548056726355206,2
25,2024-09-27 16:40:53.674107178,0,021,-0.4937663406117953,0.30143529006915715,-0.047016813605302576,0.014676035936464443,1.3287324058128045,0.27225925185219385,-3.03637357302437,-1.3791401697664185,2
26,2024-09-27 16:40:53.741852051,0,021,-0.46949616964111435,0.2861204430255569,0.049937284639007054,-0.06705229943318183,1.309350671725749,0.2606374040596646,-3.464467603906562,-1.1830002619582018,2
27,2024-09-27 16:40:53.804827881,0,021,-0.4455220878215223,0.2727416978770781,0.15451639038921414,-0.149799481795011,1.3022547378423197,0.25159551486772164,-3.95280475035998,-0.96391753971974,2
28,2024-09-27 16:40:53.873437988,0,021,-0.4215747117915852,0.2608798927090453,0.26084667660604494,-0.23121382267439997,1.3057776343479341,0.24529614508593242,-4.477433792108907,-0.7282407881838486,2
29,2024-09-27 16:40:53.945193115,0,021,-0.39763355041687326,0.2501714548830534,0.3638352888416663,-0.30927769314269,1.3174527386578712,0.24167059401787874,-5.007099283344169,-0.4843002524069936,2
30,2024-09-27 16:40:54.861285889,0,021,-0.37397829977112373,0.24034569166641037,0.4598649400179818,-0.3823213862965253,1.3343399565086218,0.2404010181746045,-5.505873550225622,-0.24202229538223785,2
31,2024-09-27 16:40:54.923326904,0,021,-0.351186577111079,0.2312396939258837,0.5472861126822771,-0.4490070961162449,1.3532820931695537,0.24095349831194016,-5.936683353970015,-0.012140678061899023,2
32,2024-09-27 16:40:54.984886963,0,021,-0.3300796981650604,0.22278884709095867,0.6265736347258879,-0.5082864783391378,1.371051418268276,0.242658498062069,-6.265449365308376,0.1949076276872603,2
33,2024-09-27 16:40:55.066948975,0,021,-0.3116527093921336,0.21501076594101395,0.7001070526697535,-0.5593494288750143,1.3844512273689835,0.24480332947214142,-6.464780624037087,0.37006347394126654,2
34,2024-09-27 16:40:55.134676025,0,021,-0.29701035843263457,0.20799738454798342,0.771655521882674,-0.6015847969998888,1.3904415294780659,0.2467023722030043,-6.516203008586008,0.506312367219355,2
35,2024-09-27 16:40:55.202447998,0,021,-0.2872931088952402,0.20190889879881513,0.8456762247643305,-0.6345547814150981,1.3863124537076201,0.24773190022332742,-6.410750591396581,0.5988039579046516,2
36,2024-09-27 16:40:55.270250977,0,021,-0.28357111577285876,0.1969529239939864,0.9265061364249187,-0.657972802004667,1.3698764591599728,0.24734114492256112,-6.148460325578345,0.6446340229746247,2
37,2024-09-27 16:40:56.210207031,0,021,-0.2867102279554243,0.19334256598981214,1.0175558735323902,-0.6716848735676352,1.339581107625847,0.24507159728750222,-5.737385371185099,0.6426181890986271,2
38,2024-09-27 16:40:56.280868164,0,021,-0.29723892551267717,0.19124489921624566,1.120620830626056,-0.6756584252419723,1.2944469015702111,0.24061323667557688,-5.192516077508454,0.5932598198855331,2
39,2024-09-27 16:40:56.333776855,0,021,-0.31525706647884605,0.19074303291021194,1.235368504170663,-0.6699754334096698,1.233868503237768,0.2338947340412712,-4.534902779494185,0.4989485693067829,2
40,2024-09-27 16:40:56.412442871,0,021,-0.34041998174831084,0.19182917398777533,1.3590696822277013,-0.6548294144500558,1.1574410673659623,0.22516889939374615,-3.7911227281330104,0.36431408937707327,2
41,2024-09-27 16:40:56.484189941,0,021,-0.3719952861601931,0.19442234103810396,1.4866698322385534,-0.6305283543924439,1.064945124820659,0.21504715992888387,-2.9928496799246456,0.19656378835063923,2
42,2024-09-27 16:40:56.551853027,0,021,-0.40895707714652174,0.19838775960146662,1.6112014307794178,-0.5974926379933934,0.9565096640524529,0.20446508710795938,-2.1760810508412094,0.005595426752566572,2
43,2024-09-27 16:40:56.612678955,0,021,-0.4500879368333768,0.20354553935893427,1.72443343935247,-0.5562302235762663,0.8328869616647248,0.19459520429131924,-1.3798094388234168,-0.1962536093595913,2
44,2024-09-27 16:40:57.554572998,0,021,-0.4940754725959936,0.20967662398578554,1.817696151003095,-0.5072938572599348,0.6957146177822607,0.18673930917127515,-0.6442876858282193,-0.3948555333019507,2
45,2024-09-27 16:40:57.630686035,0,021,-0.539590131490629,0.21653769348023114,1.8828980197154526,-0.45126162883527565,0.5476313779884922,0.18222851621061334,-0.00914898164212237,-0.5753037164651246,2
46,2024-09-27 16:40:57.698746826,0,021,-0.5853330752167402,0.22388322720382958,1.913685325005917,-0.3887890218054501,0.3922148469526341,0.18233516566396615,0.48854288694146175,-0.7231703310869055,2
47,2024-09-27 16:40:57.766450928,0,021,-0.6300531372147626,0.23148091611683835,1.9064944354991409,-0.3207312309539375,0.2338153045746256,0.18818142382727818,0.8164126131735243,-0.825810851460478,2
48,2024-09-27 16:40:57.834187988,0,021,-0.6725393481306213,0.23910962266625518,1.8611355861121643,-0.24826761718110535,0.07731406600657462,0.2006467754502177,0.9490035127243275,-0.8734883317008278,2
49,2024-09-27 16:40:57.901947021,0,021,-0.7116054708591368,0.24654369509473276,1.7807126821900796,-0.17294516155494888,-0.07225561680547614,0.22030193111524016,0.8697829371483687,-0.8601487791900001,2
50,2024-09-27 16:40:57.956995850,0,021,-0.746089529400844,0.2535387303151873,1.6709721265724258,-0.09660791750109177,-0.21022778160370895,0.2473837195620678,0.5727189889999239,-0.783829204130071,2
51,2024-09-27 16:40:58.908994873,0,021,-0.7748723867374288,0.2598301264644283,1.539331433368051,-0.0212496746696863,-0.3328280265147237,0.281795037600633,0.06355943596648073,-0.6468155380792967,2
52,2024-09-27 16:40:58.981754150,0,021,-0.7968972876563264,0.2651422154743932,1.3938577094966922,0.0511338918688811,-0.4375522768922113,0.3231128969150552,-0.6391943360431197,-0.45564831684674384,2
53,2024-09-27 16:40:59.048928955,0,021,-0.8111885083738669,0.26919918647979507,1.2424142691484232,0.11863786726595063,-0.523354365713745,0.37060889388382756,-1.50401028548533,-0.2209505722540694,2
54,2024-09-27 16:40:59.111000000,0,021,-0.8168966023341164,0.271735163723999,1.0920738482648658,0.17949139262633884,-0.5906488906944338,0.4232846996597023,-2.4871258434437733,0.04302129100852227,2
55,2024-09-27 16:40:59.184984863,0,021,-0.8133901637038078,0.27250943574970615,0.9487634592626776,0.23209845867385587,-0.6411151923643108,0.4799000799471711,-3.5345695867359916,0.31918259788491704,2
56,2024-09-27 16:40:59.249708008,0,021,-0.800377184234048,0.2713329887413951,0.8170582594556727,0.2751013031867834,-0.6773225180090772,0.5389709093272805,-4.58545026241952,0.5887998996280974,2
57,2024-09-27 16:40:59.311716064,0,021,-0.7780153068384322,0.26810287438986913,0.700085957769493,0.3074468202648825,-0.7022526626618266,0.5987458317898222,-5.576396494803162,0.8329959112510626,2
58,2024-09-27 16:41:00.263895020,0,021,-0.7469790251483321,0.2628303305234104,0.5995348588406312,0.3284350823135598,-0.718805157273735,0.6571960204957228,-6.44672191585481,1.0344566366809218,2
59,2024-09-27 16:41:00.323312012,0,021,-0.7084705411560867,0.2556474511314602,0.5157544239454308,0.3377519751002771,-0.7293983905457756,0.7120593590186131,-7.143714760126893,1.179137345482265,2
60,2024-09-27 16:41:00.399420898,0,021,-0.6641637510930699,0.24678714032369944,0.44796659867413297,0.33548378117639766,-0.7357851426274845,0.760962405891386,-7.627371383881425,1.2576720406978403,2
61,2024-09-27 16:41:00.462184814,0,021,-0.6160733954195132,0.23654452468989404,0.39462764514877074,0.32210133829423165,-0.7390912429318411,0.8016025841196711,-7.873781622636726,1.2661595621150143,2
62,2024-09-27 16:41:00.534866943,0,021,-0.5663658316805832,0.22523372601717473,0.35390343333021246,0.29841606621412187,-0.7399741520883792,0.8319475054614196,-7.876482711992841,1.2061544718772772,2
63,2024-09-27 16:41:00.602625000,0,021,-0.5171563733099575,0.2131475042250457,0.32411829658513736,0.2655256689975268,-0.7387941499002273,0.8504159879676831,-7.645496963718585,1.083944157461733,2
64,2024-09-27 16:41:00.670343994,0,021,-0.470343517655974,0.2005212020744511,0.30406349684456274,0.22476353827968515,-0.7357285450992439,0.8560166164719558,-7.204258256660594,0.9093496485537621,2
65,2024-09-27 16:41:01.589035889,0,021,-0.42751263026813635,0.18750856750762424,0.2931726170110389,0.17766013186002533,-0.7307944849938767,0.8484261927357769,-6.585229541305142,0.694370065767442,2
66,2024-09-27 16:41:01.656851074,0,021,-0.38990978102056334,0.17418251205185975,0.29159343901127255,0.12592361033858177,-0.723804438396653,0.8280067952361542,-5.825468795812092,0.45200770556835684,2
67,2024-09-27 16:41:01.724589111,0,021,-0.3584496016821766,0.16056108456634618,0.3000819047497324,0.07143556252221658,-0.7143139538833341,0.7957713024706544,-4.963120980449669,0.19541924580038167,2
68,2024-09-27 16:41:01.792339111,0,021,-0.3337100783215762,0.1466402163060982,0.31962958544112585,0.016236891045044825,-0.7015904364084757,0.7532981611492878,-4.034997488334065,-0.06274298406969572,2
69,2024-09-27 16:41:01.860076904,0,021,-0.31590027619308325,0.1324140589094536,0.35092355936554837,-0.03753009653202676,-0.684599780762346,0.7025912755694351,-3.074922730253126,-0.3110111863286612,2
70,2024-09-27 16:41:01.923830078,0,021,-0.3048207399049709,0.11787700763787755,0.3938801429934009,-0.08773434660874084,-0.6620317727280948,0.6459004617941304,-2.1125449809149175,-0.5398675068554604,2
71,2024-09-27 16:41:01.985532959,0,021,-0.29983133216925667,0.10301041455466141,0.44736217654732013,-0.13239448041091936,-0.6324163094476996,0.5855399576403956,-1.1723448575705313,-0.7424746664491095,2
72,2024-09-27 16:41:02.938083984,0,021,-0.2998306323959933,0.08776001701777429,0.5090055270441167,-0.16980620396801482,-0.5943457156058282,0.5237389697211027,-0.27266361698078606,-0.9151513867068596,2
73,2024-09-27 16:41:02.999666992,0,021,-0.3032675029383513,0.07201170426413629,0.5751326963567075,-0.19864847498988827,-0.5467582431094865,0.4625407775379815,0.5749172944360716,-1.0573654658868659,2
74,2024-09-27 16:41:03.060093018,0,021,-0.30821955327476935,0.055571903831219016,0.6408825934658947,-0.21807587736488968,-0.4892391061776866,0.40375539193851084,1.3651090544611195,-1.1711482115506335,2
75,2024-09-27 16:41:03.141240967,0,021,-0.3125527258439073,0.03815737474429621,0.7006544941171026,-0.2278023424136933,-0.42229267489523137,0.34895349415632365,2.0972087166329665,-1.260139409119008,2
76,2024-09-27 16:41:03.208910889,0,021,-0.31413409584790053,0.01940113560233306,0.7487722357064558,-0.2281650011444075,-0.347479788200272,0.2994684620922823,2.7729709888819727,-1.3286783517317953,2
77,2024-09-27 16:41:03.276626953,0,021,-0.31104128151887744,-0.0011181076893402484,0.7801617047140768,-0.2201361328438811,-0.26731080094040466,0.2563786557808837,3.3948577686099104,-1.3811713871061428,2
78,2024-09-27 16:41:03.336262939,0,021,-0.3017156960927113,-0.023824202990319922,0.7908934543165567,-0.20525463522269088,-0.18489720238119528,0.22047060452806458,3.9647537686266756,-1.4216636367649602,2
79,2024-09-27 16:41:04.286638916,0,021,-0.28503346461633666,-0.049086593853291595,0.7785443508696727,-0.18547927082187238,-0.1034885010881278,0.19220070959383398,4.4831061742853,-1.4535281359621604,2
80,2024-09-27 16:41:04.349123047,0,021,-0.2603052497739562,-0.07718053295383732,0.7423780641667079,-0.1629930286550288,-0.02603659091133943,0.171666956105552,4.948693394928869,-1.4793211735522087,2
81,2024-09-27 16:41:04.411178955,0,021,-0.22725091425667318,-0.10827011704595316,0.6833712428812361,-0.1399959194673478,0.04515388636532627,0.15859270481016552,5.358910666045737,-1.50084077489313,2
82,2024-09-27 16:41:04.491375000,0,021,-0.18599087730770306,-0.14240051487780708,0.6041710989097758,-0.11852663893940951,0.10868995870411481,0.15232607625408814,5.70998921714919,-1.5193267952271772,2
83,2024-09-27 16:41:04.559178955,0,021,-0.1370511901085822,-0.1794864278758147,0.5091073109033647,-0.10035542430977572,0.1642492862143657,0.15186165472744964,5.996884751606864,-1.5357016951965947,2
84,2024-09-27 16:41:04.612601074,0,021,-0.08135465081775387,-0.21929849481769403,0.4042782011234013,-0.08696408422901891,0.21257774950107197,0.1558907584841324,6.2132231199117545,-1.5507411986786561,2
85,2024-09-27 16:41:04.690707031,0,021,-0.020190585624775072,-0.26145968033699785,0.2975426222767839,-0.07957881253563877,0.25528536474244024,0.1628856262919077,6.351622295923008,-1.5650745913933755,2
86,2024-09-27 16:41:05.613218994,0,021,0.04482714688550075,-0.30546169372375703,0.19821534836558938,-0.07919898185839212,0.2944776309745875,0.17121392679946243,6.404243527445872,-1.5790280363795652,2
87,2024-09-27 16:41:05.681014160,0,021,0.11181538160834506,-0.3506988299555575,0.11643043927697828,-0.08659125444408493,0.3323452217326669,0.17926268637309067,6.363467671060127,-1.5924722788484331,2
88,2024-09-27 16:41:05.748769043,0,021,0.17870319441809002,-0.3965039095099627,0.06228106678436028,-0.10225789093551904,0.37083825293280737,0.18554611256208092,6.222837319020145,-1.6047868871429902,2
89,2024-09-27 16:41:05.815954102,0,021,0.24335023636906544,-0.4421742686154336,0.0448375447127832,-0.12639517483163454,0.41146488244682045,0.18878619454965298,5.9782211193990245,-1.6148545927594418,2
90,2024-09-27 16:41:05.884333984,0,021,0.30369828658540726,-0.4869926294616678,0.07109873986793087,-0.15883283014200708,0.4551762912951738,0.18796872993622904,5.628891773034466,-1.6209802866824967,2
91,2024-09-27 16:41:05.952093994,0,021,0.35792984548653567,-0.5302547728487225,0.14497630548099077,-0.19894211941831522,0.5022879439516417,0.18238485163879717,5.178314626204687,-1.6207960997698905,2
92,2024-09-27 16:41:06.019867920,0,021,0.4045932512344303,-0.5713044821419103,0.26649713771375805,-0.24553460253775108,0.5524173695765302,0.17167318683077631,4.634765365505182,-1.6113038203150323,2
93,2024-09-27 16:41:06.963362061,0,021,0.4426634410037525,-0.6095623365732876,0.4314260645614224,-0.2968004451701189,0.6044693453060862,0.15586677298674914,4.012026501857578,-1.589166535999589,2
94,2024-09-27 16:41:07.031176025,0,021,0.47153725243311434,-0.6445357647139015,0.6314393269694867,-0.3503338569065648,0.6567357078645408,0.13542376872150352,3.330054943070803,-1.5512570614354242,2
95,2024-09-27 16:41:07.098558838,0,021,0.49099175065882633,-0.675814744976395,0.8548176924932754,-0.40326850784048546,0.7071374375211402,0.11121305538451581,2.6150843881486177,-1.4953599129380624,2
96,2024-09-27 16:41:07.166702881,0,021,0.5011377656051351,-0.7030715733238954,1.0874538096324797,-0.452506551974985,0.7535357122543846,0.08444554531842301,1.898805559012653,-1.4208767730146934,2
97,2024-09-27 16:41:07.224651123,0,021,0.5023835987988846,-0.7260753829908448,1.31396611354038,-0.49500239399245205,0.7939903865437311,0.056563871410994296,1.2167308623746431,-1.3293394639778142,2
98,2024-09-27 16:41:07.302242920,0,021,0.4954106292957531,-0.7447118390604854,1.5188582819631515,-0.5280654412299849,0.8268858243413834,0.029109775496709706,0.6059143484280435,-1.2244723076459565,2
99,2024-09-27 16:41:07.365087891,0,021,0.4811543690458593,-0.7589892668016888,1.6877279892730466,-0.5496423151400132,0.850906127364984,0.003587636789145247,0.10204442014362572,-1.1116748339628324,2
100,2024-09-27 16:41:08.308547119,0,021,0.4607808958619858,-0.7690239980001048,1.8084589472567858,-0.5585225028757373,0.8649191284778313,-0.01866494738151225,-0.26387550107878743,-0.9971333973133107,2
101,2024-09-27 16:41:08.374191895,0,021,0.4356546378385866,-0.7750174607622577,1.8722668106487161,-0.5544211516041748,0.8678989787161964,-0.036599676336556496,-0.4685787279817593,-0.8869646162206378,2
102,2024-09-27 16:41:08.434062988,0,021,0.40729613983042645,-0.7772424353073221,1.8744545145674822,-0.537941751655373,0.8589625811300654,-0.04956308636544515,-0.49856059102744293,-0.7866388148965967,2
103,2024-09-27 16:41:08.515638184,0,021,0.37732344919010447,-0.7760408968094306,1.8147374958899243,-0.5104640757303948,0.8374616141058675,-0.05735319714893922,-0.3508492307671653,-0.7006399593058739,2
104,2024-09-27 16:41:08.574697021,0,021,0.3473706716439175,-0.7718205301418058,1.6970894958471623,-0.4739997784055062,0.8030422073390925,-0.060207059403583646,-0.03290329970176771,-0.6321825541077425,2
105,2024-09-27 16:41:08.637181152,0,021,0.31898437193782603,-0.7650375721312908,1.5292077879720336,-0.43102739538097634,0.7556537911126826,-0.0587359677761688,0.4379453520480605,-0.5828880235329612,2
106,2024-09-27 16:41:08.714356934,0,021,0.2935069622450319,-0.756166252068497,1.3217235095485036,-0.38430152244655974,0.6955495987257578,-0.05383875959164642,1.0355495190247175,-0.5524748622932857,2
107,2024-09-27 16:41:09.662020020,0,021,0.2719595402124734,-0.7456648431600983,1.0871910430275524,-0.3366354441008945,0.6233267619779393,-0.04660602792243365,1.7267300688639766,-0.5386007249166446,2
108,2024-09-27 16:41:09.730640869,0,021,0.2549345590715509,-0.7339474840840688,0.8388671844004472,-0.29066164925859395,0.5399832432925904,-0.03820635558548904,2.473663854357435,-0.5370051048732868,2
109,2024-09-27 16:41:09.785645020,0,021,0.24251641555829276,-0.7213653855071971,0.5893920567858013,-0.2485857121622333,0.4469116275567461,-0.02974320497156123,3.2365013365195976,-0.5420254794455206,2
110,2024-09-27 16:41:09.862425049,0,021,0.2342677556839812,-0.7081986930370302,0.3496028803038657,-0.2119737807681122,0.34581391575009385,-0.022096419270959382,3.9759933697407717,-0.5473919387542694,2
111,2024-09-27 16:41:09.924483887,0,021,0.2293164139495644,-0.694662037696116,0.12773319928884472,-0.1816251135419941,0.23862560546941253,-0.015798584681368678,4.656175984675043,-0.5471154129838707,2
112,2024-09-27 16:41:10.001643799,0,021,0.2265318472619914,-0.6809267080602639,-0.07086616191955601,-0.15756191655371968,0.1275360820898144,-0.010998809384142676,5.247214404122128,-0.5363827698303436,2
113,2024-09-27 16:41:10.068852783,0,021,0.22473313691145197,-0.6671549730990938,-0.24354583870197696,-0.13912316957089166,0.015080559307120356,-0.007514962783617931,5.728202222154207,-0.512430280336981,2
114,2024-09-27 16:41:11.012885986,0,021,0.2228722503845344,-0.6535321740484701,-0.3899432225089895,-0.12509961758967028,-0.09581040921130486,-0.004925993883624593,6.089280655036226,-0.4752133184483337,2
115,2024-09-27 16:41:11.080981934,0,021,0.2201727057263881,-0.6402805527937978,-0.5115932053985012,-0.11384963840470995,-0.20189182028527514,-0.002661740881838131,6.33231058799939,-0.42758308036769005,2
116,2024-09-27 16:41:11.136970947,0,021,0.21623029541513847,-0.6276501522590876,-0.6116853377605999,-0.10340128986490035,-0.2998064341382107,-8.065155312204609e-05,6.469577779164206,-0.3748578743670079,2
117,2024-09-27 16:41:11.215477051,0,021,0.2110784090315286,-0.6158986596856801,-0.6948571283626307,-0.09160191323229502,-0.3863103866761224,0.003456535707982543,6.520625269119607,-0.3239642678466624,2
118,2024-09-27 16:41:11.284622803,0,021,0.2052012239462468,-0.6052774851541055,-0.7667762624203848,-0.07636658229769089,-0.458416755006941,0.00850972264816909,6.50817712569828,-0.28246161722827895,2
119,2024-09-27 16:41:11.341799072,0,021,0.19947958479772843,-0.5960306736674548,-0.8333576343470522,-0.05600856638104545,-0.5134419242586957,0.015478034287381495,6.454558976650616,-0.2577116180987188,2
120,2024-09-27 16:41:11.417999023,0,021,0.19508513333269734,-0.5884006998127097,-0.8997055598009297,-0.029556830847101288,-0.5490326495545461,0.024520845560315124,6.379583681540584,-0.25630121653240145,2
121,2024-09-27 16:41:12.329048096,0,021,0.1933613445507026,-0.582633323099689,-0.9690764677068151,0.0030521620765971125,-0.5632719760971183,0.035501269258862836,6.299903442797019,-0.28363669136547276,2
122,2024-09-27 16:41:12.390876953,0,021,0.19571990794851435,-0.578979191426685,-1.042211151040094,0.04095968996100238,-0.5549097050587171,0.047973922979122736,6.228978139939038,-0.34350150770318233,2
123,2024-09-27 16:41:12.469433105,0,021,0.20355561859445964,-0.5776929546711719,-1.117269821191113,0.08252657993300744,-0.5236750234096742,0.06121575633824644,6.176831439850774,-0.4374634258716826,2
124,2024-09-27 16:41:12.530663086,0,021,0.21816723631862667,-0.5790271538917873,-1.1903608172946396,0.12557595018789927,-0.4705728941219825,0.0742851574358806,6.149665589809126,-0.5642597030351498,2
125,2024-09-27 16:41:12.609492920,0,021,0.24067056782878707,-0.5832144555387706,-1.256410496605682,0.16766663598753428,-0.3980535231037921,0.08610124695648137,6.150015199915463,-0.7194179595434476,2
126,2024-09-27 16:41:12.677184082,0,021,0.2719035203234896,-0.5904377323054039,-1.310034305259919,0.20633423494814657,-0.3099621580642674,0.0955328301669141,6.177725437055508,-0.8952957599102733,2
127,2024-09-27 16:41:12.744579102,0,021,0.3123424816769159,-0.6007996358975338,-1.346200991358682,0.2392758339036003,-0.21125211878360123,0.10148523509127659,6.23125334386169,-1.0815799802770358,2
128,2024-09-27 16:41:13.688687988,0,021,0.3620495947803306,-0.614304683113944,-1.360725464055509,0.2644954424723746,-0.10752951420021774,0.10298735369831138,6.308583120284174,-1.2662091743754968,2
129,2024-09-27 16:41:13.755166992,0,021,0.42065031730622754,-0.6308539786997538,-1.3507487931402395,0.28043709488871743,-0.004524902074226021,0.09928473433508296,6.4075037220770295,-1.436630114326565,2
130,2024-09-27 16:41:13.824208008,0,021,0.4873329041901134,-0.6502433355288407,-1.3152298971789589,0.28611198499929225,0.0924078991396938,0.08993089716671326,6.525314344769001,-1.5811589168244784,2
131,2024-09-27 16:41:13.891931885,0,021,0.5608733293594929,-0.6721596712332706,-1.2552521627510573,0.2811935920820142,0.1786747969893153,0.07485913612334782,6.658037559391928,-1.690116013763106,2
132,2024-09-27 16:41:13.954976074,0,021,0.6396980903633522,-0.696180439059744,-1.1739273738039326,0.26603610829832114,0.25068347574506117,0.054415094552166914,6.799445907955825,-1.7565566737518763,2
133,2024-09-27 16:41:14.027447998,0,021,0.7219911935114088,-0.7217867592379674,-1.0758907668829807,0.24159157182478755,0.30597528796340934,0.029334003006099296,6.940399805803601,-1.7766509831258241,2
134,2024-09-27 16:41:14.094409912,0,021,0.8058275655216672,-0.7483963905767591,-0.9666270595753097,0.20925712447707998,0.3432260806579865,0.0006680954298955831,7.068840559209136,-1.7498065152121056,2
135,2024-09-27 16:41:15.032334961,0,021,0.8892908499369003,-0.7754101567495681,-0.8519334022177564,0.1707262385509758,0.36206249233909876,-0.030302908032070804,7.170670718184403,-1.6785748101576505,2
136,2024-09-27 16:41:15.106555908,0,021,0.9705438933065365,-0.8022580517916231,-0.73762166235426,0.1278952940098557,0.36276526340665743,-0.0621561408096414,7.231615368082225,-1.5683740432517619,2
137,2024-09-27 16:41:15.174301025,0,021,1.047858665715073,-0.8284361714296996,-0.6292992118778729,0.08281250479216835,0.34605768504452883,-0.09342342158778817,7.239707616786239,-1.427027790693515,2
138,2024-09-27 16:41:15.241460205,0,021,1.1196384462311157,-0.8535359019563881,-0.5320339874234633,0.03761831148551682,0.3130878857465881,-0.1227234805128682,7.187697128826388,-1.2640909024283622,2
139,2024-09-27 16:41:15.309781982,0,021,1.1844625850518398,-0.877270536580688,-0.44988186960571386,-0.0055594377633442806,0.2655027158545253,-0.1488975021669469,7.0746765203342985,-1.090001247056407,2
140,2024-09-27 16:41:15.377516113,0,021,1.2411636513529059,-0.8994977446756618,-0.3854420208705318,-0.04475030238123679,0.20545008933009795,-0.17108657613720857,6.906416139535404,-0.9152114565024746,2
141,2024-09-27 16:41:15.444447021,0,021,1.2889277775728116,-0.9202303807570449,-0.33966022612415164,-0.07829506604204058,0.1354761069780913,-0.188734508517113,6.694418094453309,-0.7494724504106446,2
142,2024-09-27 16:41:16.389414062,0,021,1.3273999850979372,-0.9396337727860612,-0.3119453315922744,-0.10498402230055627,0.05838750041125545,-0.20156063944040978,6.454250971860033,-0.6012951050709191,2
143,2024-09-27 16:41:16.456625000,0,021,1.3567653908838462,-0.9580158164445614,-0.30045093161784464,-0.12416512566256238,-0.022877548718344257,-0.20954435149684725,6.203682342779165,-0.4774885227954178,2
144,2024-09-27 16:41:16.524490234,0,021,1.377766239610931,-0.9758126526913099,-0.30234943790312446,-0.13580959078140967,-0.10538243976398605,-0.2129170125705355,5.960798832936319,-0.382773314288538,2
145,2024-09-27 16:41:16.592632080,0,021,1.3916285144715634,-0.9935620177250852,-0.31407142284471123,-0.14052679085916203,-0.1863396595629077,-0.21213589491316867,5.742285992811569,-0.31963088571663173,2
146,2024-09-27 16:41:16.660360107,0,021,1.3999114657206244,-1.011853860172029,-0.3315680772461514,-0.1395223390969432,-0.26325648262110884,-0.20782567826075157,5.562043359181529,-0.2884603680072093,2
147,2024-09-27 16:41:16.720850098,0,021,1.4043234905617803,-1.0312580500373028,-0.3506140133552397,-0.13449462593018707,-0.3340538096258386,-0.20069075646851164,5.430193132079242,-0.2878937507233897,2
148,2024-09-27 16:41:16.795874023,0,021,1.4065449045623253,-1.0522432657274436,-0.36715303414340983,-0.1274732104788372,-0.397129663140072,-0.19141769464918865,5.352672199654031,-0.31513888508193705,2
149,2024-09-27 16:41:17.705406982,0,021,1.4080785476973703,-1.0751071608326832,-0.37768183328925414,-0.1206218182636974,-0.45135368616876936,-0.18059253761679653,5.331534133561123,-0.36638889484074055,2
150,2024-09-27 16:41:17.767451904,0,021,1.4101399989087553,-1.0999306932572845,-0.3795638286512943,-0.11605102363502477,-0.496033248718784,-0.16864655341597276,5.365483140154018,-0.43729839982454577,2
151,2024-09-27 16:41:17.844162109,0,021,1.4135968811628516,-1.126556683739126,-0.3711474718421539,-0.1156735439963887,-0.5308931805839617,-0.15583485132692967,5.450081719069517,-0.5233989651966929,2
152,2024-09-27 16:41:17.915947021,0,021,1.4189529144635775,-1.1545858172667975,-0.35170120018581746,-0.12108802826925498,-0.5560215043488268,-0.14225504185969265,5.57781286924616,-0.6203676351759144,2
153,2024-09-27 16:41:17.983386963,0,021,1.4263593383242683,-1.1833858100998371,-0.32122063784998456,-0.1334609396188708,-0.5717165996217447,-0.12790977234941714,5.7384416218532825,-0.7241331909694909,2
154,2024-09-27 16:41:18.051483887,0,021,1.4356402745222756,-1.21211371472636,-0.28010963779360865,-0.15340776502692507,-0.5782849471123446,-0.11279668819963423,5.919713467457273,-0.8308290034909135,2
155,2024-09-27 16:41:18.107406006,0,021,1.446324448661474,-1.2397490654400782,-0.22881432371330845,-0.18089812661654733,-0.5759076393934913,-0.09698880410647485,6.108131366423224,-0.9366703437204827,2
156,2024-09-27 16:41:19.062411133,0,021,1.4576764803752174,-1.2651307857790288,-0.1676162575777004,-0.21520581042579412,-0.5646384273456116,-0.08067462198515372,6.289354473117541,-1.0378330115576182,2
157,2024-09-27 16:41:19.130177979,0,021,1.4687278126596837,-1.286993348049315,-0.09671292904673263,-0.2549203079641579,-0.5445042785868188,-0.06416449750432633,6.447895841762976,-1.1303423017649525,2
158,2024-09-27 16:41:19.192253174,0,021,1.4783125912939161,-1.3040058962389602,-0.016473845027412004,-0.2980383073292184,-0.5156319825645131,-0.04789498048131794,6.566553262193242,-1.210016647412145,2
159,2024-09-27 16:41:19.264995117,0,021,1.4851073288277181,-1.3148196827430416,0.07237457308147649,-0.3421504061855592,-0.4783513574089608,-0.03244046757514331,6.626492733557652,-1.2725672889971995,2
160,2024-09-27 16:41:19.333291016,0,021,1.487671884363634,-1.3181212997377985,0.16878792285096575,-0.3847094094941491,-0.43326739224715966,-0.01850921521394846,6.60859617605789,-1.3139127209622439,2
161,2024-09-27 16:41:19.393066895,0,021,1.4845032241223537,-1.312683293136789,0.2716123954462134,-0.42331764945207395,-0.38128704831095145,-0.006902203012423619,6.495978385590836,-1.3306721461823265,2
162,2024-09-27 16:41:19.462739014,0,021,1.4741216163752255,-1.2974077090938296,0.37977501944104375,-0.4559606000120553,-0.3235950153263387,0.0015729373940132224,6.276775418816155,-1.3207018922271265,2
163,2024-09-27 16:41:20.406416016,0,021,1.45519449056722,-1.2713670559327626,0.49227619276368084,-0.4811573826586083,-0.261612891311445,0.00622919584068411,5.9460221361116234,-1.283488217275384,2
164,2024-09-27 16:41:20.479628174,0,021,1.4266726354181494,-1.233851161942645,0.607933944052673,-0.49803323194823573,-0.19695633772622187,0.00663748702108392,5.506164689274457,-1.2202861510305842,2
165,2024-09-27 16:41:20.532007812,0,021,1.3878904955296445,-1.1844228847064997,0.7250359777214133,-0.5063229285870221,-0.1313588156412628,0.0027197976511389543,4.966797478413369,-1.1340606068409125,2
166,2024-09-27 16:41:20.615158203,0,021,1.338602179512186,-1.1229771871089589,0.8411700494506579,-0.5063188990300522,-0.06656581801011241,-0.005239236894207136,4.344432242699888,-1.0293591208413564,2
167,2024-09-27 16:41:20.671297119,0,021,1.2789823038610046,-1.0497963733119944,0.9533764389139672,-0.49878590266645517,-0.004270099131231195,-0.01665732546976273,3.662284176955699,-0.9121184324385923,2
168,2024-09-27 16:41:20.748435059,0,021,1.2096421920967582,-0.9655985145752186,1.0585609111180994,-0.4848601732389887,0.053866505988693046,-0.03076138581034493,2.9492252130657817,-0.7892532418549224,2
169,2024-09-27 16:41:20.811249023,0,021,1.13166107299625,-0.8715774977698458,1.1540216082852164,-0.46593404777884223,0.10617139389339114,-0.04670241758132719,2.237252890206393,-0.6679310103715804,2
170,2024-09-27 16:41:21.762250977,0,021,1.0465846680061477,-0.769427068188746,1.237927112615828,-0.44351178938086727,0.15103463434588404,-0.06366685073111683,1.5578261629332628,-0.5546809483792519,2
171,2024-09-27 16:41:21.822055176,0,021,0.956366089514283,-0.6613322409436744,1.3095967275502816,-0.41903877826090535,0.18716051753103113,-0.08098825065138644,0.9382497815219475,-0.4546698228503636,2
172,2024-09-27 16:41:21.883156982,0,021,0.8632674966180189,-0.5499088792798263,1.369521965014996,-0.3937537537190521,0.21391742990151202,-0.09825183307653647,0.3992975806535295,-0.37140081142285997,2
173,2024-09-27 16:41:21.965448975,0,021,0.7697344924149754,-0.4380808863406785,1.4191496515993602,-0.36862073836479664,0.2316238688556409,-0.11536272112273006,-0.04548140198522347,-0.30680462617876636,2
174,2024-09-27 16:41:22.023243896,0,021,0.6782209125493274,-0.3288961378652045,1.4604570364972416,-0.34433309018159824,0.2416117712257644,-0.13254603106429486,-0.3891448717835256,-0.26145222875104485,2
175,2024-09-27 16:41:22.100902100,0,021,0.5909483986717596,-0.2252876899813249,1.4953682043720808,-0.32133383404306054,0.24598420332459,-0.15026804734753682,-0.6301397377166907,-0.23465587280759642,2
176,2024-09-27 16:41:22.168726074,0,021,0.5096415277442415,-0.12980175676267022,1.5251121430482086,-0.2998234474495204,0.24712478196654875,-0.16909466539296825,-0.7711514835621517,-0.22447730961064533,2
177,2024-09-27 16:41:23.088248047,0,021,0.4353273176318067,-0.044350964871095286,1.549659198484258,-0.2797768718576533,0.24713775964812684,-0.1895186484714165,-0.8184250193784469,-0.22781566660025415,2
178,2024-09-27 16:41:23.143727051,0,021,0.3682710597745825,0.02993259356654115,1.5673898332377465,-0.2610032534806059,0.2474208385371527,-0.21179766231774508,-0.7815147663083029,-0.24066089277857905,2
179,2024-09-27 16:41:23.222351074,0,021,0.3080503458195272,0.09271254379943912,1.5751121588696682,-0.2432442582013932,0.24848759800237014,-0.23584815851625,-0.6730356392718412,-0.25846012010339436,2
180,2024-09-27 16:41:23.282281006,0,021,0.2537172202748268,0.14435667370777097,1.5684436220383806,-0.22626195122473103,0.2500141910596229,-0.2612139438065655,-0.5079900863387737,-0.2765276000778946,2
181,2024-09-27 16:41:23.345536865,0,021,0.20399692172725986,0.18578403333515503,1.5424917843740786,-0.20987304265714987,0.25100574271841897,-0.2870911706919874,-0.30267225857687813,-0.29045757201381595,2
182,2024-09-27 16:41:23.426788086,0,021,0.15749039548152183,0.21829081413010268,1.4927104808369402,-0.19393097211613303,0.24999692678375524,-0.3123832033316015,-0.07360026919346266,-0.29645763191459173,2
183,2024-09-27 16:41:23.494533936,0,021,0.11286195749139191,0.2433835285142006,1.4157156532978692,-0.17827635857750218,0.24523707769120878,-0.33577628854411373,0.16311613258177582,-0.2914965528740949,2
184,2024-09-27 16:41:24.423605957,0,021,0.06899804078286055,0.2626305416752754,1.3098179458882335,-0.16266461116193426,0.23486105393407775,-0.3558469691490594,0.3920021557691372,-0.2732674543895578,2
185,2024-09-27 16:41:24.500955078,0,021,0.025116375075884444,0.27753177216392666,1.1751801280978427,-0.14668923631227732,0.21712298798734242,-0.37121670369967746,0.5983256392337676,-0.24009059628079207,2
186,2024-09-27 16:41:24.573446045,0,021,-0.01919959993835356,0.28941215225140576,1.0137206371305272,-0.1297538491522768,0.190752814651506,-0.3807431994856902,0.7682820422834737,-0.19086967532202107,2
187,2024-09-27 16:41:24.640811035,0,021,-0.06404782324346153,0.29935151301331336,0.8289411289877862,-0.1111424987628175,0.15534630295148236,-0.3836977687138663,0.8893135949870126,-0.1251369811888413,2
188,2024-09-27 16:41:24.708883057,0,021,-0.10930985838428985,0.3081565215435289,0.625717168612527,-0.09016878471319753,0.11159501254700512,-0.3798686955858494,0.9507083698324067,-0.04320764814255877,2
189,2024-09-27 16:41:24.776601074,0,021,-0.1547635928911662,0.3163673987359486,0.4099393171312058,-0.0663079448511751,0.06124673796844429,-0.36956629628149723,0.9447333311188265,0.05354145965401646,2
190,2024-09-27 16:41:24.842937012,0,021,-0.20016384087835376,0.3242867121497476,0.18792271339528882,-0.03921808094321031,0.006855295483837406,-0.353549089771585,0.8681644881246322,0.16236053556270982,2
191,2024-09-27 16:41:25.778750977,0,021,-0.24526867515537132,0.3320228397617261,-0.03429674040431882,-0.00865699227254669,-0.04855764270060947,-0.3329092372476992,0.7234672792002369,0.27898379312689664,2
192,2024-09-27 16:41:25.856210938,0,021,-0.2898217341605529,0.33954764986925373,-0.2515065912144941,0.025598773242520228,-0.10184417218272637,-0.30895589315014277,0.5189947811578406,0.397775483410233,2
193,2024-09-27 16:41:25.923228027,0,021,-0.3335136457001473,0.3467623611541042,-0.4594755465800381,0.06374383658439739,-0.15002893608048476,-0.28312450257465527,0.2683509616384048,0.5120995954590873,2
194,2024-09-27 16:41:25.991656982,0,021,-0.37593714501691056,0.3535531893348682,-0.6547081086552464,0.10585846100834266,-0.1905703550230807,-0.2569091222586509,-0.010524144788075417,0.6148157040580106,2
195,2024-09-27 16:41:26.059443115,0,021,-0.41655208548827366,0.35982069203645134,-0.8340044530441834,0.15182065922396804,-0.22162709229086575,-0.2317870772325037,-0.29634842006019524,0.6989063788350629,2
196,2024-09-27 16:41:26.125330811,0,021,-0.4546792136977022,0.36548415707970483,-0.9941052881642763,0.20125497057289196,-0.2422912402901049,-0.2091207152563255,-0.5659277583088671,0.7582120561448085,2
197,2024-09-27 16:41:26.180242920,0,021,-0.4895231576078294,0.37047390345437525,-1.1315986401539773,0.2535045551590894,-0.25265208838112413,-0.19005955514466835,-0.7963673911246062,0.7880974837721293,2
198,2024-09-27 16:41:27.132956055,0,021,-0.5202074903440361,0.3747198299666904,-1.2431052338075945,0.3076039516144083,-0.2536155663610961,-0.17547504793677096,-0.9676577232048618,0.7858521385942003,2
199,2024-09-27 16:41:27.205820068,0,021,-0.5458147661751165,0.37813688792281064,-1.3256181952812436,0.3622518345532295,-0.24654898565850758,-0.16593706432309732,-1.0645941035019073,0.7507414061418646,2
200,2024-09-27 16:41:27.273991943,0,021,-0.5654458140302553,0.3806113044270174,-1.376845602867961,0.41580551644302216,-0.2328858567770367,-0.16171881587546122,-1.0774117716076668,0.6837281738576491,2
201,2024-09-27 16:41:27.341689209,0,021,-0.5783098765966362,0.3819964788131247,-1.3955208674842547,0.46632855780310917,-0.2138144629828461,-0.16280882306832847,-1.0015456553937672,0.5869816340471817,2
202,2024-09-27 16:41:27.406909912,0,021,-0.5838284511640744,0.38212008274283527,-1.381724228886076,0.5117179857735854,-0.19015364414823036,-0.1689155120113384,-0.8372655068342248,0.46336854644053443,2
203,2024-09-27 16:41:27.469395996,0,021,-0.5817134642021822,0.3807924969549508,-1.337197293971611,0.549914325167211,-0.16246504955275784,-0.1794697139561173,-0.5893895888655013,0.3160857514208916,2
204,2024-09-27 16:41:27.531417969,0,021,-0.5719920160298093,0.37780898603864693,-1.2655387413760628,0.5791466543897217,-0.13134480866315024,-0.19363950329004118,-0.26687679925712093,0.14851171427410886,2
205,2024-09-27 16:41:28.460601074,0,021,-0.5549886083166778,0.3729518332014541,-1.1721455122930766,0.5981235501401962,-0.09775174005124637,-0.21035842835563795,0.11759098708119568,-0.03564117588400213,2
206,2024-09-27 16:41:28.522120117,0,021,-0.5313003670319746,0.3660057977715964,-1.0638456939494596,0.6061183154582761,-0.06321134749435771,-0.22836476295000951,0.547578963375031,-0.2318407501345569,2
207,2024-09-27 16:41:28.599065185,0,021,-0.5017857769153815,0.35679223383272746,-0.9482951621461244,0.6029815967349147,-0.029788685009451997,-0.24626582701763294,1.0024059132815637,-0.4341364862608806,2
208,2024-09-27 16:41:28.666808105,0,021,-0.46755814668596135,0.3452128840936827,-0.8332525802067521,0.5891353693709934,0.0001704276815911706,-0.26264032083881755,1.4568981751354517,-0.6348486552592054,2
209,2024-09-27 16:41:28.734558105,0,021,-0.4299645093150567,0.33128703840124274,-0.7258007143133367,0.56554702664155,0.02444663319573512,-0.2761705124434438,1.882085008588174,-0.8247706165935779,2
210,2024-09-27 16:41:28.802304932,0,021,-0.3905425654995469,0.315172779141583,-0.6315557914486414,0.5336400340608642,0.04137485074991074,-0.28578006321340915,2.2469897799751686,-0.9938192830624839,2
211,2024-09-27 16:41:28.860923096,0,021,-0.3509619129179048,0.2971766751848999,-0.5539461462519422,0.4951198521930294,0.050134669756247204,-0.29074049071035973,2.521357535830819,-1.1319560484172575,2
212,2024-09-27 16:41:29.810738037,0,021,-0.31294922773682843,0.27775752177604546,-0.4937003857522403,0.45175588937662947,0.05079653612262817,-0.2907083744000202,2.679039559624533,-1.2302157597085783,2
213,2024-09-27 16:41:29.872795166,0,021,-0.27818827860748674,0.2575182066091751,-0.4487161386067311,0.4052016035387009,0.04413836098799909,-0.28568436516011825,2.7015292916967617,-1.28170398586893,2
214,2024-09-27 16:41:29.934375000,0,021,-0.24820594497010176,0.23717761722022102,-0.4144457724491842,0.3569115168232523,0.03131639281961007,-0.27592165226099435,2.580847348170266,-1.2824118010416912,2
215,2024-09-27 16:41:30.016270996,0,021,-0.22427832513516488,0.21752586534562024,-0.3847705789645582,0.3081436938252065,0.013490992786621947,-0.261823734961534,2.3208557200384625,-1.2316665445633082,2
216,2024-09-27 16:41:30.074582031,0,021,-0.20737877965822782,0.19937292186194053,-0.3530781176611752,0.2599831526030896,-0.008475076841308134,-0.24386307186187808,1.9363809686672948,-1.1320808805020988,2
217,2024-09-27 16:41:30.136145996,0,021,-0.19816264313400078,0.18349782458372538,-0.31318621812232855,0.2133355199253705,-0.03414797067156712,-0.22254134233013267,1.4502696509926214,-0.9890228916104066,2
218,2024-09-27 16:41:30.213769043,0,021,-0.19697351172013483,0.17060067084982333,-0.2599981137876192,0.16889763846213457,-0.06347930022571434,-0.19839488040993397,0.8892970313794292,-0.8097672237412515,2
219,2024-09-27 16:41:31.158482910,0,021,-0.20386416193652965,0.161257772706064,-0.18998170564297295,0.12714264057063626,-0.09669797502585652,-0.17201989041343296,0.2802012699741658,-0.6025207108325552,2
220,2024-09-27 16:41:31.220491943,0,021,-0.21863335943936113,0.15588394563063515,-0.10149886068012613,0.08834372252041854,-0.13426276418697167,-0.14407793142200406,-0.353087871224829,-0.3755535321945839,2
221,2024-09-27 16:41:31.300233887,0,021,-0.24087182089361592,0.15470982470301345,0.005118808326204289,0.05262702370281595,-0.17688479457745734,-0.11526626310789119,-0.9906580390112615,-0.13666394906427895,2
222,2024-09-27 16:41:31.367975830,0,021,-0.2699925092000704,0.15777743677128211,0.12783561610191024,0.020009965528837617,-0.22550577720422924,-0.08627611292262455,-1.6167325563761474,0.1069710567004243,2
223,2024-09-27 16:41:31.435730957,0,021,-0.30521518069433956,0.16494599347470779,0.26346909679334546,-0.009611383359355977,-0.28110802971829196,-0.057776176919431016,-2.2193400338551728,0.34869827950148385,2
224,2024-09-27 16:41:31.503488037,0,021,-0.34549962193770073,0.17589566958653924,0.408345838675515,-0.03651010985247787,-0.34433899209028357,-0.030441032001604598,-2.7897011321325342,0.5822156447929954,2
225,2024-09-27 16:41:31.560167969,0,021,-0.38946368969412476,0.19012694878800762,0.5588166789805327,-0.061157749338244624,-0.41507206021159165,-0.005010445515355617,-3.321282677076026,0.8014548778951668,2
226,2024-09-27 16:41:32.515396973,0,021,-0.4353365669220949,0.20696417308997078,0.7114570459571085,-0.08418618479453237,-0.49209079751521984,0.017661584069347865,-3.8086362210344733,1.0006160762848488,2
227,2024-09-27 16:41:32.582474121,0,021,-0.4809723964098848,0.22557106967700544,0.8629452315842252,-0.10627205127571421,-0.5730268265197916,0.036608012213738154,-4.246153797147805,1.174378161859326,2
228,2024-09-27 16:41:32.650926025,0,021,-0.5239299252767269,0.24498017210682424,1.0098303468314405,-0.1279878063429286,-0.654562638353501,0.05081194715281284,-4.626795063787853,1.3181904570261775,2
229,2024-09-27 16:41:32.718157959,0,021,-0.5616260874367878,0.2641371540471828,1.1484689478206223,-0.14968160548152407,-0.7328233995674674,0.05931332211984727,-4.941025295702536,1.4285068889137185,2
230,2024-09-27 16:41:32.785260986,0,021,-0.5915599786840616,0.2819614900673027,1.275215668953189,-0.17140927386550797,-0.8038494535669911,0.06132586298343501,-5.176488058011798,1.5029146431251783,2
231,2024-09-27 16:41:32.854201904,0,021,-0.6115746879780158,0.2974219847022712,1.3867146041187042,-0.19290387523388902,-0.8640347236808067,0.05633119502716035,-5.318813573392651,1.5401812470407592,2
232,2024-09-27 16:41:32.921931885,0,021,-0.6201072619525902,0.30962002847247727,1.4800779219735725,-0.21356339402173072,-0.9104342970478833,0.04412496627526213,-5.353386659438859,1.5402175689030544,2
233,2024-09-27 16:41:33.839387939,0,021,-0.6163755962998372,0.31786509698722154,1.5528492663814122,-0.23244336973899313,-0.940899646139067,0.0248077008866807,-5.267445560359327,1.5039556953447475,2
234,2024-09-27 16:41:33.901298096,0,021,-0.6004646969741958,0.321724471710573,1.602839684482899,-0.24826724347639942,-0.9540646665579289,-0.0012604571252024018,-5.052002773515599,1.4332175345708578,2
235,2024-09-27 16:41:33.975141113,0,021,-0.5733069184593201,0.3210424432635565,1.6280273867438873,-0.2594971692445556,-0.9492455405502024,-0.0335066726430482,-4.7035323851175495,1.3306960870685043,2
236,2024-09-27 16:41:34.036859131,0,021,-0.5365745585108284,0.3159406099404113,1.626591602769942,-0.2644803779652554,-0.9263266534017741,-0.07116916390523294,-4.225519549686266,1.2001105017476192,2
237,2024-09-27 16:41:34.099344971,0,021,-0.49250298468392123,0.30680919111681965,1.5969911527950522,-0.2616295259331327,-0.8856785621959956,-0.11329440783594377,-3.629679710759853,1.0464799205913047,2
238,2024-09-27 16:41:34.176141113,0,021,-0.44366470570726646,0.2942841074807263,1.5380449704782924,-0.24959116275501023,-0.8281023397933077,-0.15872491530551197,-2.9364720105860904,0.8763828698065896,2
239,2024-09-27 16:41:34.246017822,0,021,-0.39273055557679015,0.2791991659908102,1.4490776814232982,-0.22739012294631192,-0.754765431010644,-0.20610950663634617,-2.174645114759559,0.6980423004564472,2
240,2024-09-27 16:41:35.188972900,0,021,-0.3422594746143789,0.26251524006028387,1.3301518508991994,-0.19455321979464735,-0.6671364552737665,-0.2539566861448339,-1.3797136642541168,0.5211040684855079,2
241,2024-09-27 16:41:35.255360107,0,021,-0.2945383089231169,0.24524347712180689,1.1823208560394585,-0.1512083343039058,-0.5670022796864664,-0.3007122380852532,-0.5914713254061319,0.35607126276199713,2
242,2024-09-27 16:41:35.324478027,0,021,-0.25146437392534793,0.22838095914256187,1.0077894476191567,-0.09813997161701693,-0.45660785464183057,-0.3448284123506234,0.14917269307924957,0.2134575107939401,2
243,2024-09-27 16:41:35.377527100,0,021,-0.21445594404209764,0.21286497317166214,0.80983948254131,-0.036772703115662185,-0.33878630035892365,-0.38482740497823936,0.8036867899545304,0.10280291432531952,2
244,2024-09-27 16:41:35.454257079,0,021,-0.18439855380772224,0.19954034980260016,0.5924717906063021,0.030927967561003595,-0.2169064982798889,-0.41938467316243805,1.3392321194819001,0.03177394284759947,2
245,2024-09-27 16:41:35.515867920,0,021,-0.16165850958527045,0.189135281878508,0.359931641828428,0.10260989731525155,-0.0946562795862888,-0.44743004922680274,1.7312964113220901,0.0055320931778265695,2
246,2024-09-27 16:41:35.595369141,0,021,-0.14617847758088104,0.18224730000200523,0.11637326857651312,0.17570195638618788,0.024176391900916555,-0.4682314075650531,1.9656083038384615,0.026369130057020296,2
247,2024-09-27 16:41:36.538923096,0,021,-0.13761891358437192,0.17933774029860008,-0.13420595722961406,0.24756546427159087,0.13584503383917612,-0.48143215668685374,2.039353086793265,0.09351467035982881,2
248,2024-09-27 16:41:36.602016112,0,021,-0.1354782169554572,0.18072376414653457,-0.3877836351380077,0.31560943607211245,0.23677372703772342,-0.4870486867169511,1.9609990101188963,0.2031359544328735,2
249,2024-09-27 16:41:36.664128906,0,021,-0.1391479286613378,0.18655815498224465,-0.6399875274357236,0.3773647497181184,0.3237408826032725,-0.4854526304195996,1.7479780277309014,0.34863733722984674,2
250,2024-09-27 16:41:36.742239014,0,021,-0.14791435996193947,0.19680236984383775,-0.8857902300104923,0.4305458852745422,0.3940747904915463,-0.47734338768065354,1.4227746238994001,0.5212778393551611,2
251,2024-09-27 16:41:36.803855957,0,021,-0.1609568243675064,0.21121263055980471,-1.1193878517707279,0.4731448384133835,0.4457631220873928,-0.4636898424003151,1.009209790756348,0.7109673811552578,2
252,2024-09-27 16:41:36.878789795,0,021,-0.17737685000993847,0.22935427461040334,-1.334328878696997,0.5035695167689267,0.47745085917241936,-0.4456253073813851,0.5304054445684465,0.9070435717676628,2
253,2024-09-27 16:41:36.947137207,0,021,-0.19623952574233344,0.25063867682712493,-1.5238518255411395,0.5207865237175383,0.48841216252842273,-0.42431052661506347,0.008429715269330467,1.0989502013009025,2
254,2024-09-27 16:41:37.883022949,0,021,-0.21659205209403137,0.27436592681239974,-1.6813668314914076,0.5243994465386899,0.47860659991930166,-0.4008050917706229,-0.5355498177390218,1.2769030595282438,2
255,2024-09-27 16:41:37.957433838,0,021,-0.2374645342433078,0.2997680038689081,-1.8010558762206272,0.5146204110776383,0.44883271048044254,-0.375987803368875,-1.0815822153513373,1.4325946958122933,2
256,2024-09-27 16:41:38.022707031,0,021,-0.2578860419728089,0.3260601611523778,-1.8785689352943489,0.49216997834233,0.4008683749286204,-0.35054395023487,-1.6116399581916383,1.5597898503878251,2
257,2024-09-27 16:41:38.092941162,0,021,-0.27693209184003453,0.3525028456717663,-1.9116915848214884,0.45818496660469077,0.3374658632792812,-0.32501002917214467,-2.1101109529694395,1.6546058136451816,2
258,2024-09-27 16:41:38.145899170,0,021,-0.2937926209602362,0.37846144046061636,-1.9007881467656977,0.41416995370746834,0.2621534405320367,-0.29984406934499974,-2.5637970538959833,1.7154466535071513,2
259,2024-09-27 16:41:38.223052002,0,021,-0.30784044228565016,0.4034453587317772,-1.8489254643893203,0.36196678680725075,0.17891080119649538,-0.2754846225165758,-2.9615587848304594,1.7427288439765618,2
260,2024-09-27 16:41:38.296135010,0,021,-0.3186852287875453,0.42711789288821,-1.7617059706444378,0.3037104255159798,0.0918622077869167,-0.25238581780727937,-3.2938512129938107,1.7385317427771325,2
261,2024-09-27 16:41:39.213206055,0,021,-0.32620014312234247,0.44928285710976135,-1.6468357562696483,0.24176726229268872,0.005078009497638794,-0.23103730152455337,-3.552258973788279,1.7061915861373447,2
262,2024-09-27 16:41:39.266923828,0,021,-0.330506059634168,0.469858736045859,-1.513452141945968,0.178665108968274,-0.07755485873413634,-0.21196741514714507,-3.7289490215642744,1.6497854147398339,2
263,2024-09-27 16:41:39.348751953,0,021,-0.3319131034103537,0.4888454568323635,-1.3713246117949272,0.11700918553685861,-0.1524450368173931,-0.1957216132035408,-3.8160271424311185,1.5735233937417603,2
264,2024-09-27 16:41:39.416457031,0,021,-0.33085325537870713,0.5062862307575778,-1.2300819333601658,0.05936137781760401,-0.2163754148256494,-0.18282386184588592,-3.8050891168543504,1.4811962848795557,2
265,2024-09-27 16:41:39.484236084,0,021,-0.32785370225656507,0.5222337835621682,-1.0985390637097765,0.008075569336325914,-0.26655768182673223,-0.17373195738391622,-3.6873765127804314,1.3758346456286932,2
266,2024-09-27 16:41:39.551788086,0,021,-0.32356981939036666,0.5367356077866844,-0.9841290409572601,-0.034873199057734915,-0.30072186692296965,-0.16878853874438612,-3.4547020863582065,1.2596201898959551,2
267,2024-09-27 16:41:39.606674072,0,021,-0.31884414481143625,0.5498429576121953,-0.8924513919705707,-0.06800677409450773,-0.3172484214131557,-0.16817393802440805,-3.1010098228856444,1.1339826885181807,2
268,2024-09-27 16:41:40.547754883,0,021,-0.31473221489976067,0.5616287919449519,-0.8269795627663867,-0.09038916633913327,-0.3152819130882966,-0.17187032410061087,-2.6243436595334577,0.9997913564311178,2
269,2024-09-27 16:41:40.626181885,0,021,-0.31245957926366125,0.5721935474291195,-0.7889918023529904,-0.10163275402033137,-0.2947962414357492,-0.17963243839227425,-2.0288847541990283,0.8575602050368223,2
270,2024-09-27 16:41:40.688666992,0,021,-0.3133235926759526,0.5816536577362414,-0.7777442875461,-0.1019057365831543,-0.2566461750235251,-0.1909536621848063,-1.3264681186827667,0.7076114907514072,2
271,2024-09-27 16:41:40.765810059,0,021,-0.3185738925417944,0.5901242356773004,-0.7907944628871897,-0.09194782904454446,-0.2026161699026356,-0.2050332726801131,-0.5371295633582865,0.5502420068122568,2
272,2024-09-27 16:41:40.828296875,0,021,-0.3292819881640094,0.5977033048807899,-0.8243440999975918,-0.0730726365928274,-0.1354107020816091,-0.22076475598229756,0.3111348384136704,0.3860376053836532,2
273,2024-09-27 16:41:40.901511962,0,021,-0.3462017979041534,0.6044526166826817,-0.8735421478425283,-0.047133886675731304,-0.05854531287156531,-0.2367574838820484,1.1829897650588865,0.21638928994101234,2
274,2024-09-27 16:41:40.969242188,0,021,-0.3696525563789027,0.6103729177889434,-0.9327611538756511,-0.016439303738047934,0.0238323922747144,-0.25139503936050006,2.0368528612761376,0.04405891634295317,2
275,2024-09-27 16:41:41.912298096,0,021,-0.3994627527764603,0.6153863011935962,-0.9959048812817529,0.01640833936939015,0.10715141572066356,-0.2629336940408315,2.826818784287344,-0.1264153279590409,2
276,2024-09-27 16:41:41.980657959,0,021,-0.43497648285061924,0.6193414337614692,-1.0568233750386686,0.04875001136248944,0.18666657130864311,-0.269637988292004,3.505410243890862,-0.2886088455071064,2
277,2024-09-27 16:41:42.048379883,0,021,-0.4750980028652334,0.6220429315943377,-1.109824692570553,0.078146642558796,0.2577854855709211,-0.2699380517767411,4.026844493309246,-0.43448478739243945,2
278,2024-09-27 16:41:42.116189941,0,021,-0.5183639153279572,0.6232915480755785,-1.1501181337755926,0.10261638091681693,0.316455607812866,-0.2625856539932835,4.350562380968168,-0.5551168902611857,2
279,2024-09-27 16:41:42.183129883,0,021,-0.5630494566958094,0.6229197050861016,-1.1740415189690372,0.12078657545540236,0.3595046145850203,-0.24677769460559448,4.444808188989351,-0.6418178092588354,2
280,2024-09-27 16:41:42.251638916,0,021,-0.6073083810743543,0.6208149413143933,-1.1791350389790387,0.13197030639964696,0.3848396289751166,-0.22221948555932833,4.289866547916571,-0.6874070595980943,2
281,2024-09-27 16:41:42.319271973,0,021,-0.6493285891421414,0.6169340819128195,-1.1642319527088159,0.13619380377907989,0.3915367010473725,-0.18913089842010095,3.8804942872596677,-0.6872326134858872,2
282,2024-09-27 16:41:43.252597168,0,021,-0.6874787012051555,0.6113134296253793,-1.1296319325996145,0.13418338925660864,0.379907505791068,-0.14822321466596947,3.227416032911064,-0.6397527379666698,2
283,2024-09-27 16:41:43.331254883,0,021,-0.7204272153811015,0.6040741044605666,-1.0772873335507271,0.127311369700319,0.3515178444640891,-0.10066111524264755,2.357977643528419,-0.5467399505953685,2
284,2024-09-27 16:41:43.398989014,0,021,-0.7472244767416399,0.5954182756010853,-1.0108813241647945,0.11749826925958443,0.3090264551945357,-0.04799859943557929,1.3156975668647446,-0.4131824069548249,2
285,2024-09-27 16:41:43.453445801,0,021,-0.7673400669403891,0.5856161616949206,-0.935681667811808,0.10706395350833528,0.2558014263702236,0.007923530375166247,0.15811348834077985,-0.2468594776203187,2
286,2024-09-27 16:41:43.530962891,0,021,-0.780648698200205,0.5749872270458934,-0.8580895300223198,0.09853649647609702,0.19544413911603126,0.06511225216745146,-1.0473775274683133,-0.057566141474742795,2
287,2024-09-27 16:41:43.592545898,0,021,-0.7873653846652048,0.5638765576245054,-0.7848818838941406,0.09445259727295707,0.13138319906515974,0.12156706044475353,-2.2293760478368148,0.14395932761131847,2
288,2024-09-27 16:41:43.654606201,0,021,-0.7879537898182029,0.5526256049986352,-0.7222482254805908,0.09716702999648072,0.0666055666005087,0.17540851754232142,-3.3192628315785266,0.3472601826863177,2
289,2024-09-27 16:41:44.613452881,0,021,-0.7830530807584914,0.5415425448603927,-0.6747811900369396,0.10865206368028596,0.0035037763023343066,0.2249731869632459,-4.257800063236896,0.5433109675798335,2
290,2024-09-27 16:41:44.679685059,0,021,-0.7734489000891276,0.5308832655254542,-0.6446101775079185,0.13028019606565677,-0.056211340328944405,0.26887909468795984,-5.000380750536736,0.7253291480884885,2
291,2024-09-27 16:41:44.749038086,0,021,-0.7600639041255477,0.5208478779334137,-0.6308910347073485,0.1626348019900662,-0.11154547356392093,0.30607533837649537,-5.5202805403313775,0.8890853217598661,2
292,2024-09-27 16:41:44.816781982,0,021,-0.7439207576675299,0.5115851922597824,-0.6297931729170668,0.2054086984041899,-0.16217028727834087,0.3358714355823074,-5.8099268691250785,1.0327452878566639,2
293,2024-09-27 16:41:44.881093994,0,021,-0.7260576305077392,0.5031938181672866,-0.6349775802148124,0.2574129643554348,-0.20828595324765362,0.35793112114417325,-5.880223365979162,1.1564109225317216,2
294,2024-09-27 16:41:44.942266113,0,021,-0.7074218586471973,0.4957173921719361,-0.6384858456314335,0.3166857218810487,-0.2504465438056181,0.372234858805083,-5.75778811880699,1.2615402248999392,2
295,2024-09-27 16:41:45.009186035,0,021,-0.6887847078373335,0.4891414346726972,-0.631954244513414,0.38069321848179366,-0.2893766581926287,0.3790337940862552,-5.480491376878423,1.350375890276158,2
296,2024-09-27 16:41:45.938540039,0,021,-0.6706995968516428,0.4833987047502103,-0.6079952424121037,0.44660667114340574,-0.32576277059318604,0.378810629402597,-5.092386926627523,1.4254567601380597,2
297,2024-09-27 16:41:46.006341064,0,021,-0.6535046659281902,0.47838059013225315,-0.5614380345268769,0.5115917503549201,-0.36001781422695317,0.3722466676936495,-4.638986306071676,1.4892414401430893,2
298,2024-09-27 16:41:46.074125000,0,021,-0.6373652740578859,0.47394553663720385,-0.49008333055463943,0.5730258950671238,-0.39208499892008986,0.360191181619946,-4.163149908087039,1.5438210266267522,2
299,2024-09-27 16:41:46.131984863,0,021,-0.622344929872557,0.46991974281437426,-0.3948416808800251,0.6286047351909793,-0.42137456410374974,0.34363397714354166,-3.701611754232992,1.5906883127202722,2
300,2024-09-27 16:41:46.205503905,0,021,-0.6084792006174695,0.4660958567300769,-0.279365223778407,0.6763594760968243,-0.44685360551256276,0.3236763986765946,-3.2824148422522734,1.6305890409403232,2
301,2024-09-27 16:41:46.277348877,0,021,-0.5958193440765573,0.4622394858278954,-0.14931591645033748,0.7146274496337898,-0.4672292891641714,0.30148803383580475,-2.9237248893542884,1.6635037049997208,2
302,2024-09-27 16:41:46.344639160,0,021,-0.5844229318457521,0.4581054361014464,-0.011368564029831624,0.7420044530802711,-0.4811811804262381,0.27824691237848453,-2.6341735452488457,1.6887456272313448,2
303,2024-09-27 16:41:47.288625000,0,021,-0.5742983228324718,0.4534551727158231,0.12790290783127303,0.7572924179752848,-0.48763961718394105,0.2550825005423109,-2.4142115284817653,1.7050877919319125,2
304,2024-09-27 16:41:47.351751953,0,021,-0.5653372263018949,0.44806671806978904,0.2630153021765366,0.7594663691807312,-0.48608994990412224,0.2330456181535538,-2.2576686839255533,1.7108628938099384,2
305,2024-09-27 16:41:47.413250977,0,021,-0.5572713428136262,0.44173774058375126,0.39021080947516695,0.7477008196613172,-0.4768395749436184,0.21310839332890374,-2.153240892284101,1.7041213045923347,2
306,2024-09-27 16:41:47.491483887,0,021,-0.5496727808300207,0.4342900135173549,0.507645396435633,0.7214689339893522,-0.46117593519773387,0.1961731621763498,-2.086216375702612,1.682957516667704,2
307,2024-09-27 16:41:47.559690918,0,021,-0.5420034932656754,0.4255806756146302,0.615181256805144,0.6806777292946063,-0.44138804583748387,0.18306460228711166,-2.04066122653953,1.6459558476728735,2
308,2024-09-27 16:41:47.614607178,0,021,-0.5337077891422399,0.4155182194095185,0.7138988890382646,0.6257876798520462,-0.4206691467725476,0.1744892233823794,-2.0019156424491635,1.5926258165902099,2
309,2024-09-27 16:41:47.692285889,0,021,-0.5243301772364632,0.404079748966567,0.8054584776810597,0.5578827919349273,-0.40290474966869827,0.1709607769282054,-1.959064563652698,1.523759908553772,2
310,2024-09-27 16:41:48.638677002,0,021,-0.5136298038153565,0.39133047535388576,0.89140520494738,0.4786852453470654,-0.39234124182509883,0.17271263057603511,-1.9067498566006524,1.4416352403594592,2
311,2024-09-27 16:41:48.706466064,0,021,-0.5016560105585095,0.3774451749835195,0.9725022850436026,0.39053431300741115,-0.393179590712764,0.17963785151028583,-1.8454125085362882,1.3499139665636242,2
312,2024-09-27 16:41:48.774180908,0,021,-0.4887571477842426,0.36272112714429827,1.0482156611368796,0.29634324439751736,-0.4091614638846085,0.19128800464533124,-1.7795160098719145,1.2531854828438922,2
313,2024-09-27 16:41:48.841690918,0,021,-0.4755176494361473,0.34756640571430153,1.1164037425784696,0.19952038722097318,-0.443195104190771,0.20693036892104025,-1.714405673899378,1.1563135002592497,2
314,2024-09-27 16:41:48.895681885,0,021,-0.4626385535790149,0.33245802628954296,1.173167838728562,0.10383006401916668,-0.4970733163648483,0.22564561147229015,-1.653053369375426,1.0638355595134625,2
315,2024-09-27 16:41:48.972902100,0,021,-0.4507865892817147,0.3178832045206878,1.212934318456848,0.013176568047375164,-0.5713147512369195,0.24644425108364534,-1.5934238864177208,0.9794862197124626,2
316,2024-09-27 16:41:49.034569092,0,021,-0.44044384825328564,0.30428576601066404,1.2289409878750748,-0.06867911213268399,-0.6651078704637831,0.268377178811637,-1.5266113781600241,0.9057483034691904,2
317,2024-09-27 16:41:49.962864014,0,021,-0.4317923681938702,0.2920313278151691,1.2141323332300693,-0.13842612286710929,-0.7763577725578815,0.290621660636076,-1.4362652370684523,0.8434420291930144,2
318,2024-09-27 16:41:50.029633057,0,021,-0.4246602867183281,0.2813899322345449,1.1622564710108936,-0.19348101121770858,-0.901865324620554,0.31253415948300456,-1.3002512179913501,0.791528882635753,2
319,2024-09-27 16:41:50.091825928,0,021,-0.41853785113431624,0.27252974299954646,1.068877940262,-0.23218885962782562,-1.037594718695346,0.3336622278817973,-1.0947770144951314,0.7472779988213853,2
320,2024-09-27 16:41:50.154369141,0,021,-0.41264959802192297,0.26552176591491367,0.932070729887376,-0.253914885663533,-1.178913450105265,0.35371133208577094,-0.7999408165618394,0.7068153641897037,2
321,2024-09-27 16:41:50.232802002,0,021,-0.4060598627884849,0.2603571542676152,0.7527638175621502,-0.2590349006471975,-1.3207477744279124,0.37247963063577816,-0.40502153520109735,0.6659595218685204,2
322,2024-09-27 16:41:50.300618896,0,021,-0.39779377230316104,0.25696751789549604,0.5348639090105806,-0.24886305591737726,-1.457706244245411,0.38978953844042763,0.08791950084097169,0.6211306268252381,2
323,2024-09-27 16:41:50.355588867,0,021,-0.38695995604832606,0.2552322750769234,0.28515318215095764,-0.22551751069275242,-1.5842307797963,0.4054372294845352,0.6629338514430241,0.5700484211614963,2
324,2024-09-27 16:41:51.305303955,0,021,-0.3728622347314977,0.2549705463759551,0.012828587178775464,-0.19168078930915633,-1.6947601369355438,0.4191578465435137,1.2918277863798826,0.5119973664936573,2
325,2024-09-27 16:41:51.380456055,0,021,-0.35508810546376296,0.2559335778446223,-0.2713197128059391,-0.15025008936431444,-1.783871527368974,0.4305988590392774,1.9380690589631633,0.44766362249922537,2
326,2024-09-27 16:41:51.448184082,0,021,-0.3335586167619903,0.2578141466120013,-0.5559173974003435,-0.10395887458738096,-1.846434391721524,0.4393121900072624,2.5616579264886727,0.3787780630025815,2
327,2024-09-27 16:41:51.515948975,0,021,-0.3085307880515124,0.26027265209685074,-0.8299835692534587,-0.05508924973134166,-1.8778593644204478,0.44478142430653034,3.123581063301289,0.3077967780213027,2
328,2024-09-27 16:41:51.583674072,0,021,-0.2805670171778248,0.2629668785029313,-1.08366477603057,-0.005351782888656773,-1.8744617720643508,0.4464763888433922,3.589160312029007,0.23765170564566512,2
329,2024-09-27 16:41:51.651375977,0,021,-0.2504912121815144,0.2655762169174899,-1.3085847105780612,0.04407276272167822,-1.8338483888961703,0.44390859420039686,3.930283610398175,0.17145268778387351,2
330,2024-09-27 16:41:51.718395020,0,021,-0.21932709924213037,0.26782252675731827,-1.4978496242981691,0.09239358147631636,-1.7552269363023645,0.43667867170215224,4.126727597609703,0.1120548724931768,2
331,2024-09-27 16:41:52.661568115,0,021,-0.1882039561036786,0.2694935670319032,-1.6459350080926278,0.1390445720667022,-1.63962704638431,0.4245322744876746,4.166631395670866,0.061565270880466955,2
332,2024-09-27 16:41:52.719662109,0,021,-0.1582382344100307,0.27046587996294325,-1.7486953358822623,0.18354893503730202,-1.4900536890026252,0.407431013025226,4.046164846467398,0.020956410980110692,2
333,2024-09-27 16:41:52.797494873,0,021,-0.13043051772345593,0.27071536738319174,-1.8035605423238006,0.22544800752383723,-1.3115192437763223,0.38561675326542366,3.768774007425899,-0.010125902787610318,2
334,2024-09-27 16:41:52.865310059,0,021,-0.10562184802694694,0.27031180076756517,-1.8098131737016596,0.2643016635378805,-1.1108593315472262,0.35964253099045385,3.344495923972454,-0.03337444666798945,2
335,2024-09-27 16:41:52.920888916,0,021,-0.08451408844139487,0.26940828078751916,-1.7688278413123182,0.29973231900476255,-0.8963251288701889,0.33035476706537387,2.789480379341596,-0.05163175942910518,2
336,2024-09-27 16:41:52.998115967,0,021,-0.067710831798464,0.26823527231306465,-1.6842239940990438,0.33146525926736975,-0.6770432047606437,0.2988159711425785,2.1255387818296403,-0.0684318587822095,2
337,2024-09-27 16:41:53.068983154,0,021,-0.05573523453893192,0.2670931616682646,-1.5619211357110556,0.35933783207807907,-0.4624189448324444,0.26617094399404867,1.379303764450982,-0.08727298567636546,2
338,2024-09-27 16:41:54.012497070,0,021,-0.04902372189693157,0.26633043418859226,-1.410059094826839,0.38328173157450646,-0.26150254592958494,0.23349330843602437,0.5804159910234118,-0.11074493054672468,2
339,2024-09-27 16:41:54.070683838,0,021,-0.04791688081230124,0.2663054869364863,-1.2387098746238125,0.40328900973620563,-0.0823331737411685,0.20166324624358023,-0.24128611271319372,-0.13974247239715282,2
340,2024-09-27 16:41:54.132738037,0,021,-0.052643680821280105,0.26734311420610357,-1.059351163031122,0.4193713761231372,0.06869293656072431,0.17130278447846894,-1.0586703628432135,-0.17301171965070639,2
341,2024-09-27 16:41:54.209384033,0,021,-0.06326815084357627,0.2696959133533239,-0.8841489881478065,0.43152939615294367,0.18734076079468118,0.14277078497392898,-1.8494327999487443,-0.2071393522150673,2
342,2024-09-27 16:41:54.270966064,0,021,-0.07958492348021878,0.27351048835812053,-0.7251048856272192,0.43974098577247267,0.271811624604973,0.11620964337532305,-2.5972121402287667,-0.2369805076087945,2
343,2024-09-27 16:41:54.348246094,0,021,-0.1010005668090676,0.27879569409279964,-0.5930990668449084,0.44395850989385777,0.3226939015558752,0.09161827405897582,-3.2915438415285316,-0.2565175907166686,2
344,2024-09-27 16:41:54.409875000,0,021,-0.12647282152507353,0.28540100483818365,-0.4968774337382117,0.4440956006434904,0.3426431311317087,0.06891802408376312,-3.926410310552795,-0.26004108385702934,2
345,2024-09-27 16:41:55.362177002,0,021,-0.15455934862277382,0.29302135369183063,-0.442095237369704,0.43999838908020844,0.33591896601624704,0.048001961439187155,-4.497644007584539,-0.2433537891607484,2
346,2024-09-27 16:41:55.429458984,0,021,-0.1835632940408273,0.30123443954370815,-0.430634890632255,0.43142372301701404,0.30786041354627053,0.028781930432533805,-5.000009138929945,-0.2046740295373015,2
347,2024-09-27 16:41:55.497623047,0,021,-0.21171438438378237,0.30955531077966547,-0.4604638398548523,0.41806113530318517,0.2643360683862414,0.011240434949897323,-5.424870999582569,-0.1450586679863387,2
348,2024-09-27 16:41:55.565313965,0,021,-0.2373315546001379,0.31748536208974615,-0.5261623813375089,0.3996162405941071,0.21123474893868183,-0.004527691262344687,-5.759075865904995,-0.06832228999661899,2
349,2024-09-27 16:41:55.632994873,0,021,-0.258950432447105,0.3245472835006837,-0.6199860067705453,0.37593670192966344,0.15406684866508608,-0.018304733103353954,-5.985258896633061,0.019480146045310284,2
350,2024-09-27 16:41:55.700704102,0,021,-0.2754175837520543,0.3303138746441819,-0.733115296271302,0.3471282797166682,0.0976553681018473,-0.029774025674758103,-6.08353866075842,0.11089405465853847,2
351,2024-09-27 16:41:55.768431885,0,021,-0.285953722244986,0.33443800922498795,-0.8567254944075036,0.31360414912670137,0.04583396704660846,-0.03856489215940611,-6.034359718286901,0.19804876268562974,2
352,2024-09-27 16:41:56.712268066,0,021,-0.2901937799985018,0.33667876050999507,-0.9827123040551344,0.2760599897101491,0.001165173466496842,-0.04430794725981408,-5.821899949993075,0.27356334382449166,2
353,2024-09-27 16:41:56.778894043,0,021,-0.2882132714847283,0.3369121716333878,-1.1041671061743958,0.23542011768103804,-0.03518128078981161,-0.04669533321145764,-5.437332497813953,0.3312406464672315,2
354,2024-09-27 16:41:56.847763916,0,021,-0.2805374584807757,0.3351234177076314,-1.215718018223327,0.19278515169941113,-0.06329441337896911,-0.04553520469699317,-4.88141598382404,0.366527130641184,2
355,2024-09-27 16:41:56.903238037,0,021,-0.26811283517430157,0.3313898677529629,-1.3136724964964925,0.14936792894529152,-0.08419895763849228,-0.04079017666148302,-4.165905860515222,0.37673409945929176,2
356,2024-09-27 16:41:56.982937012,0,021,-0.2522118072522934,0.3258647457279439,-1.3958605831146926,0.10640641813789146,-0.09947521221058493,-0.03260089157259566,-3.313313919493198,0.36099941497662347,2
357,2024-09-27 16:41:57.050472900,0,021,-0.23426330686687546,0.3187604355638445,-1.4612686973598166,0.06507019087629103,-0.1108844858057285,-0.021303232968389166,-2.355098924359587,0.3200057164480261,2
358,2024-09-27 16:41:57.118772949,0,021,-0.21565258916769844,0.3103258059700439,-1.5096791789889237,0.026382466253350036,-0.12000624300435231,-0.007440901003077728,-1.32896262461476,0.25556139896676583,2
359,2024-09-27 16:41:58.038030029,0,021,-0.1975591753999886,0.3008190337542958,-1.5414156011653255,-0.008836394547336939,-0.1279202100406206,0.008238794130966544,-0.2757867550070278,0.17017952237426998,2
360,2024-09-27 16:41:58.106020020,0,021,-0.1808717160487749,0.29048493996532565,-1.5571066993562588,-0.04001728707326949,-0.13500726294488918,0.024820200996732735,0.7636856832485055,0.06669033469552708,2
361,2024-09-27 16:41:58.173865967,0,021,-0.1661661992085381,0.27954267434178115,-1.5573849218267315,-0.06689249369074923,-0.14092044312578825,0.0412857493683244,1.7522901579856769,-0.052136840817293126,2
362,2024-09-27 16:41:58.241370117,0,021,-0.153711586425217,0.2681802174889593,-1.5425945040982878,-0.08952836675997856,-0.14471102179159687,0.05660079435232522,2.659619940956366,-0.18390257860533948,2
363,2024-09-27 16:41:58.309324951,0,021,-0.14349340471479802,0.25655068577132445,-1.512625171903522,-0.10831069654124202,-0.14506413591398956,0.06980424440565638,3.4645181838048935,-0.3267288117016066,2
364,2024-09-27 16:41:58.377109131,0,021,-0.13527721559296887,0.24477224323565216,-1.4668834630923822,-0.12387563511280598,-0.14061074638746499,0.08009719795653718,4.156548889714497,-0.47927906436715245,2
365,2024-09-27 16:41:58.436115967,0,021,-0.12871528779073133,0.232934387766175,-1.4043662512825785,-0.1370039576091378,-0.130270619250791,0.08691983049354686,4.736240055177694,-0.640709502791868,2
366,2024-09-27 16:41:59.388370117,0,021,-0.12345545215205381,0.22110591192030432,-1.323824537140384,-0.14850991253145285,-0.11354534102859823,0.08999994174966594,5.213978210760967,-0.8105126176678595,2
367,2024-09-27 16:41:59.447581055,0,021,-0.11920829562090557,0.2093361431229684,-1.2240008368530586,-0.1591498402137258,-0.09067796779339168,0.0893592719531567,5.607530853387049,-0.9881950702413353,2
368,2024-09-27 16:41:59.523839844,0,021,-0.11576810727185954,0.19764671197232764,-1.1039292695249536,-0.1695417994783401,-0.06264466908818721,0.08528114972484498,5.9384207916678085,-1.172826154454119,2
369,2024-09-27 16:41:59.586610107,0,021,-0.11300667614627458,0.18602035261807934,-0.9632987233853525,-0.1800745065482088,-0.03101850575824848,0.07825859266626246,6.227683892434444,-1.3625598067392635,2
370,2024-09-27 16:41:59.659233887,0,021,-0.1108515741817252,0.17439861387400268,-0.802806429919049,-0.1908323228434081,0.0022151255013222316,0.06893915791430462,6.4917815436418325,-1.5542533786937138,2
371,2024-09-27 16:41:59.726922119,0,021,-0.10925320211178523,0.16269451071309876,-0.6243641216749186,-0.20159614361327546,0.03484611435729204,0.058068776212291034,6.739537395774862,-1.7432998888667408,2
372,2024-09-27 16:41:59.794634033,0,021,-0.10814755230361667,0.15081105684893453,-0.43107059376373813,-0.21192795341792656,0.06463495284220168,0.046429035035045155,6.970814696176064,-1.9237590796618675,2
373,2024-09-27 16:42:00.734877197,0,021,-0.1074247544775391,0.1386521057859051,-0.22693721428694302,-0.2212829430980931,0.08952136010126245,0.034765767462406186,7.177263602176003,-2.0888515694250174,2
374,2024-09-27 16:42:00.796441895,0,021,-0.10691010687217796,0.12612521567861892,-0.01643252056240642,-0.22909244586960467,0.10783335303727784,0.02371430451739479,7.344792319729056,-2.231768936751632,2
375,2024-09-27 16:42:00.874417969,0,021,-0.1063539274682826,0.11314559687528135,0.19594221292214328,-0.2347925198611729,0.11847910704523729,0.013734879104330907,7.456648704870686,-2.346520193178359,2
376,2024-09-27 16:42:00.936476074,0,021,-0.10542451420369556,0.09964390498652742,0.4058120988547913,-0.2378066577713483,0.12107432122723634,0.0050787232538202776,7.496095823565452,-2.4285052142569468,2
377,2024-09-27 16:42:00.998509032,0,021,-0.10371200011035266,0.08557202258733836,0.6088275812737838,-0.23752711187950065,0.11592879111383529,-0.0022020591171270565,7.4486626401468925,-2.4747773500581145,2
378,2024-09-27 16:42:01.077074951,0,021,-0.10075896216653976,0.07090160473278265,0.80054691697772,-0.233347147624302,0.10388990015595459,-0.008211807951771248,7.304309722533154,-2.4841167239084965,2
379,2024-09-27 16:42:01.145482178,0,021,-0.0961148393705058,0.055617472744807626,0.9765106778988515,-0.2247537459393556,0.08615045648356039,-0.013158794471400986,7.059237874538752,-2.4569397551292433,2
380,2024-09-27 16:42:02.061225830,0,021,-0.08938095930437812,0.03971171731248539,1.1324964995785232,-0.21143676303572093,0.06411192768782388,-0.017305238282669194,6.7167662849708085,-2.3950235376540516,2
381,2024-09-27 16:42:02.131263916,0,021,-0.08021588076415567,0.02318027944490322,1.2647987497756932,-0.19336242379392982,0.039306978339646394,-0.02092530768459509,6.2870325549189605,-2.3010995703848627,2
382,2024-09-27 16:42:02.199104980,0,021,-0.06831226342752372,0.0060194964591067475,1.3704253633110157,-0.1707986424337089,0.013344671449274155,-0.024276246910998323,5.785703745965108,-2.1784247921887525,2
383,2024-09-27 16:42:02.266739990,0,021,-0.053386365922641156,-0.011776760479026082,1.4472120683021379,-0.14431176733372672,-0.012176660289681862,-0.027575781404876636,5.232278644702272,-2.03046007096152,2
384,2024-09-27 16:42:02.321625000,0,021,-0.03521027212264601,-0.030212346882550718,1.493852596942787,-0.11473727435882569,-0.03583065653593384,-0.03096849280760145,4.648574294818186,-1.8607544195050492,2
385,2024-09-27 16:42:02.402236084,0,021,-0.01367941882291919,-0.04927217367243885,1.5097857377087291,-0.08309892559346961,-0.05656930526627998,-0.03447257028299906,4.0574969968678465,-1.6729976657131376,2
386,2024-09-27 16:42:02.469666992,0,021,0.011127893119835246,-0.068902873387361,1.4949284529823852,-0.05047023825351709,-0.07390655082407688,-0.03791748543211234,3.4818884546031224,-1.4710929927446328,2
387,2024-09-27 16:42:03.413273193,0,021,0.03893840789002306,-0.0890067806258052,1.4493686899443772,-0.017820305370398432,-0.08804651875929397,-0.04089890523458458,2.943429488152453,-1.2591565031451675,2
388,2024-09-27 16:42:03.481352051,0,021,0.0693142289020946,-0.10945321312897852,1.3731615696875545,0.014101349091740777,-0.0999488331382757,-0.04277784938962808,2.4617458376285017,-1.0414755332042842,2
389,2024-09-27 16:42:03.536783936,0,021,0.10169421886880635,-0.13009515361066015,1.2662791063338685,0.04482674043564716,-0.11130369392468897,-0.042729903785973744,2.0536915859335707,-0.8224513934229937,2
390,2024-09-27 16:42:03.615964111,0,021,0.13543196764385976,-0.15077839290280887,1.1286931337338837,0.07419871462694401,-0.12439330407282663,-0.03982173276262591,1.732552784346412,-0.6064397689354022,2
391,2024-09-27 16:42:03.675507080,0,021,0.16983491397329456,-0.17134143604055724,0.9605979307644319,0.10236741089900235,-0.14185121598197997,-0.03309062308548032,1.5068761305338068,-0.3973970643033878,2
392,2024-09-27 16:42:03.752334229,0,021,0.20420412261021334,-0.19161184851636193,0.7627981133700897,0.12972582279011477,-0.16633066465292332,-0.021633858189607544,1.3788118009846524,-0.19839389119793274,2
393,2024-09-27 16:42:03.815181885,0,021,0.23786341627961619,-0.21140074688467836,0.5372048535336247,0.15678067261527054,-0.20009584650977938,-0.0047256403368248455,1.3422587595818778,-0.011184970693322324,2
394,2024-09-27 16:42:04.763635010,0,021,0.27017215396357536,-0.23049115180160723,0.28726138927132516,0.18399893401275558,-0.24461393466199657,0.018055542066750568,1.381647094957598,0.16398265991862895,2
395,2024-09-27 16:42:04.816028076,0,021,0.3005309137015562,-0.248620564681408,0.018113907965491935,0.211681654074021,-0.3002648368798877,0.046731297774033405,1.4724144751697834,0.3282128345725422,2
396,2024-09-27 16:42:04.899191895,0,021,0.32839089287580664,-0.2654708285664226,-0.2635000214457029,0.2398966374716194,-0.3662428264257866,0.080881182521092,1.583645394732764,0.4834200848438444,2
397,2024-09-27 16:42:04.966936035,0,021,0.3532673897738832,-0.2806815028528429,-0.5495289238625928,0.26846124040795516,-0.4406499249498676,0.11964739253120728,1.682354252743304,0.6314875983012055,2
398,2024-09-27 16:42:05.032875000,0,021,0.374754852819259,-0.29388833813484166,-0.830939412975386,0.2969270946968415,-0.5207132975449736,0.16177692979900102,1.7382862755824575,0.7733900024335351,2
399,2024-09-27 16:42:05.102407959,0,021,0.3925432692854458,-0.3047715094954572,-1.0980696954659008,0.3245317155511439,-0.6030360319957695,0.20570175265886279,1.728018388310033,0.9086636045474631,2
400,2024-09-27 16:42:05.170162842,0,021,0.4064351828715306,-0.31309776631981723,-1.3410213925035621,0.3501405275830296,-0.683830673580272,0.24965591077613034,1.6374241504299178,1.0354550842394579,2
401,2024-09-27 16:42:06.108478027,0,021,0.4163676362246745,-0.3187531071784159,-1.5501079078815703,0.37222904484930314,-0.7591306452799437,0.2918147129167519,1.4621388774804613,1.1510591809058757,2
402,2024-09-27 16:42:06.181497070,0,021,0.42244440682745715,-0.3217677985391958,-1.7163332383184586,0.38892868735597597,-0.8249832120528126,0.3304321043075841,1.206282923042898,1.252662897795488,2
403,2024-09-27 16:42:06.245057129,0,021,0.4249674577754988,-0.3223280955091919,-1.8318601794388805,0.39813792760347616,-0.8776186355493237,0.3639565794641421,0.8802095473689364,1.3380099030371448,2
404,2024-09-27 16:42:06.316934082,0,021,0.42444894831434027,-0.3207668614880579,-1.8904947397625746,0.39770063711383874,-0.9135928445451003,0.3911152869837874,0.4984056435385246,1.4057635486845315,2
405,2024-09-27 16:42:06.384660889,0,021,0.4216008845852016,-0.31753527060815623,-1.8882077475795658,0.38563228104151864,-0.929916641233293,0.41096403929889147,0.07849962738088433,1.4554704032527406,2
406,2024-09-27 16:42:06.452416016,0,021,0.41730164021425725,-0.31316381606909827,-1.8235550141042598,0.36033956609499257,-0.9241961377738787,0.42290803619122336,-0.35870540483133884,1.487229086414064,2
407,2024-09-27 16:42:06.520170898,0,021,0.41252391100192154,-0.30821610155156876,-1.6977903044612794,0.32078770197456685,-0.8948066533070697,0.4267055895305812,-0.789361975162242,1.5013341507918532,2
408,2024-09-27 16:42:07.461156982,0,021,0.40822577480194294,-0.30323512049807166,-1.5146256546258718,0.26660603025227353,-0.8410912694576367,0.4224699131530991,-1.1880704576212655,1.4981475736173617,2
409,2024-09-27 16:42:07.531389893,0,021,0.4052446483030077,-0.29868786160749694,-1.2797628814280404,0.19813378705517118,-0.763523913023329,0.4106709371892126,-1.5308556197625145,1.4782383420863159,2
410,2024-09-27 16:42:07.599318115,0,021,0.40422881851172754,-0.2949243008889661,-1.0003538711480928,0.1164114393136733,-0.6637701097369981,0.39211836167863373,-1.7986337927614164,1.4425902084921958,2
411,2024-09-27 16:42:07.667097168,0,021,0.40560048623586414,-0.2921653679675416,-0.6845404593939126,0.02314677758723365,-0.5446361425580537,0.36790624813414374,-1.9799322902961771,1.392645799476704,2
412,2024-09-27 16:42:07.734829834,0,021,0.4095354470498558,-0.290517246887483,-0.3412137486633609,-0.07931053536842497,-0.40993133964797773,0.33931609627175513,-2.072176741656507,1.330143172046405,2
413,2024-09-27 16:42:07.802551025,0,021,0.41597053589106764,-0.2899945133490679,0.019964999240783553,-0.18799421986246026,-0.26422955572066464,0.30768610270260854,-2.081458290315455,1.25686836512761,2
414,2024-09-27 16:42:07.864518799,0,021,0.42465060256888437,-0.29053720498613805,0.3884371064264957,-0.2993990877262369,-0.11250258484783734,0.27426484660529044,-2.021015469501672,1.1744721677546242,2
415,2024-09-27 16:42:08.786479980,0,021,0.435194134084824,-0.2920211439937755,0.752829933856009,-0.40965687311894133,0.04031306922031848,0.24008462207419387,-1.9089563381112453,1.0844563679732844,2
416,2024-09-27 16:42:08.850009033,0,021,0.44714528548243515,-0.29427072188802733,1.1014866269087864,-0.5147991202194456,0.18967187374354355,0.2058917712305746,-1.7658720041999982,0.9883244400113769,2
417,2024-09-27 16:42:08.918292969,0,021,0.46000603629051035,-0.2970797515462763,1.4233576263572936,-0.6110475464827975,0.33159334400895585,0.172150141037618,-1.6125429238103564,0.8877135220340945,2
418,2024-09-27 16:42:08.992094971,0,021,0.4732692292667285,-0.30023805003553466,1.7089365099833913,-0.6950769270081295,0.4626650601272967,0.13910069032070901,-1.4673826448142686,0.7843057513102454,2
419,2024-09-27 16:42:09.059801025,0,021,0.486482077113124,-0.3035628411058899,1.9509585407184629,-0.7642195426662114,0.5799856567133562,0.10683032757608676,-1.3435300728125552,0.6795671151690896,2
420,2024-09-27 16:42:09.127489990,0,021,0.4993516396673873,-0.3069368213014628,2.144721300914262,-0.816582299980824,0.6811808692333875,0.07530805464869629,-1.2463227348143096,0.5745586912411172,2
421,2024-09-27 16:42:09.195188965,0,021,0.5118567021638549,-0.31034467654179415,2.2880285647583594,-0.8510619539755481,0.7645096841129119,0.044396397226802234,-1.1720800501911286,0.46994528276099584,2
422,2024-09-27 16:42:10.125778809,0,021,0.5243078828144672,-0.3138901596635728,2.3808783786074703,-0.8672901303080263,0.8289395364285882,0.013881887279018105,-1.10851312492757,0.36609420562697154,2
423,2024-09-27 16:42:10.203887939,0,021,0.5373322581463844,-0.3177848797204718,2.425014934189197,-0.8655588085034663,0.8741151714410379,-0.016457517059085363,-1.0366112317083447,0.26311631092644755,2
424,2024-09-27 16:42:10.274559082,0,021,0.5517890027456019,-0.32231520604504726,2.4234246392010728,-0.8467452676698201,0.9002857793679171,-0.04677341275685433,-0.9338116525394642,0.16084662319625906,2
425,2024-09-27 16:42:10.327470947,0,021,0.5686176156243985,-0.3277953549133772,2.3798976880850757,-0.8122293298974023,0.9082585218007314,-0.07708717905329912,-0.7780535067355424,0.058883403245316,2
426,2024-09-27 16:42:10.410093994,0,021,0.5886290320658829,-0.33450751792267636,2.298734612760381,-0.7638015588185798,0.8993627420337499,-0.10726200376156984,-0.5519105339345,-0.04322918367193935,2
427,2024-09-27 16:42:10.465879883,0,021,0.6122843895080003,-0.34263095812100364,2.184547013562781,-0.7035714767707234,0.8754089151881314,-0.13700662452417814,-0.24585046617966796,-0.14573767917217112,2
428,2024-09-27 16:42:10.543842041,0,021,0.6395287988640127,-0.3521760736102956,2.04211813395546,-0.6338832844838543,0.838683328325378,-0.1659047695258992,0.1400350052054782,-0.24849644053546827,2
429,2024-09-27 16:42:11.482594971,0,021,0.6697358406842222,-0.3629499336053085,1.8763776954021145,-0.557235988019318,0.791999255542127,-0.1934596868103373,0.5959753035952162,-0.35096034709729823,2
430,2024-09-27 16:42:11.544435059,0,021,0.7017723043990232,-0.37456755148992615,1.692515261240427,-0.476197910307259,0.7387308743609455,-0.21914014152275763,1.1038862893771892,-0.452300000218001,2
431,2024-09-27 16:42:11.622092041,0,021,0.7341407484703383,-0.38649572664217585,1.496181008858978,-0.3933135478888575,0.6827339204305279,-0.2424184933041067,1.6395778127890537,-0.5514981596020018,2
432,2024-09-27 16:42:11.687177002,0,021,0.7651455241627507,-0.39810265842532205,1.2936513080609318,-0.311006377232674,0.6281394223954668,-0.2628014483809564,2.17501906100212,-0.6473072057726026,2
433,2024-09-27 16:42:11.760150879,0,021,0.7930534546879775,-0.4086993774594885,1.0917611729703631,-0.23147128157101057,0.5790580060859278,-0.27985674052186843,2.680070241134744,-0.738050898581594,2
434,2024-09-27 16:42:11.827867920,0,021,0.8162390974455495,-0.41757835326828885,0.8974925869967786,-0.15655653125836858,0.5392209407224238,-0.29323683044268406,3.123572435246284,-0.8213743091787331,2
435,2024-09-27 16:42:11.883881104,0,021,0.8333083949074364,-0.42405708280800347,0.7173788834140329,-0.08767066834031381,0.5116129322873446,-0.3027037353999147,3.474221648376729,-0.8941176411643702,2
436,2024-09-27 16:42:12.809544189,0,021,0.8432019131254358,-0.4275236805315194,0.5570207401375391,-0.025761514325233895,0.49821503547829177,-0.30815937806064136,3.7020170644737114,-0.9524557353380386,2
437,2024-09-27 16:42:12.872812988,0,021,0.845276888406359,-0.42747598267996567,0.42084398302064524,0.02862711718847703,0.49995570330848205,-0.30967905253504824,3.7808038828543995,-0.9923184515731203,2
438,2024-09-27 16:42:12.935189941,0,021,0.8393463887713704,-0.42354989976594254,0.3120116219149837,0.07525977197890128,0.5168535763416838,-0.3075419653424906,3.69156072746031,-1.0099861284859628,2
439,2024-09-27 16:42:13.012802002,0,021,0.8256468598325054,-0.41553598481101095,0.2323712731742672,0.11411098399452638,0.5482452202912311,-0.3022515356035962,3.4253368452346957,-1.0026753778447026,2
440,2024-09-27 16:42:13.074802002,0,021,0.8047324581752348,-0.40338091887097455,0.18241037079648212,0.14527169843026821,0.5929802535559942,-0.29453058592918674,2.984644157806933,-0.9689117239348178,2
441,2024-09-27 16:42:13.151930176,0,021,0.7773314675644867,-0.38717134639608936,0.161254214371721,0.16885759162025007,0.6495233180738087,-0.28527758719999774,2.382708741724487,-0.9085977378593963,2
442,2024-09-27 16:42:13.219662109,0,021,0.744218850152757,-0.3671066538160313,0.16674754660679678,0.18492506600258607,0.7159919519239791,-0.2754917168894215,1.6410231130991384,-0.8228618890918373,2
443,2024-09-27 16:42:14.153338867,0,021,0.7061472177325586,-0.343474761470055,0.19563741918231242,0.19340809197612494,0.7901762846601732,-0.2661875747983317,0.7864021605116847,-0.7138435401701754,2
444,2024-09-27 16:42:14.231076904,0,021,0.663842873937941,-0.3166386372208106,0.24383617015384035,0.19409682267995135,0.8695404629416517,-0.25831183295125515,-0.15137453248586147,-0.5845148997214543,2
445,2024-09-27 16:42:14.293087891,0,021,0.6180460281337767,-0.28702940698752316,0.30671431435248,0.18667884369620535,0.9512285992678947,-0.2526713085096556,-1.1408877027479882,-0.43856737415213926,2
446,2024-09-27 16:42:14.366520996,0,021,0.5695715924669038,-0.2551420026887462,0.37937797465728423,0.17084269377241346,1.0321352210568013,-0.24988411464197316,-2.149447951793718,-0.28034249056638305,2
447,2024-09-27 16:42:14.434283936,0,021,0.5193693436052043,-0.22153631728333253,0.45691680728812,0.14642542202076506,1.1090546121092821,-0.25035387683223026,-3.1430602852568463,-0.1147504031863503,2
448,2024-09-27 16:42:14.502087891,0,021,0.46856066602867974,-0.18684245603006222,0.5346469889675759,0.11358024999349671,1.1788876447074825,-0.2542599825031163,-4.086839238792637,0.052883169822562616,2
449,2024-09-27 16:42:14.556215088,0,021,0.4184390484716858,-0.1517570976779039,0.6083696606620761,0.07292805737583881,1.2388885265148086,-0.2615663374249017,-4.946288042392051,0.21702613297963586,2
450,2024-09-27 16:42:15.505569092,0,021,0.37043596889331404,-0.11702007940558273,0.6745987657521101,0.02565622711394617,1.2869045603581972,-0.2720510174779339,-5.689055533026382,0.37211466906577695,2
451,2024-09-27 16:42:15.580867920,0,021,0.32605068402159326,-0.0833751709647238,0.7307029627955449,-0.026452917087031756,1.321553711549873,-0.2853471396618629,-6.286670227490806,0.512676696151238,2
452,2024-09-27 16:42:15.646514893,0,021,0.2867368392519275,-0.05152604572324895,0.7750025590548422,-0.08108016582533953,1.3423518226904205,-0.3009897512114569,-6.716213735281386,0.6335528152486006,2
453,2024-09-27 16:42:15.716374023,0,021,0.2537555891153779,-0.02209336789395532,0.8068812952750436,-0.13553212949103893,1.3498385235658141,-0.3184778476571549,-6.96209025267962,0.7303678094615352,2
454,2024-09-27 16:42:15.769220215,0,021,0.22803183224810414,0.004422876817194061,0.82685328849199,-0.18699325647832032,1.3456753809670532,-0.3373528559068409,-7.017790078550435,0.800197658277867,2
455,2024-09-27 16:42:15.847328857,0,021,0.21006364736639932,0.02766522592259638,0.8364739572031362,-0.2328156443900912,1.332594780858771,-0.35726956884693584,-6.887090133949488,0.8421672733910738,2
456,2024-09-27 16:42:15.909364990,0,021,0.19991789629040763,0.047415745154847706,0.8380801740254166,-0.27079986007001144,1.3141044588328328,-0.378024374682504,-6.583792075739977,0.8576664560798256,2
457,2024-09-27 16:42:16.859179932,0,021,0.1972957413558473,0.06357567109629123,0.8344297233883546,-0.2994362297996364,1.2939896447303583,-0.39952073226889256,-6.129454242470177,0.8500211243140806,2
458,2024-09-27 16:42:16.921666992,0,021,0.2016162629299883,0.07614473245191469,0.8283070207465258,-0.3180714200733258,1.275756440292461,-0.42167823638658364,-5.549802838741788,0.8237440898835954,2
459,2024-09-27 16:42:16.999712891,0,021,0.21208588746739448,0.08520611162700957,0.8221440247598419,-0.32696218739584365,1.262145564612366,-0.4443119416136198,-4.871424338757148,0.7836885832206271,2
460,2024-09-27 16:42:17.060360107,0,021,0.22775952223087786,0.09091198384298313,0.8176828848943521,-0.3271995011046574,1.254771580077862,-0.46701537459473963,-4.119796689945411,0.7343596650201176,2
461,2024-09-27 16:42:17.122844971,0,021,0.24760456412714402,0.09346942060597757,0.815672862203137,-0.32051935507898915,1.2538943088310912,-0.48907354009730175,-3.3185105639091264,0.6794453660607777,2
462,2024-09-27 16:42:17.199559082,0,021,0.27055964346223405,0.09313237574282457,0.8156399556592394,-0.3090486523128422,1.2583396028863427,-0.5094250095277086,-2.4890694206744786,0.6215328074451735,2
463,2024-09-27 16:42:17.262562012,0,021,0.2955684599669451,0.09020070944880557,0.8158616057499544,-0.29505742748433744,1.2656119200081584,-0.5266926322644367,-1.6509593415268744,0.5619927130051874,2
464,2024-09-27 16:42:18.204241943,0,021,0.3215767676164607,0.08502329085352625,0.8136181854482082,-0.28076936276077546,1.2722089848166453,-0.5392900671382468,-0.8219014578018317,0.5010397553207385,2
465,2024-09-27 16:42:18.282770020,0,021,0.3474998166515832,0.07800642692341053,0.8056111030476525,-0.2682225109523252,1.2740814057704501,-0.5455854903932604,-0.017963056440889427,0.4379345591816957,2
466,2024-09-27 16:42:18.343604004,0,021,0.37219166325642883,0.06962570487772451,0.7883980345036911,-0.2591392879232061,1.2671569756534922,-0.5440958166421695,0.7469286853206062,0.3712458598690053,2
467,2024-09-27 16:42:18.405266113,0,021,0.3944629511534279,0.06042421166921301,0.7588055373723384,-0.2547851426700136,1.2478626501313879,-0.5336899018538932,1.4619655569485237,0.2991238558548093,2
468,2024-09-27 16:42:18.486082031,0,021,0.41316546691957406,0.05098182328542818,0.7143400527459072,-0.2558374373427989,1.2135767234259849,-0.5137694108657909,2.12010636850223,0.2196051486462791,2
469,2024-09-27 16:42:18.553313965,0,021,0.4273031706426211,0.04186752206302411,0.6535891737517514,-0.2623188648501403,1.162942499175488,-0.48438712453413746,2.7175748094205563,0.1309980893181156,2
470,2024-09-27 16:42:18.620910889,0,021,0.43611818482607917,0.03359961655219265,0.5765490892473831,-0.27363249430684383,1.0959972944331136,-0.4462805630306367,3.2520665804343842,0.0323753894331401,2
471,2024-09-27 16:42:19.532413086,0,021,0.43914458235965387,0.026619734982548514,0.4847892609281653,-0.28867713989561117,1.0141018557462074,-0.4008268089933532,3.7203059550349376,-0.07589107711395872,2
472,2024-09-27 16:42:19.594950928,0,021,0.4362441650363687,0.021272117854035856,0.38139648787602687,-0.30599649451480215,0.9196852474389134,-0.3499340025785354,4.116042047392646,-0.19177014106006124,2
473,2024-09-27 16:42:19.672138916,0,021,0.4276222158466366,0.01778892013650857,0.2706816118586979,-0.3239350685088799,0.815859429291029,-0.2958768748876268,4.429325077566997,-0.3116280725961589,2
474,2024-09-27 16:42:19.734147949,0,021,0.41382294179217727,0.0162876660693678,0.15769345620391637,-0.34078840054718695,0.7060045274423606,-0.24108433929214002,4.647065414228046,-0.43070228929011184,2
475,2024-09-27 16:42:19.796157959,0,021,0.39571933529800934,0.016776484528948216,0.047689594277702044,-0.3549387898074631,0.5934453433122635,-0.18791229601801832,4.75439882378888,-0.5437267664189942,2
476,2024-09-27 16:42:19.872831055,0,021,0.374492706498624,0.01915865942909619,-0.05428894840348231,-0.3649671930738941,0.48127549051920315,-0.13845188251418086,4.7366270095818646,-0.6454634959456538,2
477,2024-09-27 16:42:19.934389893,0,021,0.3515637555940624,0.023240038137488244,-0.14375187691451077,-0.36971966026819447,0.3722602678570283,-0.09439756031617634,4.581517839187698,-0.731082972288426,2
478,2024-09-27 16:42:20.879733154,0,021,0.32844825346934925,0.028752555486646167,-0.21706483389222792,-0.36832178107515756,0.26871211507416354,-0.05696449974439029,4.281362910126698,-0.796441076691214,2
479,2024-09-27 16:42:20.955784180,0,021,0.30655919619425487,0.035398584733853655,-0.2716332344754002,-0.3601877637482083,0.1723433956660611,-0.02684580017617539,3.8344076310440403,-0.838309300966952,2
480,2024-09-27 16:42:21.023366943,0,021,0.2870076687711272,0.04290260379615214,-0.30580865614558433,-0.3450833770834036,0.0842088008247843,-0.004214750957263918,3.245797883910166,-0.8545573749217472,2
481,2024-09-27 16:42:21.090928955,0,021,0.27044780410809705,0.05105080310255469,-0.31854432217162476,-0.32323899945150386,0.00482530583298904,0.01122681499032016,2.528006583158008,-0.8441895180164593,2
482,2024-09-27 16:42:21.143129149,0,021,0.2569903629648644,0.05971234180989541,-0.3090593800965871,-0.29543793564760684,-0.06556398798346295,0.02016383274967465,1.7004422047280277,-0.8071871978278669,2
483,2024-09-27 16:42:21.220775879,0,021,0.24619050326306427,0.0688505288494157,-0.27681629358059556,-0.26299937647481225,-0.12673137892435588,0.023565146850619677,0.7884635433600999,-0.744334016784662,2
484,2024-09-27 16:42:21.293606934,0,021,0.2371002650170155,0.07853069329111718,-0.2219011598389057,-0.2276398824686311,-0.1783669424006008,0.022590303407713286,-0.17750961795459277,-0.657260789024672,2
485,2024-09-27 16:42:22.238717041,0,021,0.22837016012598152,0.08892063610883516,-0.145581047821161,-0.1912690651757234,-0.22017193083745537,0.018524382489132647,-1.1625464386259736,-0.5487032239279928,2
486,2024-09-27 16:42:22.306500000,0,021,0.2183951888844434,0.10027734483036571,-0.050675235985079864,-0.1557934509583929,-0.2520293080361913,0.012723785157726944,-2.1278525377542548,-0.42272368929651943,2
487,2024-09-27 16:42:22.374211914,0,021,0.20551807655284404,0.11291885464108493,0.05847741887672414,-0.1229710160239739,-0.2741081556648212,0.006537324891327447,-3.032049671019001,-0.28468959505771807,2
488,2024-09-27 16:42:22.441932861,0,021,0.1882868784308626,0.1271815845623997,0.1763986967466876,-0.09431912507399078,-0.2868652757641163,0.001197087181260927,-3.8333930749828604,-0.14098582470875168,2
489,2024-09-27 16:42:22.498076904,0,021,0.1657065012493404,0.14336564567164312,0.29696310102065915,-0.07105608327747602,-0.29102794753601496,-0.0022826285718518906,-4.4930503839726335,0.001486375747712482,2
490,2024-09-27 16:42:22.577380859,0,021,0.13739014197394636,0.16167980867265497,0.4138000035844015,-0.05405030314874724,-0.2876137337816316,-0.0031600327843261645,-4.97919048602915,0.13597874202533453,2
491,2024-09-27 16:42:22.638076904,0,021,0.10356278314575888,0.18220449710958075,0.5205542721979077,-0.04375688032580184,-0.2779043092978174,-0.0009795113597104062,-5.271043674834855,0.25662739576228316,2
492,2024-09-27 16:42:23.553926025,0,021,0.06494947448383265,0.2048847371708068,0.6110350879769372,-0.04013870178186762,-0.263274095857954,0.004423399793026714,-5.36186497304436,0.359075068864318,2
493,2024-09-27 16:42:23.630587891,0,021,0.022607841705441153,0.22954989219154742,0.6792901297649921,-0.04259410787475307,-0.2449301781545399,0.012916795103324769,-5.260110444081079,0.44086873924908443,2
494,2024-09-27 16:42:23.693257079,0,021,-0.022267476795565514,0.25594759102242975,0.7196898318235292,-0.04993557920182544,-0.2237321626934644,0.024093541587074475,-4.988606182519417,0.50158990153308,2
495,2024-09-27 16:42:23.755593994,0,021,-0.06855340730820182,0.28378116103088524,0.7271735437511481,-0.06045795344159578,-0.20020294719739423,0.037340846512347474,-4.581613155295079,0.542644005099737,2
496,2024-09-27 16:42:23.833236816,0,021,-0.11537537956951371,0.3127436643800057,0.6977496331988051,-0.07209186885571296,-0.17469557132884805,0.051943170879937196,-4.079934985674293,0.5666601630113345,2
497,2024-09-27 16:42:23.895319824,0,021,-0.16219959003260906,0.34254134901892236,0.6291387961901412,-0.08260394570752246,-0.14757888052697943,0.06718120725232736,-3.5250049570104656,0.5766555674055285,2
498,2024-09-27 16:42:23.969374023,0,021,-0.20883079785421427,0.3729019996505743,0.5213200005412769,-0.08981178388709118,-0.11932743019103882,0.08239945379221052,-2.9534082587388837,0.5752662439403645,2
499,2024-09-27 16:42:24.897697998,0,021,-0.2553508621987676,0.4035712356579111,0.3768225558503515,-0.09179721741019871,-0.09051107345279365,0.09703741019980713,-2.392878768475376,0.5642323212224307,2
500,2024-09-27 16:42:24.976218018,0,021,-0.30203219365764333,0.43430256789018,0.20075316186271586,-0.08709303084204635,-0.06174929368751865,0.11063549463320047,-1.8601798992103362,0.5441272111074764,2
501,2024-09-27 16:42:25.042834961,0,021,-0.34923349189694153,0.46484297931880314,0.0005904259256594278,-0.07480690980119996,-0.033676538731193084,0.12282909807044239,-1.3609642480812774,0.5142843057281519,2
502,2024-09-27 16:42:25.115504882,0,021,-0.39728057135883044,0.49491408852994073,-0.21424788918997556,-0.05466532474504833,-0.0069188781913611655,0.1333371873205526,-0.891385471458203,0.47296767071545104,2
503,2024-09-27 16:42:25.177083984,0,021,-0.44635662664514497,0.524193545714892,-0.4330766032319229,-0.026994870357215074,0.017949736391591514,0.1419431364817397,-0.4409573003176045,0.41784815528007585,2
504,2024-09-27 16:42:25.239569824,0,021,-0.49643866603198483,0.5523059829875735,-0.6448277978045515,0.007331175049366969,0.04051276166016304,0.14846237401679563,0.0039167739095434615,0.34672427372058007,2
505,2024-09-27 16:42:25.319521973,0,021,-0.5472934684609252,0.5788283392393504,-0.8390446668271104,0.04696965771015984,0.06067584952477949,0.15270302154397986,0.4564251078356594,0.25829674399703495,2
506,2024-09-27 16:42:26.247563965,0,021,-0.5985022274503132,0.6033014293519683,-1.006828111189975,0.09021134461033176,0.07882174956215685,0.15444001928999845,0.9265559605981747,0.152769300775861,2
507,2024-09-27 16:42:26.324825928,0,021,-0.6494700697387646,0.6252346322202191,-1.141584015585385,0.13511524788662482,0.09587417234255953,0.15341935083056643,1.4194018959567916,0.032105643318030924,2
508,2024-09-27 16:42:26.393177979,0,021,-0.6994129437703378,0.6441034202883545,-1.2394596889301626,0.17966278153493906,0.11321988241996066,0.1493956453694342,1.934384440404846,-0.1000964395031201,2
509,2024-09-27 16:42:26.466072021,0,021,-0.7473473974422965,0.6593529140514988,-1.2993914360683292,0.22189932503091256,0.13247245152962245,0.142197409833288,2.4648953362859927,-0.2389982379208221,2
510,2024-09-27 16:42:26.533755127,0,021,-0.7921036618315151,0.6704148729919117,-1.3227364902291152,0.2600240035898344,0.1551226286265787,0.13180522525251395,2.998012012611944,-0.37899964996969066,2
511,2024-09-27 16:42:26.587541016,0,021,-0.8323711828528378,0.6767313138015961,-1.3126020599921886,0.2924157021764304,0.18216911206324155,0.11842256419363108,3.514454465901288,-0.5141807754087138,2
512,2024-09-27 16:42:26.669243896,0,021,-0.8667857353174035,0.6777781546379892,-1.273110149212792,0.31762311972710744,0.21379975877323334,0.10252231086152408,3.989317113063543,-0.6386788727224659,2
513,2024-09-27 16:42:27.604919922,0,021,-0.8940526592528155,0.6730933574318451,-1.2087850545913634,0.33436143363903464,0.24916313323003836,0.08485554572172765,4.393962531104286,-0.7470273064484105,2
514,2024-09-27 16:42:27.680531982,0,021,-0.9130712009823777,0.6623139529116674,-1.1241023516574205,0.34154204075183564,0.286284428962215,0.06641000327048231,4.6988585405043635,-0.8344436351197533,2
515,2024-09-27 16:42:27.742851074,0,021,-0.9230169732300781,0.6452130657478998,-1.0231866890877535,0.3383383888920346,0.32217556764788635,0.0483156479977035,4.876691558317929,-0.8970144579276375,2
516,2024-09-27 16:42:27.805376953,0,021,-0.9233686183772281,0.6217229623950505,-0.909694060373359,0.32428010958468206,0.353140842471129,0.03171489792774702,4.905292426873882,-0.9318076613028826,2
517,2024-09-27 16:42:27.883052979,0,021,-0.9139016587097972,0.5919419846595472,-0.7869108041372436,0.2993676095337887,0.37520885194302417,0.017631684171103047,4.770250585061421,-0.9370119894189668,2
518,2024-09-27 16:42:27.945074951,0,021,-0.8946810562163553,0.5561352056691737,-0.6579998320269471,0.2641997070829482,0.38457052873249997,0.0068719168364454585,4.466948009106053,-0.9120980435417315,2
519,2024-09-27 16:42:28.019306885,0,021,-0.8660625752158095,0.5147358450685444,-0.5262483786336518,0.22009478364139584,0.3779707710691594,-3.677089902976175e-05,4.001368906500051,-0.8578533055335035,2
520,2024-09-27 16:42:28.958614990,0,021,-0.8286914125053763,0.4683432352226156,-0.3951944683884281,0.16915212466344942,0.35312233228483364,-0.0028786647917144774,3.3890560832744145,-0.7761870487377392,2
521,2024-09-27 16:42:29.030691895,0,021,-0.7834885013587521,0.4177092854351173,-0.2685600765535982,0.11418099137728914,0.3091480606909269,-0.001756242220150275,2.6523991235281024,-0.6698097622851324,2
522,2024-09-27 16:42:29.098443115,0,021,-0.7316280542409145,0.36371222081674487,-0.149962411933586,0.05846978333338133,0.24687818490181204,0.0029487741857860883,1.8175501037176693,-0.5420138427107007,2
523,2024-09-27 16:42:29.159927002,0,021,-0.6745081731416354,0.3073212915362631,-0.042479517899299934,0.005446898242071568,0.1688466313442956,0.010656034379806698,0.9123368355179582,-0.3966535586303878,2
524,2024-09-27 16:42:29.221068115,0,021,-0.613704767649974,0.24955262503870812,0.05171485558256697,-0.04167298034123959,0.07902282452034524,0.02067700742644653,-0.03467386516245426,-0.23819050419844937,2
525,2024-09-27 16:42:29.301728027,0,021,-0.5508993568318069,0.1914149775217615,0.1314442391662273,-0.08018148866186618,-0.01760421390364208,0.032294695296155806,-0.9947914562012045,-0.07160221982983442,2
526,2024-09-27 16:42:29.359844971,0,021,-0.4877834131539106,0.1338525909818114,0.19636673194156193,-0.10808742012203446,-0.11554033123383664,0.044836695012765444,-1.9399786734894906,0.09788987719887088,2
527,2024-09-27 16:42:30.285191895,0,021,-0.4259541957504938,0.07770006247894004,0.2467742468778924,-0.12427007483903377,-0.20936261417538302,0.05773976538133314,-2.8435482525011535,0.26514715708700526,2
528,2024-09-27 16:42:30.347397949,0,021,-0.36682365504504133,0.023658116001563038,0.28355579064824554,-0.12859568003070448,-0.29424136260464756,0.07058533935052551,-3.680640696384578,0.4253884022250667,2
529,2024-09-27 16:42:30.409472900,0,021,-0.31155437059168023,-0.027713629430964084,0.30835111330443377,-0.12197981488605801,-0.36628693689859726,0.08309275178160104,-4.428856758628256,0.5744174613043804,2
530,2024-09-27 16:42:30.490871826,0,021,-0.2610154430455682,-0.07599422445872298,0.32372135066400914,-0.10635419992920721,-0.4227160423016578,0.09508273520774525,-5.069400628595163,0.7088365347573864,2
531,2024-09-27 16:42:30.558583984,0,021,-0.21574018642321763,-0.12089265503485395,0.3330631253368042,-0.08450218295002508,-0.4619231196012073,0.10643677986934541,-5.5886174244270626,0.8262552702665824,2
532,2024-09-27 16:42:30.612610107,0,021,-0.17588330726442564,-0.1622372372061038,0.34010175998523795,-0.059741269901967944,-0.4835157456035011,0.11707039019187246,-5.979415951788068,0.9254898526079407,2
533,2024-09-27 16:42:30.688689941,0,021,-0.14120197248494498,-0.1999698498298221,0.34806791783843727,-0.03546199878500575,-0.4883014225676963,0.12692087977377878,-6.241884312714364,1.0066812831978806,2
534,2024-09-27 16:42:31.626282959,0,021,-0.11109026991657299,-0.23414480069470872,0.35890933223279603,-0.014614354254705142,-0.47819668526880327,0.13593730255418654,-6.3826764215427785,1.0712326525149918,2
535,2024-09-27 16:42:31.704487061,0,021,-0.08467303372193988,-0.2649231767965956,0.3729401690183887,0.0006987501677861684,-0.4560462945756995,0.14406331862419888,-6.413610615375129,1.1215864212667987,2
536,2024-09-27 16:42:31.766480957,0,021,-0.06094026280756309,-0.2925556299631863,0.38909590310914405,0.00940802083200291,-0.42534761683126276,0.15121766290803473,-6.350249349945744,1.1609359223134672,2
537,2024-09-27 16:42:31.828557129,0,021,-0.03889811443091432,-0.31735476222435527,0.40560107946128804,0.011448468395287528,-0.3898966343740701,0.15728265737660208,-6.210284367967041,1.1928271764262506,2
538,2024-09-27 16:42:31.908560059,0,021,-0.017718951981447503,-0.3396600356964056,0.42065932823586816,0.007589581483519076,-0.35340534731494816,0.16210445305104887,-6.010995718325246,1.2205229932660828,2
539,2024-09-27 16:42:31.968347900,0,021,0.0031284732622540315,-0.3597968156163821,0.4328215878363252,-0.0007901678377171344,-0.31915893355616337,0.16550059947190046,-5.766159556110752,1.24619737636312,2
540,2024-09-27 16:42:32.029526855,0,021,0.023798611509418765,-0.37803654303708806,0.44091192447514116,-0.011919223358170179,-0.2897547173400791,0.1672667935126424,-5.483884929160552,1.270264044029173,2
541,2024-09-27 16:42:32.976954834,0,021,0.044060588500734986,-0.394569511309389,0.4436810657826419,-0.023825468326904003,-0.2668841328677529,0.1671753004638883,-5.166311457951021,1.2911049261842504,2
542,2024-09-27 16:42:33.054818115,0,021,0.06335222693809504,-0.40949406417854844,0.4394847098816793,-0.034536474671099965,-0.2510979096359363,0.16496753555486163,-4.810855966586359,1.3052239095963367,2
543,2024-09-27 16:42:33.123873047,0,021,0.0808753284877773,-0.4228183077631141,0.4261449269419689,-0.042292579742853935,-0.2416131921509123,0.16035852645795293,-4.412209754983446,1.3076914707885283,2
544,2024-09-27 16:42:33.191594971,0,021,0.09572474064959714,-0.4344749314674059,0.40098982488322016,-0.04572748116504874,-0.23633322645968075,0.15307427188519562,-3.96453710321582,1.292767278896405,2
545,2024-09-27 16:42:33.256135010,0,021,0.1070387564668386,-0.44435088579447884,0.3610592815163142,-0.04397485262860748,-0.23220532384372009,0.1429289486723706,-3.4637613682587842,1.2546752946408974,2
546,2024-09-27 16:42:33.317677979,0,021,0.11413869532359747,-0.45232113016499087,0.30347276812094226,-0.03669654263312216,-0.22587056583688525,0.1299237603360814,-2.910025010341468,1.1885233709766367,2
547,2024-09-27 16:42:33.380162842,0,021,0.11662732476575204,-0.45826926788406297,0.22588931986163677,-0.024056612175421734,-0.21439319924789632,0.11432788365731866,-2.310013806296829,1.0912628499706465,2
548,2024-09-27 16:42:34.313944092,0,021,0.11442897327518592,-0.46209104009346036,0.12697116631391558,-0.006671027882979202,-0.195836290882498,0.09670882729250053,-1.6783945595829424,0.9624911157512736,2
549,2024-09-27 16:42:34.368062012,0,021,0.10776559000280153,-0.4636918009408118,0.006803603478549584,0.014462099398911432,-0.16956318999165268,0.07790797406343285,-1.0379561098302752,0.8049461818504479,2
550,2024-09-27 16:42:34.449480957,0,021,0.0970829119587708,-0.46298685732057554,-0.13279874029572764,0.038064810122210656,-0.13624882454038512,0.0589729437790859,-0.4185603824448713,0.6246173919999531,2
551,2024-09-27 16:42:34.517251952,0,021,0.08295806768688826,-0.4599025212315924,-0.2881755618664799,0.06270144967511442,-0.0976276656065067,0.04105709637383783,0.14508986975833071,0.43037107745411685,2
552,2024-09-27 16:42:34.584121826,0,021,0.06601909081468048,-0.4543754241986948,-0.4538318894764111,0.08688150690536382,-0.05604703220333203,0.02529689253130462,0.6169250810117372,0.23303001656899594,2
553,2024-09-27 16:42:34.645697021,0,021,0.04689277887422321,-0.44635471243402364,-0.6224508129471796,0.10913141372947201,-0.013958971455749902,0.012686710576600925,0.9635873874614418,0.044095216617980264,2
554,2024-09-27 16:42:34.707294922,0,021,0.026179102313238264,-0.4358105312740757,-0.7849762090352644,0.1280716292042913,0.02648668021054459,0.003980220031996752,1.1577444633899774,-0.12547557503968743,2
555,2024-09-27 16:42:35.661833984,0,021,0.0044438907030150895,-0.4227465665493577,-0.9309924084142625,0.14253683813610263,0.0636532306564182,-0.00035916051397557203,1.179830000425157,-0.2661391338087842,2
556,2024-09-27 16:42:35.722931885,0,021,-0.01777381811169246,-0.40721514780910184,-1.0495068219529047,0.15173506984138466,0.09647158497795325,-0.00016204965265621853,1.0189916478633472,-0.370356463539643,2
557,2024-09-27 16:42:35.799256104,0,021,-0.0399551774453936,-0.3893347080079081,-1.1300212138617665,0.15539988987488296,0.12443694091577445,0.004468529147628182,0.6746126169899644,-0.4331119202730813,2
558,2024-09-27 16:42:35.866831055,0,021,-0.06162434144152515,-0.36930548279695957,-1.1636603089618218,0.15386991039648956,0.14755610020638124,0.013195417347923153,0.15845710649652087,-0.452342980675144,2
559,2024-09-27 16:42:35.929649902,0,021,-0.08240181632332196,-0.3474173839893996,-1.144115039614032,0.1480393446355968,0.16618116765836893,0.025508083096601363,-0.5040726181681066,-0.42904176830628415,2
560,2024-09-27 16:42:36.002335938,0,021,-0.10204961239826664,-0.32404870614338654,-1.068240988519337,0.13916538899491632,0.18076111871094125,0.04079973674329778,-1.2750919264972844,-0.3668951831430008,2
561,2024-09-27 16:42:36.063462891,0,021,-0.12047365869054719,-0.299660132981094,-0.9363296423180434,0.12858982159564045,0.19164771506778988,0.058433851889492024,-2.107969893517373,-0.27160643224665404,2
562,2024-09-27 16:42:36.999727051,0,021,-0.13768465084277193,-0.27478688556484526,-0.7521788161563112,0.11749027943677527,0.19902387839734795,0.07778022343370174,-2.9524501755355193,-0.150177962159222,2
563,2024-09-27 16:42:37.079497070,0,021,-0.15373825280772205,-0.2500233643106919,-0.5229563489289182,0.10674491959980181,0.20289292251864344,0.09822653194857507,-3.7595447248405187,-0.010346899207402895,2
564,2024-09-27 16:42:37.138864990,0,021,-0.16867163239190322,-0.22599125132498846,-0.25868822178695344,0.09690023401197646,0.20305328041943185,0.11918236355145786,-4.485115767190372,0.13981669795138837,2
565,2024-09-27 16:42:37.215058105,0,021,-0.18245136140233767,-0.20329073907832504,0.028665121957315583,0.0881937540881809,0.19905065871619584,0.1400918162674853,-5.0919279915185305,0.2922472748186045,2
566,2024-09-27 16:42:37.278075928,0,021,-0.19495424621918614,-0.182445791145729,0.32630610787177905,0.08060969882263781,0.19013555481413402,0.1604674007151248,-5.5505841659170105,0.439241430722217,2
567,2024-09-27 16:42:37.342066162,0,021,-0.20599669936883286,-0.16385514424414932,0.621566309014827,0.07395720622071399,0.1752586452171248,0.17993829008256637,-5.840020056785973,0.5738567848143095,2
568,2024-09-27 16:42:37.416676025,0,021,-0.2153988116473,-0.14775501654572168,0.9025723168617141,0.06795197532235331,0.15314424793336756,0.1982823225058567,-5.948191008685805,0.6903373226362705,2
569,2024-09-27 16:42:38.349061035,0,021,-0.2230380145487716,-0.13420017461827574,1.1586121510642902,0.062284295517488944,0.12246988677233041,0.21541616566554045,-5.873101357040953,0.7845120365830192,2
570,2024-09-27 16:42:38.426717041,0,021,-0.22885757002796456,-0.12307230550127525,1.3803485665140183,0.05666069164791857,0.08213326467951289,0.2313445524108883,-5.623618317043027,0.854053942499589,2
571,2024-09-27 16:42:38.498132080,0,021,-0.23285306190457072,-0.11411413396114507,1.5600698713029468,0.050810220294862846,0.03153834817787798,0.24608807286105563,-5.219294209453194,0.8985000152156399,2
572,2024-09-27 16:42:38.566120117,0,021,-0.23509479508818606,-0.10697260563076945,1.6920473529534794,0.04446607092201136,-0.02918427617303253,0.25961698880298323,-4.688926533475588,0.9190639905352306,2
573,2024-09-27 16:42:38.633811035,0,021,-0.2358014499283741,-0.1012357168926224,1.7728951909033859,0.03735458605070955,-0.0990779887468764,0.2718158162169979,-4.068305168197483,0.9183944993732217,2
574,2024-09-27 16:42:38.701528076,0,021,-0.23541345580308812,-0.09646340958126269,1.801776279132008,0.02922270589275922,-0.17638258547964258,0.28248120148445144,-3.3978079717698013,0.9003666197382745,2
575,2024-09-27 16:42:38.769261963,0,021,-0.23459903292532747,-0.09222279429096307,1.7803796219819377,0.019913470954631977,-0.2586395222392885,0.2913351672518014,-2.719972104478273,0.869808912104336,2
576,2024-09-27 16:42:39.713764893,0,021,-0.23416279717989977,-0.08813298278220298,1.712707958163885,0.009462528765878745,-0.34282813482519187,0.29803920932522177,-2.076690837302407,0.8320285690190578,2
577,2024-09-27 16:42:39.781550049,0,021,-0.23487694728690237,-0.08391510947422214,1.604776423241808,-0.001843363620801444,-0.4254898783384621,0.30220451708511825,-1.5059901516244896,0.7921494546715185,2
578,2024-09-27 16:42:39.849238037,0,021,-0.23728585305858663,-0.07944077189690936,1.4643053455905737,-0.013488512569225227,-0.502835393227613,0.30339640210633245,-1.0390465041939376,0.7544407127746386,2
579,2024-09-27 16:42:39.907596191,0,021,-0.24153239019138414,-0.0747741967913949,1.3004121804486994,-0.024821217717733456,-0.5708730772700277,0.30113544961721356,-0.6984517684057333,0.7218834504093165,2
580,2024-09-27 16:42:39.972173828,0,021,-0.24723611133669796,-0.07019890764863612,1.1232244421692816,-0.03517823502926947,-0.6255848984776916,0.2949041509781834,-0.4981056212999925,0.6961156401871724,2
581,2024-09-27 16:42:40.052133057,0,021,-0.25344538824698143,-0.06621324686111797,0.9433098741241062,-0.04400227639089198,-0.6631184942068621,0.28417056344311936,-0.44389843571979465,0.6776455723022725,2
582,2024-09-27 16:42:40.119256104,0,021,-0.25868636638297493,-0.06348603205283915,0.7708892201147598,-0.05091541035656636,-0.6799676649577866,0.2684391430600687,-0.5340776831185501,0.6661021797594716,2
583,2024-09-27 16:42:41.033747070,0,021,-0.2611180447059945,-0.06278029010431271,0.6149274509306177,-0.055722076422453776,-0.6732018895095243,0.2473320440345315,-0.759112828895364,0.6603710903618334,2
584,2024-09-27 16:42:41.095391113,0,021,-0.2587668420801572,-0.06486181169109725,0.4823052360085186,-0.058351939262559334,-0.6408422792747637,0.22069065116188388,-1.1015174383301902,0.6585525971596711,2
585,2024-09-27 16:42:41.172884033,0,021,-0.24978650306689135,-0.07040819433241821,0.3772829219120754,-0.05878453846409275,-0.5823430411575294,0.18867101106287454,-1.5359905302506252,0.6577410093262644,2
586,2024-09-27 16:42:41.241483887,0,021,-0.23270076699317851,-0.07993177008172163,0.30137379524151103,-0.056995926155282324,-0.4989447827699097,0.15179866247034815,-2.030146700923304,0.6537651314899315,2
587,2024-09-27 16:42:41.309251952,0,021,-0.20660979849177757,-0.0937244809514656,0.2535996514854912,-0.05294698678232414,-0.39365758010138685,0.11095792426877804,-2.546197029679475,0.6411718975045663,2
588,2024-09-27 16:42:41.376939941,0,021,-0.17133659732431775,-0.11182380858085146,0.2309811154300637,-0.04660998769666547,-0.2708271943993067,0.0673172666760506,-3.043820628615341,0.6136927797005617,2
589,2024-09-27 16:42:41.444616943,0,021,-0.1274760717256872,-0.13399772562647963,0.2290865310109671,-0.03801622871139169,-0.13544201601789863,0.02221711680488986,-3.4839585300487785,0.5651883062581696,2
590,2024-09-27 16:42:42.377340088,0,021,-0.0763293123622782,-0.15975422847853965,0.2425639542995469,-0.02731698502491286,0.007581901178506432,-0.022948861177414365,-3.832724676529845,0.4908087899575164,2
591,2024-09-27 16:42:42.454977051,0,021,-0.019752686492782473,-0.18838101170601945,0.26569044106508877,-0.014856679382669633,0.15392635541048105,-0.06683528616577099,-4.064563152211849,0.38801374723896215,2
592,2024-09-27 16:42:42.523912109,0,021,0.04002448729047253,-0.21900853882037477,0.29293708194152573,-0.0012358489823361145,0.30007913642765816,-0.1082145237208375,-4.1640742286297465,0.25717898172263315,2
593,2024-09-27 16:42:42.591677002,0,021,0.10058807358475906,-0.25068269232163176,0.3194414082690723,0.012676155040535955,0.44323466787939614,-0.14601659453533788,-4.126302781331889,0.10168904209256056,2
594,2024-09-27 16:42:42.659388184,0,021,0.15954434357383682,-0.28244039141129496,0.34127782927190764,0.025804178959814024,0.5810461718804977,-0.1793592313211493,-3.9558679368097747,-0.07245233982997727,2
595,2024-09-27 16:42:42.727150879,0,021,0.21473920323444007,-0.31338662310472315,0.35554552139445517,0.0369963928006541,0.7114046009645552,-0.20757755422507512,-3.665748774153349,-0.2573887879438578,2
596,2024-09-27 16:42:42.794868896,0,021,0.2644464373062905,-0.34276321258515474,0.36041290161407813,0.04517209883087191,0.8322793524858667,-0.23023797565765194,-3.2762046793436097,-0.4443890234657932,2
597,2024-09-27 16:42:43.730846924,0,021,0.30748087049800615,-0.3699939019873511,0.35521967288837747,0.04943452264816419,0.9415810015040116,-0.24712822043473404,-2.813703340731643,-0.6248318204052231,2
