,time,MARKER,pid,L_O_DSI,L_D_DSI,L_O_DSphi,L_D_DSphi,R_O_DSI,R_D_DSI,R_O_DSphi,R_D_DSphi,trial_id
0,2024-09-27 16:25:10.060988928,TASK_BEGIN,021,0.018311689241279905,-0.13288889211019123,0.774177409006462,0.28847363627849953,1.3227718269910078,0.06428425321101808,-20.915607782539972,3.01223410074718,0
1,2024-09-27 16:25:10.129204224,TASK_BEGIN,021,0.005560309089472731,-0.09068275114129892,-0.11328456375212548,0.6771748735791664,0.7201397507209034,0.20743641110939057,-19.732905144466233,3.3158831714145123,0
2,2024-09-27 16:25:10.196107008,TASK_BEGIN,021,-0.0052079571057698035,-0.05001951431919407,-0.9749096709309052,1.053493676747357,0.13872097716222556,0.34692742108005203,-18.583664046935045,3.613055518969085,0
3,2024-09-27 16:25:10.262751232,TASK_BEGIN,021,-0.012781041859428898,-0.012264328706488845,-1.791710581788146,1.4068810707274095,-0.4049306401258925,0.47939699217078,-17.49844164940782,3.898575756448924,0
4,2024-09-27 16:25:10.332300032,TASK_BEGIN,021,-0.016340421744838355,0.021412778485576624,-2.548422422104465,1.7290033724608938,-0.8970711521252408,0.6018329017593627,-16.493884739093566,4.166746337311231,0
5,2024-09-27 16:25:10.400019712,TASK_BEGIN,021,-0.01552971023498709,0.05009831636159519,-3.233962123185542,2.0142057923722088,-1.3275075411352106,0.7116597457811289,-15.570703674600011,4.4113646634779276,0
6,2024-09-27 16:25:10.467685120,TASK_BEGIN,021,-0.010445451340903538,0.07316316184871914,-3.8410298221494372,2.2595638795000226,-1.6898692004896423,0.8067838907305669,-14.715109022568857,4.625950315145597,0
7,2024-09-27 16:25:11.411534080,TASK_BEGIN,021,-0.001561869354921072,0.09025871077210425,-4.365331875770409,2.4646090055827807,-1.9814255831476173,0.885598486282346,-13.902735702996596,4.804062474764284,0
8,2024-09-27 16:25:11.479271936,TASK_BEGIN,021,0.01037627097865318,0.10129214910827153,-4.804878622258896,2.6308395270580704,-2.2026112610412283,0.9469749351561729,-13.10410064839527,4.9397292927909,0
9,2024-09-27 16:25:11.546993920,TASK_BEGIN,021,0.02443493968068942,0.10639879986705388,-5.159535877096078,2.7611599585767426,-2.3564990342208687,0.9902870499216133,-12.290447040941157,5.028040941207164,0
10,2024-09-27 16:25:11.614649856,TASK_BEGIN,021,0.039518478138757945,0.10592354662009254,-5.430752210096404,2.859349329342805,-2.4483453262163883,1.0154784940411667,-11.438612463633936,5.065780364476301,0
11,2024-09-27 16:25:11.682425088,TASK_BEGIN,021,0.05438809871566697,0.10040237675425343,-5.621269457131676,2.9295797108533455,-2.4851625952641214,1.023127931160165,-10.533736770081315,5.051843678805653,0
12,2024-09-27 16:25:11.749308160,TASK_BEGIN,021,0.06773574473955161,0.09052592416744448,-5.734734921812732,2.975991993007193,-2.4752692032760253,1.0144590403643787,-9.56939319294668,4.987311913227534,0
13,2024-09-27 16:25:11.817843968,TASK_BEGIN,021,0.07831966368362997,0.07708339995689821,-5.77537444939741,3.0023633271861296,-2.4278578468005736,0.9912887884030553,-8.546071187846906,4.875256726291098,0
14,2024-09-27 16:25:12.732559104,TASK_BEGIN,021,0.08512008457225134,0.06090180423852308,-5.747991481587733,3.011910009103107,-2.3526243378031606,0.9559420120186362,-7.469868031285868,4.720502532935393,0
15,2024-09-27 16:25:12.795527168,TASK_BEGIN,021,0.08747906021972031,0.04279272657071102,-5.658375252343548,3.007265429236071,-2.259416250270457,0.9111412239683949,-6.352574748571981,4.5294867303793716,0
16,2024-09-27 16:25:12.872993024,TASK_BEGIN,021,0.08520000751769624,0.023510925107573792,-5.513861173725466,2.9906299904716906,-2.157807228072923,0.859851309969457,-5.212643248329502,4.310121598390135,0
17,2024-09-27 16:25:12.940684032,TASK_BEGIN,021,0.07858019004457084,0.003727694691678833,-5.323633970124932,2.964005674014632,-2.0565699398630124,0.8050816519060282,-4.075419744358752,4.071435679148012,0
18,2024-09-27 16:25:13.008424192,TASK_BEGIN,021,0.06835660998428503,-0.01597801853486491,-5.098589107028194,2.9293928849967723,-1.9631565617478848,0.7496926137699558,-2.9712459478271303,3.822863503140509,0
19,2024-09-27 16:25:13.076049152,TASK_BEGIN,021,0.055569776878991665,-0.03511335186817678,-4.850918857456129,2.8888865945299744,-1.883294568952146,0.696240763833962,-1.9314539852767092,3.573284323952074,0
20,2024-09-27 16:25:13.143739904,TASK_BEGIN,021,0.041386570027634205,-0.05326097037821106,-4.593641402067617,2.8446843809582516,-1.8206830353389278,0.6468505137707083,-0.9839809192430109,3.3301552513145727,0
21,2024-09-27 16:25:14.082545920,TASK_BEGIN,021,0.026950170297108448,-0.07007627059433869,-4.340030964609346,2.799044373706326,-1.776778943306223,0.6031016438392978,-0.15052127105628038,3.099080912205882,0
22,2024-09-27 16:25:14.145076992,TASK_BEGIN,021,0.013298198268583078,-0.0852928989928639,-4.1027842307178,2.754228330269867,-1.7507911851755955,0.5659579042563759,0.5543619942158796,2.883874819295174,0
23,2024-09-27 16:25:14.221858816,TASK_BEGIN,021,0.001324194882041604,-0.09872529705309421,-3.8929877927220304,2.712455504725468,-1.7400154664680303,0.5357646260315752,1.1228658790260908,2.6869480443265705,0
24,2024-09-27 16:25:14.285125120,TASK_BEGIN,021,-0.008262544687509383,-0.11025990573064132,-3.7191823177742296,2.675868419629629,-1.740502409733827,0.5123162535668095,1.5527794956633856,2.509858021442841,0
25,2024-09-27 16:25:14.357804032,TASK_BEGIN,021,-0.014972025480767487,-0.11983836376869995,-3.5867364655391243,2.646485288947423,-1.7478992108306968,0.4949761897887206,1.8455939093858234,2.353882709745525,0
26,2024-09-27 16:25:14.425515008,TASK_BEGIN,021,-0.018515951187568942,-0.1274430811111181,-3.497540545695358,2.6261059794757777,-1.7582300630787255,0.48282998933590543,2.0043274348867235,2.2204727967879943,0
27,2024-09-27 16:25:14.493184000,TASK_BEGIN,021,-0.01872164843801704,-0.13309515574906777,-3.4500077861593783,2.6161631567068353,-1.7684276241854195,0.4748574605517614,2.032098609576647,2.1114530229721034,0
28,2024-09-27 16:25:15.436162048,TASK_BEGIN,021,-0.015425962353980189,-0.13686569224086484,-3.4394612845717316,2.6175658263090096,-1.7765827648657424,0.4701043405223429,1.9322667381320076,2.028947413366223,0
29,2024-09-27 16:25:15.504800000,TASK_BEGIN,021,-0.008425247725134121,-0.13888781499238148,-3.458957066658854,2.630602585489072,-1.7819846213508481,0.46782029974638256,1.7098747924868398,1.975118830934085,0
30,2024-09-27 16:25:15.572510976,TASK_BEGIN,021,0.002485940140617748,-0.1393558098654841,-3.500408172632172,2.654902071236457,-1.785003425040068,0.4675293212323242,1.3733898524349484,1.9518056662729866,0
31,2024-09-27 16:25:15.640227072,TASK_BEGIN,021,0.017438398667036864,-0.1385136165086878,-3.5556895272078455,2.6893758014992573,-1.786858168496809,0.4690213148268166,0.9359402047328652,1.9600700831823081,0
32,2024-09-27 16:25:15.697657344,TASK_BEGIN,021,0.03645488504545558,-0.13664425079028975,-3.617412095452899,2.73211077428894,-1.7893674371445103,0.4722850811269798,0.41566638002046064,1.9997096718970893,0
33,2024-09-27 16:25:15.774545920,TASK_BEGIN,021,0.05948013620195935,-0.13406471981571608,-3.6792562250632783,2.7802764578207317,-1.7947657788619602,0.47741942152142275,-0.16494806064846634,2.0688752639587835,0
34,2024-09-27 16:25:15.843419904,TASK_BEGIN,021,0.08642189457469239,-0.131121556894258,-3.7359732895915765,2.830138440078021,-1.8055322061862165,0.484550622658548,-0.7806949332432657,2.1639583349519613,0
35,2024-09-27 16:25:16.787770112,TASK_BEGIN,021,0.11714421171767195,-0.12817904409053074,-3.7832779741491964,2.8772525682662566,-1.8241134494598057,0.4937667059162297,-1.4059168479780741,2.279840368729358,0
36,2024-09-27 16:25:16.855006208,TASK_BEGIN,021,0.15141054976927154,-0.12559484937159343,-3.8177943619428167,2.91688265457923,-1.8525457025088155,0.5050722095903487,-2.0165826637003628,2.4103946961747638,0
37,2024-09-27 16:25:16.923207936,TASK_BEGIN,021,0.18882897296929754,-0.1236859202568092,-3.8370462173805038,2.9445817774448084,-1.8921072668436392,0.5183638381656822,-2.590901961487186,2.5489608816571567,0
38,2024-09-27 16:25:16.990885888,TASK_BEGIN,021,0.22885031344187698,-0.12269704213502129,-3.8394326370872314,2.9567726797243226,-1.9430929068511908,0.5334118205757041,-3.108222980148477,2.6886740955858572,0
39,2024-09-27 16:25:17.058617088,TASK_BEGIN,021,0.2708214850753805,-0.12278432242788884,-3.824255939590646,2.9512027708363,-2.0046783916292283,0.5498239320242453,-3.547576344885259,2.8227890291672257,0
40,2024-09-27 16:25:17.126126848,TASK_BEGIN,021,0.31404894712999637,-0.12401432347234728,-3.7918863000254723,2.9272468841993193,-2.074835844686193,0.5669983151898933,-3.8874278911125906,2.945068048498643,0
41,2024-09-27 16:25:17.193052928,TASK_BEGIN,021,0.35782576069383404,-0.12637268376371058,-3.7439491971686394,2.8860277454545287,-2.15037908922811,0.5841097092968628,-4.107039258342267,3.050118394787536,0
42,2024-09-27 16:25:18.112814848,TASK_BEGIN,021,0.4014224800621697,-0.12977923780781708,-3.6833295852303087,2.8303030325942014,-2.227262865049141,0.6001625683675734,-4.188542167738511,3.1335631434409685,0
43,2024-09-27 16:25:18.180542976,TASK_BEGIN,021,0.44407610720262436,-0.13410659145650425,-3.6139652910283866,2.764139771384924,-2.3011011180066343,0.6140946952273049,-4.118269274295142,3.192033228411681,0
44,2024-09-27 16:25:18.248176896,TASK_BEGIN,021,0.484990801844873,-0.13919470129738698,-3.540539471333564,2.6924641675889744,-2.367694195741634,0.6248913513198319,-3.886852896324881,3.2231104942877096,0
45,2024-09-27 16:25:18.315737088,TASK_BEGIN,021,0.5233403323822001,-0.14485667052771387,-3.4680907638217224,2.6205592411576886,-2.42340916521112,0.6316868145378148,-3.489142387896144,3.225420537441445,0
46,2024-09-27 16:25:18.381509120,TASK_BEGIN,021,0.5582762978643184,-0.15087941359433973,-3.4014925486536893,2.553559045758492,-2.4654235433380083,0.6338477030847357,-2.9249285437311396,3.1989123265988697,0
47,2024-09-27 16:25:18.443993088,TASK_BEGIN,021,0.5889589314984472,-0.15702637680752873,-3.3448997279184125,2.4960060567618623,-2.4918554044531747,0.6310244709832398,-2.200369844067479,3.145169182545902,0
48,2024-09-27 16:25:18.506478080,TASK_BEGIN,021,0.6146160544721774,-0.16304422982914282,-3.301418241088609,2.451535791487418,-2.5017306206269896,0.6231473266241531,-1.3296888567232055,3.06759983177489,0
49,2024-09-27 16:25:19.459550976,TASK_BEGIN,021,0.6346226489518416,-0.16866707264547784,-3.2731686654666725,2.4226909383344895,-2.4947968216469576,0.6103669976009353,-0.3366066841999527,2.9714269661141812,0
50,2024-09-27 16:25:19.529580032,TASK_BEGIN,021,0.6485831857094506,-0.17361091841308396,-3.261640662478338,2.410827568475369,-2.4713232075858467,0.5929828390627785,0.7454504993628807,2.8633930849181515,0
51,2024-09-27 16:25:19.597302016,TASK_BEGIN,021,0.6563882780119825,-0.17756028968454923,-3.267970926504025,2.4160950387653015,-2.432020408379285,0.5714074127914449,1.8749905451100375,2.751131044508511,0
52,2024-09-27 16:25:19.664152064,TASK_BEGIN,021,0.6582236410592759,-0.18015785777118637,-3.2927678627388923,2.4374713083781443,-2.3780728056293414,0.5461800249376172,3.0053379760580157,2.6422766132571804,0
53,2024-09-27 16:25:19.732728064,TASK_BEGIN,021,0.6545396537030362,-0.1810108059456205,-3.335495000045666,2.4728325625369623,-2.3111908645920356,0.5180082607996942,4.08760617008245,2.5435379682297192,0
54,2024-09-27 16:25:19.800474880,TASK_BEGIN,021,0.6460116225730755,-0.1797218965473326,-3.3938461673679257,2.5190790183918597,-2.2336582090613133,0.4878136717147719,5.073374488348281,2.4599338992265016,0
55,2024-09-27 16:25:19.868168192,TASK_BEGIN,021,0.6335059103020455,-0.1759390136152306,-3.4635159942128735,2.5723487024771217,-2.1484217569360364,0.45675906866501526,5.91759904045571,2.3942789224741015,0
56,2024-09-27 16:25:20.811953152,TASK_BEGIN,021,0.6180444302975433,-0.1694070587333982,-3.5384362503039437,2.628303491104443,-2.0591997795130457,0.42622218141820906,6.582139255245328,2.34690278216632,0
57,2024-09-27 16:25:20.879696896,TASK_BEGIN,021,0.6007620341374553,-0.16001076992936,-3.6112905235063746,2.6824381703494184,-1.9704577635559144,0.39768673260754783,7.039449408227232,2.3156336774476634,0
58,2024-09-27 16:25:20.947180800,TASK_BEGIN,021,0.5828599393511207,-0.14780547456334758,-3.674031605566877,2.7303607371611616,-1.887124323663449,0.37256349520155924,7.2755517214968215,2.2961299194470546,0
59,2024-09-27 16:25:21.004834048,TASK_BEGIN,021,0.5655509972153309,-0.1330327828744779,-3.7182966424651798,2.7680326157245103,-1.814075127275663,0.3519903547308102,7.291651937966304,2.2825647354297165,0
60,2024-09-27 16:25:21.079322880,TASK_BEGIN,021,0.5499789682716341,-0.11611374050417095,-3.7360005044292586,2.7920232321051075,-1.7555408911106674,0.3366671543977319,7.104160618165529,2.2684950738798304,0
61,2024-09-27 16:25:21.150538752,TASK_BEGIN,021,0.537099594441533,-0.0976130514265566,-3.720428864787883,2.7998135490624527,-1.71464259559241,0.3267729938468138,6.743001445114804,2.2476927670466433,0
62,2024-09-27 16:25:21.203383040,TASK_BEGIN,021,0.5275422601576097,-0.07817924052827516,-3.667525622065687,2.7900635751457767,-1.693213365594335,0.32199061386880545,6.248176037191251,2.2148645374997433,0
63,2024-09-27 16:25:22.162042112,TASK_BEGIN,021,0.5215018332995146,-0.05848128007998405,-3.576553098405871,2.7627016703895526,-1.691903568039845,0.32161942673844673,5.665071535030467,2.166300883994,0
64,2024-09-27 16:25:22.229060864,TASK_BEGIN,021,0.5187120177670114,-0.039165932661291446,-3.4497484425280294,2.718798490589432,-1.7104049138007777,0.32472186098438,5.039578907981502,2.1003888612315773,0
65,2024-09-27 16:25:22.296724992,TASK_BEGIN,021,0.5185154625312799,-0.020842571180875548,-3.2914640432653592,2.660323761225716,-1.7476446273329644,0.3302490829846322,4.414062732714434,2.0177960779265787,0
66,2024-09-27 16:25:22.365214976,TASK_BEGIN,021,0.5199996932755097,-0.004079845139613492,-3.107477553507506,2.5898923437640256,-1.8019288159311542,0.3371288549494979,3.8246878524981343,1.9212383283351604,0
67,2024-09-27 16:25:22.432715776,TASK_BEGIN,021,0.5221582804451399,0.010604882990913446,-2.904699509892779,2.510544638070426,-1.8710704383095975,0.34433121128779953,3.3000579376614256,1.8149672921592546,0
68,2024-09-27 16:25:22.500487936,TASK_BEGIN,021,0.5240595634709063,0.02276811930833082,-2.691090134031667,2.4255771037887173,-1.9525240396244679,0.35092923792352826,2.8608355501189533,1.7041801729328283,0
69,2024-09-27 16:25:22.567696896,TASK_BEGIN,021,0.5250090706032423,0.03206733868481884,-2.4754523698393993,2.338409307340163,-2.043550688285212,0.35615717897554017,2.5200353319456483,1.5944806797131434,0
70,2024-09-27 16:25:23.487163136,TASK_BEGIN,021,0.5246680501216131,0.03828346456183449,-2.266842715066502,2.252436948755234,-2.1414074671327787,0.3594601932152936,2.2836839891527774,1.4914877802646844,0
71,2024-09-27 16:25:23.554880000,TASK_BEGIN,021,0.5230872387951769,0.041335248052942614,-2.073668874070081,2.1708394922267455,-2.243497225703243,0.3605331014544502,2.1514660171753084,1.4006402271711178,0
72,2024-09-27 16:25:23.622601984,TASK_BEGIN,021,0.5206523188383552,0.04128945601695218,-1.9028865883322643,2.096369456694454,-2.3474390591731815,0.3593512418072961,2.117292526462617,1.3271053084548088,0
73,2024-09-27 16:25:23.690409984,TASK_BEGIN,021,0.5179776240112804,0.03836941080414778,-1.759656770616588,2.0311726333907676,-2.4510950784524197,0.35619312350138543,2.1701237924053713,1.2756351242593453,0
74,2024-09-27 16:25:23.757267968,TASK_BEGIN,021,0.5157892771911782,0.03295414123383414,-1.6474153997469416,1.9766653459782806,-2.552591181658405,0.3516381413661109,2.2952081415183896,1.2503076940304236,0
75,2024-09-27 16:25:23.825814016,TASK_BEGIN,021,0.5148156447210356,0.02555872664511221,-1.5680295514796605,1.9334906768371032,-2.6503191523689265,0.34651393776762596,2.4757104085060693,1.2541788547052546,0
76,2024-09-27 16:25:23.893518080,TASK_BEGIN,021,0.5156883167820051,0.01679758214095384,-1.5218575487395736,1.901602007429604,-2.7428808600954127,0.3417885227557962,2.694917805713111,1.2888453577267234,0
77,2024-09-27 16:25:24.836695040,TASK_BEGIN,021,0.5188617304473476,0.007340172209554683,-1.5078156841614336,1.8804815179039474,-2.828975580138909,0.3384368955229899,2.9389921202029625,1.353919692470648,0
78,2024-09-27 16:25:24.904058112,TASK_BEGIN,021,0.5245621736738861,-0.0021347093704559106,-1.5235841013010012,1.8693941038880528,-2.9073271239679768,0.33732556521271934,3.1993214892650474,1.4466007056448607,0
79,2024-09-27 16:25:24.972184832,TASK_BEGIN,021,0.5327737229404373,-0.010986282168893474,-1.5659218401856045,1.8675576262675444,-2.9767531305368027,0.33913799876217804,3.473190254742374,1.5616890712033173,0
80,2024-09-27 16:25:25.032624896,TASK_BEGIN,021,0.543268798426507,-0.01866175703195858,-1.6309676808337492,1.8742074790094403,-3.036322825977183,0.3443319787395246,3.762403057968588,1.6922176716881316,0
81,2024-09-27 16:25:25.106969856,TASK_BEGIN,021,0.555679568673083,-0.024745388071314992,-1.7144383204953006,1.8886159353057983,-3.0854386740960087,0.35311159933639985,4.0707373426341045,1.8304573995923799,0
82,2024-09-27 16:25:25.175407872,TASK_BEGIN,021,0.5695814610302619,-0.028997699510515347,-1.8117321299319966,1.9101181280407,-3.1237792371029114,0.3654198852692353,4.40172415462126,1.968815248599367,0
83,2024-09-27 16:25:25.242483968,TASK_BEGIN,021,0.5845564798971895,-0.031373834286243296,-1.9180233917447413,1.9381308674457236,-3.151196157912252,0.38097274939802983,4.7578421204018655,2.1002717817555143,0
84,2024-09-27 16:25:26.184118016,TASK_BEGIN,021,0.6002339150307092,-0.03201551845723348,-2.028406231576471,1.9721164633265305,-3.167650338582041,0.3993237356022288,5.1408272055308935,2.2184203849701425,0
85,2024-09-27 16:25:26.252324096,TASK_BEGIN,021,0.6163261127300089,-0.031222154059574635,-2.138061733254352,2.0114906743846523,-3.1731495683176116,0.4199104589997848,5.551797636956555,2.3175199168970604,0
86,2024-09-27 16:25:26.319560960,TASK_BEGIN,021,0.6326589488932199,-0.029412029076457166,-2.2424326365448954,2.055535173363616,-3.1675998009773005,0.44204678340077247,5.990454380856042,2.3928762969030886,0
87,2024-09-27 16:25:26.387312896,TASK_BEGIN,021,0.6491773957938617,-0.027080244518233883,-2.3374803451190203,2.103372048243644,-3.150556019634188,0.46486808920265316,6.453744818121969,2.441425310420858,0
88,2024-09-27 16:25:26.451374080,TASK_BEGIN,021,0.6659155437213198,-0.02475250735771486,-2.4200518478626742,2.1540200785699284,-3.1209692858081155,0.4872688313511664,6.934649775326136,2.462149695538986,0
89,2024-09-27 16:25:26.522749952,TASK_BEGIN,021,0.6829376470985877,-0.02293345784125925,-2.4882088457673923,2.206519128579391,-3.0770744025707644,0.5078887923874507,7.421427439438739,2.45616296852897,0
90,2024-09-27 16:25:26.590478080,TASK_BEGIN,021,0.7002679309467119,-0.022055902710681485,-2.541321715515351,2.260053951772954,-3.0164995473589347,0.5251902462515234,7.897342595942509,2.426571198085559,0
91,2024-09-27 16:25:27.536841984,TASK_BEGIN,021,0.7178296984716348,-0.022441804809916328,-2.579835344089646,2.313959730016939,-2.9365775950201507,0.5376182950298174,8.340731919401364,2.378243984512839,0
92,2024-09-27 16:25:27.600834048,TASK_BEGIN,021,0.7354040910942524,-0.02428223801599826,-2.6047337244804605,2.3675472836642677,-2.834805946881572,0.5437981810661331,8.725422252395889,2.317510082114507,0
93,2024-09-27 16:25:27.672395008,TASK_BEGIN,021,0.7526073132715952,-0.027637952301561675,-2.6168705510509667,2.4198335220092617,-2.70939451512537,0.5427203580833504,9.02190069043219,2.2517836442003487,0
94,2024-09-27 16:25:27.740094976,TASK_BEGIN,021,0.768886253562987,-0.032458578007113006,-2.6164469999313034,2.4693427575053515,-2.5597836909272424,0.5338740190772999,9.199583658230205,2.1891511235998644,0
95,2024-09-27 16:25:27.807836928,TASK_BEGIN,021,0.7835437513358913,-0.03861733038942395,-2.6028273686430596,2.514066204604058,-2.386991692126609,0.5173064518153253,9.229832465495926,2.1379080744708525,0
96,2024-09-27 16:25:27.875022080,TASK_BEGIN,021,0.7958092408483572,-0.04595564485045169,-2.574663487830005,2.551540453770406,-2.1937390748799905,0.49361192885040844,9.088792694503844,2.1060304642479672,0
97,2024-09-27 16:25:27.943305984,TASK_BEGIN,021,0.804953998329248,-0.05432639403915072,-2.530245056916004,2.578990644130257,-1.9843726742925867,0.4638660992383617,8.75950315128331,2.1005874596626755,0
98,2024-09-27 16:25:28.862495744,TASK_BEGIN,021,0.8104292035831887,-0.06362309338673065,-2.4680632387426242,2.5935636148968877,-1.7645837380015286,0.42950916109537823,8.233415061367698,2.1271190039927914,0
99,2024-09-27 16:25:28.930496000,TASK_BEGIN,021,0.8119985628793513,-0.07379007861850578,-2.387491170863138,2.5926884422969794,-1.5409216494678368,0.39217694775863693,7.511573336400618,2.189040152805948,0
100,2024-09-27 16:25:28.990978048,TASK_BEGIN,021,0.8098350179375836,-0.08481767955523481,-2.289339542974427,2.5745083613448787,-1.320200634832616,0.3535033281585078,6.605536140146977,2.2871122328584694,0
101,2024-09-27 16:25:29.065884928,TASK_BEGIN,021,0.8045555640450143,-0.09672896070360451,-2.176109366503111,2.538266878486548,-1.108921034484862,0.31493642584151754,5.537841313942923,2.4190060991760856,0
102,2024-09-27 16:25:29.133052928,TASK_BEGIN,021,0.7971906432889486,-0.10955984602200061,-2.0519640885488264,2.4845572373609706,-0.9127493253326358,0.27760293019814664,4.341392027409105,2.5791090044012672,0
103,2024-09-27 16:25:29.200866048,TASK_BEGIN,021,0.7891028507132837,-0.12333133817944394,-1.922553193799276,2.4153840037758205,-0.7360896230933036,0.24224141186557213,3.0573327821344645,2.7587805726502315,0
104,2024-09-27 16:25:29.269035264,TASK_BEGIN,021,0.7818728236113135,-0.13802049098280098,-1.7947850448483742,2.3340217048706715,-0.581855607794843,0.20921534314626147,1.732023529518615,2.947080046608246,0
105,2024-09-27 16:25:30.211876096,TASK_BEGIN,021,0.7771693552590114,-0.15354467669576155,-1.6765010030402607,2.244701580657224,-0.4515383798206402,0.17859600618106192,0.4143237075663998,3.131789614643057,0
106,2024-09-27 16:25:30.280298752,TASK_BEGIN,021,0.7766097901996426,-0.16976226007562945,-1.5759191574601252,2.1521895416386108,-0.34551631002003735,0.15028110434108335,-0.8460972824091538,3.300508224944418,0
107,2024-09-27 16:25:30.348034048,TASK_BEGIN,021,0.7816089275542324,-0.18647435077913288,-1.500894041788598,2.0613456076090078,-0.2634453668448699,0.12410870042394659,-1.9995788567982529,3.4416192662343583,0
108,2024-09-27 16:25:30.414956032,TASK_BEGIN,021,0.7932347391910123,-0.2034160585061044,-1.4582152567818822,1.9767635897606841,-0.20460315910585947,0.0999458809189412,-2.997201477861035,3.545030072767488,0
109,2024-09-27 16:25:30.483479040,TASK_BEGIN,021,0.8121072289587843,-0.22024509577633838,-1.453019069045059,1.9025202068032037,-0.1681257257640359,0.07775274422308535,-3.7925093009679602,3.602737316637271,0
110,2024-09-27 16:25:30.551238912,TASK_BEGIN,021,0.8383539213222931,-0.23654043727739435,-1.4882352548422275,1.8419703789612862,-0.15308786149717535,0.05761710808033765,-4.344861904149595,3.6093370199075556,0
111,2024-09-27 16:25:30.618941952,TASK_BEGIN,021,0.8715994256521278,-0.2518126285769573,-1.564157778170149,1.7975458043854737,-0.1584402005061862,0.039751365360904685,-4.623812046483004,3.5624879558158282,0
112,2024-09-27 16:25:31.561070080,TASK_BEGIN,021,0.9109704365800411,-0.2655210647600481,-1.6783760032651875,1.770620000296944,-0.18296159280978364,0.024472784898710326,-4.612946116293895,3.4632065493909647,0
113,2024-09-27 16:25:31.630458880,TASK_BEGIN,021,0.9551339684402419,-0.2770972930092926,-1.8261373417586608,1.7615283885509885,-0.22536798008402456,0.012197513029645309,-4.311723194462902,3.315842419116511,0
114,2024-09-27 16:25:31.696553984,TASK_BEGIN,021,1.0023933843645731,-0.2859773750570924,-2.000981767980999,1.7697360730630134,-0.2844739897501171,0.003430233652989283,-3.7346345462208714,3.1276187296003504,0
115,2024-09-27 16:25:31.764451840,TASK_BEGIN,021,1.0508271566685923,-0.29164371011573365,-2.195451692302759,1.794043961943664,-0.35917792844498125,-0.0012918748718888048,-2.908096410595992,2.9077402159855947,0
116,2024-09-27 16:25:31.822274816,TASK_BEGIN,021,1.0984289836447019,-0.2936693276409459,-2.4017493920612063,1.8327175867479328,-0.4481844412171327,-0.0014972010819162057,-1.8666044881133284,2.666299913171515,0
117,2024-09-27 16:25:31.901300992,TASK_BEGIN,021,1.143231038679092,-0.2917541764664339,-2.612215172913485,1.8835053690480037,-0.5495662154041974,0.0031234422503260044,-0.6500345613157862,2.413372694189546,0
118,2024-09-27 16:25:31.968760064,TASK_BEGIN,021,1.183427434814224,-0.2857497414814756,-2.819464493529218,1.9435909015629835,-0.6603472032654045,0.012651708244537908,0.6970022373834385,2.158568294598854,0
119,2024-09-27 16:25:32.913070080,TASK_BEGIN,021,1.2175150364173728,-0.2756782621736641,-3.0161430469882458,2.0095517627238686,-0.7762669764119342,0.02690741081599713,2.1245197111281637,1.9110086485976885,0
120,2024-09-27 16:25:32.980837888,TASK_BEGIN,021,1.2444265067541236,-0.26175004902287363,-3.1945221857672874,2.0773991190826817,-0.8918283486233002,0.04543789583634643,3.577035519397012,1.679449622803683,0
121,2024-09-27 16:25:33.048580864,TASK_BEGIN,021,1.2635921409179367,-0.24436849631623692,-3.346303859399991,2.1427524873294557,-1.0006975655793688,0.06754472104708695,4.9953756403849905,1.4722402756653876,0
122,2024-09-27 16:25:33.116267776,TASK_BEGIN,021,1.2748914826635325,-0.22411062020523168,-3.4629139004673517,2.2011752160100246,-1.0964218450638705,0.0923640935284872,6.320373025026936,1.2970112100112816,0
123,2024-09-27 16:25:33.183986944,TASK_BEGIN,021,1.2785275421654063,-0.20168830781213498,-3.536307913881851,2.2486524055384587,-1.1732570509003326,0.1189832830255875,7.497356693370753,1.1602292429519003,0
124,2024-09-27 16:25:33.251723264,TASK_BEGIN,021,1.2748963340410484,-0.17790758882334234,-3.5600257213709536,2.282107726346957,-1.2268583408826614,0.14654433252285437,8.48053866886578,1.0667786685373537,0
125,2024-09-27 16:25:33.318644992,TASK_BEGIN,021,1.2644899592391319,-0.15363143134443513,-3.5301154401765427,2.299797969232455,-1.254680449514226,0.1742935339173623,9.23685902236523,1.0195964619748568,0
126,2024-09-27 16:25:34.250982912,TASK_BEGIN,021,1.2478101485880895,-0.1297318835649007,-3.445671901652849,2.3014596783321633,-1.2560426746413054,0.2015746190968801,9.748488459260457,1.0194115193000084,0
127,2024-09-27 16:25:34.328299008,TASK_BEGIN,021,1.2252689343699685,-0.10701949852120231,-3.3089061479971353,2.2881655359977167,-1.2319534380612633,0.22780218683626682,10.012936217227532,1.0647927179437868,0
128,2024-09-27 16:25:34.398778880,TASK_BEGIN,021,1.1971120662813999,-0.08616221099666889,-3.1247833851220457,2.2619462633067307,-1.1849103143121245,0.2524606630997437,10.040441843624578,1.152681026690784,0
129,2024-09-27 16:25:34.451311104,TASK_BEGIN,021,1.1634192087035204,-0.06762169549707554,-2.9003885434863346,2.225327144697266,-1.1188423618626329,0.2751499860283606,9.849457789024235,1.2792700645869635,0
130,2024-09-27 16:25:34.528155136,TASK_BEGIN,021,1.1241861458538835,-0.05162691781588266,-2.6442825807101036,2.1809473474282854,-1.039157568316966,0.2956538918530887,9.461960090322961,1.4407826197287517,0
131,2024-09-27 16:25:34.601772032,TASK_BEGIN,021,1.079451953365041,-0.03818662068404564,-2.366085396041448,2.13135035655951,-0.9526976976802998,0.31397846199493445,8.900530881687983,1.6337031042674806,0
132,2024-09-27 16:25:34.666995968,TASK_BEGIN,021,1.0294274542952213,-0.02712875974648582,-2.0762877320060853,2.078915550554602,-0.8674149760579605,0.330330492938709,8.188001931526586,1.8543872132222434,0
133,2024-09-27 16:25:35.584455936,TASK_BEGIN,021,0.9745874082961086,-0.01814953878843035,-1.786080723455473,2.025839738379153,-0.7917335337475386,0.3450491037325773,7.348870397831619,2.0983367514726337,0
134,2024-09-27 16:25:35.655649024,TASK_BEGIN,021,0.9157065411754971,-0.010861716378630362,-1.5070755245389464,1.974122943751802,-0.7337413769334216,0.35852773264521626,6.411235676426281,2.3594954820168197,0
135,2024-09-27 16:25:35.723251968,TASK_BEGIN,021,0.8538390921282519,-0.004842278735645673,-1.2509564382050398,1.9255768121007466,-0.7004389713186026,0.37115499465363394,5.408319830753238,2.6297939529662244,0
136,2024-09-27 16:25:35.791075072,TASK_BEGIN,021,0.790244354382145,0.00032325329649405133,-1.0290632297614355,1.8818453696911668,-0.6971938743926163,0.38327698036083263,4.378888408153714,2.8990769354794703,0
137,2024-09-27 16:25:35.858800128,TASK_BEGIN,021,0.7262684878914059,0.005010257103286331,-0.851766032442749,1.8443675536846127,-0.7274260046934803,0.3951772050521293,3.3662747728731124,3.1554639547933454,0
138,2024-09-27 16:25:35.926529792,TASK_BEGIN,021,0.6632185890926362,0.009541015681655792,-0.7275828463423084,1.8142562442315784,-0.7924430358783159,0.40707636146575726,2.416241007586205,3.3860801891582892,0
139,2024-09-27 16:25:35.987269120,TASK_BEGIN,021,0.602276175210819,0.014175351217205966,-0.6622759462223283,1.7921810592057414,-0.8913116161906941,0.4191364364969578,1.5741127064972262,3.578068401693309,0
140,2024-09-27 16:25:36.931180800,TASK_BEGIN,021,0.5444759111974234,0.019092706792430452,-0.6582583247433395,1.778352903167369,-1.0207719435301221,0.4314437387874848,0.8815365090728539,3.719802105088773,0
141,2024-09-27 16:25:36.993153024,TASK_BEGIN,021,0.49073695062557154,0.024366296380359552,-0.7144085876543721,1.7725952145137271,-1.1753163769462873,0.44397278206293433,0.3733442881136808,3.802095194541613,0
142,2024-09-27 16:25:37.070370048,TASK_BEGIN,021,0.4419037755401005,0.029946190856959192,-0.8262126772322473,1.7744038831974491,-1.3474857015994584,0.4565562941631623,0.07517031888269868,3.819111398381103,0
143,2024-09-27 16:25:37.132012032,TASK_BEGIN,021,0.39875233851524916,0.035671431540852505,-0.9862184615143339,1.7829461547759542,-1.5283621122500664,0.46888068255906995,0.0018749481261243275,3.768864343775735,0
144,2024-09-27 16:25:37.194561024,TASK_BEGIN,021,0.3619451467399813,0.04131450285018648,-1.1848160599567386,1.7970426693252177,-1.7082382439698778,0.4805062375263724,0.15597484896317002,3.6534479007059275,0
145,2024-09-27 16:25:37.274981888,TASK_BEGIN,021,0.331952444296453,0.04664124315933373,-1.4112010377802724,1.8151837198887366,-1.8773755317584702,0.4908937781212247,0.5256442701205447,3.4791062923723994,0
146,2024-09-27 16:25:37.334295808,TASK_BEGIN,021,0.3089748004458942,0.051464640548095394,-1.6543060032277255,1.835584051321532,-2.0266925752068516,0.49942497200158553,1.0832955433976588,3.2560580701138924,0
147,2024-09-27 16:25:38.286457088,TASK_BEGIN,021,0.29290535112497024,0.05567755921566117,-1.9035894496749377,1.856271828270171,-2.1482893042022537,0.5054281725812836,1.7863827243841683,2.997961206965103,0
148,2024-09-27 16:25:38.350290944,TASK_BEGIN,021,0.2833618546788116,0.059256249834283334,-2.1496294059529766,1.875214018525843,-2.2358352678244526,0.5082286370921109,2.5811348831074983,2.721015405162751,0
149,2024-09-27 16:25:38.421932800,TASK_BEGIN,021,0.27979214464160906,0.06223267784906796,-2.38449161842012,1.8904812395157058,-2.28489852098359,0.5072236651792064,3.408600025826244,2.4427072294140624,0
150,2024-09-27 16:25:38.489646080,TASK_BEGIN,021,0.28161030392417985,0.06464374107156855,-2.601956496728426,1.9004643450233631,-2.293256043709472,0.5019643071018218,4.211616854705012,2.180240033802256,0
151,2024-09-27 16:25:38.551864064,TASK_BEGIN,021,0.288282615888416,0.06647896534174179,-2.797690641383442,1.9041274521074145,-2.26112920349274,0.4922140228960337,4.941131904176246,1.9489159713393214,0
152,2024-09-27 16:25:38.612389888,TASK_BEGIN,021,0.2993058861443648,0.06765157691844133,-2.969217750823306,1.9012206674972865,-2.1912017810153888,0.4779591642495384,5.5606800317567195,1.7608377515314881,0
153,2024-09-27 16:25:38.690054912,TASK_BEGIN,021,0.31411092849247363,0.06800267659135814,-3.115482917631969,1.8923674480083306,-2.0883419510447476,0.4593802087524704,6.048689871062575,1.6240727706965055,0
154,2024-09-27 16:25:39.596850176,TASK_BEGIN,021,0.33199123359455573,0.06732867232580303,-3.23612617447092,1.878997012758054,-1.9591152111717332,0.4368222183769492,6.398835257861151,1.5422320939064391,0
155,2024-09-27 16:25:39.674403840,TASK_BEGIN,021,0.35213142442544515,0.06541366102163886,-3.330849383802336,1.8631535927896952,-1.8112276599964665,0.41078453108984614,6.618689679639319,1.5144590160861877,0
156,2024-09-27 16:25:39.746587904,TASK_BEGIN,021,0.3737306573523238,0.06205439207957019,-3.399156107523929,1.8472478245943054,-1.6529639661354238,0.3819133579023314,6.72701639155902,1.5358152044977313,0
157,2024-09-27 16:25:39.814071040,TASK_BEGIN,021,0.39615619661779367,0.0570797987065211,-3.4404661991648857,1.8338040999019536,-1.492637609098615,0.35097867225539725,6.750276430385926,1.5979340159894817,0
158,2024-09-27 16:25:39.876071936,TASK_BEGIN,021,0.4190565963589364,0.05037268898009493,-3.454424246082284,1.8252182131868098,-1.3380754116862583,0.31883674074434876,6.719037519423853,1.6898157405803351,0
159,2024-09-27 16:25:39.938658816,TASK_BEGIN,021,0.442398585177246,0.0418903755964526,-3.4412266293629483,1.8235174610694707,-1.1961657691537677,0.28638568591785457,6.664918031958992,1.7987209969968847,0
160,2024-09-27 16:25:40.017379072,TASK_BEGIN,021,0.4664239219687472,0.031673584809143306,-3.401914813577543,1.8301265620216627,-1.072526074743536,0.2545190605430497,6.618411939786994,1.9111276261252628,0
161,2024-09-27 16:25:40.961273856,TASK_BEGIN,021,0.49153837665996986,0.01984189291226489,-3.3386365862523673,1.845668357217838,-0.9713296779776072,0.22408516360449052,6.607227026453678,2.0137611241815896,0
162,2024-09-27 16:25:41.028491008,TASK_BEGIN,021,0.5181677682306686,0.006582559904449743,-3.254769240632206,1.8698313562865732,-0.8952449631258208,0.1958633067258379,6.654283198087291,2.0947799888116974,0
163,2024-09-27 16:25:41.083298816,TASK_BEGIN,021,0.5466365285008403,-0.007862959803009894,-3.1547073552096485,1.9013134669526928,-0.8454500459716269,0.17057515557312544,6.77513372808615,2.145084651335027,0
164,2024-09-27 16:25:41.160527104,TASK_BEGIN,021,0.5771053601443094,-0.023213494267689375,-3.0433080530536274,1.9378586542903136,-0.8217679086138812,0.14893616905502427,6.975636545555,2.1594826793212722,0
165,2024-09-27 16:25:41.222596864,TASK_BEGIN,021,0.6095544752917061,-0.03916068841671424,-2.9253015080111617,1.976436288586268,-0.8228681608233962,0.13169931441068086,7.250886184233254,2.137331489814472,0
166,2024-09-27 16:25:41.299814912,TASK_BEGIN,021,0.6437676674513306,-0.055376902442109154,-2.804925812284216,2.0135834372695394,-0.8463717309705192,0.11962349437474187,7.585924581015954,2.0823314143812124,0
167,2024-09-27 16:25:41.367372032,TASK_BEGIN,021,0.6792910652045866,-0.07151733734483405,-2.685707946874426,2.0458462633482606,-0.8888819137788669,0.11336488926970227,7.958330537956162,2.001363302255785,0
168,2024-09-27 16:25:42.311385088,TASK_BEGIN,021,0.7153925114042647,-0.08721637877488661,-2.570255518713355,2.070205314216285,-0.9461668909156308,0.1133540878809303,8.342135950331304,1.9026949657382202,0
169,2024-09-27 16:25:42.379098880,TASK_BEGIN,021,0.7510782122698424,-0.1020834689620434,-2.460154377052659,2.0843746689729152,-1.0135781253700726,0.11970591468896453,8.711758888506266,1.7942104169162265,0
170,2024-09-27 16:25:42.446813952,TASK_BEGIN,021,0.785191054663024,-0.11570763936372001,-2.3561250561138496,2.0869345102996797,-1.086547169823523,0.13216163660552802,9.044830559311434,1.6821800689686577,0
171,2024-09-27 16:25:42.514458112,TASK_BEGIN,021,0.8165504333665468,-0.12767191986022344,-2.2583680710539475,2.0773507060524077,-1.1609701859535666,0.15005465461925663,9.323767092931929,1.5706955675218135,0
172,2024-09-27 16:25:42.580962816,TASK_BEGIN,021,0.8440738509863369,-0.13756992403652735,-2.166838167316756,2.0559554328987883,-1.2333894288722969,0.17231048767962737,9.536486926541853,1.461674295563391,0
173,2024-09-27 16:25:42.649871104,TASK_BEGIN,021,0.8668674749247828,-0.14502180125027272,-2.0813451626595576,2.0239336510944175,-1.3009941588788942,0.19749924401783794,9.676784688994822,1.3552752545654008,0
174,2024-09-27 16:25:42.717551104,TASK_BEGIN,021,0.8843071064998439,-0.14969403452608765,-2.0016839532680106,1.9833350273369588,-1.3615367384292225,0.22394514720666106,9.745083014551852,1.2504342388549925,0
175,2024-09-27 16:25:43.661451264,TASK_BEGIN,021,0.8960984900923242,-0.15132288302086844,-1.927928713568423,1.9370631315967568,-1.4132146098209108,0.24987342550677366,9.749863292862388,1.145206099245482,0
176,2024-09-27 16:25:43.726222848,TASK_BEGIN,021,0.9022836708916397,-0.149737556136901,-1.8606982529656342,1.8887225733110593,-1.4544803121504943,0.273552631765058,9.708721849658582,1.036924830190504,0
177,2024-09-27 16:25:43.788370176,TASK_BEGIN,021,0.9032010104977932,-0.14488467799946775,-1.8011962838894566,1.8422552180821508,-1.483780756647333,0.29339605652135897,9.647403280205264,0.9225003962269553,0
178,2024-09-27 16:25:43.863845888,TASK_BEGIN,021,0.899434093274034,-0.13685313485582196,-1.7511103128502674,1.8014485469993728,-1.4993443947346257,0.3080282941380189,9.596405393924192,0.7990448722399729,0
179,2024-09-27 16:25:43.932382976,TASK_BEGIN,021,0.8917656289599815,-0.12588917019412033,-1.7125331994047461,1.7694922247964182,-1.4991356095180817,0.3163565956456114,9.586343746159562,0.664673008530486,0
180,2024-09-27 16:25:43.999728896,TASK_BEGIN,021,0.8811364562515219,-0.11239574771622994,-1.6879576348599103,1.748710489600571,-1.480992237599065,0.31766928474868666,9.643507171842108,0.5191867054287582,0
181,2024-09-27 16:25:44.067728896,TASK_BEGIN,021,0.8686027834019581,-0.09692009784720902,-1.680314512829016,1.7404741446179768,-1.442903270216015,0.3117383830540301,9.786401220052138,0.3644593754958894,0
182,2024-09-27 16:25:45.011507968,TASK_BEGIN,021,0.8552774170044504,-0.08013018675110864,-1.6929190464540063,1.7451949359765107,-1.3833689765634496,0.2988814666558013,10.02372013593223,0.20447154947120447,0
183,2024-09-27 16:25:45.066626048,TASK_BEGIN,021,0.8422489969237265,-0.0627728083458721,-1.7291125357633887,1.76230219560029,-1.301777162043082,0.2799568245294867,10.35394491863282,0.04503767588409311,0
184,2024-09-27 16:25:45.143915008,TASK_BEGIN,021,0.8304906952290041,-0.045609577796283295,-1.791587232053991,1.7902094272767397,-1.1987375751522982,0.25629463318976115,10.766216561463361,-0.10666340203795388,0
185,2024-09-27 16:25:45.205969920,TASK_BEGIN,021,0.8207750603863847,-0.02933960355304959,-1.881705481423167,1.8263832416920545,-1.076290328568002,0.22957172663819483,11.241806795060494,-0.2426213879217886,0
186,2024-09-27 16:25:45.281647872,TASK_BEGIN,021,0.8135996574514619,-0.014526358102756286,-1.9991469151000358,1.867603346154738,-0.9378605581716133,0.20163479756272418,11.7557985587635,-0.3545439872409868,0
187,2024-09-27 16:25:45.345784832,TASK_BEGIN,021,0.8091230588371413,-0.0015468441398730692,-2.1418921581600356,1.9103695145608648,-0.7878947054751376,0.17429244815053757,12.27904124921069,-0.43448656821709564,0
188,2024-09-27 16:25:45.408272896,TASK_BEGIN,021,0.8071348224777146,0.00942557789517513,-2.3062745390069095,1.9513109606003,-0.6312895334340155,0.14912062479258703,12.780621556811564,-0.475625867449245,0
189,2024-09-27 16:25:46.337111040,TASK_BEGIN,021,0.8071001928335134,0.018405459128673914,-2.4869145871721186,1.9874892618543194,-0.4728587063172692,0.1273298409213898,13.230759684569744,-0.4731077372070346,0
190,2024-09-27 16:25:46.404849152,TASK_BEGIN,021,0.8082859664920754,0.025556576676839766,-2.67663632293773,2.01659153540801,-0.3170563897339009,0.10971522116374116,13.603352212417764,-0.4247376121899142,0
191,2024-09-27 16:25:46.472542976,TASK_BEGIN,021,0.809913756445804,0.031143402869762804,-2.866585734323357,2.037058015734941,-0.1680406947297112,0.09668194991696094,13.877448083856365,-0.3313087551558753,0
192,2024-09-27 16:25:46.533293824,TASK_BEGIN,021,0.8112663621768178,0.03548626548557646,-3.0466559591860203,2.04816021258366,-0.029990020988403088,0.08832847477561041,14.037985501607217,-0.19659708703219655,0
193,2024-09-27 16:25:46.608006912,TASK_BEGIN,021,0.8117216957071537,0.03892654619088681,-3.206180145766408,2.049998955156593,0.09258319570738456,0.08455438603612235,14.076525708839428,-0.027153680194063806,0
194,2024-09-27 16:25:46.673125888,TASK_BEGIN,021,0.8107598038171887,0.04179649293506711,-3.33482144339209,2.0433806560078125,0.19481494777385425,0.08514784843550714,13.992036226792038,0.1681054559581947,0
195,2024-09-27 16:25:46.743438848,TASK_BEGIN,021,0.8080058092861273,0.04438642735160189,-3.4235630185856296,2.029584650912215,0.27188118385417853,0.08982864127575649,13.791334977958545,0.3785354108830131,0
196,2024-09-27 16:25:47.687025152,TASK_BEGIN,021,0.8033150414485176,0.04690933149831411,-3.465598032469299,2.0101156661041935,0.3196775401088142,0.09825016932568936,13.488954382101628,0.592486140819051,0
197,2024-09-27 16:25:47.754759936,TASK_BEGIN,021,0.7968363941197917,0.04946860256995861,-3.4569220904170197,1.9865501965896646,0.33556097590028183,0.10996988652621396,13.106196165246764,0.797967197740207,0
198,2024-09-27 16:25:47.811089152,TASK_BEGIN,021,0.7889899639706787,0.05203791393742983,-3.3966202612908494,1.9605033168932469,0.3189237455788543,0.12440559175488534,12.669220238828128,0.9833041052979747,0
199,2024-09-27 16:25:47.887917056,TASK_BEGIN,021,0.7803689732057921,0.054461014650642244,-3.2869841838681215,1.9336564277443624,0.2714167788622347,0.1408084407408498,12.206647456684593,1.1379025192063579,0
200,2024-09-27 16:25:47.949976832,TASK_BEGIN,021,0.7716364087936541,0.056470700123963456,-3.133545112291849,1.9077799145062657,0.196754198603169,0.15827836792136554,11.747485763480816,1.2530820872440611,0
201,2024-09-27 16:25:48.025437952,TASK_BEGIN,021,0.7634699237901228,0.05771878093104972,-2.9449561121791374,1.8847085998272999,0.10016271482351168,0.1758285916921431,11.319431992864972,1.322853911749331,0
202,2024-09-27 16:25:48.089207040,TASK_BEGIN,021,0.7565404510132028,0.05781307949570994,-2.7324999176927323,1.8662125625589823,-0.012382417111534812,0.1924868418006017,10.946917949782582,1.344569964755761,0
203,2024-09-27 16:25:49.029267968,TASK_BEGIN,021,0.7514681787346355,0.0563651940862217,-2.5090200741564743,1.8537076008124493,-0.13493523400918953,0.2074013071331679,10.648791258017498,1.319339718427106,0
204,2024-09-27 16:25:49.091273984,TASK_BEGIN,021,0.748729388377938,0.05305019945986915,-2.287479620962988,1.8478610685315027,-0.26213296569425787,0.2199102642832719,10.436396115890576,1.2520081085840677,0
205,2024-09-27 16:25:49.168466176,TASK_BEGIN,021,0.7485472278497086,0.04766994871743336,-2.0797667808256217,1.848299255631051,-0.38938402715926,0.22955464280650434,10.312725765410217,1.1506050000632664,0
206,2024-09-27 16:25:49.230503168,TASK_BEGIN,021,0.7508171474848675,0.040204638787366506,-1.8961460555895995,1.853627133846261,-0.5127778479307564,0.23605339404504252,10.27244667057612,1.0254578640237844,0
207,2024-09-27 16:25:49.307749120,TASK_BEGIN,021,0.7550911677940947,0.030835270236048713,-1.7451627216311247,1.8617894486409385,-0.6289399060133413,0.2392813827137589,10.302292166607456,0.8882288060832015,0
208,2024-09-27 16:25:49.370337024,TASK_BEGIN,021,0.7606227464712072,0.019927955324729598,-1.6335740554777707,1.8705858463813383,-0.7349426720603738,0.23926305564387998,10.3818929258243,0.7509538494574347,0
209,2024-09-27 16:25:49.433125888,TASK_BEGIN,021,0.7664648977237908,0.007990324359518922,-1.566041794241007,1.878081827004524,-0.8282174666560606,0.23615837511080676,10.485457188963347,0.625062666236382,0
210,2024-09-27 16:25:50.350126848,TASK_BEGIN,021,0.7715964077609525,-0.0043783062062792664,-1.5446024683721056,1.8827876068415395,-0.9064278113798464,0.2302221286319164,10.584563380955057,0.5204335731531576,0
211,2024-09-27 16:25:50.430468096,TASK_BEGIN,021,0.7750373467598458,-0.016530800977474544,-1.568167283749199,1.8836652956078794,-0.9673763303669389,0.22175217943305056,10.651992677254304,0.4446099840611178,0
212,2024-09-27 16:25:50.498173184,TASK_BEGIN,021,0.7759316403215955,-0.027811953552536954,-1.6323173587108968,1.8800918865262068,-1.0090599490007397,0.211055692353915,10.665629136184215,0.4023476121100568,0
213,2024-09-27 16:25:50.565902848,TASK_BEGIN,021,0.7736059196094135,-0.037599105507798325,-1.729507894594994,1.8718485026737284,-1.0299196721552577,0.19844031497031192,10.610816616980298,0.3956386038464991,0
214,2024-09-27 16:25:50.633625088,TASK_BEGIN,021,0.7676266626603588,-0.045348171393836685,-1.8496729582777391,1.8591261722392471,-1.0291588398931166,0.18421070602328307,10.480670952908913,0.42411410097024305,0
215,2024-09-27 16:25:50.700936960,TASK_BEGIN,021,0.7578665705472714,-0.050649104711220354,-1.9811422179142602,1.8425100619966859,-1.0068920310423128,0.16865109987245036,10.275341913063832,0.48550258662983303,0
216,2024-09-27 16:25:50.768976896,TASK_BEGIN,021,0.7445706164409803,-0.05328621013805651,-2.1117163770174945,1.8229371724588581,-0.9640186056551253,0.1519998187151709,10.00112162069821,0.5759531754573735,0
217,2024-09-27 16:25:51.703499008,TASK_BEGIN,021,0.7283909518040671,-0.05328502343839347,-2.229777225816608,1.8016517337116291,-0.9019396175676505,0.1344414369633113,9.669570204518397,0.6902695432050202,0
218,2024-09-27 16:25:51.765530112,TASK_BEGIN,021,0.7103543788521964,-0.05092448003846993,-2.325367590431946,1.780160058568779,-0.8223144917398039,0.11613250211813306,9.296625110774974,0.8221484706257525,0
219,2024-09-27 16:25:51.848160000,TASK_BEGIN,021,0.6917570663859474,-0.046708233079332744,-2.3911017586800716,1.7601536094093606,-0.7269898236037428,0.09724957047620718,8.901570168046646,0.9644766478201388,0
220,2024-09-27 16:25:51.915887104,TASK_BEGIN,021,0.6740260140112599,-0.04130805246513668,-2.422675095069957,1.743370981526565,-0.6180911758348897,0.07803128236521482,8.505861615561171,1.1096707167380093,0
221,2024-09-27 16:25:51.982416128,TASK_BEGIN,021,0.6585975648883455,-0.03549676566218427,-2.4188164900676545,1.7313876887397732,-0.49812255493604585,0.05878615309335591,8.132231644061784,1.249976040411422,0
222,2024-09-27 16:25:52.049560064,TASK_BEGIN,021,0.646836108461235,-0.030080789428525705,-2.380711677607253,1.7253590355365178,-0.3699309210158532,0.039858238638195015,7.8042784050102965,1.3776996471781038,0
223,2024-09-27 16:25:52.107429888,TASK_BEGIN,021,0.6399837389758011,-0.025836723940188724,-2.3111686732417156,1.7258237771626925,-0.2365729578371757,0.021583123843952442,7.545844741420152,1.4854970174904525,0
224,2024-09-27 16:25:53.062899200,TASK_BEGIN,021,0.6391147017577309,-0.023456132393159246,-2.2139623009446527,1.732708154915344,-0.10123992626719658,0.004284659115611194,7.379285070467192,1.5668579167413068,0
225,2024-09-27 16:25:53.130648064,TASK_BEGIN,021,0.6450700218099885,-0.02350224136873522,-2.0935716220261837,1.7455321761216327,0.032697272400628155,-0.011677525037712624,7.32272265485969,1.6167719676543244,0
226,2024-09-27 16:25:53.197371136,TASK_BEGIN,021,0.6583644227622878,-0.026377967700121553,-1.9550685003515156,1.763639013038063,0.16164179044568278,-0.025858996864049424,7.387376082390643,1.6323463886084357,0
227,2024-09-27 16:25:53.266057984,TASK_BEGIN,021,0.6790821266165319,-0.0323002666115811,-1.8038322635173343,1.7862651538047927,0.2818654252137053,-0.037739615928648045,7.575975650158606,1.6131178867396008,0
228,2024-09-27 16:25:53.333798912,TASK_BEGIN,021,0.7068017379865218,-0.041279968651260324,-1.6451121104432826,1.8124307140885025,0.3896879610308726,-0.04679543983064286,7.882422531623873,1.5609796669668579,0
229,2024-09-27 16:25:53.401509888,TASK_BEGIN,021,0.7405996624808872,-0.053116809196164974,-1.4837035337261613,1.8407833251665795,0.4815466292965649,-0.05257684084796406,8.291938838882402,1.4798456215116513,0
230,2024-09-27 16:25:53.469075968,TASK_BEGIN,021,0.7791588040303515,-0.06742234131604827,-1.323910641089872,1.869552935466574,0.5539776405742756,-0.05474986017384095,8.781082367992266,1.3752364983083503,0
231,2024-09-27 16:25:54.412002816,TASK_BEGIN,021,0.8209557671905948,-0.08367146581866595,-1.1697348508105896,1.8966578254390147,0.603807665222727,-0.05312227644529985,9.31834735287704,1.2538838245525696,0
232,2024-09-27 16:25:54.479690240,TASK_BEGIN,021,0.8644532711075669,-0.10126533025800058,-1.0251219277436916,1.919888306766108,0.6286735936551336,-0.04768495234742931,9.866636745400351,1.1233344317425686,0
233,2024-09-27 16:25:54.547429120,TASK_BEGIN,021,0.9082323603434406,-0.11958383968227354,-0.894207102745786,1.9371276317845014,0.6276075625930676,-0.038656655313350656,10.387373714484154,0.9915342271168555,0
234,2024-09-27 16:25:54.615111936,TASK_BEGIN,021,0.9510596486339842,-0.13802156076073033,-0.7815951277523412,1.9466445553063632,0.6014174550659042,-0.026510901292818325,10.844516462877445,0.8664175158289283,0
235,2024-09-27 16:25:54.682774784,TASK_BEGIN,021,0.991930366825784,-0.15601515158123225,-0.6925825365782314,1.9474464256568766,0.552811686900434,-0.011979448386071602,11.207258993810965,0.7555142626251633,0
236,2024-09-27 16:25:54.750291968,TASK_BEGIN,021,1.0301019684889663,-0.17306503140571527,-0.6330695528507096,1.9395795465244323,0.4862597019100237,0.003974607834552203,11.451609773156639,0.665554566858855,0
237,2024-09-27 16:25:54.807370240,TASK_BEGIN,021,1.0650837146171042,-0.18874460747559796,-0.6089775092808388,1.9242369209700427,0.4075629692208548,0.020224488928007295,11.561530940163962,0.6020780783264047,0
238,2024-09-27 16:25:55.762063104,TASK_BEGIN,021,1.0965662279317125,-0.20269916066697113,-0.6252456986857216,1.9036025007069375,0.3232192207494632,0.03558649381419328,11.529908302032263,0.5690827884895605,0
239,2024-09-27 16:25:55.829625088,TASK_BEGIN,021,1.1243422362682587,-0.21465060743953676,-0.6847217032839827,1.8804805662758717,0.2397464481221358,0.048950222472963614,11.35925452667482,0.56869846717396,0
240,2024-09-27 16:25:55.897531904,TASK_BEGIN,021,1.1482839670780465,-0.22441961383174217,-0.787303231348947,1.8578539010037705,0.1630996304191246,0.05940458092515765,11.0619250393004,0.6008658728112743,0
241,2024-09-27 16:25:55.965238016,TASK_BEGIN,021,1.1683820854028217,-0.2319588041601094,-0.9295446245675687,1.8385142991394126,0.09824721053168393,0.06632269833719684,10.659488723373652,0.6631153672851312,0
242,2024-09-27 16:25:56.030200064,TASK_BEGIN,021,1.1847896830282723,-0.23737877025851373,-1.1048022956181405,1.8248271118195656,0.04890787897676408,0.06938320044858805,10.181030659035669,0.7505966439805943,0
243,2024-09-27 16:25:56.097240064,TASK_BEGIN,021,1.1978146040954636,-0.2409488995170166,-1.3039717177919934,1.8186283140379378,0.017406161237877416,0.06854393862681829,9.660697825610015,0.8564174992090148,0
244,2024-09-27 16:25:56.159727104,TASK_BEGIN,021,1.2078561152750869,-0.2430679790556746,-1.5167690517483725,1.8212400961068638,0.004623143776958779,0.06400546658347332,9.135063540713375,0.9722289063817424,0
245,2024-09-27 16:25:57.081594112,TASK_BEGIN,021,1.2153254168466023,-0.24421477738247616,-1.7332103477761225,1.833558230905214,0.010044998885362384,0.05618243391080494,8.640500066375486,1.088984338011673,0
246,2024-09-27 16:25:57.153885952,TASK_BEGIN,021,1.2205842220217278,-0.24489185818304945,-1.9447882262851264,1.8561274076997303,0.03189672186215434,0.04567297972511397,8.210368071474802,1.1978311851987475,0
247,2024-09-27 16:25:57.221825024,TASK_BEGIN,021,1.2239135645075316,-0.2455721197052185,-2.145055737767748,1.8891436813581712,0.06728727526393036,0.0332193581772582,7.872161300706945,1.2909930120979738,0
248,2024-09-27 16:25:57.284310016,TASK_BEGIN,021,1.2255178826463586,-0.2466565672179055,-2.3296200379344514,1.932375359137806,0.11226747163143197,0.01967682659308388,7.645300254483209,1.3624138280989255,0
249,2024-09-27 16:25:57.357826816,TASK_BEGIN,021,1.2255595809075333,-0.24844765282453868,-2.4957696736087214,1.9850490504052682,0.16186090927213878,0.006000013275013021,7.540135222067338,1.4081196676707677,0
250,2024-09-27 16:25:57.425474048,TASK_BEGIN,021,1.2242011433752684,-0.25113460832123896,-2.642053514400283,2.0457858304338266,0.21031868078777533,-0.006782352953343128,7.558025327982514,1.4265057560452463,0
251,2024-09-27 16:25:57.484590080,TASK_BEGIN,021,1.2216314920682885,-0.254786335062182,-2.7679587924352,2.112637153382673,0.25172015831184924,-0.017639243602839378,7.691987944160139,1.418640676254867,0
252,2024-09-27 16:25:58.437169920,TASK_BEGIN,021,1.2180750077715357,-0.2593549942979574,-2.8736906526698207,2.183208441262143,0.2807023607943459,-0.025652228469618305,7.927761667057402,1.388303029815315,0
253,2024-09-27 16:25:58.504441856,TASK_BEGIN,021,1.2137942778066069,-0.26469592600878306,-2.960131395561641,2.254844983139288,0.29298257242826514,-0.030135290969904426,8.24552350390645,1.3414264468265764,0
254,2024-09-27 16:25:58.572619008,TASK_BEGIN,021,1.2090811797497634,-0.2705985492857931,-3.0289185529076454,2.3248348078117362,0.2855360285849606,-0.03071477433800033,8.622167783258345,1.2850422921416806,0
255,2024-09-27 16:25:58.639815168,TASK_BEGIN,021,1.2042160702213753,-0.27681294213283525,-3.0823156619545427,2.3905455224780563,0.25654303286392577,-0.027346914022980742,9.033456997896339,1.2261533839556304,0
256,2024-09-27 16:25:58.707726080,TASK_BEGIN,021,1.1993939540801524,-0.28306191321065605,-3.1227546779659763,2.4494567382968793,0.205305162445725,-0.02028916195147718,9.455364413354665,1.1709427950236022,0
257,2024-09-27 16:25:58.774864896,TASK_BEGIN,021,1.1946433570753385,-0.2890390750582428,-3.1523286161291346,2.499158691688817,0.1322175864780864,-0.010054529668746821,9.86446532074843,1.1244745315940317,0
258,2024-09-27 16:25:58.843038976,TASK_BEGIN,021,1.1897665983847001,-0.2943997306260434,-3.172533794253723,2.5374252342377175,0.0386983619493348,0.0026486727580539394,10.237754835937064,1.0907725343008245,0
259,2024-09-27 16:25:59.787237888,TASK_BEGIN,021,1.1843177783248837,-0.2987547682560541,-3.1843349656924715,2.562391044877936,-0.07306578698383995,0.01700476797000584,10.55249753172201,1.0730139693148038,0
260,2024-09-27 16:25:59.854983936,TASK_BEGIN,021,1.1776199463772843,-0.3016761349952395,-3.1884001338573724,2.5727575058638537,-0.2005000641952397,0.0321944143641094,10.786697577672737,1.0736277669524532,0
261,2024-09-27 16:25:59.922685952,TASK_BEGIN,021,1.1688138518901054,-0.3027159125165338,-3.185207383467567,2.567924863581761,-0.3409059451854348,0.047474801685241264,10.920586002985134,1.0942561153405521,0
262,2024-09-27 16:25:59.990422016,TASK_BEGIN,021,1.1569333719560948,-0.30143743036207243,-3.174823457117533,2.5480045228671564,-0.4914613393693746,0.062205327340606596,10.938937463636574,1.1356640680219499,0
263,2024-09-27 16:26:00.058132736,TASK_BEGIN,021,1.1410080478679878,-0.29745706753887097,-3.1564698742146495,2.513726218257259,-0.649026375212928,0.07582445078795981,10.833328008608888,1.1976809259973595,0
264,2024-09-27 16:26:00.125782016,TASK_BEGIN,021,1.1201916924244262,-0.29049261362618395,-3.128230853833776,2.466275466990701,-0.8098860421226024,0.08781190148421776,10.603676199631364,1.2790874676609933,0
265,2024-09-27 16:26:00.193487872,TASK_BEGIN,021,1.0939031315534107,-0.28040819444212534,-3.08718563734467,2.407105159006059,-0.9695170901617909,0.09766790369499709,10.259394161265421,1.3772471138475066,0
266,2024-09-27 16:26:01.127386112,TASK_BEGIN,021,1.0619401329087779,-0.26724359958759886,-3.0299218389638285,2.337784021760441,-1.1224954039961204,0.10492240388894017,9.820359459395426,1.4875642169949497,0
267,2024-09-27 16:26:01.205025024,TASK_BEGIN,021,1.0245208066407017,-0.2512194638967212,-2.953108927891792,2.259926551775772,-1.2627128252938322,0.10917462056148904,9.316587575217305,1.6032838902341473,0
268,2024-09-27 16:26:01.272739072,TASK_BEGIN,021,0.9822485487123506,-0.2327158358846329,-2.8538858282338087,2.1751840873229678,-1.3839724271216087,0.11015649365497258,8.785465715869297,1.716049015341843,0
269,2024-09-27 16:26:01.340450048,TASK_BEGIN,021,0.9360447902905238,-0.2122293384367067,-2.7301559414224137,2.0852511817518757,-1.480801315707698,0.10780411781101736,8.267362381875301,1.8170427068459398,0
270,2024-09-27 16:26:01.406099200,TASK_BEGIN,021,0.8870866325652945,-0.19032171956775745,-2.58100371820765,1.9918685971745886,-1.5491950485384889,0.10231072625604043,7.801622458921598,1.8982058150818983,0
271,2024-09-27 16:26:01.475862016,TASK_BEGIN,021,0.8367422102786337,-0.16757252835349318,-2.407202152382271,1.896813314355489,-1.5870871720993731,0.09413467737221691,7.423986289586482,1.953188379518625,0
272,2024-09-27 16:26:01.531926016,TASK_BEGIN,021,0.7864756510995742,-0.14453978500496698,-2.2115941434480906,1.801859292192316,-1.5944725816555287,0.08395151695090625,7.165218773322178,1.9779233868053638,0
273,2024-09-27 16:26:02.462418944,TASK_BEGIN,021,0.7377130949430077,-0.12172740089522366,-1.9992094617806009,1.708704117312899,-1.57318857708769,0.07255669571690114,7.050431906736621,1.9707741317382244,0
274,2024-09-27 16:26:02.518331136,TASK_BEGIN,021,0.6916941383000919,-0.09956345810490573,-1.7770758367325465,1.6188741014869243,-1.526424900749832,0.06073974072055742,7.098328583640072,1.932350240974947,0
275,2024-09-27 16:26:02.596438016,TASK_BEGIN,021,0.6493499591526872,-0.07839812438309965,-1.5536656512067277,1.5336342412915092,-1.4581264629531394,0.04917183716186462,7.319502818425306,1.8652595281255495,0
276,2024-09-27 16:26:02.665603072,TASK_BEGIN,021,0.6112373237403534,-0.058522141003849115,-1.3379362306727283,1.4539397999686134,-1.3724831885577125,0.03835524270805515,7.71407733957348,1.7739107727422458,0
277,2024-09-27 16:26:02.733357824,TASK_BEGIN,021,0.5775245282156538,-0.04019107406227984,-1.1380968985535136,1.3804549169236953,-1.2736279391053473,0.028650563358465848,8.27022819664241,1.6641726686568998,0
278,2024-09-27 16:26:02.798038016,TASK_BEGIN,021,0.5480091065108096,-0.023635182287633814,-0.9604676389183358,1.3136227787407209,-1.1655630955441278,0.020354945133797292,8.96454135992843,1.54273082035246,0
279,2024-09-27 16:26:02.868708096,TASK_BEGIN,021,0.5221694375139406,-0.009050679976959157,-0.8088268612057424,1.2537368002404745,-1.0522687164058975,0.013786493327148102,9.763525575266776,1.4163387834270829,0
280,2024-09-27 16:26:03.812433920,TASK_BEGIN,021,0.4992690272738281,0.0034109767399635306,-0.6843513625173966,1.2009675915134628,-0.9378932426168264,0.00933695982148422,10.62534073224844,1.291321905890973,0
281,2024-09-27 16:26:03.880264192,TASK_BEGIN,021,0.4785019121357417,0.013640749984429415,-0.5859020497464049,1.1553331804098905,-0.8268844620911227,0.0074672042441894185,11.501760822422995,1.173452749056285,0
282,2024-09-27 16:26:03.947974912,TASK_BEGIN,021,0.45911971271070307,0.02156488145882211,-0.5104292179889516,1.116635910265073,-0.7239195404560793,0.008635397922007303,12.340909764769714,1.0679768591336605,0
283,2024-09-27 16:26:04.012483840,TASK_BEGIN,021,0.4404690561845189,0.02715488957161298,-0.45356258961538803,1.084419748066542,-0.6335682044727046,0.013176771991585014,13.091135273396622,0.9794842137694498,0
284,2024-09-27 16:26:04.082499072,TASK_BEGIN,021,0.42191995858499093,0.030461192982099098,-0.41050734260487065,1.0580056310950066,-0.5597789810603069,0.021183175793481772,13.705685909288666,0.9115638282198862,0
285,2024-09-27 16:26:04.144891136,TASK_BEGIN,021,0.40275790623989455,0.0316497864662229,-0.37709898114026774,1.0366182502303396,-0.5054220236104451,0.032437158897146164,14.146878432993265,0.8664915608690444,0
286,2024-09-27 16:26:04.205979904,TASK_BEGIN,021,0.3821514818306636,0.031015251323580052,-0.35066096651362794,1.0195525550294637,-0.47207240277964413,0.04643241460309386,14.388498748198938,0.8452368896386744,0
287,2024-09-27 16:26:05.153992960,TASK_BEGIN,021,0.35923623695862295,0.02896478509587036,-0.3303794691577053,1.0063094879269168,-0.46000098915319865,0.06246640130786956,14.416349412030039,0.8478108376025464,0
288,2024-09-27 16:26:05.216859136,TASK_BEGIN,021,0.3332660646323873,0.025986888611133123,-0.3171383196688728,0.9966812163826598,-0.46821693134138914,0.0797509753656711,14.227496996463099,0.8737214561626152,0
289,2024-09-27 16:26:05.298091776,TASK_BEGIN,021,0.3037723770501878,0.022613933925920156,-0.31297895688619687,0.9908130288277605,-0.49449629653446875,0.0974931076833205,13.82859126173195,0.9222910035435542,0
290,2024-09-27 16:26:05.365827840,TASK_BEGIN,021,0.2706892330998022,0.019379953412889797,-0.3204496625039679,0.98923022233468,-0.5354831267870288,0.1149407384417156,13.233568996804813,0.9927776827959253,0
291,2024-09-27 16:26:05.433559808,TASK_BEGIN,021,0.23439548017012732,0.016781665980254712,-0.34200457054074745,0.9927515074802657,-0.5869545212469867,0.1314132181592187,12.461244920624587,1.0844115915301928,0
292,2024-09-27 16:26:05.501260032,TASK_BEGIN,021,0.19564834048550678,0.015253995029430612,-0.3794397989057213,1.002252030873071,-0.64421999159157,0.14632663482681402,11.533334056586218,1.1964499537311142,0
293,2024-09-27 16:26:05.555598848,TASK_BEGIN,021,0.15545615026998758,0.015156489576838432,-0.43336992800312524,1.0183716610695024,-0.7025921859565526,0.15921839388431347,10.473282505948774,1.3282274797060813,0
294,2024-09-27 16:26:06.505987840,TASK_BEGIN,021,0.11497110356401329,0.016755789942401133,-0.5029289747148159,1.0413294402533435,-0.757933796026817,0.16978352080778505,9.306065625855439,1.4790570818878128,0
295,2024-09-27 16:26:06.580019968,TASK_BEGIN,021,0.07543219702094198,0.020199255316096884,-0.5859331029481513,1.0709392528526247,-0.8072448399742629,0.1779301801289714,8.058730686158782,1.6478915650423391,0
296,2024-09-27 16:26:06.648207104,TASK_BEGIN,021,0.03813081039871082,0.025488074902334866,-0.6795321041758116,1.1067971439639233,-0.8491119145943133,0.18383353864794116,6.760823199181012,1.8329018020654961,0
297,2024-09-27 16:26:06.715922176,TASK_BEGIN,021,0.0043648882515460825,0.03246051666145667,-0.7810991866898892,1.148519142677159,-0.8838277335782856,0.1879455907465375,5.4437071202198,2.0312445373973462,0
298,2024-09-27 16:26:06.783117824,TASK_BEGIN,021,-0.024635513970733693,0.040796502404967475,-0.8889833507901733,1.1958922015708653,-0.9131605858675929,0.19093944837429475,4.138778655729866,2.239096134646757,0
299,2024-09-27 16:26:06.851353088,TASK_BEGIN,021,-0.047815906321319,0.05005440634598163,-1.002781199044164,1.2488467800333176,-0.939919385624828,0.1936118500059506,2.8757123180162987,2.4517816646857082,0
300,2024-09-27 16:26:06.906200832,TASK_BEGIN,021,-0.06442476771331435,0.05973959338487003,-1.1229796908133847,1.3072579499687225,-0.9674595170622826,0.19678234746450063,1.681857960499968,2.6637987158544614,0
301,2024-09-27 16:26:07.837753856,TASK_BEGIN,021,-0.07412208167033772,0.06938508336472426,-1.2501773533814886,1.3706920014156645,-0.9991726325090611,0.20120297794756747,0.5829173878913042,2.868681412584279,0
302,2024-09-27 16:26:07.898385920,TASK_BEGIN,021,-0.0770263008784187,0.0786176271739047,-1.384352757720921,1.4382306310940667,-1.0379805241995352,0.20747305466545282,-0.3957218378325309,3.0588198715065102,0
303,2024-09-27 16:26:07.960006912,TASK_BEGIN,021,-0.07368995225370592,0.08719477555192406,-1.524557271496161,1.5084241531859723,-1.0859211224784853,0.21596359606375715,-1.2277299412347733,3.225466258063108,0
304,2024-09-27 16:26:08.037663744,TASK_BEGIN,021,-0.0650264732892845,0.09501118888168592,-1.6690563101195235,1.5793571998281402,-1.1439151885181122,0.22676582202727272,-1.8854090988777994,3.359142977352977,0
305,2024-09-27 16:26:08.100148992,TASK_BEGIN,021,-0.0522046467299451,0.10207380920897809,-1.8156577626045807,1.6487828284308954,-1.2116906471066695,0.23966702851578786,-2.340778096032661,3.4504599574278974,0
306,2024-09-27 16:26:08.162628864,TASK_BEGIN,021,-0.0365155400577384,0.10845050160971419,-1.9619936734759928,1.7142863556582209,-1.287782036581059,0.25415329793781405,-2.56830980676738,3.4911275895504312,0
307,2024-09-27 16:26:08.244050176,TASK_BEGIN,021,-0.019244962889277403,0.1142131497097741,-2.1057663348481324,1.7734814374889305,-1.3696059285051092,0.26945167731670555,-2.548757673762694,3.4749368885102156,0
308,2024-09-27 16:26:09.177033984,TASK_BEGIN,021,-0.00160761026618904,0.11940376443567688,-2.2450618054366838,1.8242377674407129,-1.4536658250113832,0.2846171431173499,-2.2731380255045606,3.3985667610181505,0
309,2024-09-27 16:26:09.255572992,TASK_BEGIN,021,0.015247872249619574,0.12403457274023008,-2.378609907250568,1.8648559175410462,-1.5358644005281241,0.29864450539630333,-1.7459294708082163,3.2621054706866177,0
310,2024-09-27 16:26:09.323350016,TASK_BEGIN,021,0.030225621987887065,0.12810710817295573,-2.505674036074498,1.8940795580300873,-1.61185326432838,0.3105840391582825,-0.9866623630120412,3.0691851800516203,0
311,2024-09-27 16:26:09.391012864,TASK_BEGIN,021,0.04232781258215599,0.13162822729124318,-2.6254511138088144,1.9109581434869043,-1.677377958466767,0.31965074802697513,-0.029366438385367927,2.826700346548222,0
312,2024-09-27 16:26:09.455569152,TASK_BEGIN,021,0.05076144876684572,0.13461355671532774,-2.736268231249631,1.9147039082462995,-1.7285760863772723,0.3253086024625367,1.0800819987305803,2.5441649425470807,0
313,2024-09-27 16:26:09.520275968,TASK_BEGIN,021,0.05505471465814954,0.13708292349363946,-2.8350561459438395,1.9046745271656567,-1.7621749920623921,0.32730370707311657,2.288233228977241,2.2327905598651134,0
314,2024-09-27 16:26:09.580145920,TASK_BEGIN,021,0.05513195521268501,0.13905733739501572,-2.9174199927659688,1.8805056271395173,-1.7755806762983863,0.32563920177978406,3.539294986943843,1.9043874412659296,0
315,2024-09-27 16:26:10.532192768,TASK_BEGIN,021,0.05132944761239409,0.14056152008582887,-2.9782739272208447,1.842335364555344,-1.7669182373796366,0.3205117165917911,4.780470740758378,1.5702567146854933,0
316,2024-09-27 16:26:10.594682880,TASK_BEGIN,021,0.04435133373010837,0.14162728252768056,-3.012761527620595,1.7910295593044365,-1.7350904911646856,0.3122427649968176,5.9665412130421664,1.2402652190338226,0
317,2024-09-27 16:26:10.671412224,TASK_BEGIN,021,0.03517096716800799,0.14229366776188312,-3.0171891853210027,1.7283114653277043,-1.6798656946044859,0.3012349481593451,7.0631369478415005,0.922239929539202,0
318,2024-09-27 16:26:10.733899776,TASK_BEGIN,021,0.024909735816925602,0.14260325005373997,-2.989782917613793,1.6567410046360664,-1.601984787690181,0.28796647633267275,8.048440611584374,0.6217856043577894,0
319,2024-09-27 16:26:10.795907072,TASK_BEGIN,021,0.014744360217845016,0.14259124032478243,-2.931102768227068,1.5795513603502795,-1.5032974288304397,0.2730178167806438,8.91294150744681,0.3426122709289313,0
320,2024-09-27 16:26:10.872755200,TASK_BEGIN,021,0.00585595775375193,0.1422689573595574,-2.8440025782147105,1.5003778542614028,-1.386892685291775,0.25710573196837466,9.656756432025123,0.08734029291441292,0
321,2024-09-27 16:26:10.933347840,TASK_BEGIN,021,-0.0006225447466647543,0.14161569553167622,-2.7332082004782925,1.4229301256609932,-1.2571159840976192,0.24108939911653204,10.285010255525565,-0.1415145580084614,0
322,2024-09-27 16:26:11.886978048,TASK_BEGIN,021,-0.003703191275366916,0.1405897232589877,-2.6047818641636615,1.350691688306191,-1.1193979586094758,0.2259308995590808,10.80325471065766,-0.34088956984335683,0
323,2024-09-27 16:26:11.944717056,TASK_BEGIN,021,-0.0026747608324520426,0.13915265036053423,-2.4656795875617328,1.2867133383844434,-0.9799370246757394,0.21262658156229916,11.214634062560409,-0.5071629586971974,0
324,2024-09-27 16:26:12.021906944,TASK_BEGIN,021,0.0027724497587042676,0.13729547988151658,-2.3233495258680827,1.2335006329525615,-0.8453181197813354,0.202128489930284,11.518658053830775,-0.6365542957189293,0
325,2024-09-27 16:26:12.090052864,TASK_BEGIN,021,0.012459227981936933,0.13506167291496898,-2.1851994583076477,1.1929644807682889,-0.7221192283705309,0.19525760894070568,11.710852617637352,-0.7255544896182322,0
326,2024-09-27 16:26:12.157744896,TASK_BEGIN,021,0.025675852390696932,0.1325693943765772,-2.0578751522995513,1.1664000986653293,-0.6165689174862452,0.1926267406968359,11.783708837298061,-0.7713526598973289,0
327,2024-09-27 16:26:12.225409024,TASK_BEGIN,021,0.04119237830561582,0.13003387271332342,-1.9465036030668867,1.1544639847517795,-0.534317743079115,0.194613417632684,11.729741094410832,-0.7723902150179242,0
328,2024-09-27 16:26:12.293101056,TASK_BEGIN,021,0.05733660045173887,0.1277812804559815,-1.8541776719420677,1.1571590481277636,-0.4802804543787669,0.20139809231107808,11.546103757048892,-0.7289355707029096,0
329,2024-09-27 16:26:13.210877952,TASK_BEGIN,021,0.07215337523102852,0.12623872624938187,-1.7818352472371684,1.1738677136618354,-0.45841327511327673,0.21303209226568762,11.238743736601421,-0.6433965218684016,0
330,2024-09-27 16:26:13.278873088,TASK_BEGIN,021,0.08364066187483367,0.1258915245428815,-1.7284546824135105,1.2034346195027903,-0.47135827189519725,0.22947369849985258,10.824081599308434,-0.5201790616734524,0
331,2024-09-27 16:26:13.346595072,TASK_BEGIN,021,0.0900316387510553,0.12721459589791845,-1.6914260472127711,1.2442463853452772,-0.5200416451126288,0.25056003712328884,10.327711442874289,-0.3651327552773166,0
332,2024-09-27 16:26:13.410296832,TASK_BEGIN,021,0.09006283283089839,0.13059971172949775,-1.6670805002573557,1.2942730139677416,-0.6033933516175076,0.27594989329642117,9.781221500081617,-0.1848356723744476,0
333,2024-09-27 16:26:13.481998080,TASK_BEGIN,021,0.08315293682149114,0.13630556674421124,-1.6514562698003876,1.351110510441886,-0.7183206931347274,0.30509876151078663,9.218643283022665,0.013985074705674547,0
334,2024-09-27 16:26:13.549707008,TASK_BEGIN,021,0.06944386627122541,0.14444536694874316,-1.6412636862717722,1.412077427518139,-0.8599563803096754,0.33728398376035423,8.67332428150255,0.2247629489212397,0
335,2024-09-27 16:26:13.616798976,TASK_BEGIN,021,0.04972058322600479,0.15500156105591736,-1.6347641764542094,1.4743429918838706,-1.0220503161394168,0.3716511262656938,8.175150742437687,0.4412248433879535,0
336,2024-09-27 16:26:14.560873984,TASK_BEGIN,021,0.02526956672604282,0.16784449690194408,-1.6322001607512615,1.5350389942863263,-1.1973090248832425,0.40724777666671486,7.7478394528097025,0.6575194511925427,0
337,2024-09-27 16:26:14.614802944,TASK_BEGIN,021,-0.0022907605128219097,0.18274738283966033,-1.6355926234609823,1.5913692799659533,-1.3776420537087362,0.4430386016560882,7.406547951846094,0.8683947013312121,0
338,2024-09-27 16:26:14.691642112,TASK_BEGIN,021,-0.031216613058580808,0.19940954977503103,-1.6479907147356687,1.6407596304621346,-1.5544779348311366,0.4779274760961493,7.156351761581383,1.0693819933623259,0
339,2024-09-27 16:26:14.754863104,TASK_BEGIN,021,-0.05987112182368821,0.21749277999727185,-1.6724673846832043,1.6810567226231474,-1.719267715239528,0.5108116046005888,6.991768986355063,1.2569755902488309,0
340,2024-09-27 16:26:14.831659264,TASK_BEGIN,021,-0.08692401882922902,0.23665345321200829,-1.7111808694886304,1.7107418506562846,-1.8641183769216454,0.5406682469940417,6.89743599224396,1.4287838734535352,0
341,2024-09-27 16:26:14.899118848,TASK_BEGIN,021,-0.11146608693410195,0.2565492509875049,-1.7646968834106596,1.7290983817567904,-1.9824740516265225,0.5666691090512217,6.850341541509589,1.5835448546121815,0
342,2024-09-27 16:26:14.967001856,TASK_BEGIN,021,-0.13302962607128893,0.2768193757563865,-1.8316737747334964,1.7362831785367268,-2.0697997377693107,0.5883172576089108,6.823600868266299,1.7208856419662706,0
343,2024-09-27 16:26:15.895952896,TASK_BEGIN,021,-0.15152779241656836,0.2970580383610924,-1.9089322894980043,1.7332792240613069,-2.124126152319421,0.6055722820712188,6.790775724595443,1.8408099747108038,0
344,2024-09-27 16:26:15.972861184,TASK_BEGIN,021,-0.1671246515258495,0.3168012866270015,-1.9918350381920797,1.7217082525111957,-2.146201081534877,0.6188948894217747,6.729438134811216,1.9430908557768023,0
345,2024-09-27 16:26:16.034418176,TASK_BEGIN,021,-0.18006412733747343,0.3355343223442615,-2.074862896739983,1.7035013575849764,-2.139105945047237,0.6291582087519495,6.6233114473785255,2.0268768572002718,0
346,2024-09-27 16:26:16.112524032,TASK_BEGIN,021,-0.19052183248493454,0.3527197466427262,-2.1522196705073484,1.6805058632534624,-2.107514439146464,0.6374497194082144,6.463187364316765,2.090681851028696,0
347,2024-09-27 16:26:16.180560128,TASK_BEGIN,021,-0.19854536885489918,0.36784591490168167,-2.218278772574196,1.6541676052753858,-2.056948297197663,0.6448519919355684,6.247030651450588,2.132685978043498,0
348,2024-09-27 16:26:16.249587968,TASK_BEGIN,021,-0.20408498057816502,0.38048696398898035,-2.2678807333919715,1.625379131568446,-1.9932192329014953,0.6522740192177882,5.979281078963356,2.151228901993075,0
349,2024-09-27 16:26:16.317341184,TASK_BEGIN,021,-0.20705334178242824,0.3903567708728426,-2.29666275494849,1.5944862531173243,-1.9220093989211458,0.66034822960756,5.669413537743212,2.145357283705945,0
350,2024-09-27 16:26:17.261399040,TASK_BEGIN,021,-0.20736613107508783,0.39733965575712266,-2.3014406925775117,1.5613926093135342,-1.848550209386804,0.6693866161981789,5.330481739780559,2.1151557124506875,0
351,2024-09-27 16:26:17.321709056,TASK_BEGIN,021,-0.20496721741148932,0.4014916030102133,-2.2804247070080126,1.5256994366345638,-1.7774716540730418,0.6793983275920827,4.978432248104875,2.0616822455401778,0
352,2024-09-27 16:26:17.385745152,TASK_BEGIN,021,-0.19985490704734776,0.40301907035212475,-2.2331170153237516,1.4868483451743062,-1.7128166033490657,0.6901663934764584,4.632088760818392,1.9866868625381102,0
353,2024-09-27 16:26:17.461703168,TASK_BEGIN,021,-0.19210161264733533,0.40224686217585454,-2.159985948024615,1.4442702011644282,-1.6580300594720307,0.7013551646881809,4.313087139018036,1.8923852989589427,0
354,2024-09-27 16:26:17.532339200,TASK_BEGIN,021,-0.1818505035103327,0.39958135400323525,-2.0621181333667846,1.3975408129386764,-1.6157522604725523,0.7125973550420781,4.045315506182677,1.7812847867630677,0
355,2024-09-27 16:26:17.586205184,TASK_BEGIN,021,-0.1692893528688963,0.3954721896567455,-1.9409801113701892,1.346513057397352,-1.5874836568636246,0.7235185605192492,3.8538782098460063,1.655942891742811,0
356,2024-09-27 16:26:17.667687936,TASK_BEGIN,021,-0.15461545304450264,0.39037521796919233,-1.798280000854893,1.2913763564305438,-1.5733745190643293,0.733705733237927,3.7637353188919525,1.5187585043244576,0
357,2024-09-27 16:26:18.581579776,TASK_BEGIN,021,-0.13800196429310027,0.3847152999841225,-1.6358039977690053,1.2326088777716333,-1.5723534293877277,0.7426770636803056,3.7979410326912117,1.372031532320891,0
358,2024-09-27 16:26:18.644513024,TASK_BEGIN,021,-0.11956758918572956,0.378846416867259,-1.455118915607973,1.1708372424278692,-1.5825784025690839,0.7499035710139784,3.974990673561224,1.2183604314649763,0
359,2024-09-27 16:26:18.723337984,TASK_BEGIN,021,-0.09934929991327729,0.3730130015092389,-1.2571936427812758,1.1066676069816486,-1.6019407615669146,0.7548711489686395,4.30492085080732,1.0611904905255463,0
360,2024-09-27 16:26:18.784873984,TASK_BEGIN,021,-0.07728114207804737,0.367319181483638,-1.0421686872064941,1.0405588070611185,-1.62833957659266,0.7571388467231799,4.7849844162242015,0.9052057222890837,0
361,2024-09-27 16:26:18.858722048,TASK_BEGIN,021,-0.05319030849917682,0.3617085345889104,-0.8095602169337389,0.9727884887682291,-1.6597054166693763,0.7563837602823072,5.397010062443598,0.7563041158808993,0
362,2024-09-27 16:26:18.926436096,TASK_BEGIN,021,-0.02682621026452623,0.3559587399114394,-0.5590228586180536,0.9035348488424919,-1.6939570325917768,0.7524565289783811,6.1083223239186,0.6210695583635948,0
363,2024-09-27 16:26:18.984118784,TASK_BEGIN,021,0.0020730402186709455,0.34970211522000344,-0.29145050480650714,0.8330483612107569,-1.7290004165187332,0.7454385087653531,6.8762124769457955,0.5058640997971462,0
364,2024-09-27 16:26:19.928476160,TASK_BEGIN,021,0.03369371077669312,0.34247692768503885,-0.009953680073547376,0.761837102669548,-1.7627128827250624,0.7356415678966717,7.65435598276474,0.4157931876059997,0
365,2024-09-27 16:26:20.004412928,TASK_BEGIN,021,0.06807228259842013,0.3337959209510121,0.2796667849593473,0.6907805417466074,-1.79285688477656,0.7235140554889455,8.399568474536649,0.35379456335267023,0
366,2024-09-27 16:26:20.068795904,TASK_BEGIN,021,0.10505962486474861,0.32321069904976835,0.5690596363797595,0.6211376300021674,-1.8169765435435987,0.7094901645720098,9.077905385716074,0.31998652037304837,0
367,2024-09-27 16:26:20.139974144,TASK_BEGIN,021,0.1443218752192866,0.31036044764636217,0.847995707732058,0.5544695717954836,-1.8323629203349396,0.6938549129445518,9.669294963394904,0.31130132566927576,0
368,2024-09-27 16:26:20.208396032,TASK_BEGIN,021,0.1853652334300561,0.2950045754983286,1.1054294690038258,0.4925030489590785,-1.836164534988462,0.6766779713988823,10.169988491604286,0.3214337074826842,0
369,2024-09-27 16:26:20.276083968,TASK_BEGIN,021,0.2275770114994444,0.2770437834132993,1.3306970594350822,0.4369693587676974,-1.8256844891444168,0.6578295294366816,10.592504902711529,0.3411501592204674,0
370,2024-09-27 16:26:20.342334976,TASK_BEGIN,021,0.27027227022348604,0.2565337040737706,1.514507716641252,0.38948175708803073,-1.798782842341794,0.6370477377123499,10.963168653526134,0.35896101771732475,0
371,2024-09-27 16:26:21.287460864,TASK_BEGIN,021,0.31273277717588777,0.23368861396046123,1.6495650523824545,0.35147659944738846,-1.7542344514626507,0.6140103326246087,11.317623788326372,0.3621294400120483,0
372,2024-09-27 16:26:21.355217152,TASK_BEGIN,021,0.354231163593201,0.20886986554312836,1.7308997242671,0.324193976754269,-1.6919656359386346,0.5883887391862657,11.695028159971159,0.3379384209453721,0
373,2024-09-27 16:26:21.422632192,TASK_BEGIN,021,0.39403815639731593,0.1825620957264076,1.7559825557662097,0.3086947636832712,-1.6131340844975826,0.5598915270919382,12.131976040861057,0.2750308519325614,0
374,2024-09-27 16:26:21.490637824,TASK_BEGIN,021,0.43141339301886267,0.15534733566272435,1.7246214423522779,0.3059045310189975,-1.519992433759394,0.5283049069923655,12.657237341360577,0.16462142152818765,0
375,2024-09-27 16:26:21.558394112,TASK_BEGIN,021,0.4655899891115748,0.1278810657257483,1.6387226208718753,0.31660963248201607,-1.4155382170762627,0.4935277637104081,13.288053913872133,0.0014980249167591173,0
376,2024-09-27 16:26:21.626084864,TASK_BEGIN,021,0.4957776241218207,0.10086397196922976,1.5020476159366816,0.34134572863378493,-1.3030965481413572,0.45559905179183346,14.028399752910422,-0.21520321487622135,0
377,2024-09-27 16:26:21.688932864,TASK_BEGIN,021,0.5212103552895829,0.07500384336325676,1.3200597611361342,0.3802140065295265,-1.1860430019581585,0.4147273051128132,14.869266423946,-0.48155825035595234,0
378,2024-09-27 16:26:22.637525760,TASK_BEGIN,021,0.5412511686843995,0.0509689382278744,1.0998887591097914,0.4327060695579291,-1.067732434257928,0.3713301519172797,15.790334639045104,-0.7889119340984346,0
379,2024-09-27 16:26:22.704860160,TASK_BEGIN,021,0.5555422416889476,0.02933518406328997,0.8503303711150607,0.4975958988196226,-0.9514509296203052,0.32605447587162933,16.762099225989957,-1.124492401617828,0
380,2024-09-27 16:26:22.771837952,TASK_BEGIN,021,0.5641555642091843,0.010531381457706409,0.5817209027237539,0.5729239215787466,-0.8401639103473371,0.2797215459775081,17.748193843118496,-1.4725351130489817,0
381,2024-09-27 16:26:22.840743168,TASK_BEGIN,021,0.5676768863955657,-0.005205786290580444,0.30555921843002576,0.6560812846695344,-0.736124192828408,0.23319325616198852,18.708178384132626,-1.8157517963156873,0
382,2024-09-27 16:26:22.908472064,TASK_BEGIN,021,0.567185737702674,-0.01785354818487268,0.03380661596341297,0.7440023222644251,-0.6406698726819307,0.18723823184994387,19.600777926174366,-2.136846754772411,0
383,2024-09-27 16:26:22.976172032,TASK_BEGIN,021,0.564150764173025,-0.02759477614270129,-0.22211548568011738,0.8334658099063105,-0.5543893158051845,0.1424721601313238,20.387163710547437,-2.419805494432589,0
384,2024-09-27 16:26:23.043853056,TASK_BEGIN,021,0.5602737769154599,-0.03477705177617115,-0.4524452763314922,0.921467403306866,-0.4774536195957829,0.0993650204168855,21.033666959658543,-2.6508447749349604,0
385,2024-09-27 16:26:23.962672128,TASK_BEGIN,021,0.5572960622403018,-0.03984273186539019,-0.6500617551786353,1.0055756153157458,-0.4098321658,0.058269989800067465,21.513606617204715,-2.8190751289739344,0
386,2024-09-27 16:26:24.026953984,TASK_BEGIN,021,0.5567932977144733,-0.04324953808389565,-0.8111677566101418,1.0841695825113413,-0.35137892255348113,0.019463701859548155,21.808736893514443,-2.91702979987057,0
387,2024-09-27 16:26:24.088571136,TASK_BEGIN,021,0.5600088333470227,-0.045408898470748284,-0.935567552499387,1.1564944701293924,-0.3019672292135068,-0.016783077380208573,21.910882234394858,-2.9411619624646606,0
388,2024-09-27 16:26:24.165811968,TASK_BEGIN,021,0.5677446109963327,-0.046652157735097156,-1.026384502839122,1.2225264618986897,-0.26172591290080355,-0.05010557924116598,21.823243249871112,-2.892244718712333,0
389,2024-09-27 16:26:24.228784128,TASK_BEGIN,021,0.5802840956061728,-0.04721227108468278,-1.0891924270997337,1.2827084970003473,-0.2312379865470857,-0.07995847542890265,21.56043877804165,-2.7755457300391795,0
390,2024-09-27 16:26:24.297720064,TASK_BEGIN,021,0.5973311825551588,-0.04720705972428185,-1.1308580249229576,1.337684243917139,-0.21155197922356136,-0.1055985503167964,21.147176787832723,-2.600679131028157,0
391,2024-09-27 16:26:24.366452992,TASK_BEGIN,021,0.6179919518883071,-0.046626956041107434,-1.1584967543247355,1.3881299379783525,-0.20397842510188371,-0.12615772672684025,20.615985177675483,-2.3810350455244533,0
392,2024-09-27 16:26:25.305573888,TASK_BEGIN,021,0.6408478979038573,-0.04534392194341406,-1.178748079273462,1.4346729752571596,-0.20975692458002673,-0.14077525114349135,20.004253040863166,-2.132737622745908,0
393,2024-09-27 16:26:25.379924992,TASK_BEGIN,021,0.6641499285858501,-0.04315322092088584,-1.1974064481414937,1.4778286600183905,-0.22969759673279747,-0.14873599986550462,19.350712268843022,-1.8732228111607705,0
394,2024-09-27 16:26:25.447639808,TASK_BEGIN,021,0.6861121354838355,-0.0398415655267978,-1.2193318537559281,1.5179133709256016,-0.2638383104598934,-0.1495781280627299,18.691659819761103,-1.6196635966357205,0
395,2024-09-27 16:26:25.515328768,TASK_BEGIN,021,0.7052332423788331,-0.03526212549700581,-1.2484126247885006,1.5549374210558928,-0.31114509069500706,-0.14315568856636823,18.05769276202997,-1.3875598040258215,0
396,2024-09-27 16:26:25.583012864,TASK_BEGIN,021,0.7205491255175546,-0.02939471113584562,-1.2873459301415953,1.5885123937172656,-0.36937368651146124,-0.12965146345259257,17.471986383192018,-1.1897308258734833,0
397,2024-09-27 16:26:25.645214976,TASK_BEGIN,021,0.7317321934187128,-0.022372905385004416,-1.337215604735759,1.6178207360738577,-0.4352419992158747,-0.10954527822530861,16.950414715307186,-1.035682089921072,0
398,2024-09-27 16:26:25.707329024,TASK_BEGIN,021,0.7390061941388137,-0.014469950958265296,-1.3970818300184513,1.6416839002095756,-0.5049108767974608,-0.08355817400101702,16.502756483063596,-0.9311648805165142,0
399,2024-09-27 16:26:26.652386048,TASK_BEGIN,021,0.7429199858449549,-0.006049679302186567,-1.4638447407119521,1.6587157093648806,-0.5745801130646314,-0.05259370566554454,16.133972511521787,-0.877894669789909,0
400,2024-09-27 16:26:26.729058048,TASK_BEGIN,021,0.7440767792962911,0.0025019479164102485,-1.5324578901133168,1.6674764544134946,-0.6409639699167342,-0.017684457726830284,15.845033922273236,-0.8735935945039167,0
401,2024-09-27 16:26:26.797731072,TASK_BEGIN,021,0.7429184311357333,0.010844320761010239,-1.5963990807579473,1.6665438021132981,-0.7015125293784236,0.020054255244898293,15.633222854818344,-0.9124588239988192,0
402,2024-09-27 16:26:26.856086016,TASK_BEGIN,021,0.7396230003183101,0.018726241936731725,-1.6483735099759476,1.6545245991764659,-0.7544051355774473,0.059464097859907715,15.49179833479471,-0.9859039366481204,0
403,2024-09-27 16:26:26.931639040,TASK_BEGIN,021,0.7341164955505839,0.02599533976214327,-1.6812776672264496,1.63011789059901,-0.7984567095220091,0.09938548256193924,15.409191806617471,-1.0833572151530617,0
404,2024-09-27 16:26:26.990795776,TASK_BEGIN,021,0.7261644386003064,0.032582253002562844,-1.6893110557660767,1.592308376374093,-0.8330400115079862,0.138705309457186,15.368757309005545,-1.1930654707236092,0
405,2024-09-27 16:26:27.068445696,TASK_BEGIN,021,0.7155025368380294,0.038476585105859586,-1.6690176851850473,1.5406778733785296,-0.8580097670572711,0.17639724022624328,15.350126863783872,-1.3029228072059482,0
406,2024-09-27 16:26:28.011342080,TASK_BEGIN,021,0.7019615070633864,0.043703691176450635,-1.620060939635984,1.475744395285798,-0.873610762225688,0.21154308458557114,15.331963007433018,-1.4012569705125544,0
407,2024-09-27 16:26:28.080076800,TASK_BEGIN,021,0.6855335693882346,0.048306710516070134,-1.545571231953224,1.3992125397137574,-0.8804269458139751,0.2433455068779465,15.29476728677234,-1.4774587826585213,0
408,2024-09-27 16:26:28.147821056,TASK_BEGIN,021,0.6663449367622856,0.05234041421426675,-1.451924665637852,1.3140309824622938,-0.8793825664789069,0.2711481920873354,15.22241802270806,-1.5224226566862087,0
409,2024-09-27 16:26:28.210324992,TASK_BEGIN,021,0.6445487326229047,0.055880056129536726,-1.3478523630488517,1.2241710622635316,-0.8716944288115799,0.29446253454659044,15.10229884875455,-1.5289122626152283,0
410,2024-09-27 16:26:28.283325952,TASK_BEGIN,021,0.6202018141233099,0.059038924914699205,-1.2429581046372633,1.1341302225431809,-0.8587176961730341,0.31299038264157863,14.925323752633108,-1.4920552918813121,0
411,2024-09-27 16:26:28.350941952,TASK_BEGIN,021,0.5931990728306831,0.06198272631771069,-1.146000680939416,1.0483168276037838,-0.8417677692940142,0.326643506947451,14.687217283847733,-1.4100702269929606,0
412,2024-09-27 16:26:28.417881088,TASK_BEGIN,021,0.5633053135472227,0.06493038195556872,-1.0633831826616482,0.9704999389724559,-0.8220293072839497,0.33556456430096476,14.390730933939885,-1.2849963555414647,0
413,2024-09-27 16:26:29.361962240,TASK_BEGIN,021,0.5302680550855117,0.06813795095127194,-0.9981400256099742,0.9033904995326787,-0.800576834523813,0.3401289428347851,14.046920752722537,-1.1229248460122458,0
414,2024-09-27 16:26:29.429712128,TASK_BEGIN,021,0.49395221677250994,0.07187189275172857,-0.9495928923215824,0.8483646504833098,-0.7784399274039795,0.3408858931131804,13.674007246044484,-0.9334229155691508,0
415,2024-09-27 16:26:29.497456128,TASK_BEGIN,021,0.45444845014008095,0.07637978038671162,-0.913782135623309,0.8053834467814018,-0.7566462458488747,0.3384363291051317,13.294190769082933,-0.7283700205856527,0
416,2024-09-27 16:26:29.565128192,TASK_BEGIN,021,0.4121519072726868,0.08185945481708909,-0.8846068704463379,0.7731592396451933,-0.7362701609381124,0.3333145080272955,12.929970079092032,-0.52068426075462,0
417,2024-09-27 16:26:29.628568064,TASK_BEGIN,021,0.36781994294919446,0.08842627109298093,-0.8553709261863809,0.7495396358394927,-0.7185397218964813,0.3259465119104524,12.601121419407475,-0.3232162642668406,0
418,2024-09-27 16:26:29.700154112,TASK_BEGIN,021,0.32258885499639317,0.09608507383467414,-0.8202685978267548,0.7320076450358979,-0.7049627164489165,0.316693902504393,12.322746274624476,-0.14781760179057335,0
419,2024-09-27 16:26:29.752903936,TASK_BEGIN,021,0.27792180369210445,0.1047147067743125,-0.7753202338470141,0.7181516176217816,-0.6973767891790902,0.3059352219153564,12.104660416775072,-0.004548940274476938,0
420,2024-09-27 16:26:30.678275840,TASK_BEGIN,021,0.23548789155924482,0.11406893829442251,-0.718469079795053,0.7059525956366692,-0.6978280019329329,0.2941223652142755,11.952216502140923,0.09893747754307382,0
421,2024-09-27 16:26:30.740585216,TASK_BEGIN,021,0.19699811065667736,0.12379669709453063,-0.648959146927394,0.6938211311411855,-0.7082024915168,0.2817662767055252,11.867857275241871,0.1578190153583694,0
422,2024-09-27 16:26:30.818321920,TASK_BEGIN,021,0.16403083019772371,0.13347930081629078,-0.5664466453233221,0.6804623812448628,-0.7296802840593885,0.26935736135822524,11.852262537007775,0.1703477935502139,0
423,2024-09-27 16:26:30.879448064,TASK_BEGIN,021,0.1378748846028552,0.1426731526478763,-0.4703418860368653,0.6647443765943445,-0.7622804654457355,0.2572738203352247,11.904662698413937,0.13788516922357977,0
424,2024-09-27 16:26:30.956670976,TASK_BEGIN,021,0.11941060721727627,0.15094646882004625,-0.3597183054492855,0.6457148109057264,-0.8047505898808583,0.24573314675288996,12.02276243572644,0.06462819470061892,0
425,2024-09-27 16:26:31.018718976,TASK_BEGIN,021,0.10904253227354516,0.15790646646716594,-0.23381749714467032,0.6227803249265683,-0.8548188181974656,0.2348141144481257,12.202719538416243,-0.04299782677135463,0
426,2024-09-27 16:26:31.093229056,TASK_BEGIN,021,0.10668343089471291,0.1632188052755126,-0.0928258508533426,0.5959376560244553,-0.9096430070900913,0.22454134054188163,12.439220250737321,-0.17719497144922955,0
427,2024-09-27 16:26:32.031545856,TASK_BEGIN,021,0.11177190442758715,0.16662294975575637,0.06146746992795328,0.5659265902927191,-0.96624980767168,0.21498533721437818,12.725647480896209,-0.3297895298469659,0
428,2024-09-27 16:26:32.093452032,TASK_BEGIN,021,0.12330458633023958,0.16794685074685325,0.2253084206311987,0.53423982862254,-1.0217977344364453,0.20631847989550534,13.054447178795911,-0.4932165533397403,0
429,2024-09-27 16:26:32.172045824,TASK_BEGIN,021,0.13987520734005202,0.16712106036101848,0.39299048391127994,0.5029818354091364,-1.0736303890768055,0.19880197696034144,13.417589568678247,-0.6611950988660902,0
430,2024-09-27 16:26:32.240310784,TASK_BEGIN,021,0.159729027590304,0.16418576051990647,0.5573292119315953,0.4746023378321719,-1.1192400338470272,0.19272307179185102,13.806844274821696,-0.8288293666045208,0
431,2024-09-27 16:26:32.307153152,TASK_BEGIN,021,0.18086433702500868,0.1592776355848232,0.7104939366823093,0.45159529680680466,-1.156265966943236,0.1883168574867913,14.213924152890108,-0.992250565370608,0
432,2024-09-27 16:26:32.375645952,TASK_BEGIN,021,0.20120965392569845,0.15258943218780857,0.8448230001061938,0.4363001129045623,-1.1825246465179562,0.1856999665077853,14.630911460938156,-1.1482577335584176,0
433,2024-09-27 16:26:32.432527104,TASK_BEGIN,021,0.21885081784633398,0.14431772534889584,0.9533242240846298,0.4308487678856179,-1.1960249251640862,0.184836302573485,15.05117677090996,-1.294287508726016,0
434,2024-09-27 16:26:33.374384128,TASK_BEGIN,021,0.23223646316736044,0.13462947573688144,1.0299256234839342,0.4371523690678859,-1.195050448763929,0.18555802615747033,15.470476371214193,-1.4286153455848887,0
435,2024-09-27 16:26:33.454848000,TASK_BEGIN,021,0.24031418605644925,0.12366384114925039,1.0696677940307793,0.456825973622704,-1.1784804590808784,0.18765899043687767,15.887437750598966,-1.5504499068211917,0
436,2024-09-27 16:26:33.514142208,TASK_BEGIN,021,0.2425988497785119,0.1115591110227786,1.0688080658825212,0.49108225174491904,-1.146337927669005,0.19103387688414739,16.30275960089197,-1.6597160344117876,0
437,2024-09-27 16:26:33.576157952,TASK_BEGIN,021,0.23918634010442272,0.09848428467138025,1.024718928872615,0.5406622760209243,-1.1002805574919106,0.19579038369142385,16.717593384513147,-1.7566428517279007,0
438,2024-09-27 16:26:33.658001920,TASK_BEGIN,021,0.23071086785800576,0.08466549876073928,0.9356946657998338,0.6057898649026773,-1.0437399084062764,0.20227265804723443,17.132405227957324,-1.8414612468399207,0
439,2024-09-27 16:26:33.725662208,TASK_BEGIN,021,0.21823472190841553,0.07041083290946831,0.8009190190790153,0.6860980025274417,-0.9816210620365331,0.2109806522676992,17.54680109110971,-1.9144055547702679,0
440,2024-09-27 16:26:33.792702976,TASK_BEGIN,021,0.20307654456982663,0.05613414679367037,0.6206812026246096,0.7805256618894466,-0.9196419464706526,0.22241498661932452,17.959692751656902,-1.9759441962826696,0
441,2024-09-27 16:26:34.712308224,TASK_BEGIN,021,0.18662394980949165,0.04236338794346631,0.3967630817617711,0.8872273069741778,-0.8634728576728546,0.23691533471458515,18.369286276767486,-2.0269994028990572,0
442,2024-09-27 16:26:34.780069120,TASK_BEGIN,021,0.1701896076581689,0.029715209130472455,0.13290840882020005,1.0035362663989644,-0.8178970552149879,0.254564973629985,18.77305204947587,-2.0690141968396203,0
443,2024-09-27 16:26:34.847756032,TASK_BEGIN,021,0.15492536997917347,0.01883857865078737,-0.16478088361690924,1.1260061859618418,-0.786205100747034,0.2751903675976944,19.168165718195194,-2.1039703613782006,0
444,2024-09-27 16:26:34.914659840,TASK_BEGIN,021,0.14175735658315755,0.010353149562833593,-0.4877970516103322,1.2505414974133104,-0.769877439318085,0.2984290882710798,19.552563069739293,-2.134508699095211,0
445,2024-09-27 16:26:34.983128832,TASK_BEGIN,021,0.13130928249229762,0.004803880356541678,-0.825728072925973,1.3726241720640961,-0.7684483225231417,0.32381081670028344,19.925887061778116,-2.1640489433069976,0
446,2024-09-27 16:26:35.035852032,TASK_BEGIN,021,0.12382656428094592,0.0026311910252578828,-1.1672212161458972,1.4876395879446156,-0.7794905978744063,0.35080200467724193,20.289287824567843,-2.1966355040030923,0
447,2024-09-27 16:26:35.118500096,TASK_BEGIN,021,0.11913611271051827,0.004146026750658418,-1.5010521352093602,1.5912627226206044,-0.7987985428859302,0.3787952959522146,20.64387994102225,-2.2364228043532934,0
448,2024-09-27 16:26:36.062413056,TASK_BEGIN,021,0.116656966756618,0.009505093612937006,-1.8168997738187371,1.679802301819386,-0.8208549056412034,0.4070706684809279,20.98872496294662,-2.287001948084965,0
449,2024-09-27 16:26:36.130142208,TASK_BEGIN,021,0.11545903230711715,0.01868879881458027,-2.105659480292466,1.7504070621255847,-0.8395478709799015,0.43478498691658407,21.31950195862701,-2.3508347291995526,0
450,2024-09-27 16:26:36.197708032,TASK_BEGIN,021,0.11437074336238122,0.03148998397888241,-2.359403943307948,1.8011227360401643,-0.848970981170672,0.46102506135227345,21.6285925169159,-2.428927172451654,0
451,2024-09-27 16:26:36.265573120,TASK_BEGIN,021,0.11212787936524511,0.0475250938824908,-2.5711919093098055,1.8308546332043123,-0.8441304230881939,0.484913953547756,21.906559898837212,-2.5207468919427547,0
452,2024-09-27 16:26:36.332704000,TASK_BEGIN,021,0.10753570032390887,0.06627284177767598,-2.7349225131031845,1.8393040269888326,-0.8215112024903455,0.5057379844744475,22.144320221692023,-2.624361140293887,0
453,2024-09-27 16:26:36.399665152,TASK_BEGIN,021,0.09961543694649642,0.08713123567032847,-2.8454146866487897,1.8269221424700344,-0.7795157386459708,0.5230573009576029,22.33511452674054,-2.7367680046405054,0
454,2024-09-27 16:26:36.468691200,TASK_BEGIN,021,0.08771654593708589,0.10947608027052912,-2.898737114044048,1.7948720334063673,-0.7187032375244005,0.5367649117985169,22.475787756816576,-2.8543304884011413,0
455,2024-09-27 16:26:37.410662912,TASK_BEGIN,021,0.07159164259721974,0.1327037426728993,-2.8926039168449846,1.7449572676666323,-0.6417344130542256,0.5470798478150546,22.567257888594757,-2.973142037150758,0
456,2024-09-27 16:26:37.473187072,TASK_BEGIN,021,0.05144319715348269,0.15624638512611283,-2.8266415320209854,1.6795092917409258,-0.5530527452630861,0.5544844811963592,22.614067172603665,-3.0891664767927995,0
457,2024-09-27 16:26:37.535672832,TASK_BEGIN,021,0.02792367321969199,0.17956646244059737,-2.702492369293946,1.6012668475116163,-0.4584211329864717,0.5596197016460168,22.622963360686775,-3.198151748176531,0
458,2024-09-27 16:26:37.613183232,TASK_BEGIN,021,0.0020410971513385922,0.20215489775412107,-2.523785131772274,1.513262113536733,-0.36441022283219526,0.5631581457768452,22.600711734829904,-3.2954857681327923,0
459,2024-09-27 16:26:37.675702016,TASK_BEGIN,021,-0.02503472287028295,0.2235493687133865,-2.2959267997660313,1.4186858030562646,-0.2778708089175365,0.5656949961954376,22.551629537131063,-3.3761987503371333,0
460,2024-09-27 16:26:37.750438912,TASK_BEGIN,021,-0.05220140743555874,0.24336675473308583,-2.025645223306003,1.3207062438504051,-0.20531401425360538,0.5676826478628305,22.475566520872846,-3.4352192569368585,0
461,2024-09-27 16:26:37.818131712,TASK_BEGIN,021,-0.0786177506191466,0.2613355193801905,-1.7203660985343279,1.2222707080630044,-0.15212349247026827,0.5694010953931194,22.366989065078247,-3.467839710871113,0
462,2024-09-27 16:26:38.761907968,TASK_BEGIN,021,-0.10382780782779152,0.27732037863501224,-1.3877350445684442,1.1259771056116323,-0.1217915294138968,0.5709641894137434,22.215565899010905,-3.4702706171777074,0
463,2024-09-27 16:26:38.829657856,TASK_BEGIN,021,-0.1278032199940252,0.29133359929560554,-1.0355623628909014,1.0340920013401085,-0.11557619375072627,0.5723852759456655,22.008261584221543,-3.440203630990131,0
464,2024-09-27 16:26:38.897378048,TASK_BEGIN,021,-0.1508894919558106,0.30352299929765375,-0.6721040740227456,0.948685649465403,-0.13276394194624055,0.573694272987323,21.732183604167005,-3.3773088783591474,0
465,2024-09-27 16:26:38.961116928,TASK_BEGIN,021,-0.17365214683219507,0.3141333962304564,-0.3063202664169909,0.8717668997126576,-0.17133634088202201,0.5750418472402123,21.37712285728137,-3.283534658445922,0
466,2024-09-27 16:26:39.032777984,TASK_BEGIN,021,-0.196668482101856,0.32345402912761567,0.05213237259597172,0.8053162771313845,-0.22868887395138332,0.5767243746206875,20.93748441453082,-3.163121648843134,0
467,2024-09-27 16:26:39.100438272,TASK_BEGIN,021,-0.2203546238977562,0.3317682299264668,0.39314103164947967,0.7511928190423331,-0.3021598595893925,0.5791217321687796,20.41386056873592,-3.022354690477749,0
468,2024-09-27 16:26:39.167435776,TASK_BEGIN,021,-0.24488575592778897,0.33931041460102623,0.7064795023338657,0.7109623039561012,-0.3893108766475514,0.5825960666181663,19.81422211381851,-2.8690757452541846,0
469,2024-09-27 16:26:40.103436032,TASK_BEGIN,021,-0.27018657935665386,0.3462260363466085,0.9821911528989787,0.6857238480218109,-0.4880322107090404,0.5874102037653032,19.154510098482444,-2.7119228736682364,0
470,2024-09-27 16:26:40.180399872,TASK_BEGIN,021,-0.2959430717676989,0.3525345832438148,1.2109798788355701,0.6759912852754525,-0.5965677502451171,0.5936941005909366,18.458508887617104,-2.5593524821066507,0
471,2024-09-27 16:26:40.239638272,TASK_BEGIN,021,-0.3216312428487627,0.35810887399127467,1.3845669776289813,0.6816441070780608,-0.7134835993811318,0.6014466042397748,17.75676743019164,-2.4186821539862318,0
472,2024-09-27 16:26:40.315851008,TASK_BEGIN,021,-0.3465814701135331,0.362687004580859,1.4960631633789263,0.7019240052098543,-0.8375657813981661,0.6105482583701888,17.084045550275764,-2.2953448188403542,0
473,2024-09-27 16:26:40.378500096,TASK_BEGIN,021,-0.37006991369974107,0.36591955848525615,1.5405201182683437,0.7354349802204401,-0.9676614579342343,0.6207815029820855,16.47498792268579,-2.1923497152181124,0
474,2024-09-27 16:26:40.451309056,TASK_BEGIN,021,-0.3914092530473666,0.3674392480414402,1.5156815309019334,0.7801360735562902,-1.1024724592130313,0.6318579044965925,15.958920919244932,-2.1099880168544938,0
475,2024-09-27 16:26:40.518993920,TASK_BEGIN,021,-0.4100161562076376,0.3669338408035597,1.4225895744211285,0.8333760460296954,-1.2402785287067972,0.6434279875341938,15.555879867369386,-2.045987464961447,0
476,2024-09-27 16:26:41.437652224,TASK_BEGIN,021,-0.4254465874948421,0.36420399938543185,1.2656373430557752,0.8920287382981177,-1.3786436384580625,0.6550558549172982,15.275695189214003,-1.996209307799843,0
477,2024-09-27 16:26:41.499862016,TASK_BEGIN,021,-0.4374092510181775,0.35919467974570707,1.052061363177972,0.952710218276133,-1.5142935246397802,0.6661888066110913,15.1201389406799,-1.9556667819697604,0
478,2024-09-27 16:26:41.562195968,TASK_BEGIN,021,-0.4457707564734136,0.35200033590034585,0.7912249256286136,1.0119813316567061,-1.6433156168001417,0.6761681794959183,15.086354047310268,-1.9194806364049,0
479,2024-09-27 16:26:41.640367872,TASK_BEGIN,021,-0.45054086479095085,0.34285068356459736,0.4940444061551802,1.066463609596703,-1.7615934586209558,0.6842887957601372,15.16954138808051,-1.8834825456544002,0
480,2024-09-27 16:26:41.708472832,TASK_BEGIN,021,-0.4518138681411554,0.33208044668932507,0.1727391945823524,1.1128769408749828,-1.8652125968570987,0.6898805445700349,15.363928199638142,-1.844409284004548,0
481,2024-09-27 16:26:41.776035840,TASK_BEGIN,021,-0.44967820979482254,0.32008557529946796,-0.15916724280585506,1.1480486991637764,-1.9506484671477977,0.692377502116777,15.662066135702366,-1.7998037682999677,0
482,2024-09-27 16:26:41.843835136,TASK_BEGIN,021,-0.4441486109645334,0.30727671601212875,-0.4869318527814532,1.168951165432837,-2.0147519641238456,0.6913397293560157,16.05299716646772,-1.7477751917814195,0
483,2024-09-27 16:26:42.787714816,TASK_BEGIN,021,-0.43516188509747644,0.29404352371323356,-0.7951053165253588,1.1728164079306156,-2.0547037266062027,0.686421132950904,16.520306550246254,-1.6867967296508881,0
484,2024-09-27 16:26:42.855496704,TASK_BEGIN,021,-0.42262512966136034,0.2807329779663006,-1.0684830715334805,1.1573307066546763,-2.0681381320879613,0.677334959335548,17.041523794092935,-1.6157118374368813,0
485,2024-09-27 16:26:42.917673984,TASK_BEGIN,021,-0.40647965055411944,0.2676354450143352,-1.2931426643507398,1.1208499856565295,-2.0535100487920457,0.6638848324385007,17.589793595770637,-1.5339502899925888,0
486,2024-09-27 16:26:42.990894080,TASK_BEGIN,021,-0.38676536584699184,0.25497393746269886,-1.4571798574937498,1.0625746509418128,-2.010601148073681,0.6460763015564056,18.137341532006122,-1.4418327638845319,0
487,2024-09-27 16:26:43.052712960,TASK_BEGIN,021,-0.36368805679838423,0.24289787633057994,-1.5510259083780606,0.982668060022309,-1.9410190349442198,0.6242693539958782,18.659384373200595,-1.3409017326361787,0
488,2024-09-27 16:26:43.125783808,TASK_BEGIN,021,-0.3376742895847652,0.2314843793976103,-1.567528421141495,0.8823201464853394,-1.848563157975692,0.599305476637403,19.13715701679571,-1.234190760643306,0
489,2024-09-27 16:26:43.193991936,TASK_BEGIN,021,-0.3093878414588794,0.2207476608308853,-1.502098277406144,0.7637416750495328,-1.7393011478574827,0.5725334389150629,19.559146773592406,-1.1262515669522986,0
490,2024-09-27 16:26:44.137804032,TASK_BEGIN,021,-0.2797060213071216,0.21065308635414115,-1.3531089695673433,0.6300788731148175,-1.6212400379978955,0.5456986242924554,19.9203238698707,-1.0228728407057428,0
491,2024-09-27 16:26:44.205530112,TASK_BEGIN,021,-0.24967318059762741,0.20112869410913797,-1.122452702973475,0.48524653622848923,-1.5036366496391997,0.5207338824412826,20.21983025639499,-0.9305814643057853,0
492,2024-09-27 16:26:44.270529024,TASK_BEGIN,021,-0.22042825982392142,0.19206789903591753,-0.8158995061648525,0.3336591297003157,-1.3961176249306417,0.4995199687778267,20.45803885173785,-0.8560089336101795,0
493,2024-09-27 16:26:44.329997056,TASK_BEGIN,021,-0.19308059282299,0.18332543166961054,-0.44292647982636,0.17985761672060385,-1.3077979084600362,0.483669012760045,20.63414354457766,-0.8051852324481399,0
494,2024-09-27 16:26:44.408528128,TASK_BEGIN,021,-0.16853876417781607,0.17471557750509972,-0.016003369991995687,0.02811233768967651,-1.246541942257429,0.47436457079437183,20.745041353311205,-0.782835378672112,0
495,2024-09-27 16:26:44.466281984,TASK_BEGIN,021,-0.14736415649080772,0.16602014148384953,0.4503897710915276,-0.11786925798757038,-1.2184359579489275,0.47226977351202604,20.78563923046381,-0.7917865574749792,0
496,2024-09-27 16:26:44.528864000,TASK_BEGIN,021,-0.12973609857636206,0.1570124210370047,0.9406600979406957,-0.2550346488770845,-1.2274315724037608,0.4774942653955151,20.750637239344343,-0.832666253686749,0
497,2024-09-27 16:26:45.488455936,TASK_BEGIN,021,-0.11553680702137738,0.1475028020238457,1.438641895204324,-0.38086084486401756,-1.27503544410002,0.4896038571320775,20.637497182134204,-0.9039805944194276,0
498,2024-09-27 16:26:45.549165056,TASK_BEGIN,021,-0.1044726540720235,0.13739800931207977,1.9277517100337327,-0.4931000602660439,-1.3599684402241077,0.5076540919301095,20.449438206279677,-1.002414497270861,0
499,2024-09-27 16:26:45.610716928,TASK_BEGIN,021,-0.0961481498020034,0.12675127998606234,2.3909973066319696,-0.5895466485523799,-1.4778801129344334,0.5302235038989237,20.19722720201896,-1.123158428490282,0
500,2024-09-27 16:26:45.690932992,TASK_BEGIN,021,-0.09008538586916143,0.11578672364517154,2.8111103193044227,-0.6679167409259035,-1.6213331111679719,0.5554463481831148,19.89929970738511,-1.2602574787523355,0
501,2024-09-27 16:26:45.759362048,TASK_BEGIN,021,-0.0857371345895536,0.10489651821851519,3.1709518915979436,-0.725845295073599,-1.7802796601226623,0.5811005618856199,19.58028560105608,-1.4070567554031188,0
502,2024-09-27 16:26:45.813918976,TASK_BEGIN,021,-0.08252906778391027,0.09461388423959657,3.454308221325865,-0.7610057123472423,-1.9431019221237984,0.6048148848546486,19.268379237757024,-1.5567291009239865,0
503,2024-09-27 16:26:45.892008960,TASK_BEGIN,021,-0.07991509727158853,0.08556434265084456,3.6471836804057496,-0.7713776596566034,-2.0980146058418176,0.6243772437070428,18.992469099826064,-1.7028329095514465,0
504,2024-09-27 16:26:46.811048960,TASK_BEGIN,021,-0.077398368078849,0.07840157753823704,3.739447976433886,-0.7556200307379761,-2.234450374162585,0.6380429318348426,18.779917799802973,-1.8398868834043058,0
505,2024-09-27 16:26:46.878767104,TASK_BEGIN,021,-0.07449551627692229,0.07373497908910544,3.7263188059251346,-0.713403646340398,-2.3441542461370233,0.6447522335838717,18.65517168312993,-1.9639075075413213,0
506,2024-09-27 16:26:46.942635008,TASK_BEGIN,021,-0.07067224811016769,0.07205358050407132,3.609158315671975,-0.6455735024850258,-2.4219164244041727,0.6442342368750276,18.638742782163067,-2.0727607631429903,0
507,2024-09-27 16:26:47.013478144,TASK_BEGIN,021,-0.06530035468421777,0.07365646149459519,3.395475185851767,-0.5541575331129591,-2.465900565092895,0.6370033999510109,18.74606554926541,-2.166215319726783,0
508,2024-09-27 16:26:47.081464064,TASK_BEGIN,021,-0.057678002644719596,0.07860839731824186,3.098314879229375,-0.442339653834404,-2.47749232911141,0.6242565124217333,18.98605404190439,-2.245716449517912,0
509,2024-09-27 16:26:47.149457920,TASK_BEGIN,021,-0.04712974370648733,0.08673400474835583,2.7351318798592494,-0.31444509582704033,-2.460701471141381,0.6076988530878329,19.35956429001089,-2.3139738589765795,0
510,2024-09-27 16:26:47.206032896,TASK_BEGIN,021,-0.033157697065627066,0.09764534360717105,2.326127416899101,-0.1758563141814764,-2.4213155467100735,0.5893438664671325,19.858419733823442,-2.3744906575941678,0
511,2024-09-27 16:26:48.160832000,TASK_BEGIN,021,-0.01557430259945093,0.11078682332991585,1.8922172900016592,-0.032755405538017465,-2.3660499364347953,0.5713117069441153,20.465904801926122,-2.4311659781121633,0
512,2024-09-27 16:26:48.227314944,TASK_BEGIN,021,0.005454464297257404,0.12548348844471732,1.4530931575071302,0.10830616923970425,-2.30181035327519,0.5556285139003739,21.159008416711675,-2.488003938561989,0
513,2024-09-27 16:26:48.296299008,TASK_BEGIN,021,0.029481975444355893,0.14098439287009587,1.0259383172635494,0.24088698883137377,-2.2350459231533257,0.5440316569356969,21.91144778930596,-2.5488117144932474,0
514,2024-09-27 16:26:48.363987968,TASK_BEGIN,021,0.0559289939346191,0.15649580797562423,0.6250825366907964,0.35905028754006046,-2.1712173638192866,0.5378108279114759,22.69596808948549,-2.6167216068717996,0
515,2024-09-27 16:26:48.429505024,TASK_BEGIN,021,0.0842268452910195,0.1712027054988247,0.2622806567709696,0.45765487502401714,-2.114493316399236,0.5377210023680947,23.485270192017857,-2.6935182688122956,0
516,2024-09-27 16:26:48.499392000,TASK_BEGIN,021,0.11390127160645587,0.18428508620432596,-0.05310499421525559,0.5326224648453737,-2.0676986359918184,0.5439633382775199,24.252224615253393,-2.7789968141703447,0
517,2024-09-27 16:26:48.552835840,TASK_BEGIN,021,0.14459278992817842,0.1949435702748722,-0.31438285649966824,0.5812209494838213,-2.032369876881588,0.5561864756319,24.970492951488037,-2.8706541333827102,0
518,2024-09-27 16:26:49.507394048,TASK_BEGIN,021,0.17602102277938456,0.20244816249855624,-0.5179475785329053,0.6022941598310753,-2.0087538385796266,0.5734731434247808,25.616047468497737,-2.9638504299914694,0
519,2024-09-27 16:26:49.569458944,TASK_BEGIN,021,0.2078827177735966,0.2062132118148254,-0.6634548645328289,0.5963651911957041,-1.9957758850307947,0.5943376918177627,26.169006733723133,-3.0523786568434312,0
520,2024-09-27 16:26:49.646300160,TASK_BEGIN,021,0.23968575711094267,0.20588605586839656,-0.7538253330473169,0.565622089684885,-1.9911970499560279,0.6168074939830361,26.614633103720905,-3.129290587665914,0
521,2024-09-27 16:26:49.712662784,TASK_BEGIN,021,0.27058031819849,0.20142490948937697,-0.7952229930164234,0.513790744189489,-1.9921028059756793,0.638638159976817,26.942849501698014,-3.1878308214814646,0
522,2024-09-27 16:26:49.774724096,TASK_BEGIN,021,0.29929340933452536,0.19313481203634708,-0.7968488060276012,0.44584039793933405,-1.9956039502969334,0.6576294720977367,27.146714570893554,-3.2223516464777635,0
523,2024-09-27 16:26:49.848740864,TASK_BEGIN,021,0.3242373495262861,0.18163369448124975,-0.7702255385342306,0.3674966325619856,-1.9994871915852337,0.671945373543113,27.220906647014665,-3.229086650041383,0
524,2024-09-27 16:26:49.910296832,TASK_BEGIN,021,0.3437621220929406,0.16774779001012982,-0.727788365073421,0.2846302324283637,-2.00259585639569,0.6803440704607436,27.16114779493428,-3.2067102023074554,0
525,2024-09-27 16:26:50.861355008,TASK_BEGIN,021,0.3564404360201414,0.15237726011277813,-0.6810215262613232,0.20265950915837702,-2.004843828753988,0.6822691601467344,26.96501054175544,-3.156684024281321,0
526,2024-09-27 16:26:50.929072896,TASK_BEGIN,021,0.36127381250088436,0.13638742883628463,-0.6387876979540827,0.12611435766514778,-2.006924084258075,0.677807513401319,26.63383681724527,-3.0833724985333077,0
527,2024-09-27 16:26:50.996787968,TASK_BEGIN,021,0.35777727828359024,0.12054826338011278,-0.6064072805745315,0.058444844451471877,-2.0098903893897404,0.6675579074072845,26.1749034666514,-2.9938642049072675,0
528,2024-09-27 16:26:51.056540160,TASK_BEGIN,021,0.3459722097730567,0.10550322531532788,-0.5856126928450445,0.0020522033503785706,-2.014776217320161,0.652460366491815,25.60303605036552,-2.89744123145108,0
529,2024-09-27 16:26:51.132139008,TASK_BEGIN,021,0.3263385084350518,0.09174486758801315,-0.5752076460680905,-0.04155027467075175,-2.022312454659898,0.6336274684848503,24.94127122055062,-2.804613572955166,0
530,2024-09-27 16:26:51.195632128,TASK_BEGIN,021,0.2997641154207563,0.07959616704052407,-0.5721132250194682,-0.07155242376109168,-2.0327264431318697,0.6122076636369813,24.220268184761693,-2.725730926685159,0
531,2024-09-27 16:26:51.258537984,TASK_BEGIN,021,0.2675075816099709,0.06920625562716692,-0.5723667123078249,-0.08772150899009871,-2.0456103723335404,0.589293244242053,23.476201199251204,-2.669473703573904,0
532,2024-09-27 16:26:52.187863040,TASK_BEGIN,021,0.23115482143070665,0.060566544053104486,-0.5717264724274604,-0.0903729503594711,-2.0598941634441035,0.5658696340274707,22.747314039833793,-2.641620302235588,0
533,2024-09-27 16:26:52.241571072,TASK_BEGIN,021,0.19253172195077287,0.05354934637046495,-0.5658732791334709,-0.08041508964618604,-2.073950913276368,0.5427913600951983,22.070098986856845,-2.644278456432963,0
534,2024-09-27 16:26:52.318438912,TASK_BEGIN,021,0.1535666048099579,0.047960631543307056,-0.5504577703453623,-0.05940498282456042,-2.085815834696235,0.5207677546682822,21.47644814126579,-2.6756635228010097,0
535,2024-09-27 16:26:52.379111168,TASK_BEGIN,021,0.11614012565256644,0.043587162364375785,-0.5211697163641014,-0.029555596336186957,-2.0934853304944387,0.5003504777936272,20.992364529340296,-2.730542429730174,0
536,2024-09-27 16:26:52.458636032,TASK_BEGIN,021,0.08195565951954568,0.040223193125500975,-0.47384557861015675,0.006351079086668998,-2.0952472491520093,0.4819142959420285,20.637478215671123,-2.801314257185565,0
537,2024-09-27 16:26:52.520073984,TASK_BEGIN,021,0.05243662264532506,0.037678793631023236,-0.40468742886061954,0.04517747286643377,-2.089955875029598,0.46562014162737553,20.424341731536966,-2.879461172760629,0
538,2024-09-27 16:26:52.594077952,TASK_BEGIN,021,0.028650062490980257,0.03578087937916486,-0.3107150278825093,0.08374417146166024,-2.077184657663235,0.4513765003378678,20.35743989881119,-2.957013757907129,0
539,2024-09-27 16:26:53.533767936,TASK_BEGIN,021,0.01125085617610839,0.03437517785187988,-0.1903776708188654,0.11914473460414693,-2.0572509661414995,0.43883968843234517,20.43241208570192,-3.0276471118369646,0
540,2024-09-27 16:26:53.595628032,TASK_BEGIN,021,0.0004391899728310982,0.0333305859174529,-0.044090280034448245,0.14897281856158837,-2.0311260123464665,0.42747265518290756,20.635832068879093,-3.0871407115284,0
541,2024-09-27 16:26:53.657884928,TASK_BEGIN,021,-0.004056760325073194,0.032540848349130486,0.1254332058465236,0.1714546429102363,-2.0002562296705966,0.4166453241540075,20.946039336933715,-3.1333613401817386,0
542,2024-09-27 16:26:53.740459008,TASK_BEGIN,021,-0.002957422710065599,0.03191891146513173,0.3130443708469786,0.18552682051100186,-1.9663742907318913,0.4057464874834511,21.335494386420493,-3.1661871683642255,0
543,2024-09-27 16:26:53.808160256,TASK_BEGIN,021,0.0026268107249448162,0.03138725914617391,0.5112873259403394,0.1908678121182239,-1.9314023893957573,0.39428646793841865,21.77421230542628,-3.187464084963408,0
544,2024-09-27 16:26:53.874787072,TASK_BEGIN,021,0.011291773862423762,0.03086847076960453,0.7109354756192825,0.18784144143123144,-1.8974726839651885,0.3819810224080426,22.233226078593052,-3.200751365883077,0
545,2024-09-27 16:26:53.943652096,TASK_BEGIN,021,0.021498233516657105,0.030272594987387397,0.9019710175740715,0.17732685777086113,-1.8669324502888636,0.3687971564755295,22.68745260761112,-3.2107826754223794,0
546,2024-09-27 16:26:54.887480064,TASK_BEGIN,021,0.03178723482702958,0.029479940949328726,1.074777741095446,0.16049297982972674,-1.8421492144059277,0.35493101974337277,23.117654302304295,-3.222812114369304,0
547,2024-09-27 16:26:54.954755072,TASK_BEGIN,021,0.0409890330564721,0.028330631884244527,1.2211399591471794,0.13862807374077113,-1.825111247944361,0.34072206122168436,23.51113197984985,-3.241978808556501,0
548,2024-09-27 16:26:55.017974016,TASK_BEGIN,021,0.04835842505763049,0.02663671803157121,1.3347868664126785,0.11309002892183334,-1.8169895746171423,0.3265465061063254,23.861154616132687,-3.2727247872698615,0
549,2024-09-27 16:26:55.080165888,TASK_BEGIN,021,0.05361017597196781,0.024221364914731015,1.411547248090529,0.08535138494924505,-1.8177599502709794,0.31271663340553585,24.165719200296763,-3.3182818046928366,0
550,2024-09-27 16:26:55.157769984,TASK_BEGIN,021,0.05686432173657864,0.020971927735626363,1.4492873547065535,0.05704192893563197,-1.8259027442841445,0.29938975816981067,24.42630304261912,-3.3802374539536157,0
551,2024-09-27 16:26:55.225604864,TASK_BEGIN,021,0.058535771299836385,0.016884424719490313,1.4476937103230276,0.029890188702799563,-1.8382816878942363,0.2865085918769288,24.646831948699436,-3.458195542688175,0
552,2024-09-27 16:26:55.280697088,TASK_BEGIN,021,0.059213542129301966,0.012083597284761707,1.407926020711933,0.005570653823534681,-1.8503217170707993,0.27380109511764755,24.8326474090342,-3.549590181761203,0
553,2024-09-27 16:26:56.237504768,TASK_BEGIN,021,0.05955361562534897,0.006818222778623578,1.3322296828916897,-0.01442979658301508,-1.856482612881819,0.2608416239062844,24.989292956929205,-3.6497626379568278,0
554,2024-09-27 16:26:56.294863104,TASK_BEGIN,021,0.06016829815632896,0.0014445630358628381,1.2235955553427522,-0.02884584638737821,-1.8509646041035424,0.2471586560089689,25.12136706617101,-3.7523760297504114,0
555,2024-09-27 16:26:56.357745920,TASK_BEGIN,021,0.061488205554383446,-0.00358921597808827,1.0855140895767474,-0.03659424612127286,-1.8285853472827533,0.23236710309411757,25.231763531350744,-3.85006805090988,0
556,2024-09-27 16:26:56.440698112,TASK_BEGIN,021,0.06362171157210077,-0.00776037125904365,0.921875896493805,-0.03673474721742947,-1.7857058302963433,0.21628785459254715,25.321158583151526,-3.935071987276959,0
557,2024-09-27 16:26:56.508379904,TASK_BEGIN,021,0.06627461305756736,-0.010503615830193602,0.7370276363817827,-0.02849106365525172,-1.7210137435912474,0.19902352116166258,25.387437965198536,-3.999641650828286,0
558,2024-09-27 16:26:56.576111104,TASK_BEGIN,021,0.06876558037619197,-0.011261041491163781,0.5359051216432273,-0.011355500875686767,-1.6359759150725657,0.1809908076454264,25.42531171658135,-4.036422245262311,0
559,2024-09-27 16:26:56.640419072,TASK_BEGIN,021,0.07012472991254938,-0.009539587965396822,0.3241586912997748,0.014750566801729422,-1.5348376120787461,0.16292435202831979,25.426898640012748,-4.03899957252124,0
560,2024-09-27 16:26:57.561286912,TASK_BEGIN,021,0.06924396014796655,-0.004963297747257475,0.10818851830329917,0.04934253978997391,-1.4241696273330613,0.14585475134735587,25.383630430749154,-4.0026131492191706,0
561,2024-09-27 16:26:57.630381056,TASK_BEGIN,021,0.0650493879313458,0.0026901518286906105,-0.10503820790409318,0.09135992788722079,-1.3120753616487173,0.1310466793175535,25.288697034177453,-3.924785363631323,0
562,2024-09-27 16:26:57.698110976,TASK_BEGIN,021,0.05666722946641005,0.013475624496448601,-0.30846665366537257,0.13930669175978078,-1.20718717980269,0.11988124534557296,25.138768366756945,-3.805671016280921,0
563,2024-09-27 16:26:57.765607168,TASK_BEGIN,021,0.043551893399803435,0.02728659150702696,-0.49565108422058407,0.1914766225793471,-1.117571270546598,0.11368808614544103,24.93434208901397,-3.6480994493118972,0
564,2024-09-27 16:26:57.833046784,TASK_BEGIN,021,0.02555643073770599,0.04386819978852116,-0.6614912774266312,0.24615682648425719,-1.0496971500056775,0.11355508421814081,24.679070781144976,-3.457362822766874,0
565,2024-09-27 16:26:57.899116032,TASK_BEGIN,021,0.002957570913601454,0.06282510372055645,-0.80283682620256,0.3017577546224746,-1.0076465753093107,0.12014922031331401,24.379136762753724,-3.2408860434830737,0
566,2024-09-27 16:26:57.967884032,TASK_BEGIN,021,-0.023542290030086455,0.08362336794341528,-0.9188067576208985,0.3568937223867356,-0.9926980299354238,0.13358800289407924,24.043513914608297,-3.0079555336034156,0
567,2024-09-27 16:26:58.909651200,TASK_BEGIN,021,-0.05284836836783998,0.10559887158228759,-1.0107074420735591,0.4104485584253687,-1.0033495232338205,0.15340390495446413,23.684841613273285,-2.769506277567469,0
568,2024-09-27 16:26:58.976862720,TASK_BEGIN,021,-0.08356964097821047,0.1279859030182703,-1.0815610036942898,0.4616143748502288,-1.035722775244393,0.17861413997168535,23.319925571660033,-2.53773464838017,0
569,2024-09-27 16:26:59.040064256,TASK_BEGIN,021,-0.11416296079057038,0.14996766120153954,-1.1353978290518862,0.5098663284801315,-1.0841894439670878,0.20786144177437132,22.96912865247627,-2.325317837860263,0
570,2024-09-27 16:26:59.101652224,TASK_BEGIN,021,-0.1430822875800043,0.17074097761952778,-1.1765267997589495,0.5548710418512527,-1.1420798900330789,0.23957851960247656,22.654506260184974,-2.1442777818084933,0
571,2024-09-27 16:26:59.180515072,TASK_BEGIN,021,-0.16892332561057022,0.1895865331221309,-1.2089863178715374,0.5963685217875415,-1.2024111285673176,0.27215001453299864,22.397181000541128,-2.004775534207127,0
572,2024-09-27 16:26:59.248285184,TASK_BEGIN,021,-0.1905802373837746,0.2059346288090104,-1.2362093176956672,0.6340613785050089,-1.2585916084845912,0.3040596719948974,22.214984513297814,-1.9141496969926668,0
573,2024-09-27 16:26:59.315949056,TASK_BEGIN,021,-0.20739845429023107,0.21941419333203394,-1.2607059766146569,0.6675245383826008,-1.305062083776507,0.3340084085446422,22.121335438600713,-1.8763875172389404,0
574,2024-09-27 16:27:00.262184960,TASK_BEGIN,021,-0.21926683591093185,0.22987425916329482,-1.2836540902088693,0.6961740411304159,-1.3378270957143494,0.36099079831353265,22.125493373472512,-1.8920813022943257,0
575,2024-09-27 16:27:00.318551040,TASK_BEGIN,021,-0.22660806397683664,0.23737285857781978,-1.3046313459126233,0.7193609047868471,-1.3547716339929892,0.3843222783626665,22.2334471651044,-1.9587865733890675,0
576,2024-09-27 16:27:00.397649152,TASK_BEGIN,021,-0.23028169934035123,0.24213652204375896,-1.3218114464813338,0.7365830473051418,-1.3556487682386342,0.4036171055481058,22.448672398640397,-2.07163813329837,0
577,2024-09-27 16:27:00.464454912,TASK_BEGIN,021,-0.2314458793559546,0.2445040504726684,-1.332613475880261,0.747682180323998,-1.341781706029469,0.4187393555086829,22.77247193470392,-2.2241223676982274,0
578,2024-09-27 16:27:00.533046784,TASK_BEGIN,021,-0.23140716135739148,0.24487373539569537,-1.3344335721269853,0.7528846904268401,-1.3156920805361825,0.42976423325943175,23.20371707229373,-2.4088942355936944,0
579,2024-09-27 16:27:00.599939328,TASK_BEGIN,021,-0.23145718093490067,0.24366353284058548,-1.3250729131764265,0.7526644243976491,-1.2808301774322666,0.43696846891480695,23.73785585298849,-2.6184763929214943,0
