,time,MARKER,pid,L_O_DSI,L_D_DSI,L_O_DSphi,L_D_DSphi,R_O_DSI,R_D_DSI,R_O_DSphi,R_D_DSphi,trial_id
0,2024-09-27 22:14:03.478398208,0,022,-0.4504992312043699,-0.4341142246915079,0.35810184696551217,-0.663523459638746,3.552600104665918,-1.5084230300773942,-36.412733289882375,14.19536684246923,0
1,2024-09-27 22:14:04.412982016,0,022,-0.48434709864937997,-0.3332594441570944,0.2474575874284778,-0.6436393616814201,4.519919627614188,-2.1024346863401644,-33.581744374156266,9.784466322507749,0
2,2024-09-27 22:14:04.490110976,0,022,-0.516353304879336,-0.23573460121862208,0.1375516739251938,-0.6259284356741118,5.456943063441456,-2.6784602731614386,-30.90763713695296,5.497524873616183,0
3,2024-09-27 22:14:04.552509952,0,022,-0.5443176929733722,-0.14457320837788623,0.03261365672832101,-0.6119719167236567,6.330258581525353,-3.219209637709963,-28.46340393782929,1.4510901122194853,0
4,2024-09-27 22:14:04.614085888,0,022,-0.5665949454945137,-0.062341323676405956,-0.06448192486463221,-0.6025449177652329,7.112258440529664,-3.709571269878194,-26.310559576308783,-2.2596106881394418,0
5,2024-09-27 22:14:04.691361792,0,022,-0.5822791725836,0.009018515863072498,-0.15218845767827796,-0.5975004593193717,7.782756851377614,-4.137500643993774,-24.49633041892688,-5.56630753392203,0
6,2024-09-27 22:14:04.753849088,0,022,-0.5912671800273069,0.06825516860362174,-0.22989413388873556,-0.5958322374262021,8.329245942182597,-4.49434343249036,-23.05032048049494,-8.430269182686343,0
7,2024-09-27 22:14:04.815481856,0,022,-0.5942025488589107,0.11478740535602264,-0.2975733433889118,-0.5958612078059833,8.746119429652401,-4.774511693446441,-21.982200027035788,-10.84212185736974,0
8,2024-09-27 22:14:05.767008000,0,022,-0.5923299387885629,0.14861859184470808,-0.35575280784658453,-0.5954597989236894,9.033516262597518,-4.974874073631961,-21.282755203427165,-12.817926773287578,0
9,2024-09-27 22:14:05.829493248,0,022,-0.5873155916963437,0.17022863853766299,-0.4058001009637412,-0.5922637233308433,9.196268737218055,-5.09425545822606,-20.928631090998657,-14.391116788116841,0
10,2024-09-27 22:14:05.891977984,0,022,-0.5810939714329674,0.1804775802851121,-0.4502931005903759,-0.5838904794963882,9.242954324637093,-5.133078983695752,-20.888557167106157,-15.602201701024413,0
11,2024-09-27 22:14:05.975049984,0,022,-0.5757667228363158,0.1805311705567912,-0.49311079241373207,-0.5682051696254883,9.184892536745048,-5.0930431779273455,-21.12811436452247,-16.48973957966995,0
12,2024-09-27 22:14:06.041897984,0,022,-0.5735270565185967,0.17179814192962317,-0.5389326820024168,-0.5436568029004484,9.03514956201739,-4.976879959280551,-21.611069004421168,-17.085235770926896,0
13,2024-09-27 22:14:06.110343936,0,022,-0.5765570148865871,0.15586403616107591,-0.5921028397028583,-0.5096266654948499,8.807658077281094,-4.788291926166462,-22.297164770976504,-17.412234063241545,0
14,2024-09-27 22:14:06.168930816,0,022,-0.5868719565016879,0.1344151911716672,-0.6552646984416207,-0.4666057034044304,8.516333097728102,-4.532055896963835,-23.13830660426959,-17.488341630762577,0
15,2024-09-27 22:14:07.122203136,0,022,-0.6061369348148021,0.10916149038859072,-0.7284107786453232,-0.41607612045320846,8.174087540845825,-4.214234081334462,-24.075944770115797,-17.329034895333407,0
16,2024-09-27 22:14:07.181331968,0,022,-0.635505077287035,0.08177350303989182,-0.8087541678298777,-0.3602079355208029,7.792086664964139,-3.8425122715587934,-25.04133943055385,-16.952266718457597,0
17,2024-09-27 22:14:07.257110016,0,022,-0.675511757737158,0.05383711733456324,-0.8914429606921419,-0.3015255024834948,7.379732914259794,-3.4266586716326026,-25.95868378457815,-16.38236520711295,0
18,2024-09-27 22:14:07.324677120,0,022,-0.7260287886216319,0.02681071345638843,-0.9708820037944493,-0.24255054138426704,6.945348562599897,-2.9788970140976074,-26.75046979474066,-15.651685101861576,0
19,2024-09-27 22:14:07.392046848,0,022,-0.78627679795891,0.001972549457652662,-1.0422331893406713,-0.18542923769251987,6.497078608652505,-2.513917586196207,-27.34430536320148,-14.799757638682449,0
20,2024-09-27 22:14:07.458368256,0,022,-0.8549039270349881,-0.019632913905842715,-1.1026634531232857,-0.13164448737871642,6.043715530945818,-2.048433162567731,-27.680113151229037,-13.871015136828058,0
21,2024-09-27 22:14:07.521240064,0,022,-0.930132934948275,-0.03723264115999649,-1.1521254012098436,-0.08186617393459858,5.595370030726216,-1.600347885737044,-27.71679135302163,-12.912117543211714,0
22,2024-09-27 22:14:08.432816896,0,022,-1.009951772427491,-0.05034306165217036,-1.1935631975683583,-0.03589550825904746,5.163758652196746,-1.1876260419431333,-27.437444372007086,-11.969080514213134,0
23,2024-09-27 22:14:08.510068224,0,022,-1.0922920981494644,-0.05877392563464369,-1.2324859560948165,0.0073437681094213085,4.761889289577779,-0.8270159203827432,-26.85228151888983,-11.084042780170549,0
24,2024-09-27 22:14:08.581764864,0,022,-1.1751424496531757,-0.06261498213621798,-1.2760659807664374,0.049756394659879924,4.403329975809603,-0.5329154385072867,-25.99883731709066,-10.291842513527575,0
25,2024-09-27 22:14:08.649488128,0,022,-1.256599370472359,-0.06219708968682541,-1.3320366594729007,0.09390287897004984,4.101375854197891,-0.31661195544338694,-24.93943166255614,-9.617122623780661,0
26,2024-09-27 22:14:08.717110016,0,022,-1.3349060820009528,-0.058030698288207505,-1.4075637277547153,0.14264322781655864,3.8681083339224913,-0.18585336174431205,-23.755989851914062,-9.072779679734204,0
27,2024-09-27 22:14:08.771166976,0,022,-1.4085014632215744,-0.05073682295037797,-1.508247830822835,0.19862787997577835,3.7131570524749358,-0.14451953175443574,-22.54314048044565,-8.66016635751541,0
28,2024-09-27 22:14:08.852425984,0,022,-1.4760618025475822,-0.040980722334285354,-1.6374524716770575,0.26376314059715095,3.6421751205865847,-0.19229611993265663,-21.40037840564709,-8.371066999939899,0
29,2024-09-27 22:14:09.795841024,0,022,-1.5365308055755924,-0.02940812151820782,-1.7959577261458874,0.3387763728190513,3.6554299538307116,-0.32451830660189956,-20.423185725008967,-8.191011173003963,0
30,2024-09-27 22:14:09.864293888,0,022,-1.5891569152548368,-0.01658884466133907,-1.9817166642185238,0.42293475035819966,3.747154955882263,-0.5324155324659585,-19.693441284668097,-8.102913665940015,0
31,2024-09-27 22:14:09.928165888,0,022,-1.633540342361028,-0.002984614270132798,-2.1896265859337887,0.5139514373335703,3.9061189362314224,-0.803868037910373,-19.270597233193197,-8.089947599471575,0
32,2024-09-27 22:14:09.990162176,0,022,-1.6696598023547444,0.01104485662598795,-2.411537049203069,0.6081341115410717,4.117338598651614,-1.1246303190374465,-19.185507329325823,-8.137157395106533,0
33,2024-09-27 22:14:10.067329792,0,022,-1.6978446250545767,0.025202638883776454,-2.6367466139791014,0.7007878142490667,4.364309684835656,-1.4797451721684642,-19.438166908220825,-8.23206675333027,0
34,2024-09-27 22:14:10.134653184,0,022,-1.7186887509643924,0.039207789133735516,-2.85296978259473,0.7867708162845862,4.630963514817242,-1.8547034516159009,-19.999005053193958,-8.364851242983525,0
35,2024-09-27 22:14:10.202358016,0,022,-1.7329337678910754,0.052765958036238715,-3.047469997072719,0.8609995284698038,4.902915101508874,-2.236084285549103,-20.81294722212472,-8.528096130606805,0
36,2024-09-27 22:14:11.141705984,0,022,-1.7413521866684714,0.0655603301771403,-3.2079952448617335,0.9187157695989943,5.168010648517956,-2.6117941935203466,-21.807068940251828,-8.715292521608877,0
37,2024-09-27 22:14:11.204093952,0,022,-1.7446602528750006,0.07725279429712344,-3.3233898827231476,0.9555164408754421,5.416324824688467,-2.971188521774686,-22.90204816874199,-8.917882051035125,0
38,2024-09-27 22:14:11.266700800,0,022,-1.7434849009395526,0.0874922815351123,-3.384064464196507,0.9673543166777864,5.639799866734068,-3.305222809812356,-24.023846646955526,-9.12283796656215,0
39,2024-09-27 22:14:11.344314880,0,022,-1.7383763075505247,0.09593007996267838,-3.3825822087217303,0.9507234351687258,5.831815835277643,-3.6065930328089255,-25.11061243552888,-9.313321734584054,0
40,2024-09-27 22:14:11.406801152,0,022,-1.7298215502458711,0.10223273852539333,-3.3144229177853455,0.9030531087037532,5.987009085738682,-3.8697732637821467,-26.112975065144337,-9.472546230763259,0
41,2024-09-27 22:14:11.483748096,0,022,-1.7182251303147005,0.10608333190722673,-3.1787450402237853,0.8232016757644729,6.101622575839567,-4.090960209321869,-26.990346029995305,-9.588421652563662,0
42,2024-09-27 22:14:11.545236992,0,022,-1.703866855933723,0.10717654910060101,-2.9789238257033683,0.7119567302067332,6.174497973245714,-4.268036861602938,-27.70799261358486,-9.656347022032179,0
43,2024-09-27 22:14:12.459305984,0,022,-1.6868800741295742,0.10522237230714242,-2.7226938404676386,0.5724241296884464,6.208306392263551,-4.4006223405444285,-28.238212445732724,-9.678845822880213,0
44,2024-09-27 22:14:12.537801984,0,022,-1.667290930573387,0.09997191369676328,-2.4217072602570178,0.4100896476701097,6.21021626242409,-4.490162271754655,-28.56555322151906,-9.662075991536593,0
45,2024-09-27 22:14:12.599990016,0,022,-1.6451243053097169,0.09127294688824107,-2.090456919869358,0.23240088521371757,6.191536868080167,-4.539983267990591,-28.693326424224846,-9.610562837935749,0
46,2024-09-27 22:14:12.675196672,0,022,-1.6205353352948624,0.07914404935395473,-1.7448453888353437,0.04797629073444846,6.16652403904763,-4.555259885331771,-28.647717541015744,-9.522558857649056,0
47,2024-09-27 22:14:12.739512064,0,022,-1.5939017147379422,0.0638344887631337,-1.4007994823560908,-0.1342833074289337,6.150750518602374,-4.542835682293333,-28.47713250827813,-9.387980068782637,0
48,2024-09-27 22:14:12.802675968,0,022,-1.5658286142049218,0.04584114956237171,-1.073160446026843,-0.30597631824718685,6.159322317335552,-4.510817636965834,-28.247256984105324,-9.189263390678788,0
49,2024-09-27 22:14:12.864132864,0,022,-1.5370600240243188,0.025879186588855876,-0.7749299384528987,-0.45980574539764213,6.205121351334389,-4.46789781554098,-28.03346301490347,-8.904695697957784,0
50,2024-09-27 22:14:13.818438912,0,022,-1.5083262958829449,0.00482006897766381,-0.5168598328866612,-0.5899915786770854,6.297244696355564,-4.422457398881149,-27.91110397133266,-8.513970643912828,0
51,2024-09-27 22:14:13.880961024,0,022,-1.4801732392752271,-0.01638415691485503,-0.307253644021337,-0.6925034212108835,6.439871631494364,-4.3816084854518005,-27.944326721243375,-8.00525599825334,0
52,2024-09-27 22:14:13.958272000,0,022,-1.4528243831879437,-0.036771170986864374,-0.15180730285253727,-0.7651484437122158,6.631768267605851,-4.350362874251539,-28.175480308697754,-7.381837365930864,0
53,2024-09-27 22:14:14.025850112,0,022,-1.4261231986536225,-0.05542647980076827,-0.05340029126251074,-0.8075218774576112,6.866414692056358,-4.331090344075326,-28.61743874159953,-6.665887231325999,0
54,2024-09-27 22:14:14.083191040,0,022,-1.399574549344822,-0.07153931224766542,-0.011842751789521362,-0.8208229671985543,7.132559243990552,-4.3234061047481545,-29.25117533365812,-5.8974915293437435,0
55,2024-09-27 22:14:14.160888832,0,022,-1.372469848695322,-0.08446301066985196,-0.023679052200159895,-0.8075806213317488,7.415098324658012,-4.324614278374737,-30.030709334604264,-5.128677548309445,0
56,2024-09-27 22:14:14.228825088,0,022,-1.3440576694609667,-0.093770259568105,-0.08223722958809578,-0.7713286472744144,7.696365635267168,-4.330732315155663,-30.89429876122436,-4.41454086530498,0
57,2024-09-27 22:14:15.160281088,0,022,-1.3137079563247094,-0.09929249175175285,-0.17805566343538495,-0.7162440669719605,7.957925943239106,-4.337856397314204,-31.77672969337183,-3.8050586803856192,0
58,2024-09-27 22:14:15.237563904,0,022,-1.28101688412322,-0.10114503404252427,-0.2996706483456704,-0.6467822743012237,8.182719729966207,-4.343353309624013,-32.617455230565504,-3.340443499174386,0
59,2024-09-27 22:14:15.299566848,0,022,-1.2458289079871527,-0.099737838113081,-0.43473582451834336,-0.5673343830288858,8.357050217640687,-4.346416001800511,-33.3626999294784,-3.050668019140606,0
60,2024-09-27 22:14:15.375164160,0,022,-1.208203642705137,-0.09575600127452638,-0.5714562371626566,-0.4818685728411533,8.471848246327728,-4.347915588084636,-33.96329326165837,-2.957854771948031,0
61,2024-09-27 22:14:15.437037056,0,022,-1.168380371811792,-0.09009282078732546,-0.7001070309391413,-0.39354614672781174,8.523039415334187,-4.349799421368094,-34.371975459357095,-3.079441487576145,0
62,2024-09-27 22:14:15.499099136,0,022,-1.1267677554787057,-0.08373780807648368,-0.8141602894355219,-0.30443348696467865,8.511263235787835,-4.354324418822241,-34.54345329439376,-3.4302388918457383,0
63,2024-09-27 22:14:15.577720064,0,022,-1.0839477437516958,-0.0776451409083306,-0.910641958865204,-0.21545809226755425,8.441283103214595,-4.363348457827036,-34.43828270648026,-4.022424659417973,0
64,2024-09-27 22:14:16.522219008,0,022,-1.0406701617221876,-0.07262190860742944,-0.9897208224204485,-0.12662573920325929,8.321230002834195,-4.377809388131273,-34.02940409749278,-4.8636540986077375,0
65,2024-09-27 22:14:16.590034944,0,022,-0.9978173538279862,-0.06927163840102755,-1.0538105609758393,-0.03737804844223475,8.161582697659137,-4.397404520455471,-33.308719327704274,-5.954140917652507,0
66,2024-09-27 22:14:16.656061696,0,022,-0.9563239315997253,-0.06800116940728397,-1.1065137184231328,0.05308758834875325,7.973790599636575,-4.4204238268203255,-32.29049880164718,-7.283795559376368,0
67,2024-09-27 22:14:16.724914176,0,022,-0.9170618312534216,-0.06906316113272337,-1.1517302722881984,0.14568749708729267,7.76878783996626,-4.443723512299131,-31.00931949681047,-8.830492517716513,0
68,2024-09-27 22:14:16.792507904,0,022,-0.8807360385288074,-0.07259294113050543,-1.193194592355782,0.24151764900300135,7.555862433893668,-4.46288377828989,-29.51345338309033,-10.560021652547817,0
69,2024-09-27 22:14:16.859877120,0,022,-0.8478388120014728,-0.07861582298385841,-1.2343894297678821,0.341917081312665,7.342057802694276,-4.4725779534938646,-27.857859833820978,-12.427712265695066,0
70,2024-09-27 22:14:16.927468032,0,022,-0.818670009359321,-0.08702620990890056,-1.2784909748423243,0.4482871315921089,7.131980345158998,-4.467110857621366,-26.10017700013254,-14.381705309685373,0
71,2024-09-27 22:14:17.868756992,0,022,-0.7933895455452459,-0.09755456011436499,-1.328219303459855,0.5616311368267756,6.927966264871335,-4.441058334996977,-24.299366041450952,-16.367459112246152,0
72,2024-09-27 22:14:17.940691968,0,022,-0.7720656633581477,-0.10974558174487237,-1.3858522531254371,0.6820185223831169,6.7306084614464545,-4.389929230805961,-22.514882319671266,-18.331965021498227,0
73,2024-09-27 22:14:18.008361984,0,022,-0.7547034598428531,-0.12297202816745595,-1.4535656952568285,0.8082324938449793,6.539436476919483,-4.310739693751512,-20.805174850220308,-20.22608050861501,0
74,2024-09-27 22:14:18.075379968,0,022,-0.7412496254470141,-0.13649351481926528,-1.5338755560101789,0.9377293242211845,6.3534911243755365,-4.202425662587103,-19.225148471241408,-22.00507255640769,0
75,2024-09-27 22:14:18.131448064,0,022,-0.7315859938492056,-0.14954039380391163,-1.629793567483481,1.0668610415033335,6.171806914124891,-4.066091129148521,-17.822393920066634,-23.62907274081327,0
76,2024-09-27 22:14:18.209065984,0,022,-0.7255409082838241,-0.16138857318152183,-1.7444898240736826,1.1912447610357064,5.994003113765092,-3.9050872554965563,-16.63241772061429,-25.06486617532371,0
77,2024-09-27 22:14:18.279032832,0,022,-0.722918940695605,-0.17141239077755585,-1.8805850223266167,1.3062112198199778,5.821003116345563,-3.724923740887494,-15.673995293144465,-26.288763087704346,0
78,2024-09-27 22:14:19.192275968,0,022,-0.7235082264961743,-0.17913017640809956,-2.0393696246316315,1.4073018614191133,5.655612066912639,-3.5330324694571633,-14.946666355515605,-27.2891897521489,0
79,2024-09-27 22:14:19.265652224,0,022,-0.7270450793349362,-0.18425569931545913,-2.2201609857979743,1.490743844494974,5.502686531954466,-3.3383270612234814,-14.432518185659726,-28.06771958422141,0
80,2024-09-27 22:14:19.333347072,0,022,-0.733169394223973,-0.18674636232018535,-2.419880049879089,1.5537886074482272,5.368933519651498,-3.150530412086064,-14.1034566343068,-28.637644821311238,0
81,2024-09-27 22:14:19.395827200,0,022,-0.7414103992676113,-0.1868245403551734,-2.632914459551366,1.5948287242002006,5.262566420629554,-2.9794705502153227,-13.932790741569058,-29.019814270415765,0
82,2024-09-27 22:14:19.463463168,0,022,-0.7512002934696924,-0.18495669426586964,-2.851312459058069,1.613300878327123,5.192896952845331,-2.834611155525907,-13.906812642472993,-29.236696895566247,0
83,2024-09-27 22:14:19.530980864,0,022,-0.7618905355125464,-0.18179592914611178,-3.0652232838680202,1.6094603932302947,5.169799557325111,-2.724870722342363,-14.031200536258813,-29.306460535860865,0
84,2024-09-27 22:14:19.592569088,0,022,-0.772778007325504,-0.17810224016214715,-3.2634490248965338,1.584118926880278,5.203056511996836,-2.6585559312944866,-14.329873657820258,-29.238553897594368,0
85,2024-09-27 22:14:20.542968064,0,022,-0.7831835730260923,-0.17464766248108948,-3.4341120720836917,1.5384008859766682,5.301567547732606,-2.6431072755974676,-14.837622785290261,-29.03183560431293,0
86,2024-09-27 22:14:20.615282944,0,022,-0.7925873675175076,-0.1721168676103077,-3.5655250633747464,1.4735417444698464,5.472288649344254,-2.6844328089180616,-15.58946308902104,-28.676248068751047,0
87,2024-09-27 22:14:20.682876160,0,022,-0.8007496125020315,-0.17102894398453866,-3.6472618821076233,1.3907549500304146,5.718882155679299,-2.785956722624168,-16.609247213213454,-28.15820213041205,0
88,2024-09-27 22:14:20.750211840,0,022,-0.8077456052017056,-0.17170020177038547,-3.6713538806989714,1.291227300669832,6.040311716747662,-2.947778308324761,-17.899587118593928,-27.467933205038292,0
89,2024-09-27 22:14:20.817043968,0,022,-0.8139181946375244,-0.1742395071312259,-3.633481217363496,1.176279697095927,6.429761733645865,-3.1662181974330457,-19.43533752143369,-26.606174441464926,0
90,2024-09-27 22:14:20.883649280,0,022,-0.8197928285565856,-0.17855797365883055,-3.533897456479226,1.047624596781044,6.874260727934113,-3.4337588424634475,-21.16261218059371,-25.588466170395137,0
91,2024-09-27 22:14:20.953139200,0,022,-0.8259825618070945,-0.18439343655822757,-3.377784002509349,0.9075816255285468,7.355169548623931,-3.7392613036897435,-23.003754516656503,-24.44645525279069,0
92,2024-09-27 22:14:21.892028160,0,022,-0.8331033309222224,-0.19135880440978514,-3.1749342684908104,0.7591795656790705,7.84934470839379,-4.06836689146468,-24.866528391907295,-23.225895024691273,0
93,2024-09-27 22:14:21.965643776,0,022,-0.841735605801538,-0.19900510897610796,-2.9389002303665723,0.6061974137311122,8.33061416062149,-4.404087827764194,-26.65428770297105,-21.981776739677123,0
94,2024-09-27 22:14:22.031276800,0,022,-0.8524457704988687,-0.20687570424600812,-2.6857678344820335,0.45319446708257355,8.771370194685774,-4.727687900220791,-28.274455721773364,-20.771726955206667,0
95,2024-09-27 22:14:22.101299968,0,022,-0.8658239860686393,-0.21454292154756077,-2.4327022077624196,0.30545159365460306,9.144367729029456,-5.019964240126152,-29.644936793970874,-19.648944543565367,0
96,2024-09-27 22:14:22.153970944,0,022,-0.8824868918289631,-0.22164022795957708,-2.1964589594063884,0.16870163597123122,9.424834333225336,-5.262905181033379,-30.699178440885095,-18.6564051169422,0
97,2024-09-27 22:14:22.236645120,0,022,-0.9030410645025242,-0.2278975442937118,-1.9920671146836826,0.04864166061809849,9.59278741804,-5.441499316976526,-31.389911743348954,-17.82395157985589,0
98,2024-09-27 22:14:22.293867264,0,022,-0.9280239686024533,-0.2331675458324922,-1.8317986201989238,-0.04963446446036253,9.635258084104734,-5.54534595995128,-31.69169376925412,-17.167885017522952,0
99,2024-09-27 22:14:23.247712000,0,022,-0.9578135468138967,-0.23743264145527532,-1.7244485186289542,-0.12210634778440758,9.547925631452658,-5.569707085356274,-31.602808446180948,-16.691229750860394,0
100,2024-09-27 22:14:23.315570944,0,022,-0.9924950615638084,-0.24079768286959397,-1.6749073246189539,-0.1661079671703995,9.33566204197222,-5.515761154787099,-31.145600972918338,-16.384049134153436,0
101,2024-09-27 22:14:23.371269120,0,022,-1.0317205078184262,-0.2434721315855845,-1.6840064638269585,-0.18041527217381365,9.011909849161206,-5.390051812557173,-30.36318880238494,-16.224526117503153,0
102,2024-09-27 22:14:23.450942976,0,022,-1.0746277818046293,-0.24573963838959734,-1.7485920510220998,-0.16518682512840296,8.597269963544992,-5.203364613943263,-29.312640404354436,-16.18099259191429,0
103,2024-09-27 22:14:23.518553856,0,022,-1.1198567262783077,-0.2479202963726952,-1.8617156547503526,-0.12187412444733148,8.117678168979163,-4.9693887633882525,-28.05741022949094,-16.21430683007307,0
104,2024-09-27 22:14:23.586344960,0,022,-1.1656495352815899,-0.25033115608347406,-2.012883039143057,-0.05322345816712648,7.602244445218116,-4.70342065128091,-26.661773151255993,-16.280147455750953,0
105,2024-09-27 22:14:23.653273088,0,022,-1.2100051013592306,-0.2532391368545843,-2.1884854909542977,0.03664401667355285,7.080709984423189,-4.4211352010791,-25.188506385977917,-16.331260801059795,0
106,2024-09-27 22:14:24.572355840,0,022,-1.2508650979356488,-0.25680077467145795,-2.372548963408224,0.1422031682124254,6.5807252645280405,-4.137383933766274,-23.69941458201524,-16.320016507905425,0
107,2024-09-27 22:14:24.640024832,0,022,-1.2863137945723928,-0.2609991859149059,-2.5477150028737228,0.2566539559144967,6.125449625176065,-3.865137365928202,-22.256380525924826,-16.201650430193695,0
108,2024-09-27 22:14:24.697427968,0,022,-1.3147577781314639,-0.26560135017389125,-2.6963348275829344,0.37225094257180835,5.732001645151613,-3.614810466241795,-20.92039076545699,-15.938196474421224,0
109,2024-09-27 22:14:24.759934720,0,022,-1.3350407066336356,-0.2701518371173336,-2.8018126672171,0.48082512084187007,5.4109684762016474,-3.3940719894834723,-19.74834453846811,-15.502557886235723,0
110,2024-09-27 22:14:24.843089152,0,022,-1.3464699594709244,-0.2740010279425701,-2.8503498073406788,0.5744159694771813,5.166698628348215,-3.2079694930912686,-18.789384784323644,-14.881742911321588,0
111,2024-09-27 22:14:24.910653184,0,022,-1.3487637797169585,-0.27636061839009873,-2.832815789545229,0.6458872699729729,4.997971748647481,-3.0591530884108256,-18.082034111963694,-14.078547145155413,0
112,2024-09-27 22:14:24.976512000,0,022,-1.341946971586954,-0.2763816530323042,-2.7461300445861454,0.6894437161211818,4.898930986184696,-2.948160057812256,-17.652384285562047,-13.111915051541803,0
113,2024-09-27 22:14:25.922403072,0,022,-1.3262372939852292,-0.2732431986996557,-2.5936530801145947,0.7010058640131279,4.860305309858732,-2.8737841101777746,-17.51374154598286,-12.01661433815975,0
114,2024-09-27 22:14:25.990148864,0,022,-1.3019628688670166,-0.26623520861384425,-2.384468424837043,0.6783836097331779,4.870762088298437,-2.8334426303215787,-17.66866479026406,-10.842103869850288,0
115,2024-09-27 22:14:26.055645952,0,022,-1.2695261372203532,-0.2548256219034845,-2.1318514013760805,0.6212287757038321,4.918054758662569,-2.8234334708064357,-18.113400387137304,-9.649532436060657,0
116,2024-09-27 22:14:26.117677056,0,022,-1.2294094376573046,-0.23870473534953138,-1.851510067159237,0.5308657002187631,4.989723209109141,-2.8391031878266677,-18.84242879566196,-8.50607548210206,0
117,2024-09-27 22:14:26.193211136,0,022,-1.182212271813884,-0.21780033973733984,-1.5600921798516199,0.4101101191309057,5.073456560704273,-2.875041207657957,-19.84975154706773,-7.477549819154334,0
118,2024-09-27 22:14:26.256751872,0,022,-1.128701895296457,-0.19226556598415098,-1.274044535816002,0.26306043755095104,5.1574815717377005,-2.9253788300480905,-21.125183185323632,-6.621554046615378,0
119,2024-09-27 22:14:26.319346944,0,022,-1.0698484791934357,-0.16244885562003417,-1.008677426613317,0.0948087711071012,5.231160737940546,-2.9841819600746047,-22.64686668414683,-5.98273041146692,0
120,2024-09-27 22:14:27.259628288,0,022,-1.0068241118873043,-0.12885324415146607,-0.7774113571609059,-0.08885924796654943,5.285596818198195,-3.0458261537242857,-24.373559557886594,-5.59013347153375,0
121,2024-09-27 22:14:27.340147968,0,022,-0.9409688594684508,-0.09208996075082318,-0.5912532955985662,-0.28166707993765117,5.313918625247947,-3.10519246717946,-26.240860909951177,-5.4555685480441065,0
122,2024-09-27 22:14:27.407704064,0,022,-0.8737372235167679,-0.052838059037098366,-0.4583400533780459,-0.4769997664973555,5.311165746146056,-3.157622246918588,-28.16388854672684,-5.5720231850187645,0
123,2024-09-27 22:14:27.474051072,0,022,-0.8066188251269956,-0.01182816974789865,-0.3833020859790666,-0.6681684656611611,5.273944980614703,-3.1987594561237134,-30.04567727895158,-5.913260012252852,0
124,2024-09-27 22:14:27.542489088,0,022,-0.741014969703523,0.030140452951785177,-0.3665290544083786,-0.8488483519709206,5.200023155638103,-3.2244929884219684,-31.78799177427136,-6.436770936321365,0
125,2024-09-27 22:14:27.608499968,0,022,-0.6780879282448472,0.07216248387988898,-0.40381240511371314,-1.0135711366209283,5.0879519540026505,-3.231092585555686,-33.30133773587601,-7.090002127028593,0
126,2024-09-27 22:14:27.677146880,0,022,-0.6186420531353748,0.11319928743498033,-0.48681498715250343,-1.1580846532176226,4.936873672228752,-3.2154367039421685,-34.51271327304938,-7.8170891680873895,0
127,2024-09-27 22:14:28.607145984,0,022,-0.5630809914389081,0.1520919191589891,-0.6043655400501983,-1.2794839041450374,4.746666471928395,-3.17520805515266,-35.37034442527972,-8.564197765446181,0
128,2024-09-27 22:14:28.684364032,0,022,-0.511435702626702,0.1876268399151975,-0.7441706552535963,-1.376147544816846,4.518492532929992,-3.109113451973298,-35.84479355434454,-9.283575441109992,0
129,2024-09-27 22:14:28.757891840,0,022,-0.46343898618278406,0.21864596603999417,-0.8944742195214437,-1.4475384354426837,4.255613311601115,-3.017234563873858,-35.92715463501162,-9.936665111995188,0
130,2024-09-27 22:14:28.825591040,0,022,-0.4186363221222522,0.24417798941291383,-1.0453177788375032,-1.49390946219423,3.9640408226860333,-2.901397799567142,-35.626185940487325,-10.49647746283262,0
131,2024-09-27 22:14:28.885235968,0,022,-0.3765234582871645,0.26355840188528645,-1.189242248347911,-1.5159992392451584,3.652599888961723,-2.7653344999874023,-34.96614541999814,-10.949338150146454,0
132,2024-09-27 22:14:28.947111936,0,022,-0.3366810695879868,0.2765020595581399,-1.3214716341409634,-1.5148314943550554,3.3324367930516097,-2.614569571789628,-33.9865792562938,-11.295201545854988,0
133,2024-09-27 22:14:29.028662016,0,022,-0.29888211402202847,0.28310542433110664,-1.439699987277432,-1.4916754994357055,3.0163395111853464,-2.4561369867334832,-32.743736946393845,-11.545432992579828,0
134,2024-09-27 22:14:29.972611840,0,022,-0.26317839380758795,0.2837878491843987,-1.5436138471038543,-1.4481404331291736,2.7181047351736596,-2.2982097238506833,-31.311065363136702,-11.71849387428667,0
135,2024-09-27 22:14:30.038859008,0,022,-0.22996474198118955,0.27920309525558434,-1.634319512821318,-1.3863160034569468,2.451897693643404,-2.1496432271707895,-29.77635205739598,-11.835410245336751,0
136,2024-09-27 22:14:30.108017152,0,022,-0.19998078964948365,0.2701432891885131,-1.7138175178451371,-1.3088568380552126,2.231369933426221,-2.0193482866818364,-28.235357847004252,-11.916614177303568,0
137,2024-09-27 22:14:30.175741952,0,022,-0.17422125111931658,0.2574418815369655,-1.7845569084738786,-1.2189508739890382,2.0683912978720587,-1.9154459729192403,-26.783136025922364,-11.980593656979657,0
138,2024-09-27 22:14:30.243305984,0,022,-0.15377996133706806,0.2418817239676565,-1.8490296689142358,-1.120154919164998,1.971636975448352,-1.8443458430643425,-25.50460389240076,-12.043818623351003,0
139,2024-09-27 22:14:30.311017984,0,022,-0.1396784827984318,0.22412126711115687,-1.9093962195136964,-1.0160978331414938,1.9455262490722338,-1.8100246018574817,-24.4663093452735,-12.120795899022857,0
140,2024-09-27 22:14:30.378594048,0,022,-0.13271640061523585,0.20465477306052401,-1.967197062849047,-0.9101098096175042,1.9898216915070055,-1.8137160031915398,-23.710664845223754,-12.22342490929545,0
141,2024-09-27 22:14:31.322684160,0,022,-0.1333650023669807,0.18381552694796266,-2.023161783166375,-0.8049148789118468,2.0998984822543325,-1.8540242144510461,-23.25260678685861,-12.360059038980173,0
142,2024-09-27 22:14:31.390337792,0,022,-0.1417205000391639,0.16181577387297794,-2.0770041462357414,-0.7025126376111795,2.2675823730085236,-1.9272740415855316,-23.07870517890745,-12.535252338353995,0
143,2024-09-27 22:14:31.447545856,0,022,-0.15752032930703688,0.13880494179870995,-2.1271481426534877,-0.6042724008394583,2.4823454455261627,-2.0278631647933363,-23.14940604296984,-12.750371265119714,0
144,2024-09-27 22:14:31.525724928,0,022,-0.18020616103811982,0.11492600234001168,-2.1706066014153684,-0.5111617142086706,2.732511301180692,-2.148554010704104,-23.40463223507154,-13.004240458567716,0
145,2024-09-27 22:14:31.593431808,0,022,-0.20901385084617133,0.09035717782398847,-2.2033527585737396,-0.4239820467381183,3.006193192320583,-2.280828784347505,-23.772432730916854,-13.292946296598801,0
146,2024-09-27 22:14:31.651113984,0,022,-0.24308050686264113,0.06533677328770326,-2.221241703681262,-0.34350106742714565,3.2918859359293697,-2.4153782888701274,-24.180042503006966,-13.608979661846005,0
147,2024-09-27 22:14:31.725014784,0,022,-0.28155131241277714,0.04017134483803429,-2.221142361997831,-0.2704464694746557,3.578703708380361,-2.5426200708625495,-24.56520504057633,-13.941080389923195,0
148,2024-09-27 22:14:32.647155968,0,022,-0.32364958563324664,0.015221382979814228,-2.201863437916879,-0.20538596121727534,3.856235985160556,-2.6531241948151716,-24.884360885650114,-14.275956900038123,0
149,2024-09-27 22:14:32.715512064,0,022,-0.36868358027217485,-0.009136664406939676,-2.1646956877145183,-0.1485246054849416,4.114080022147792,-2.7379524057936986,-25.115653891116644,-14.601288908820367,0
150,2024-09-27 22:14:32.778969856,0,022,-0.4160076399844348,-0.03255359920049094,-2.113522742484378,-0.09949994648180034,4.341342492387008,-2.789008160066974,-25.257416204187088,-14.907837142453038,0
151,2024-09-27 22:14:32.850710016,0,022,-0.46498506350867386,-0.054728826674746114,-2.0543470696143085,-0.05735441489163636,4.526572708048976,-2.7995130118612064,-25.324397066221348,-15.188814944833295,0
152,2024-09-27 22:14:32.918073856,0,022,-0.5149820140787088,-0.07540030392370602,-1.994155853078662,-0.02082306354391119,4.658476985254094,-2.7646677639770045,-25.343815503339496,-15.43662797397243,0
153,2024-09-27 22:14:32.980258048,0,022,-0.5653894783135697,-0.09431579602955531,-1.9394578570176546,0.011171404678633815,4.727405249231243,-2.682394744427382,-25.35193336396243,-15.638898712837532,0
154,2024-09-27 22:14:33.041125120,0,022,-0.6156640641516635,-0.11120102471523788,-1.8950862951364211,0.03911815168825519,4.727238913511699,-2.5539253281815117,-25.390436816890425,-15.77603802930318,0
155,2024-09-27 22:14:33.990896896,0,022,-0.6653801747486665,-0.1257324243992548,-1.8636738937670354,0.06281877341040083,4.657144889875582,-2.3840297631959335,-25.501558932851534,-15.821646125266044,0
156,2024-09-27 22:14:34.053052928,0,022,-0.7142772052431926,-0.13752306717611842,-1.8458381191099729,0.08155929203596625,4.522641171969215,-2.1807784573444815,-25.721801122488667,-15.745709218392298,0
157,2024-09-27 22:14:34.130680064,0,022,-0.7622892129911555,-0.14613329904789302,-1.8408769461943233,0.0944254666668154,4.335524345504076,-1.954818819415781,-26.075505104213818,-15.51958226108577,0
158,2024-09-27 22:14:34.191757056,0,022,-0.8095610421720121,-0.15110547375539088,-1.8476409270206655,0.1006647878634452,4.112641846075018,-1.7183247043750505,-26.56987493966997,-15.121406191994556,0
159,2024-09-27 22:14:34.268698880,0,022,-0.8564510801270282,-0.15200474766916305,-1.8651948075030742,0.10001241287284607,3.874021590427395,-1.4839025992450925,-27.192164394263408,-14.540818965280796,0
160,2024-09-27 22:14:34.336391936,0,022,-0.903497036424645,-0.1484487611764302,-1.893044507922914,0.09290040336334332,3.6408541573665,-1.2636176636149339,-27.909042850534746,-13.782010631171397,0
161,2024-09-27 22:14:34.403511040,0,022,-0.9513163592046378,-0.14012437695479393,-1.9310250030651075,0.08053405637917857,3.4333769964697822,-1.068073658672637,-28.667683170763357,-12.864444715694713,0
162,2024-09-27 22:14:35.323011072,0,022,-1.00044844311159,-0.1267999528935645,-1.9791125810759194,0.06488252276439478,3.268658091289925,-0.905504881420184,-29.398075118227645,-11.821176400996103,0
163,2024-09-27 22:14:35.375396864,0,022,-1.0511911412293922,-0.10834465303977614,-2.0373014078522904,0.048578719353110596,3.158671536110831,-0.7810607551859878,-30.017812592652685,-10.694871052183354,0
164,2024-09-27 22:14:35.458440960,0,022,-1.1034870677174557,-0.08476553391695864,-2.105500817440117,0.03465163670992,3.1091843810248685,-0.6964809808462605,-30.44133790767822,-9.531815672514078,0
165,2024-09-27 22:14:35.526070016,0,022,-1.1568714159601055,-0.0562637749138008,-2.1833992229764556,0.026095952812411546,3.119699164272749,-0.6502203894458223,-30.592223428090588,-8.37551096803242,0
166,2024-09-27 22:14:35.591497728,0,022,-1.2104605522473515,-0.023294757902080545,-2.270337797531995,0.025426398569593358,3.184366565437089,-0.6380608701720338,-30.413865220551653,-7.262256666281797,0
167,2024-09-27 22:14:35.653136896,0,022,-1.2629710979645214,0.013394094414829475,-2.365272841000313,0.034369284989069986,3.2934528477237386,-0.654165521817065,-29.875459161426274,-6.2197903225275635,0
168,2024-09-27 22:14:35.729077248,0,022,-1.3127715147431915,0.05276772809373852,-2.466842028718455,0.05374856043932406,3.4347580173517125,-0.6922800310707233,-28.97362346288894,-5.267863929088344,0
169,2024-09-27 22:14:36.673009152,0,022,-1.3579629344388795,0.09355271837969585,-2.5734638743279827,0.08355726800268919,3.594599292913267,-0.7466853415471385,-27.731374175969115,-4.419135621625293,0
170,2024-09-27 22:14:36.727155968,0,022,-1.3964948662261936,0.1343211109306406,-2.683377906260941,0.12315222599800542,3.7584243191691518,-0.8127134345052628,-26.19539230412354,-3.6802783834149255,0
171,2024-09-27 22:14:36.808275968,0,022,-1.4263320949640275,0.17359413082606548,-2.7945952401771796,0.17146364830436622,3.911415875597024,-0.8869290513694323,-24.431921068217818,-3.05427992239935,0
172,2024-09-27 22:14:36.876068096,0,022,-1.4456660269748307,0.2099492670067895,-2.9048266150858066,0.22715178847919515,4.039433262660037,-0.9671407995693594,-22.521616456256893,-2.5440520092988623,0
173,2024-09-27 22:14:36.943600128,0,022,-1.453132832869956,0.24211911822881194,-3.0114933812576665,0.28872374757366853,4.130374132389043,-1.0522409785146503,-20.553337956125485,-2.1564202581109786,0
174,2024-09-27 22:14:37.004062976,0,022,-1.447995814814649,0.26908247610990743,-3.111821473884522,0.35461038792566296,4.175712609238056,-1.1418187732682339,-18.61667759525905,-1.905404617627523,0
175,2024-09-27 22:14:37.065167872,0,022,-1.4302577317618659,0.29015025254728777,-3.2028980937337446,0.4231511890662345,4.171715991302054,-1.2356369980810695,-16.793702737777576,-1.8136227751635348,0
176,2024-09-27 22:14:38.021894144,0,022,-1.4006768985619271,0.305033877467092,-3.28167864908951,0.49250265307506863,4.119836311154633,-1.3331684930792653,-15.151550317284004,-1.9108119417917477,0
177,2024-09-27 22:14:38.083484928,0,022,-1.3606827987853891,0.31387137066331317,-3.345100279784036,0.5605885212123551,4.026105008403587,-1.4333317693518894,-13.737974954836465,-2.229412617768922,0
178,2024-09-27 22:14:38.147499008,0,022,-1.3122279090324835,0.3171959787800802,-3.390341658807115,0.6251525057851031,3.8997418325253195,-1.5344297164434098,-12.580468189466337,-2.7983537708918926,0
179,2024-09-27 22:14:38.223681792,0,022,-1.2576322845458046,0.31585544015551253,-3.415087922713155,0.6838563063550895,3.7513571510548194,-1.6341996388927396,-11.687501895658107,-3.63695426217691,0
180,2024-09-27 22:14:38.294007040,0,022,-1.199444927524803,0.3109011890208249,-3.417784619300213,0.734399024485265,3.5911799817721195,-1.7298836263647737,-11.050433378112038,-4.750883646943487,0
181,2024-09-27 22:14:38.361577984,0,022,-1.1403007075721097,0.30346115661182893,-3.398021565319253,0.7747261547881438,3.42775943335335,-1.818338269725902,-10.645609484498172,-6.131081529756031,0
182,2024-09-27 22:14:38.429325312,0,022,-1.0827480094569482,0.29460676894505006,-3.3570146172505866,0.8033399170187774,3.267484367343385,-1.8963507200825198,-10.436237457285673,-7.7546581059465725,0
183,2024-09-27 22:14:39.373696000,0,022,-1.0290651536028215,0.28523225490850235,-3.2979198363268765,0.8195806155124892,3.1150144802438167,-1.961295733566311,-10.373659303130202,-9.585889979655821,0
184,2024-09-27 22:14:39.430013952,0,022,-0.9811233295925835,0.27596720504494787,-3.225747416556888,0.8237283010528378,2.974330377856766,-2.011974950143169,-10.39878595536626,-11.576545664968947,0
185,2024-09-27 22:14:39.508122112,0,022,-0.9403307533879637,0.26713354808241424,-3.1468408899843365,0.8169084034763066,2.8497005699501283,-2.049203675252473,-10.44547678608993,-13.666114369515514,0
186,2024-09-27 22:14:39.570683904,0,022,-0.9076319611798751,0.2587473522715828,-3.0680972834989704,0.8009101870061538,2.7458439426253043,-2.075785327361301,-10.446841269009376,-15.78289141269587,0
187,2024-09-27 22:14:39.644322048,0,022,-0.8835183478542925,0.2505608660618337,-2.9961640916400807,0.7779954133738323,2.6671987926373086,-2.0958898309685985,-10.34321021950485,-17.846903286418065,0
188,2024-09-27 22:14:39.709916928,0,022,-0.8680365807768023,0.24213763235310282,-2.936666105285546,0.7506705663853187,2.61690649323207,-2.1141246435611,-10.08937219243326,-19.77514997458254,0
189,2024-09-27 22:14:39.779644160,0,022,-0.8608115453603195,0.23295148945077981,-2.8934256983640343,0.7214126618615235,2.596209331464595,-2.134578785213326,-9.659512186004346,-21.488603089869173,0
190,2024-09-27 22:14:40.722214144,0,022,-0.8611076521674925,0.2224957159960467,-2.8678418457503323,0.6924365332106817,2.6046020759952935,-2.1600932376106483,-9.049849997235903,-22.91961130637261,0
191,2024-09-27 22:14:40.789915904,0,022,-0.8679283407725761,0.21038296929413158,-2.8586950360064587,0.6655723331116336,2.640580957467079,-2.192029434976865,-8.279570518279623,-24.018038901710483,0
192,2024-09-27 22:14:40.855902208,0,022,-0.880120754788836,0.19641883654399026,-2.8624057663375226,0.6421900169384301,2.702402999889067,-2.2305820188423584,-7.3898302109116365,-24.754701226447384,0
193,2024-09-27 22:14:40.925327104,0,022,-0.8964627017523372,0.18064193234032516,-2.873480276901921,0.6230642084834521,2.788333058811146,-2.2753138041927707,-6.440210730638432,-25.121573187734686,0
194,2024-09-27 22:14:40.992259072,0,022,-0.9157467750150391,0.1633311577146461,-2.884895366447202,0.6081880639127384,2.8963592343015634,-2.3255160936356316,-5.5027740741843205,-25.129497709207257,0
195,2024-09-27 22:14:41.059751936,0,022,-0.9368723636544009,0.1449798509132965,-2.888519127750428,0.596658753437384,3.0236947671654737,-2.380234642588757,-4.654227968026105,-24.804948373517533,0
196,2024-09-27 22:14:41.120663808,0,022,-0.9589167727493818,0.12623492408930478,-2.8758766120905843,0.5867426694660268,3.1664567000168673,-2.4380874931615137,-3.9669171489230224,-24.186737413635107,0
197,2024-09-27 22:14:42.067634944,0,022,-0.9811518231020523,0.10780645763978328,-2.839261220795172,0.5761230226082957,3.319857740374412,-2.497185680664434,-3.5007477669559637,-23.32209516395343,0
198,2024-09-27 22:14:42.130122752,0,022,-1.0030149109309507,0.09036467605935362,-2.772762652692284,0.562222892555338,3.4788981280719677,-2.555388812047124,-3.298723089511751,-22.26170840657079,0
199,2024-09-27 22:14:42.207738112,0,022,-1.0240751441961413,0.07444759911552071,-2.672898045259146,0.5424847222226429,3.639091781752526,-2.6107649586199915,-3.386660409491657,-21.054902030562427,0
200,2024-09-27 22:14:42.270222848,0,022,-1.044012582930515,0.06040029397683625,-2.5389760108664796,0.5145969311143642,3.7968009877007916,-2.661898635184736,-3.774991967080368,-19.746544303005827,0
201,2024-09-27 22:14:42.333007104,0,022,-1.0625911061826332,0.048356037140681984,-2.3733650132839936,0.4767400670788409,3.9492709281903675,-2.7079088189780673,-4.460286184501827,-18.37591811468214,0
202,2024-09-27 22:14:42.410712832,0,022,-1.079619389573514,0.03826014890312955,-2.181530614206266,0.42788075443581186,4.094708528701783,-2.7483591407066057,-5.426476010935975,-16.97649977694962,0
203,2024-09-27 22:14:42.471848960,0,022,-1.0949359101778184,0.029932325816517256,-1.971633381764505,0.3680487628102561,4.232413377815283,-2.7832882567743447,-6.64758441377346,-15.575789059807759,0
204,2024-09-27 22:14:43.422358272,0,022,-1.1084448783581897,0.023150703093219305,-1.7537100620283645,0.2984681306020446,4.362639076702577,-2.8134138480767232,-8.092173390582698,-14.195591143461288,0
205,2024-09-27 22:14:43.490183168,0,022,-1.1201749909162064,0.017726392925360622,-1.5386674241242375,0.22141419329172066,4.486081921326823,-2.840344617965511,-9.727297710191554,-12.853372479121301,0
206,2024-09-27 22:14:43.557732096,0,022,-1.1303097466152894,0.01354849968862171,-1.337323983999949,0.139764678207846,4.603309696650542,-2.8665616023050324,-11.520642121880964,-11.563937764993153,0
207,2024-09-27 22:14:43.625467136,0,022,-1.1391702113938318,0.010608027990876496,-1.159564301559919,0.05636567420987841,4.7144166476861065,-2.895079887725319,-13.442174533839424,-10.339784136060826,0
208,2024-09-27 22:14:43.692999936,0,022,-1.1471645096431529,0.009012569115780652,-1.0135018606696178,-0.02656920848099225,4.818776326120335,-2.9288501718039774,-15.466522544419611,-9.189409131729771,0
209,2024-09-27 22:14:43.760780032,0,022,-1.1547209854098468,0.008981332080213879,-0.9045877806411674,-0.10784051483805979,4.914606529703451,-2.969990248422042,-17.57476502463732,-8.114766083079443,0
210,2024-09-27 22:14:43.813414912,0,022,-1.1622154928803043,0.010801938518676116,-0.8348401041958751,-0.1873374955782915,4.9984218199797406,-3.0190506919535434,-19.753333604464938,-7.110383346538295,0
211,2024-09-27 22:14:44.745928960,0,022,-1.1699130543254426,0.014753150563637308,-0.8025703152287966,-0.26578650592100167,5.064810322433525,-3.0746702581448773,-21.989787099470803,-6.165684495951685,0
212,2024-09-27 22:14:44.804925952,0,022,-1.1779622386720077,0.02102711861537438,-0.8028951306838834,-0.3442434206901636,5.106843129950104,-3.1338322845564566,-24.26809923117289,-5.269130990857454,0
213,2024-09-27 22:14:44.881998080,0,022,-1.1864632807317832,0.0296852576546539,-0.8288996841635765,-0.4235294757943558,5.117060882613548,-3.192570448276469,-26.566229333716855,-4.411404933118684,0
214,2024-09-27 22:14:44.944107008,0,022,-1.1955745072984123,0.04065257678806775,-0.8729485582131581,-0.503814574464681,5.088818949871245,-3.246796914747722,-28.855796773174355,-3.586582457105985,0
215,2024-09-27 22:14:45.017249024,0,022,-1.205587941334478,0.05373067920790955,-0.9277389328221066,-0.5844010580205804,5.017727879861306,-3.293019784790696,-31.1014879905774,-2.792348227359489,0
216,2024-09-27 22:14:45.084791040,0,022,-1.2169238324692486,0.06860766869920994,-0.9870438617468488,-0.6636563560359903,4.902838578199001,-3.3288752201473364,-33.259114056244464,-2.03041553044851,0
217,2024-09-27 22:14:45.145562880,0,022,-1.2300396207317574,0.08485706767684469,-1.0462233603557143,-0.7390637786001917,4.74728238060362,-3.3534882216698367,-35.27397933380533,-1.3072803541075457,0
218,2024-09-27 22:14:46.067123712,0,022,-1.2452885094637076,0.10193574952049148,-1.1024987753742248,-0.8073976712127011,4.558354102579946,-3.367691700662906,-37.082032186178616,-0.6346739338577349,0
219,2024-09-27 22:14:46.139432960,0,022,-1.2627771094447662,0.11919616322414661,-1.1549716692075518,-0.8650022605463412,4.347279583417087,-3.374139968941652,-38.614794293278585,-0.02894713248685884,0
220,2024-09-27 22:14:46.206938880,0,022,-1.2822653064597715,0.13591627789218522,-1.204430908309868,-0.9081078373345379,4.128899044921685,-3.3773147261283367,-39.8069076848361,0.4907144678821143,0
221,2024-09-27 22:14:46.268524032,0,022,-1.303137588669873,0.15134080859300297,-1.2529925846271515,-0.9331486133984364,3.921153891248569,-3.3832722212000883,-40.603536910193874,0.9041695868851118,0
222,2024-09-27 22:14:46.330521088,0,022,-1.3244595849799716,0.16473241656061857,-1.303563501659068,-0.9371141630350575,3.743918428568574,-3.398923735674692,-40.965345943703966,1.191255114741438,0
223,2024-09-27 22:14:46.407752960,0,022,-1.345111786876199,0.17543311698285888,-1.3591538211538259,-0.9179433702962263,3.6169461584647005,-3.4308922913197977,-40.87156821829,1.332512496667717,0
224,2024-09-27 22:14:46.468865024,0,022,-1.3639598917523856,0.18291815111781937,-1.4222183324045272,-0.8748800675836856,3.5574071487628802,-3.4843161869899837,-40.323159591722764,1.3112219475906404,0
225,2024-09-27 22:14:47.414760960,0,022,-1.3800031634967078,0.1868149254405728,-1.4942686556191274,-0.8086805414084743,3.5777904207974727,-3.561995678723394,-39.34599963642668,1.1166322369008108,0
226,2024-09-27 22:14:47.483470080,0,022,-1.392462960578833,0.18688543330584978,-1.5758475646816605,-0.7216256307182882,3.6845364493322976,-3.6640592102256075,-37.99237048476657,0.7469240474662056,0
227,2024-09-27 22:14:47.554990848,0,022,-1.400812486062729,0.18300233087633389,-1.666753914360494,-0.6173621023493847,3.8773847042711567,-3.788181346609173,-36.33998967103277,0.21097017799468293,0
228,2024-09-27 22:14:47.617767168,0,022,-1.4047701656700962,0.17514460782061028,-1.7663146449318843,-0.5006192773061802,4.149440243693037,-3.930287482450422,-34.488684321391254,-0.47146068709311234,0
229,2024-09-27 22:14:47.679802880,0,022,-1.404273787204451,0.16340880557936344,-1.873503366740224,-0.37684908366954994,4.488013241509979,-4.085496246872046,-32.5534994897623,-1.2716143972012852,0
230,2024-09-27 22:14:47.757910016,0,022,-1.3994394459693098,0.14801565811185763,-1.9867815725559246,-0.25181904139882816,4.876194620663027,-4.248997485778108,-30.65230467275035,-2.156054553659347,0
231,2024-09-27 22:14:47.821969920,0,022,-1.3905052126225823,0.12930051930909336,-2.103728447485099,-0.13113033150442044,5.294932149020923,-4.416695458088145,-28.88850486851852,-3.0924003438677694,0
232,2024-09-27 22:14:48.772782848,0,022,-1.3777627007641262,0.10768806315715414,-2.2206839256118753,-0.01966850027998929,5.725102730517162,-4.585498576921882,-27.333801435725487,-4.054345764236592,0
233,2024-09-27 22:14:48.831299072,0,022,-1.3614919777779237,0.08365715989558556,-2.3325558183818873,0.07884208162585249,6.149033349859677,-4.753164468215773,-26.017782432468973,-5.023901261417594,0
234,2024-09-27 22:14:48.908035072,0,022,-1.3419378273683356,0.057707581099411515,-2.432843704662627,0.16200425302361807,6.551240128314231,-4.917824677952703,-24.92834992456411,-5.990345062361965,0
235,2024-09-27 22:14:48.971694848,0,022,-1.3193638775898677,0.030339793458538444,-2.5140109228702983,0.22871201859570572,6.918518965867198,-5.077501655278643,-24.02192997913307,-6.946934959538453,0
236,2024-09-27 22:14:49.033729024,0,022,-1.2941626907938684,0.0020434655106314633,-2.5682766511739565,0.2791158286001314,7.239663693718052,-5.229828795827897,-23.23886903792093,-7.886761266333232,0
237,2024-09-27 22:14:49.096692992,0,022,-1.266939049887763,-0.02672115631131569,-2.588601288280888,0.31460362016306603,7.505056125249707,-5.371970122614973,-22.518945190576737,-8.79884037604139,0
238,2024-09-27 22:14:49.173917952,0,022,-1.2385068284717184,-0.05554969866764067,-2.5695171560482235,0.3376475224611346,7.706351078162051,-5.500643904295374,-21.81359930040208,-9.665483639241337,0
239,2024-09-27 22:14:50.109990912,0,022,-1.2098210632663806,-0.08410302402352497,-2.507615375898488,0.3514425502452542,7.8364757617810215,-5.612194809923967,-21.093392036623523,-10.461730142880269,0
240,2024-09-27 22:14:50.187686912,0,022,-1.1819045662670342,-0.11207645121931735,-2.4016479178234964,0.35939663467430366,7.890045552209792,-5.702769566660165,-20.349641213625308,-11.157083101691859,0
241,2024-09-27 22:14:50.249324032,0,022,-1.155798385700729,-0.1391392117420066,-2.2523108902967843,0.3645721279345064,7.864096846830884,-5.768678110297732,-19.589505476606483,-11.719253836688349,0
242,2024-09-27 22:14:50.310958080,0,022,-1.1325254860884555,-0.1648810759732532,-2.061950921768549,0.369180087927698,7.758825900918688,-5.806866753887782,-18.826489724198645,-12.11903451699802,0
243,2024-09-27 22:14:50.387789056,0,022,-1.113046874565631,-0.1887971260101395,-1.8344635386882513,0.37423767142779285,7.577878539737873,-5.815262130224591,-18.071354908646764,-12.335047975086493,0
244,2024-09-27 22:14:50.449862912,0,022,-1.09820233415814,-0.2103173919936085,-1.5753865192031071,0.37947777352578793,7.327900189176214,-5.792784789096588,-17.327675819515694,-12.357298559651154,0
245,2024-09-27 22:14:50.526712832,0,022,-1.088640914536657,-0.2288686825816987,-1.2919778490498008,0.3835234349287541,7.017555339243639,-5.739093313232233,-16.592656550988035,-12.188869437310665,0
246,2024-09-27 22:14:51.461713152,0,022,-1.0847460135900888,-0.243949421124736,-0.993097048571935,0.3842528772301556,6.656612155166335,-5.654385849288396,-15.861248457794419,-11.845401741982554,0
247,2024-09-27 22:14:51.539212032,0,022,-1.086558493262165,-0.25519944634931374,-0.688793830197609,0.37925774932628664,6.255577554347439,-5.539556116456844,-15.1315949997613,-11.352281904381453,0
248,2024-09-27 22:14:51.600794112,0,022,-1.093712053746252,-0.2624506318891144,-0.3896790445346506,0.36635129009145806,5.825837191705127,-5.3966098666117395,-14.410802195497645,-10.740046176042245,0
249,2024-09-27 22:14:51.663280896,0,022,-1.1054054484321676,-0.26575156474479117,-0.1063838385759553,0.34410002684463775,5.379735414628642,-5.228882299063564,-13.720346655552408,-10.039089037510522,0
250,2024-09-27 22:14:51.741600000,0,022,-1.1204364214460052,-0.2653630898682335,0.15063062628446652,0.3122712431279976,4.9301220302242585,-5.0407655101177555,-13.100135186731704,-9.274724124459743,0
251,2024-09-27 22:14:51.804266240,0,022,-1.1373128455499284,-0.26171735749943653,0.370961910275127,0.27205004347462775,4.489590779662686,-4.837206378379503,-12.610155338044846,-8.46321218730498,0
252,2024-09-27 22:14:51.866754048,0,022,-1.1544259444026166,-0.25534072638342015,0.5441785873686041,0.22595926139667216,4.069997964293806,-4.623456163356977,-12.328783467337628,-7.609266038459815,0
253,2024-09-27 22:14:52.817988096,0,022,-1.170232257830968,-0.24676542169780488,0.6601369784633239,0.17752864295707751,3.6824084226104996,-4.405239951790845,-12.346826239805166,-6.705676106747407,0
254,2024-09-27 22:14:52.890734848,0,022,-1.1833933250242081,-0.23646556298201438,0.7097999908264913,0.13084813169581935,3.3370879071184363,-4.18912113284929,-12.756667882484047,-5.735686405243478,0
255,2024-09-27 22:14:52.957427968,0,022,-1.1928669817049624,-0.2248356099182467,0.6862673348148018,0.09014906087224636,3.043198339124681,-3.982730516809938,-13.63719115456916,-4.678528360798101,0
256,2024-09-27 22:14:53.019464960,0,022,-1.1979755528950082,-0.21220288129790282,0.5856589509001893,0.059480442057797706,2.808253203332726,-3.7947131622540113,-15.0373011422544,-3.5175271837907816,0
257,2024-09-27 22:14:53.093801984,0,022,-1.1984623578599143,-0.1988516453911246,0.4076439834422275,0.042493938270059366,2.637642435392048,-3.6344553939552,-16.962313323819508,-2.248454868497678,0
258,2024-09-27 22:14:53.157788160,0,022,-1.1945153721861796,-0.18504272512449152,0.15551116969988055,0.042335937901263915,2.5344336356383175,-3.511652614935109,-19.366945296020667,-0.8850996731814373,0
259,2024-09-27 22:14:53.219430912,0,022,-1.186732864125592,-0.1710294847668093,-0.16415417848702377,0.06157231837944679,2.4993570239133964,-3.435660403498253,-22.156649605439377,0.5395707714392952,0
260,2024-09-27 22:14:54.173028096,0,022,-1.1760370480214741,-0.15707841491441366,-0.5418579160145985,0.10197774240206192,2.530664401524607,-3.4145461033875644,-25.19660747232822,1.9762404600493462,0
261,2024-09-27 22:14:54.230931968,0,022,-1.1635674274797039,-0.14349409741123223,-0.9652861029457828,0.16407344576449082,2.623662444219465,-3.4538677301918126,-28.326184815861016,3.364863314431508,0
262,2024-09-27 22:14:54.308361984,0,022,-1.1505828396372217,-0.1306344472362813,-1.419114087212822,0.24653873107898408,2.7701727077862675,-3.555434762943867,-31.37658825461702,4.642092449516519,0
263,2024-09-27 22:14:54.376123136,0,022,-1.1383794591001677,-0.11890217357914527,-1.8849779926517192,0.3458221643473596,2.958511508888165,-3.716510752574062,-34.18941944630992,5.749473455884498,0
264,2024-09-27 22:14:54.430608896,0,022,-1.1282094232592734,-0.10871890125422483,-2.342027592646457,0.45619454976585755,3.1743108713815062,-3.9297917526304214,-36.633123166170115,6.640976651257878,0
265,2024-09-27 22:14:54.508271872,0,022,-1.1211947171672816,-0.10049866168206904,-2.7681349132964796,0.5702394326896639,3.401907942422469,-4.184092150896088,-38.61448761057987,7.288491164394041,0
266,2024-09-27 22:14:54.578984960,0,022,-1.11826457933501,-0.09461754766419563,-3.141595438910352,0.6796585418667226,3.625857784722041,-4.465469402375243,-40.083640922997624,7.684034614046157,0
267,2024-09-27 22:14:55.494147072,0,022,-1.1201328682407419,-0.09136527010830735,-3.4430793769301116,0.7762897797624919,3.8323477855955725,-4.758591937121576,-41.03222492509561,7.837831380643307,0
268,2024-09-27 22:14:55.565824000,0,022,-1.1272808194136295,-0.09088789067083179,-3.657493787346141,0.8532130528654752,4.010357398190031,-5.048143260531075,-41.485716889641786,7.77306298054992,0
269,2024-09-27 22:14:55.633575936,0,022,-1.1399076483634043,-0.09315013353010668,-3.7753463447668563,0.9057269159473601,4.152375280397083,-5.319998223603191,-41.4919602398305,7.519445778985065,0
270,2024-09-27 22:14:55.701118976,0,022,-1.157860231079924,-0.09793335487874594,-3.793337446737553,0.9319484510399906,4.254694135082113,-5.562062300471845,-41.108453239065284,7.107167584299247,0
271,2024-09-27 22:14:55.757520896,0,022,-1.1805868346437465,-0.10486278318035425,-3.7141731324051754,0.9328826713555782,4.317511455595868,-5.764844432524761,-40.39178569648561,6.562174111219446,0
272,2024-09-27 22:14:55.836439040,0,022,-1.207159879937112,-0.11344504658000007,-3.5457205914059564,0.9119572932635576,4.344889365160113,-5.921773301235575,-39.3923780836767,5.904232910484037,0
273,2024-09-27 22:14:55.904177920,0,022,-1.23638682799313,-0.1230981867423599,-3.299630145130863,0.8741532171357504,4.344307240504277,-6.029152041911544,-38.15422144725157,5.148170142824776,0
274,2024-09-27 22:14:56.848207104,0,022,-1.2669794705646793,-0.1331715597086967,-2.989662478550697,0.8249711318236412,4.325617026801408,-6.085730600361605,-36.716214409109185,4.306457941271007,0
275,2024-09-27 22:14:56.907422208,0,022,-1.297714839659928,-0.14297119145126524,-2.6301645132684826,0.7695284682608327,4.299609650449617,-6.092045622503039,-35.113142191220426,3.391064830964939,0
276,2024-09-27 22:14:56.983603968,0,022,-1.3275370856892519,-0.15180615018169608,-2.2351333263701014,0.7120078588454909,4.276543498299282,-6.049730536528671,-33.37721383449842,2.414245425122768,0
277,2024-09-27 22:14:57.051266048,0,022,-1.3555983219651322,-0.15905021261305372,-1.8179821886789926,0.6554995201116929,4.264783308303097,-5.960947955642618,-31.540933621332833,1.3890502164042706,0
278,2024-09-27 22:14:57.118972928,0,022,-1.3812647540951128,-0.16419567554743453,-1.3917137870811507,0.6021209073721853,4.269562514031454,-5.828030364862831,-29.640637226633686,0.3299400890139858,0
279,2024-09-27 22:14:57.186224896,0,022,-1.4041167783687014,-0.16688158473829687,-0.9690541121714454,0.553259006452759,4.291981966919227,-5.653362788572826,-27.719663565003277,-0.7468852529912309,0
280,2024-09-27 22:14:57.249172736,0,022,-1.4239645644513887,-0.16689552954879297,-0.562335949409882,0.5098375277407031,4.328555535728745,-5.439530741758809,-25.829606554858426,-1.8243284192651625,0
281,2024-09-27 22:14:58.172226048,0,022,-1.4408832881459719,-0.16415389564465907,-0.18324438316563113,0.4725395008669553,4.371668189664899,-5.189752299589731,-24.027777671693276,-2.88700892621938,0
282,2024-09-27 22:14:58.229531904,0,022,-1.4552516075323612,-0.15866123175268004,0.15744167013080082,0.44192016152496166,4.411022337272011,-4.908505231271244,-22.371129625714193,-3.924879698923007,0
283,2024-09-27 22:14:58.307632896,0,022,-1.4677610528591587,-0.15045855844990122,0.45014134041721404,0.41841613223362034,4.435687155485273,-4.602104826686683,-20.909510503336875,-4.935943463844081,0
284,2024-09-27 22:14:58.370121984,0,022,-1.4793583242920716,-0.13958751322052904,0.6868619367301556,0.4023099579889156,4.436105380474723,-4.278982446621981,-19.68061064995629,-5.9266120367192805,0
285,2024-09-27 22:14:58.443043072,0,022,-1.4911040657771069,-0.1260901701731394,0.8616837475765464,0.39368323486255474,4.405478367603648,-3.949546424229833,-18.707007533159633,-6.909291642378381,0
286,2024-09-27 22:14:58.509306880,0,022,-1.5039739697233934,-0.11003918109524657,0.9712330338699463,0.392387878229912,4.340305331954936,-3.62563627469859,-17.995786410622095,-7.8973258476866866,0
287,2024-09-27 22:14:58.571835904,0,022,-1.5186534573655757,-0.0915804010720343,1.014930593537139,0.39805885473339636,4.240344909144868,-3.31972459316545,-17.541636729891675,-8.89820412835468,0
288,2024-09-27 22:14:59.522416896,0,022,-1.5353687210997047,-0.07097333399781706,0.9948753762283016,0.4101204097720449,4.10850695612384,-3.044131909860467,-17.332450488219735,-9.907104682732232,0
289,2024-09-27 22:14:59.575844864,0,022,-1.5537792497564697,-0.04862247909669698,0.915412057209837,0.42773281689382253,3.9508843620995933,-2.810419368235295,-17.354377347727873,-10.903022850349355,0
290,2024-09-27 22:14:59.657844992,0,022,-1.5729528991867756,-0.025098917455545877,0.7824919597324167,0.4497243868997245,3.7766736547579596,-2.628910172064249,-17.59391607847218,-11.84854750168141,0
291,2024-09-27 22:14:59.714747904,0,022,-1.5914383666151073,-0.0011495238687610908,0.6029736837216185,0.4745724261774942,3.597740982132638,-2.5082387809483757,-18.037232998679002,-12.692950045287322,0
292,2024-09-27 22:14:59.792417024,0,022,-1.607428300524343,0.022318545705400972,0.38412516900527655,0.5004131997903496,3.4278668725365002,-2.4548956641081485,-18.66846665114083,-13.377695837135331,0
293,2024-09-27 22:14:59.853583872,0,022,-1.61898707888407,0.04429229697447702,0.13351543997463944,0.525040883825427,3.281658276487935,-2.472735901785887,-19.46761587012917,-13.843735142375152,0
294,2024-09-27 22:14:59.915496192,0,022,-1.6243098077322486,0.0637416839105288,-0.14084441791522984,0.5459335349212653,3.173031881097647,-2.5624104426945946,-20.407298447781926,-14.039847549824863,0
295,2024-09-27 22:15:00.871770112,0,022,-1.6219764926782418,0.07971558514337408,-0.4304691259944049,0.56040667247725,3.113505158558677,-2.7207846878859345,-21.449409127667288,-13.930311264578684,0
296,2024-09-27 22:15:00.931354880,0,022,-1.6111632506218396,0.09141780440174112,-0.7267173556920968,0.5659424366416522,3.110853130520695,-2.9405631898854105,-22.544848104396692,-13.499767665172673,0
297,2024-09-27 22:15:01.007844096,0,022,-1.5917719683496792,0.09825372642301447,-1.0213969526017364,0.5605902234148655,3.168500731312804,-3.210347737365516,-23.63765270140842,-12.75476381040605,0
298,2024-09-27 22:15:01.070594048,0,022,-1.5644533010130965,0.0998516528531686,-1.3073405159245002,0.5432518849708446,3.285536912313002,-3.515159622385779,-24.671387709183794,-11.723416580898169,0
299,2024-09-27 22:15:01.143177984,0,022,-1.5305280863792547,0.09606640741762792,-1.578643052754923,0.51376630232646,3.4570058952102825,-3.837310524422184,-25.595515893979258,-10.454489474942205,0
300,2024-09-27 22:15:01.210835968,0,022,-1.491834219637062,0.08697327581502837,-1.8305059502403906,0.4728417064567144,3.67435354259436,-4.157585343801709,-26.371438786910982,-9.015633936953733,0
301,2024-09-27 22:15:01.278490112,0,022,-1.4505293318662549,0.07285902271986731,-2.0588312919699754,0.42188006494806657,3.926119281142331,-4.456734498642545,-26.978143200775904,-7.489872421114119,0
302,2024-09-27 22:15:02.207628032,0,022,-1.408886568743502,0.054215485307515854,-2.259762326582012,0.36271226714725746,4.198824052520012,-4.7170788648079185,-27.416490286739787,-5.9698885366910535,0
303,2024-09-27 22:15:02.285790976,0,022,-1.3691304200276044,0.031741433208779465,-2.4293685104147342,0.2973334629316565,4.477874175056845,-4.923881934300473,-27.710575043738405,-4.550632877133938,0
304,2024-09-27 22:15:02.348281856,0,022,-1.3333371867929236,0.006347214074226497,-2.5635698877960964,0.2277457774764016,4.748423606997641,-5.066256419465309,-27.904070766435215,-3.3215390294545437,0
305,2024-09-27 22:15:02.425476096,0,022,-1.3033721795824436,-0.020864585802286156,-2.6582560739316463,0.15591605243248824,4.996315877548212,-5.137624772111803,-28.050670606882672,-2.3594050981894235,0
306,2024-09-27 22:15:02.487968000,0,022,-1.2808131179943822,-0.04866397057476949,-2.7095937418225247,0.08381035391815424,5.209209500226071,-5.135914622554889,-28.201262066704466,-1.7222350648769742,0
307,2024-09-27 22:15:02.549971200,0,022,-1.266846801126998,-0.07578570735818783,-2.7146208949177426,0.013493113480735142,5.377635470902264,-5.063597737190983,-28.39279778994485,-1.4443545226726382,0
308,2024-09-27 22:15:02.626825984,0,022,-1.2621674086405124,-0.10101337926560999,-2.672129210130744,-0.05275396459099383,5.495493673083052,-4.927517148496453,-28.6425920683758,-1.5333512087649392,0
309,2024-09-27 22:15:03.563532288,0,022,-1.2668991898382547,-0.12325213546759445,-2.5835725096552156,-0.11237109700150234,5.559925490626668,-4.738442500519521,-28.94871194351629,-1.9690818823448406,0
310,2024-09-27 22:15:03.629381888,0,022,-1.2805494852852333,-0.14161240687557985,-2.4535814423643165,-0.1625428198507484,5.5710915124397955,-4.510384398247704,-29.294634167267596,-2.7049106022445217,0
311,2024-09-27 22:15:03.708033280,0,022,-1.3020091625068455,-0.15550430883580746,-2.2897932467897095,-0.2002908144867202,5.532317925327447,-4.259713187422178,-29.655599140503277,-3.6715419140847723,0
312,2024-09-27 22:15:03.768161024,0,022,-1.3296256817455903,-0.16470704206278167,-2.1020476101478356,-0.22262482164109096,5.45048856672287,-4.004113122736242,-30.005111974519895,-4.783237979933318,0
313,2024-09-27 22:15:03.843474176,0,022,-1.3613498375219046,-0.169372192410798,-1.9012954621918874,-0.22669736177553088,5.336113590783314,-3.761406083414366,-30.32142009069072,-5.945048919399763,0
314,2024-09-27 22:15:03.911102976,0,022,-1.3949228034883236,-0.16994899468565533,-1.6985855078957215,-0.20990813886783244,5.202581358780573,-3.5482642627605157,-30.59415328596272,-7.059443279890799,0
315,2024-09-27 22:15:03.972225792,0,022,-1.4280544423415562,-0.16706023950907886,-1.5043072119970902,-0.16999506022224095,5.064581378851845,-3.3788515366775704,-30.830273856506025,-8.032052997704962,0
316,2024-09-27 22:15:04.914635008,0,022,-1.458560578419443,-0.1613743863503319,-1.3277507746846757,-0.1051719319466043,4.9361028169840395,-3.2635198733620747,-31.05679172127087,-8.77757678076724,0
317,2024-09-27 22:15:04.976686080,0,022,-1.4844589422403052,-0.1535064896717297,-1.1769723076069862,-0.014319640421793805,4.828467285351188,-3.2077760373956314,-31.317311197318585,-9.22650119935126,0
318,2024-09-27 22:15:05.058097920,0,022,-1.5040346899937476,-0.14396589530809664,-1.058794426114584,0.10275966473857893,4.7487752782498225,-3.2117972240197585,-31.661564247646737,-9.33209868048945,0
319,2024-09-27 22:15:05.125831936,0,022,-1.5158860960260871,-0.13315650491361253,-0.978705449319799,0.24501758050331868,4.69918906530244,-3.2707501198657054,-32.13081318992669,-9.076314005447388,0
320,2024-09-27 22:15:05.193457920,0,022,-1.5189693011193177,-0.12141176642900048,-0.9405368381749764,0.4098428438555847,4.677397070401803,-3.375929798975543,-32.745058443927036,-8.472166571945884,0
321,2024-09-27 22:15:05.254595072,0,022,-1.5126498537348092,-0.10903134291006168,-0.9459811973586433,0.5929112632995394,4.6781315329653355,-3.516371908278296,-33.49733923379801,-7.56024694136697,0
322,2024-09-27 22:15:05.316594944,0,022,-1.4967419262305643,-0.09630057258665255,-0.9942308095903073,0.7883420467527973,4.695073882325266,-3.6804497149382356,-34.35593506002345,-6.399736940162219,0
323,2024-09-27 22:15:06.245969920,0,022,-1.47152814617949,-0.08349640296451004,-1.0820760295834408,0.9891770809448693,4.722437019133183,-3.857175718841008,-35.2713439233139,-5.057897213066927,0
324,2024-09-27 22:15:06.309356032,0,022,-1.4377872685560003,-0.07089192443816776,-1.204440623378967,1.1880219906628495,4.755894549800627,-4.037160396424594,-36.184910107289895,-3.6018394884506026,0
325,2024-09-27 22:15:06.382798080,0,022,-1.3968403993084995,-0.058768001320652324,-1.354912320946615,1.3776078793306146,4.792803407117865,-4.213159533871124,-37.03774657552671,-2.093440697006882,0
326,2024-09-27 22:15:06.449062912,0,022,-1.3505720381852375,-0.04742843938761158,-1.5259954818825299,1.5511646470496072,4.831754580799508,-4.380051215816779,-37.77851369380926,-0.5866138574067261,0
327,2024-09-27 22:15:06.508758016,0,022,-1.3013679832113074,-0.03720316658727051,-1.7093221930424274,1.7026966463425188,4.87166029659419,-4.534216296558885,-38.367670264642165,0.8736427164222078,0
328,2024-09-27 22:15:06.585737984,0,022,-1.2519549518157296,-0.028428391121998117,-1.896137089733459,1.8272910552424944,4.910753421325722,-4.67256619187875,-38.77725529681724,2.250724983147386,0
329,2024-09-27 22:15:06.653355008,0,022,-1.2051787782428578,-0.02140846249004255,-2.0780413538349602,1.9214752306080056,4.945815452291852,-4.791567272314239,-38.988064104039275,3.5146091055264628,0
330,2024-09-27 22:15:07.597737984,0,022,-1.1637810027053714,-0.016369864363157207,-2.247764681329291,1.9835295325114681,4.9718122135212885,-4.886517143809497,-38.98671233910458,4.638927673939936,0
331,2024-09-27 22:15:07.665465088,0,022,-1.1302149679185354,-0.01341493215254207,-2.3997305784077345,2.0136438337216234,4.98207465883675,-4.951239395674207,-38.76352749666706,5.597700117759878,0
332,2024-09-27 22:15:07.733225984,0,022,-1.1064917884616456,-0.012488955487611184,-2.530223683749769,2.013845289147739,4.969063372961461,-4.978318002718684,-38.31105881986868,6.3631449873553025,0
333,2024-09-27 22:15:07.800854016,0,022,-1.0940215335736183,-0.01338034191294216,-2.637016332064298,1.9876570474536623,4.925539274477036,-4.959877496323641,-37.623468027701875,6.90588350487597,0
334,2024-09-27 22:15:07.868673024,0,022,-1.093462620159606,-0.0157572983767951,-2.7184772811755824,1.9395115571262365,4.8458894569674404,-4.888783484469942,-36.697889546961946,7.197797956813401,0
335,2024-09-27 22:15:07.936281856,0,022,-1.1046432359320257,-0.019222285350094716,-2.7725079703861075,1.8740631567079387,4.727436931566704,-4.760082380271751,-35.538062781498084,7.216537240989072,0
336,2024-09-27 22:15:08.003313920,0,022,-1.1265806482950742,-0.023368772501723138,-2.795873104250067,1.7955970841031026,4.571492919111478,-4.572414343329776,-34.158657120842335,6.950128908857118,0
337,2024-09-27 22:15:08.922647040,0,022,-1.1575579497020245,-0.027839183700887244,-2.7843043839486503,1.7076465966724903,4.383819614216967,-4.3290404033794365,-32.587829349832035,6.400512356249505,0
338,2024-09-27 22:15:08.978180864,0,022,-1.1952295227241876,-0.032378417653544156,-2.7332667541259985,1.6128054433907988,4.174427235664402,-4.03823801019814,-30.866428083047477,5.5854339683167185,0
339,2024-09-27 22:15:09.056287232,0,022,-1.2367719273261855,-0.03686622178701983,-2.6389662170801467,1.5126676990609857,3.9569719645291155,-3.7130575526490315,-29.044329817537704,4.538480903353204,0
340,2024-09-27 22:15:09.125966080,0,022,-1.2790914700045484,-0.041316803856403,-2.499268752954233,1.4078652796120426,3.7479760291244215,-3.370542886551357,-27.17594832373887,3.3069016026453797,0
341,2024-09-27 22:15:09.184698112,0,022,-1.3190713303600863,-0.04584885477957779,-2.314399160982269,1.2982408897443287,3.56577751667835,-3.0304935761474163,-25.316432807546615,1.9469182312359488,0
342,2024-09-27 22:15:09.256829184,0,022,-1.3538315359669448,-0.05063875370914735,-2.0873572218548437,1.1831865674374977,3.42896217129323,-2.713807958406488,-23.51837696700777,0.517215171086493,0
343,2024-09-27 22:15:09.318839040,0,022,-1.3809681601840433,-0.05587034357035446,-1.824032737490514,1.062103223074323,3.3542392212746877,-2.440534355755774,-21.82830906984252,-0.9275851513765433,0
344,2024-09-27 22:15:10.273058816,0,022,-1.398729148136474,-0.06169246140635521,-1.5330492972182503,0.9348981034063419,3.354139203011695,-2.2279668495434923,-20.283605780368397,-2.3416004551468257,0
345,2024-09-27 22:15:10.340718080,0,022,-1.4060963257680683,-0.06819299036383843,-1.225300138325433,0.8024193830070645,3.435142538455031,-2.0891595228899367,-18.91165661310509,-3.6895740189335533,0
346,2024-09-27 22:15:10.407645952,0,022,-1.4027766593286841,-0.0753893698630585,-0.9130792553722262,0.6666816367213633,3.5966785350347337,-2.0319791485668746,-17.73138369923412,-4.946193636145508,0
347,2024-09-27 22:15:10.476096000,0,022,-1.3891321975615867,-0.08322814131881519,-0.6088574702060908,0.5307690062841945,3.8310471823851917,-2.0585619224898144,-16.754110999151937,-6.09407777883402,0
348,2024-09-27 22:15:10.531303936,0,022,-1.3660818062699023,-0.0915903867420352,-0.32398391496898327,0.3984650435084795,4.124101202436334,-2.1650784311741265,-15.98113857731514,-7.121859545052857,0
349,2024-09-27 22:15:10.611500032,0,022,-1.3349918985774094,-0.10030324197442661,-0.06766005687944382,0.2737964602844662,4.456633147377304,-2.341967450096829,-15.399816492721449,-8.022642048411091,0
350,2024-09-27 22:15:10.670717952,0,022,-1.2975525072578638,-0.1091558755982522,0.15362634304888775,0.16065195094698176,4.806448462007397,-2.5748364983741827,-14.98285937606568,-8.79166490985486,0
351,2024-09-27 22:15:11.623027200,0,022,-1.2556349526982928,-0.11792199272911917,0.33628309418231095,0.062487962290269206,5.150747753977881,-2.8459067741694493,-14.693471851436735,-9.422411212140139,0
352,2024-09-27 22:15:11.689835008,0,022,-1.2111420197081677,-0.12639201370789285,0.47957977314283334,-0.017963018463718432,5.46817145419157,-3.1356781008566474,-14.494534649625576,-9.902382887950504,0
353,2024-09-27 22:15:11.758022912,0,022,-1.1658627211858588,-0.13440910338960535,0.5853904088972361,-0.07899261929147751,5.740154671337243,-3.424596833021417,-14.357505036851293,-10.210863047568852,0
354,2024-09-27 22:15:11.825768192,0,022,-1.1213450068717865,-0.14189922738358834,0.6576212537403742,-0.1201222448435181,5.951690602857437,-3.6945880939756117,-14.26692977871101,-10.32025797105974,0
355,2024-09-27 22:15:11.893338880,0,022,-1.0788123219595032,-0.14889200223555465,0.7014332915968653,-0.14215302084187434,6.091761838481127,-3.9303086495949846,-14.219426258895709,-10.201320070126513,0
356,2024-09-27 22:15:11.959023872,0,022,-1.0391416108320475,-0.1555302193210829,0.7224527549540832,-0.14710422775121834,6.153669625135519,-4.120040077564453,-14.219121302597221,-9.831298102427409,0
357,2024-09-27 22:15:12.021406976,0,022,-1.0028996791904115,-0.1620555261890353,0.7259711716851324,-0.1380650665231219,6.135376324167651,-4.2561936835519845,-14.271964796964618,-9.20262258338826,0
358,2024-09-27 22:15:12.972808960,0,022,-0.9704317755950721,-0.16875715269043468,0.7161374783345996,-0.1189539960723049,6.039804151584493,-4.335407014182017,-14.380781463145048,-8.328819572419889,0
359,2024-09-27 22:15:13.040065024,0,022,-0.9419785519161554,-0.17589507959182296,0.6954626484188606,-0.0942642336001734,5.874869153158276,-4.3582341129540785,-14.543487275277997,-7.245116721593212,0
360,2024-09-27 22:15:13.108087808,0,022,-0.9177660955071354,-0.1836296632930284,0.6650196187894016,-0.06886845406526997,5.652918914447398,-4.328444532861584,-14.756221474029742,-6.003582275507867,0
361,2024-09-27 22:15:13.175805184,0,022,-0.8980337251703089,-0.1919752388874726,0.6252764005185081,-0.04777497791847527,5.389356517405487,-4.252022305278044,-15.019858903992263,-4.665043658415716,0
362,2024-09-27 22:15:13.243467008,0,022,-0.8830223463522512,-0.2007701333247907,0.5770562028421939,-0.03567929214257794,5.100634197601585,-4.1361060074057345,-15.345688738038119,-3.2908557538417824,0
363,2024-09-27 22:15:13.304795904,0,022,-0.8729686657547827,-0.20965622870535602,0.5221272262084918,-0.03636891021378997,4.80216608108467,-3.9881147959282846,-15.756794470319837,-1.936784391954435,0
364,2024-09-27 22:15:13.367321088,0,022,-0.8681214053373266,-0.21807998152827562,0.4632684193815457,-0.05221847003684211,4.506771508218675,-3.815181782060352,-16.284436367928834,-0.6499528302644871,0
365,2024-09-27 22:15:14.311582976,0,022,-0.8687506035137058,-0.22533520555659925,0.4039756341121082,-0.08395080944270583,4.224041185407758,-3.6239781590115263,-16.960655720380586,0.5314166126322988,0
366,2024-09-27 22:15:14.389400832,0,022,-0.8751126892267783,-0.23065054694161138,0.3480643913458768,-0.13067700116837466,3.9606082160331106,-3.4209211347534496,-17.80894573925319,1.5767632166172822,0
367,2024-09-27 22:15:14.451651072,0,022,-0.8873773308591479,-0.2332945214095567,0.2993262884721961,-0.1901285365613507,3.7209635417079108,-3.212532405498131,-18.835116122873583,2.4619895049715397,0
368,2024-09-27 22:15:14.526254848,0,022,-0.9055523405023399,-0.23266326481139785,0.26124605261621303,-0.25896895573990125,3.5084242882896364,-3.005674754167523,-20.020245599105106,3.1688854166568787,0
369,2024-09-27 22:15:14.591808000,0,022,-0.9294240425047879,-0.22833754223781277,0.23669178549621628,-0.33309329851460145,3.325943957415662,-2.8075968639047657,-21.316649604078815,3.684622589617462,0
370,2024-09-27 22:15:14.653899008,0,022,-0.9585174144935389,-0.22011267462956263,0.2274507095966013,-0.4078753432404877,3.1764605016474388,-2.62583481642396,-22.647065097956002,4.000724218240797,0
371,2024-09-27 22:15:14.716844032,0,022,-0.9920861680212688,-0.2080052978587052,0.23353773751613774,-0.4783710309822973,3.062640848423705,-2.467969616628015,-23.907308826736752,4.11163155910995,0
372,2024-09-27 22:15:15.670398976,0,022,-1.0291290236823212,-0.1922438763824224,0.25247965869585337,-0.5395142008778921,2.9862248158211986,-2.341190150228427,-24.972669321852102,4.013343475701011,0
373,2024-09-27 22:15:15.730299136,0,022,-1.0684248156271077,-0.1732548843836832,0.2790608745253802,-0.586362588156661,2.9473474510330853,-2.2516496960537387,-25.707843308112686,3.7026465461389595,0
374,2024-09-27 22:15:15.792686080,0,022,-1.108604797942332,-0.15164672857261782,0.30587861002722855,-0.6144592486706434,2.944167873030183,-2.2037385474427422,-25.979879026676297,3.177581548901741,0
375,2024-09-27 22:15:15.869957888,0,022,-1.148276528445725,-0.1281781973766202,0.3246114853232055,-0.6203310207829279,2.9730152876329665,-2.1995310090898204,-25.672751460597688,2.4391738806613916,0
376,2024-09-27 22:15:15.942832128,0,022,-1.1861743744209412,-0.10370192044773217,0.3276185171949642,-0.602050620404454,3.02902639804897,-2.238625080737365,-24.700512035310997,1.493087484491934,0
377,2024-09-27 22:15:16.010466048,0,022,-1.2212910522092868,-0.07909604103429772,0.3094179615844506,-0.559682250922302,3.107022139023642,-2.318396866009429,-23.016024047723032,0.34980160459865545,0
378,2024-09-27 22:15:16.078147840,0,022,-1.252950779798037,-0.055210946786184455,0.2676352590508688,-0.49539985809128884,3.2024449995827737,-2.4345491926253797,-20.61498451782036,-0.9763392509985889,0
379,2024-09-27 22:15:16.995515136,0,022,-1.280799895237622,-0.03284495229425581,0.20324298558834436,-0.41320826238068875,3.3123507651738193,-2.581810579389735,-17.536556140306192,-2.467461331895674,0
380,2024-09-27 22:15:17.063268864,0,022,-1.3047187981307442,-0.012739858885465338,0.12024522150374183,-0.31842492611826817,3.436308344167665,-2.7546055927500714,-13.861192125031481,-4.1006616011005885,0
381,2024-09-27 22:15:17.120652032,0,022,-1.324699155199325,0.0044235545548197384,0.025065816411853657,-0.217147884243446,3.576730887745727,-2.94747141909441,-9.706135674296943,-5.8453985680013565,0
382,2024-09-27 22:15:17.197864960,0,022,-1.3407533948785026,0.018048442682809477,-0.07421394369837879,-0.115793593823491,3.7382014467288904,-3.1551369379189307,-5.2197797662376315,-7.662042905185845,0
383,2024-09-27 22:15:17.264512000,0,022,-1.3528997185372413,0.027671898240492012,-0.16868916376343338,-0.020669858493964986,3.925906718459809,-3.372422234274749,-0.5749255725533069,-9.503372258036812,0
384,2024-09-27 22:15:17.321955840,0,022,-1.361209919088471,0.03303081431842344,-0.2494503754739736,0.06242706014373828,4.14375863204957,-3.594143132853542,4.04063136560487,-11.318823507994487,0
385,2024-09-27 22:15:17.400064000,0,022,-1.3658710058405008,0.03411502556598929,-0.3083688486609615,0.12858652933146564,4.392734254817539,-3.8150841208556474,8.43690187332454,-13.059808049427094,0
386,2024-09-27 22:15:18.346450944,0,022,-1.3672191853819913,0.03118320762900789,-0.33887718591045063,0.17416445798986802,4.669707603119564,-4.030056675782181,12.436518169808163,-14.684217404603949,0
387,2024-09-27 22:15:18.410309120,0,022,-1.3657282407109443,0.024733752490413142,-0.3366261200338784,0.19714847676024533,4.966953173703246,-4.234029133630359,15.88842251065377,-16.158691596177633,0
388,2024-09-27 22:15:18.472356864,0,022,-1.361949966534991,0.015434395236388588,-0.29978484181108106,0.1973635022880601,5.272443015754455,-4.42226119518194,18.676133836318446,-17.45773087333015,0
389,2024-09-27 22:15:18.533954048,0,022,-1.3564255081236405,0.004025147072465822,-0.22897101868943373,0.1764014977609242,5.570882228912784,-4.590436199344261,20.717795995707267,-18.55972439456373,0
390,2024-09-27 22:15:18.617144064,0,022,-1.3496085142158143,-0.008777352263800236,-0.12706676149135762,0.13732747827121075,5.8453257170183965,-4.734901463528916,21.95963068209576,-19.441493457807535,0
391,2024-09-27 22:15:18.673266176,0,022,-1.3418245613907978,-0.022348225451502206,0.0008859367316206522,0.08430857806539978,6.079255643924023,-4.853070082294092,22.368066710619004,-20.07385965166206,0
392,2024-09-27 22:15:18.750076928,0,022,-1.3332534671587963,-0.0361899829484454,0.14776609613968233,0.022249333344128257,6.258901475827741,-4.943845144889374,21.92569882888637,-20.420361077976526,0
393,2024-09-27 22:15:19.671270912,0,022,-1.323922600705733,-0.049942485442079,0.3045878397543378,-0.04356004262176871,6.375247534258418,-5.0078269121152275,20.632573243435967,-20.440260195789943,0
394,2024-09-27 22:15:19.733293824,0,022,-1.3137215337206898,-0.06337511688539609,0.46090028689475326,-0.10775628596189561,6.425012162486187,-5.047124717905344,18.510010933345715,-20.095777969750515,0
395,2024-09-27 22:15:19.798425088,0,022,-1.3024412651524375,-0.0763711421011746,0.6053400141252473,-0.16514164280500698,6.410344794236023,-5.064793048691114,15.603310465284498,-19.361848082639074,0
396,2024-09-27 22:15:19.877367040,0,022,-1.289826694292846,-0.08890985709944293,0.7263585902621693,-0.2108821684157153,6.337685056269764,-5.064149194925532,11.982520266298582,-18.23528344378376,0
397,2024-09-27 22:15:19.945012224,0,022,-1.275640790628358,-0.10103838919588799,0.8131429739803224,-0.24072966683418098,6.216410855075529,-5.048298630943073,7.742575471537723,-16.74013509917171,0
398,2024-09-27 22:15:20.012297984,0,022,-1.2597548452310305,-0.11282530385409811,0.8566086352089289,-0.2512646302015248,6.057591001092801,-5.0199929099465335,3.003487235165651,-14.927811435250714,0
399,2024-09-27 22:15:20.074114048,0,022,-1.2422701408105763,-0.12430726529519448,0.8503102126146824,-0.24009507644898773,5.872832527323041,-4.981682027801691,-2.0898862180649136,-12.873336401459941,0
400,2024-09-27 22:15:21.018390784,0,022,-1.2236413979265486,-0.13544923868690145,0.79118991616726,-0.20597112469529996,5.673130921894818,-4.935596493366937,-7.370011440672739,-10.67012842926807,0
401,2024-09-27 22:15:21.091950848,0,022,-1.2047460878807585,-0.14613050421593543,0.6800573858856013,-0.1488467182560069,5.467808230824775,-4.883804508712998,-12.652898158116763,-8.423878460334718,0
402,2024-09-27 22:15:21.158221056,0,022,-1.1868547673649386,-0.15615996685733097,0.5216391825783575,-0.06993906335472405,5.263737635252267,-4.82813770590619,-17.748417623159238,-6.244578861030006,0
403,2024-09-27 22:15:21.219769088,0,022,-1.171495313323856,-0.16531404744268854,0.3241333581722407,0.028225099947018533,5.064847759274994,-4.769833160958381,-22.471699919954393,-4.236948115374919,0
404,2024-09-27 22:15:21.294419968,0,022,-1.1602379558529603,-0.1733796052112462,0.09835559462507797,0.14184089843103123,4.871778918629685,-4.708995764384413,-26.652977475546116,-2.4914386050697734,0
405,2024-09-27 22:15:21.359865088,0,022,-1.1544435443230707,-0.18018911436099758,-0.14336343533518026,0.2659717823929512,4.681808724817711,-4.644254305891706,-30.146284691846244,-1.0776561066245998,0
406,2024-09-27 22:15:21.429718016,0,022,-1.1550275566086665,-0.1856488027479128,-0.3883256650198892,0.3948139101965284,4.489311484781929,-4.572878591342336,-32.838532628674336,-0.039911354983552985,0
407,2024-09-27 22:15:22.370095872,0,022,-1.1623064590033008,-0.1897584465230187,-0.624445043473193,0.5221118726301015,4.286866162394362,-4.491345221428259,-34.65846121799581,0.6060589217021704,0
408,2024-09-27 22:15:22.428468992,0,022,-1.1759790534387953,-0.19261150027380464,-0.84092057244959,0.6417403759995919,4.066978704858009,-4.396233121980697,-35.58265245357415,0.8745113989977196,0
409,2024-09-27 22:15:22.507801088,0,022,-1.1952317886979082,-0.19437405093895688,-1.0285766245564743,0.7483257544237255,3.8241595506376647,-4.285301604046541,-35.63646124747763,0.8074495793280527,0
410,2024-09-27 22:15:22.575372032,0,022,-1.2188985208081027,-0.1952589811417656,-1.1799564325972807,0.8377059716387527,3.5567398789529987,-4.1584633846025785,-34.89068127182868,0.4683790412324948,0
411,2024-09-27 22:15:22.629720832,0,022,-1.2456062579737495,-0.19550468916638702,-1.2893518512676647,0.9071528624917639,3.2678071233193156,-4.018311801020528,-33.45569311490052,-0.0663934446714801,0
412,2024-09-27 22:15:22.706948864,0,022,-1.2738753282912831,-0.19535044708485302,-1.352993362604254,0.9554407288942195,2.9651737269027567,-3.8701187400831296,-31.47329641752156,-0.717163030005513,0
413,2024-09-27 22:15:22.778948864,0,022,-1.3021777680909166,-0.19500461007698924,-1.3694940272853329,0.9828334140284322,2.6607516734677508,-3.721512521368548,-29.105937037087816,-1.409350047282367,0
414,2024-09-27 22:15:23.723352064,0,022,-1.3289806342796207,-0.19461390283106003,-1.3402949296894897,0.9909298761076165,2.369539719848169,-3.581984117117047,-26.523943793318452,-2.07958914663548,0
415,2024-09-27 22:15:23.781222144,0,022,-1.352797637454748,-0.19424006260729998,-1.269679220385349,0.982305732449723,2.1080406670718235,-3.4621160372063247,-23.892129635423327,-2.678711149193867,0
416,2024-09-27 22:15:23.858269952,0,022,-1.3722520423073106,-0.19384228333456996,-1.1642308949454507,0.960061292195558,1.892064118876642,-3.372430521527094,-21.357743667578596,-3.172132807655489,0
417,2024-09-27 22:15:23.926537216,0,022,-1.3861510641752448,-0.19326331314364556,-1.0320274243299479,0.9274665591858186,1.7343915765085118,-3.3220247075751974,-19.041716795485872,-3.5386510687933512,0
418,2024-09-27 22:15:23.994110976,0,022,-1.3935784641855118,-0.19222532994430225,-0.8819002147778506,0.8877718552876201,1.6429667040735354,-3.3173432625590498,-17.033986702000465,-3.7683907060539736,0
419,2024-09-27 22:15:24.061798144,0,022,-1.3939936990977626,-0.1903498355063783,-0.7228088354494802,0.844111202501217,1.619967605761453,-3.3613762752188334,-15.392618671942357,-3.8602242301530767,0
420,2024-09-27 22:15:24.121414144,0,022,-1.387302136431227,-0.1872112872186164,-0.5631110520197591,0.79937579617332,1.6617293184471675,-3.453374836718785,-14.145600011850382,-3.8191158353240877,0
421,2024-09-27 22:15:25.072801024,0,022,-1.3738697203294634,-0.18241781531606097,-0.40965532102759744,0.7559940470120297,1.7593324446334222,-3.589000250561226,-13.29351717846184,-3.65430743120584,0
422,2024-09-27 22:15:25.131261184,0,022,-1.3544848008233514,-0.17569608675624046,-0.2670225490673042,0.7156839239447094,1.8996891872712705,-3.760757834869738,-12.812504030007283,-3.3789751453901484,0
423,2024-09-27 22:15:25.208300032,0,022,-1.330290170695518,-0.16695017228170234,-0.13731891565345572,0.6792935079860825,2.0669725192337283,-3.958604463357957,-12.659113544386013,-3.0108857791948016,0
424,2024-09-27 22:15:25.275944960,0,022,-1.3027113880521521,-0.15627261569333706,-0.02063039471093837,0.6467965973913714,2.244308354369986,-4.170707984839462,-12.778454387154202,-2.5729657017539678,0
425,2024-09-27 22:15:25.332736000,0,022,-1.273387446688881,-0.1439082221340083,0.08402451977185336,0.6174679413039125,2.4157908282091776,-4.38443035597483,-13.114298270884705,-2.0930999394390932,0
426,2024-09-27 22:15:25.410002944,0,022,-1.2440816469671314,-0.13019183586277105,0.17757345005726624,0.5902109027151614,2.568806089574456,-4.587577052008904,-13.618811268749837,-1.6027932520640134,0
427,2024-09-27 22:15:25.479038208,0,022,-1.216558451581169,-0.11548746828974284,0.25998795591138574,0.5639461630709199,2.6962611909571392,-4.76973907367826,-14.260372908467081,-1.1343304225124982,0
428,2024-09-27 22:15:26.422945024,0,022,-1.192451541693073,-0.10014701878978546,0.32982236221032024,0.5379784540072872,2.798042559124602,-4.923363927247966,-15.028105219986658,-0.7168427166192097,0
429,2024-09-27 22:15:26.490669056,0,022,-1.1731549395866299,-0.08449337856961857,0.3841442222685611,0.5122871294191291,2.881266443405586,-5.044252273031967,-15.931700504050804,-0.37273690027036066,0
430,2024-09-27 22:15:26.554315264,0,022,-1.159734788651228,-0.06882753889195029,0.4187465475339181,0.48764594936512357,2.9593608891308767,-5.131431430619667,-16.996396883616303,-0.11588553959885187,0
431,2024-09-27 22:15:26.615943936,0,022,-1.152850235207991,-0.0534565504101785,0.42868517733860134,0.46547661066411006,3.0502427375186296,-5.18657414450339,-18.254765458807107,0.048255515951809255,0
432,2024-09-27 22:15:26.693573888,0,022,-1.1527056881173958,-0.038728437632688545,0.40921246040273496,0.44746686558471954,3.1738598229050043,-5.213173894868617,-19.73837994981575,0.12174683318225489,0
433,2024-09-27 22:15:26.756037888,0,022,-1.1590753067517563,-0.025051498804406297,0.356915389714193,0.43509890631483367,3.3494560328451297,-5.215655684885498,-21.472214153450892,0.11358364685144431,0
434,2024-09-27 22:15:26.817643776,0,022,-1.171417017242229,-0.012879789884960847,0.2705774504370888,0.42924393921016285,3.592976614747623,-5.198574491173557,-23.471739390646135,0.03926131449354689,0
435,2024-09-27 22:15:27.741779968,0,022,-1.1890601021230973,-0.0026600389541484998,0.1513798119050254,0.4299469144263513,3.914876151629133,-5.166002716655198,-25.73998135361807,-0.08029872219981586,0
436,2024-09-27 22:15:27.816847104,0,022,-1.2114166175963774,0.005246294742560594,0.0025452908010692027,0.43645456262732474,4.318502937701074,-5.121191398172724,-28.262645956971326,-0.22078794909206303,0
437,2024-09-27 22:15:27.884571136,0,022,-1.238129166242103,0.010633550539872132,-0.1711155970814083,0.447433030023768,4.799337065334449,-5.066566523239572,-31.002358000841426,-0.357474642075295,0
438,2024-09-27 22:15:27.952281856,0,022,-1.2690735098539287,0.013480057105255532,-0.36341927120092904,0.4612628124107152,5.345235376488104,-5.003985247904688,-33.89467930217956,-0.468893571583417,0
439,2024-09-27 22:15:28.012629248,0,022,-1.3042086992571578,0.013921079455283246,-0.566778356712384,0.4762918019344025,5.937432894433365,-4.935061508403726,-36.84799720496212,-0.5406177698259861,0
440,2024-09-27 22:15:28.083298816,0,022,-1.3433494514547744,0.012183826099396715,-0.7721256638541683,0.4909509689665405,6.551900260908112,-4.8614071214270504,-39.747962168750036,-0.5680089026791469,0
441,2024-09-27 22:15:28.155170048,0,022,-1.38596485311164,0.008515940755214774,-0.9690686758938832,0.5037493038116264,7.160906980600028,-4.784763595231857,-42.466188708900496,-0.5569231856981327,0
442,2024-09-27 22:15:29.099662080,0,022,-1.4310791342497469,0.0031305383120213658,-1.1465246062274017,0.5132965600199388,7.734854053531368,-4.707100989463645,-44.871997725169585,-0.5220031405843422,0
443,2024-09-27 22:15:29.166793984,0,022,-1.477295017053573,-0.0038231121156645674,-1.2938896279422223,0.5184581630927153,8.24430059598845,-4.630721700404594,-46.844678655948165,-0.4830825095784042,0
444,2024-09-27 22:15:29.234248960,0,022,-1.522918019091303,-0.012257160917699345,-1.4025079259938242,0.5185712967032998,8.661853027773624,-4.558289324749349,-48.2833566296158,-0.4611293944976335,0
445,2024-09-27 22:15:29.302583040,0,022,-1.5661415385457553,-0.022109311081710905,-1.467021140295252,0.5135945366248321,8.963680190107953,-4.492680328028161,-49.11284836351587,-0.4754138104611712,0
446,2024-09-27 22:15:29.370256896,0,022,-1.6052444098308036,-0.033291439651294115,-1.4861486548913976,0.5041322322016664,9.130812288607112,-4.436655607469939,-49.285884073593955,-0.5425258595692488,0
447,2024-09-27 22:15:29.438213120,0,022,-1.6387584417383323,-0.045652680780237306,-1.4625967973337164,0.49130270068280313,9.150501061818769,-4.392443329180956,-48.7832151622208,-0.6762941208607887,0
448,2024-09-27 22:15:29.506028800,0,022,-1.665588918152579,-0.058968822567401664,-1.4021620526445213,0.4764324568699532,9.017513394996074,-4.361304471785766,-47.61271588010989,-0.8873877976620479,0
449,2024-09-27 22:15:30.411343104,0,022,-1.6850958632466722,-0.07294265885720694,-1.3124864327985226,0.46064473633661723,8.734792938595088,-4.343134017458716,-45.80783991145773,-1.1826384157482783,0
450,2024-09-27 22:15:30.490998016,0,022,-1.6971428979834087,-0.08719767693209071,-1.2020420033657844,0.4445171354159293,8.313101661465964,-4.3362662027374554,-43.42603225637868,-1.5648590328945462,0
451,2024-09-27 22:15:30.558627072,0,022,-1.7021023563311206,-0.10126778926992255,-1.0796504056783598,0.4280050433037974,7.7698708609126985,-4.337660105485167,-40.54775050416671,-2.0331369603395597,0
452,2024-09-27 22:15:30.612147968,0,022,-1.700802914771113,-0.11459956944233024,-0.9543587053797634,0.410686714090815,7.127750194532388,-4.343395365951665,-37.275542255912235,-2.582703041819821,0
453,2024-09-27 22:15:30.689370112,0,022,-1.6944225694460249,-0.12657829074465954,-0.8352225960711441,0.39214431388083887,6.413130504854312,-4.349258731107741,-33.73155901826019,-3.2037949552643754,0
454,2024-09-27 22:15:30.761808128,0,022,-1.6843405719874376,-0.13657553549188958,-0.7306934250281086,0.37217774176793816,5.6547127641279245,-4.351321760075834,-30.0522154794383,-3.880018687057537,0
455,2024-09-27 22:15:30.828193792,0,022,-1.6719636106217024,-0.1440079360175189,-0.647628462686754,0.35070544661400854,4.882039511744299,-4.346491449600567,-26.380058500017505,-4.587460001744287,0
456,2024-09-27 22:15:31.773209856,0,022,-1.6585437346815204,-0.1484000968744714,-0.5902115310610666,0.32750574853865927,4.123778825421833,-4.332908273857286,-22.85433060796406,-5.295570426953226,0
457,2024-09-27 22:15:31.831802880,0,022,-1.6450093561606014,-0.14945103362920714,-0.5591800162557916,0.30206423175188474,3.4057694951717954,-4.310018774983601,-19.60219880787846,-5.970242285443227,0
458,2024-09-27 22:15:31.893846016,0,022,-1.631838994342658,-0.14710043233492406,-0.5516015768811632,0.27360404264619004,2.749265036121526,-4.278345365440002,-16.73213615490174,-6.57891671709324,0
459,2024-09-27 22:15:31.971928832,0,022,-1.6190109153200725,-0.1415838959531694,-0.561139725923689,0.24116764946456862,2.169878169621194,-4.239163911178973,-14.330150602032278,-7.096524450654487,0
460,2024-09-27 22:15:32.033120000,0,022,-1.606046992505706,-0.13346165352516806,-0.5786014452305643,0.20363975361165307,1.6773606452669123,-4.194180058114768,-12.458201037514517,-7.510230411948584,0
461,2024-09-27 22:15:32.111794944,0,022,-1.5921481595184541,-0.12359887985070787,-0.5926430200166248,0.15974850468507323,1.2760644989511396,-4.145107513876068,-11.153516086807292,-7.821267171411394,0
462,2024-09-27 22:15:32.177805056,0,022,-1.5764011720415168,-0.1130766903929683,-0.5906457639944821,0.10814719820241005,0.9659432144002663,-4.093152393300099,-10.429722335896225,-8.042698807256125,0
463,2024-09-27 22:15:33.124002048,0,022,-1.5580145356072992,-0.10303553389709103,-0.5598542910210341,0.04762213826220452,0.7439303551503597,-4.038598911204052,-10.28174438133156,-8.192898834341507,0
464,2024-09-27 22:15:33.191165952,0,022,-1.536522193586579,-0.09448439381497527,-0.48880360757254365,-0.02263471782695262,0.6052996599037234,-3.9806416065088857,-10.692376250869744,-8.28699631094611,0
465,2024-09-27 22:15:33.258450944,0,022,-1.5118939382413634,-0.08812568647122658,-0.36885327431357556,-0.10281585604849643,0.5445628077536833,-3.9174621609208087,-11.635246375896312,-8.330422951186732,0
466,2024-09-27 22:15:33.326935040,0,022,-1.4845241669065765,-0.0842394329351309,-0.19553304002240024,-0.19240878252383298,0.5558629683599083,-3.846574656060167,-13.07225717490604,-8.317164435506434,0
467,2024-09-27 22:15:33.394660864,0,022,-1.4551255688452505,-0.08264746316703316,0.030573751235383764,-0.2901509600089537,0.6332004153292278,-3.765501823745685,-14.948514135939016,-8.232256463467579,0
468,2024-09-27 22:15:33.462231040,0,022,-1.4245818170228348,-0.08275399667564082,0.30366256371054967,-0.3939679604606638,0.7707508541774026,-3.6726772835964536,-17.188195589045737,-8.056981590262549,0
469,2024-09-27 22:15:33.529951232,0,022,-1.3937959550000893,-0.08364317430779537,0.6133533280392782,-0.5009604507481572,0.9632628095181919,-3.5683063300027573,-19.69239782724296,-7.77559670610233,0
470,2024-09-27 22:15:34.471612160,0,022,-1.3635589189791792,-0.08420808955766285,0.9459090596915929,-0.6075099287016577,1.2063638114355852,-3.4549577208857,-22.339466516420433,-7.381772003637797,0
471,2024-09-27 22:15:34.537398272,0,022,-1.3344686138138346,-0.08329148142768136,1.2856370881629517,-0.7094862934724647,1.4965399078801491,-3.3377473656714436,-24.9898573340235,-6.881952330800396,0
472,2024-09-27 22:15:34.607741184,0,022,-1.3069142841209112,-0.07982466252813417,1.616249250107312,-0.8025369084527935,1.8305430560992086,-3.2240080094374606,-27.49694819337383,-6.294248388325722,0
473,2024-09-27 22:15:34.675489024,0,022,-1.2811061357647435,-0.07294879022419355,1.9220879468998053,-0.8824601091902771,2.204185127429007,-3.1224398126986173,-29.72151061519066,-5.644617826749542,0
474,2024-09-27 22:15:34.736721920,0,022,-1.2571135951045045,-0.06210543173943639,2.1890864080332193,-0.9456123026088734,2.610889359653313,-3.0419222349976414,-31.54501809619227,-4.963293106557213,0
475,2024-09-27 22:15:34.798691840,0,022,-1.2348864457002728,-0.04709072400622457,2.405381754911017,-0.9892561946759324,3.040583078880268,-2.9902770146776443,-32.878032947006254,-4.2827006440302675,0
476,2024-09-27 22:15:34.875998976,0,022,-1.2142606510353477,-0.028064129411239085,2.561697367536421,-1.0118011815813346,3.4793933336907346,-2.9732719815983066,-33.66251854706598,-3.6364052103297015,0
477,2024-09-27 22:15:35.822496768,0,022,-1.1949779906110118,-0.005503909490016702,2.6517132256022946,-1.012924259788153,3.910453987029465,-2.9940892409925914,-33.86908532268453,-3.0585525195054775,0
478,2024-09-27 22:15:35.880071168,0,022,-1.1767428901221373,0.019879113084253115,2.672504973192391,-0.9935530624872532,4.315850946029271,-3.0532735241446924,-33.49179508961523,-2.5834826632933803,0
479,2024-09-27 22:15:35.956892160,0,022,-1.159298512365095,0.047242728842500505,2.6248891928305658,-0.9557197231390667,4.679089165547312,-3.148913144100106,-32.54385374299053,-2.244778769211209,0
480,2024-09-27 22:15:36.018469120,0,022,-1.1424796381115212,0.0757085298540351,2.5134339487236605,-0.9023492357817268,4.987023186018063,-3.276802364963489,-31.056185105185175,-2.073107540376748,0
481,2024-09-27 22:15:36.093203200,0,022,-1.1262138581403482,0.10443922771341738,2.3460310459347142,-0.8370411471140825,5.230584543156131,-3.4305796786622604,-29.07796265373575,-2.093095461665077,0
482,2024-09-27 22:15:36.160931072,0,022,-1.110466841799383,0.1326867250866929,2.133059202496448,-0.7638292258033074,5.4044589277404365,-3.6019711163592945,-26.676654437953363,-2.3200023837388013,0
483,2024-09-27 22:15:36.228462848,0,022,-1.0951601338105768,0.15980984774713733,1.8862190399344867,-0.6868702075991473,5.506329854102355,-3.7812283397627775,-23.93667240369762,-2.7568939047374665,0
484,2024-09-27 22:15:37.172587776,0,022,-1.0801221707256512,0.1852797829852544,1.6172287474404807,-0.6100821566657758,5.53626047830089,-3.957815684134801,-20.957448109829393,-3.392970328546183,0
485,2024-09-27 22:15:37.240222976,0,022,-1.065111757967639,0.20868752397568366,1.3367018730911027,-0.5368105777788611,5.49650760807599,-4.121356564588854,-17.85109468741787,-4.203470180004261,0
486,2024-09-27 22:15:37.308013824,0,022,-1.049892294335699,0.2297469227074971,1.053467526491721,-0.46958699201541965,5.391790060657946,-4.262756566907608,-14.738919090040346,-5.150850776224307,0
487,2024-09-27 22:15:37.375133184,0,022,-1.0343146408077992,0.24828826351809732,0.7743463896187132,-0.41003637534618814,5.229848160851569,-4.375320113385723,-11.746759606931553,-6.1865919771048565,0
488,2024-09-27 22:15:37.443398912,0,022,-1.0183807302116825,0.2642505720768783,0.5042283218212241,-0.35895774482276055,5.021947903020281,-4.45559607267439,-8.99996863771843,-7.253622545494653,0
489,2024-09-27 22:15:37.511055872,0,022,-1.00226422338017,0.2776713376045971,0.2463278270246737,-0.31651994350418106,4.782820444850565,-4.503698521243279,-6.619006727398025,-8.289884728091087,0
490,2024-09-27 22:15:37.570439936,0,022,-0.9862858130480637,0.288659412525164,0.002584214975529151,-0.28246157296676383,4.529648441121136,-4.5229788187334945,-4.716159426332144,-9.232878661848055,0
491,2024-09-27 22:15:38.496988160,0,022,-0.9708753269610043,0.2973504874222894,-0.22586504598647172,-0.2561694950072428,4.280202556543355,-4.519093988696307,-3.392579057421066,-10.024307517421112,0
492,2024-09-27 22:15:38.549819904,0,022,-0.9565422953947333,0.3038642753371701,-0.438367820212834,-0.23656557516134438,4.050796432208005,-4.498739000161562,-2.7337996492093573,-10.614306045550611,0
493,2024-09-27 22:15:38.632393984,0,022,-0.9438387950118968,0.308284371111092,-0.634836128430209,-0.22188486437345661,3.8549184544686237,-4.4685196447129325,-2.8026200635265215,-10.965244439974047,0
494,2024-09-27 22:15:38.700198912,0,022,-0.9332969992061434,0.31067128050624926,-0.8161633197401112,-0.2095289325241224,3.7029053879797686,-4.434320643674874,-3.630268165509758,-11.054744587038288,0
495,2024-09-27 22:15:38.765235712,0,022,-0.9253550507705629,0.31110343954223474,-0.9845934257895583,-0.19613718497859164,3.602189930093027,-4.401113270957649,-5.208189118157364,-10.877046155738213,0
496,2024-09-27 22:15:38.826837248,0,022,-0.9202993658446016,0.30972319395530934,-1.1436458299062429,-0.17792077194628353,3.557346112612198,-4.37293267992028,-7.482830446735951,-10.442293502540291,0
497,2024-09-27 22:15:38.888488960,0,022,-0.9182292876128404,0.30675513519613634,-1.297461277301456,-0.15120631764846124,3.5696149754257185,-4.3528421007556695,-10.355081147826677,-9.774403108968052,0
498,2024-09-27 22:15:39.834930944,0,022,-0.9190195066788459,0.30247567548324455,-1.4497159153168033,-0.11307097462206987,3.6361936288935937,-4.342822391727453,-13.68468676388773,-8.908876863501575,0
499,2024-09-27 22:15:39.915695872,0,022,-0.9222627692251137,0.2971457636820199,-1.6025002298909903,-0.0619204970416584,3.7497756296244025,-4.343604055469545,-17.298005022971793,-7.891578933061083,0
500,2024-09-27 22:15:39.983447040,0,022,-0.9272184717443254,0.2909461838678096,-1.7557088555296263,0.0021566834434726804,3.8986549855352344,-4.354533930461467,-20.99672541825898,-6.77807952050974,0
501,2024-09-27 22:15:40.050990080,0,022,-0.9328156606771641,0.28394745103061175,-1.9072482496682315,0.07737274600582582,4.067434207561455,-4.3735860214432485,-24.566825476565448,-5.6317131202503905,0
502,2024-09-27 22:15:40.118668032,0,022,-0.9377343943752428,0.2761174670190505,-2.053806984662462,0.16052499108569862,4.238199621774736,-4.39753369751626,-27.789130679902577,-4.518583928258192,0
503,2024-09-27 22:15:40.186330112,0,022,-0.9405452764603218,0.26734923959741685,-2.1916222523819857,0.24743163377788877,4.391951343151504,-4.422188446323195,-30.45282893131767,-3.4998459901197934,0
504,2024-09-27 22:15:40.254082048,0,022,-0.9398618789433023,0.2574869081795104,-2.316916988270433,0.3333796678452932,4.510086083197977,-4.442635765543706,-32.371156086393896,-2.623983186117216,0
505,2024-09-27 22:15:41.183954944,0,022,-0.9344730958461387,0.24634638967782965,-2.4261325594606267,0.41355598108762803,4.575820346079225,-4.453540731059895,-33.39670881106743,-1.9220216949284465,0
506,2024-09-27 22:15:41.265517056,0,022,-0.9234477312166494,0.23374875230523676,-2.5162617979576885,0.4835298942482464,4.575491284391174,-4.449636644417961,-33.434533013835704,-1.406417564896438,0
507,2024-09-27 22:15:41.333185792,0,022,-0.906211228318589,0.21957472831441538,-2.5853897996946955,0.5397815652164221,4.499613577239366,-4.426358455042285,-32.45301490645355,-1.0720855529411861,0
508,2024-09-27 22:15:41.400741888,0,022,-0.8825926895440127,0.2038235234098955,-2.633242180880145,0.5801102701164726,4.343534293413464,-4.380418852232066,-30.492319965263622,-0.8975573322444327,0
509,2024-09-27 22:15:41.468492800,0,022,-0.8528340702193327,0.18665223785437227,-2.661406341141672,0.6037653648577898,4.107605652894272,-4.310122984080585,-27.667429598098582,-0.8455895938534899,0
510,2024-09-27 22:15:41.536051968,0,022,-0.817540381498633,0.16837582348855476,-2.673036721382755,0.611311467250542,3.796913310335966,-4.215355076289196,-24.161555804467024,-0.8645636557866182,0
511,2024-09-27 22:15:41.603820032,0,022,-0.7775582849240538,0.14941486024832987,-2.6721765100338333,0.6043630655865107,3.420698314041933,-4.097333510107689,-20.20863597078704,-0.8929514405276355,0
512,2024-09-27 22:15:42.522717952,0,022,-0.7338121175843743,0.13020086676696915,-2.662988967098894,0.585320430502909,2.9916756696126705,-3.9583146484372156,-16.068484360668133,-0.867728177220325,0
513,2024-09-27 22:15:42.590533888,0,022,-0.6871604671931468,0.1110740606601856,-2.6490305278517785,0.5571526110636569,2.5253661539927794,-3.8013719437984994,-12.000320168287944,-0.7349818179208806,0
514,2024-09-27 22:15:42.658120192,0,022,-0.638328519528172,0.0922124165818608,-2.632569767313929,0.5231874565184166,2.0393261155953155,-3.630238353592392,-8.239429114110608,-0.45923741477580776,0
515,2024-09-27 22:15:42.725230848,0,022,-0.587934645209538,0.07361249734131613,-2.614108646075652,0.4868555315959551,1.5521105483573283,-3.449131743405217,-4.9805114673311595,-0.02826968221383141,0
516,2024-09-27 22:15:42.792648192,0,022,-0.5365902473376697,0.055116355352363554,-2.5923460146500434,0.4513872594712322,1.082060814811144,-3.2625590491866157,-2.369218213005942,0.5475470956085307,0
517,2024-09-27 22:15:42.861324032,0,022,-0.48502184362143325,0.03646357768217775,-2.564591976501584,0.4195090882121907,0.6462052803320403,-3.075187585271156,-0.500091084695671,1.2396396900769449,0
518,2024-09-27 22:15:42.927625984,0,022,-0.4341525443419299,0.01735179102753793,-2.527392082058292,0.39318241435379053,0.2594834494179407,-2.8918336477396234,0.582028878358606,2.0068784885919495,0
519,2024-09-27 22:15:43.873052928,0,022,-0.3850933680358038,-0.0025035835755873835,-2.4771030692626463,0.37339715010165286,-0.06568606924459022,-2.7174783951553296,0.878819010249869,2.800895309252509,0
520,2024-09-27 22:15:43.940674048,0,022,-0.3390393217463162,-0.023315391315580327,-2.410322715754599,0.3600334952773512,-0.3196076850503401,-2.557140026872797,0.4341367645603952,3.5706057697527185,0
521,2024-09-27 22:15:44.008396032,0,022,-0.29712573085796046,-0.04517236568906281,-2.324269127450456,0.3518600115867346,-0.49537535355136164,-2.415527715897867,-0.6716337036585772,4.265883035854478,0
522,2024-09-27 22:15:44.070220032,0,022,-0.2603213223065174,-0.06798620550316475,-2.2172371268656605,0.3467350408735134,-0.5888125818874187,-2.296580361523372,-2.3287405333770175,4.840014198373845,0
523,2024-09-27 22:15:44.143920896,0,022,-0.22939336426335052,-0.09145656875262134,-2.089084700758503,0.3419768934645175,-0.5983690200657467,-2.2030366445879155,-4.405899736951488,5.2506210678611325,0
524,2024-09-27 22:15:44.207717888,0,022,-0.20492760916952255,-0.11507742188367191,-1.9415416699348156,0.3348037043071299,-0.5251335687182187,-2.136089072737911,-6.758177300840616,5.45994037745305,0
525,2024-09-27 22:15:44.279140864,0,022,-0.18736471312521816,-0.13818547755163751,-1.778185619402833,0.32277406438889983,-0.37288402234058765,-2.095169495843815,-9.235720346950044,5.436170331770877,0
526,2024-09-27 22:15:45.222985984,0,022,-0.17702409825963047,-0.16003096070398992,-1.6041136256034745,0.30418125264914747,-0.1477616051786253,-2.0780571921085484,-11.694192238102202,5.1567207606006455,0
527,2024-09-27 22:15:45.279920128,0,022,-0.17410916860530884,-0.17985026847463081,-1.4254035619457455,0.2783311799188937,0.14274227014112134,-2.0815073795528334,-14.006166937003501,4.612665947734281,0
528,2024-09-27 22:15:45.356899840,0,022,-0.17869780019158168,-0.19693064144105518,-1.2483875895774774,0.24563098013942686,0.49120333655306325,-2.10228015826997,-16.071048792543507,3.812649679840805,0
529,2024-09-27 22:15:45.418555904,0,022,-0.19071350716323524,-0.210666395493994,-1.0787927646410922,0.2074601014758698,0.8913132667796602,-2.138128729369253,-17.8207493298416,2.7845151002634476,0
530,2024-09-27 22:15:45.480612096,0,022,-0.2098715717660883,-0.22060712321521014,-0.920987721738876,0.1658804137469862,1.3380082661189516,-2.1883562156692578,-19.220143344211255,1.5739893798073985,0
531,2024-09-27 22:15:45.557805056,0,022,-0.23560563936886864,-0.22649546318463018,-0.7776568505694784,0.12332231722188,1.826761173875548,-2.253798917911017,-20.263415726608578,0.2406737818551306,0
532,2024-09-27 22:15:45.619918848,0,022,-0.26699314100180566,-0.22829537237283196,-0.6500010787430125,0.08234613667840698,2.352415477547573,-2.336204166461557,-20.96747770760284,-1.1479302748517752,0
533,2024-09-27 22:15:46.564735744,0,022,-0.3027176596141557,-0.22621245004449383,-0.538211634515525,0.04543472203869713,2.9078652897632553,-2.4370883667706784,-21.363402782061325,-2.5228255569534177,0
534,2024-09-27 22:15:46.640916992,0,022,-0.3411175345756234,-0.2206969288312093,-0.44186751816184755,0.014737572937483729,3.482905222889933,-2.556496808233049,-21.48831218649271,-3.8185088066309136,0
535,2024-09-27 22:15:46.708450816,0,022,-0.38034198426591076,-0.21241363001963756,-0.36012181258165443,-0.008190083684405236,4.063647033696225,-2.692274694633112,-21.380637520955826,-4.975987280189404,0
536,2024-09-27 22:15:46.775211264,0,022,-0.4185833119773261,-0.20217254710160373,-0.2917964238415667,-0.022527878974529174,4.632744841908589,-2.8401304007634836,-21.07908039560643,-5.944763461344366,0
537,2024-09-27 22:15:46.843918080,0,022,-0.4543200625310628,-0.190829136898594,-0.23558790972844085,-0.02814098923051827,5.170392991694173,-2.9942672907955186,-20.62280089646956,-6.6846571010307025,0
538,2024-09-27 22:15:46.911608832,0,022,-0.48650817096858184,-0.17917405471771486,-0.19043145948592607,-0.025385707638491642,5.655821947127364,-3.148181917468446,-20.050755431548744,-7.167397798102102,0
539,2024-09-27 22:15:46.963783936,0,022,-0.5146800097400024,-0.16783384504994783,-0.15587650183488855,-0.01489351447176287,6.068877081290076,-3.295371937152584,-19.400548785200332,-7.377721472412556,0
540,2024-09-27 22:15:47.923278080,0,022,-0.5389380828342702,-0.15720256515658565,-0.1323565426551987,0.002572625064855487,6.391377989593944,-3.4299023513348956,-18.707684971199747,-7.314175139442912,0
541,2024-09-27 22:15:47.990915072,0,022,-0.5598580903322816,-0.14742257651117288,-0.12132562926251195,0.026208919632196324,6.608257671456378,-3.54688532012476,-18.004441561043247,-6.98994730357185,0
542,2024-09-27 22:15:48.058695936,0,022,-0.5783371318425048,-0.13842104820549198,-0.12518341065176367,0.05526454376731645,6.708617263524899,-3.642884143804303,-17.317913081221214,-6.433393414411909,0
543,2024-09-27 22:15:48.120520960,0,022,-0.5954204351438147,-0.12999001108644587,-0.1469459383420118,0.0891075798468893,6.686701196301923,-3.7161357028425677,-16.668976001133238,-5.687100602293488,0
544,2024-09-27 22:15:48.194076160,0,022,-0.6121202758854998,-0.12188918898671654,-0.18982253018596257,0.12719467135944512,6.542684591033726,-3.7665133764448004,-16.073458791556604,-4.80449623632124,0
545,2024-09-27 22:15:48.261648896,0,022,-0.6292380764882476,-0.11394830710150118,-0.2569014623430965,0.16896729615965214,6.2831649701399,-3.7953332603110925,-15.544347062242398,-3.844344390546287,0
546,2024-09-27 22:15:48.329425152,0,022,-0.6472316942310272,-0.10613743995593007,-0.3509525260994063,0.21377095244547453,5.921163747141703,-3.8051386136636327,-15.093641101516566,-2.8646198292666125,0
547,2024-09-27 22:15:49.246648832,0,022,-0.6661902885888955,-0.09857679234028827,-0.47419948062814626,0.260862693175939,5.475415313983694,-3.7994298441444188,-14.734052492567109,-1.917135274959765,0
548,2024-09-27 22:15:49.314323968,0,022,-0.685935634805094,-0.09148423245409698,-0.6279242628416734,0.3095014204431701,4.968991965611976,-3.782259669882321,-14.481190576446544,-1.043483928156549,0
549,2024-09-27 22:15:49.382073088,0,022,-0.7061963644864724,-0.08508575103459745,-0.8118892743040467,0.35906661198569345,4.4275793346466115,-3.757732985432072,-14.35583251485936,-0.2724780687306207,0
550,2024-09-27 22:15:49.444659968,0,022,-0.7267821740529633,-0.0795193599744503,-1.023731441430843,0.40914420217530456,3.877713744164473,-3.7295040732089695,-14.384768713947821,0.3805912427429199,0
551,2024-09-27 22:15:49.506974208,0,022,-0.7477146034290633,-0.0747589550068796,-1.258571834551069,0.4595422736982246,3.345178260179028,-3.700348873876259,-14.598769405374497,0.9127137647306005,0
552,2024-09-27 22:15:49.585133056,0,022,-0.7692831167151544,-0.07058617186414219,-1.5090070458265832,0.510220254689979,2.853603559450855,-3.6718806577550707,-15.027497044020537,1.330610001748827,0
553,2024-09-27 22:15:49.646191872,0,022,-0.7919939102169321,-0.06663343713681529,-1.7654433291498586,0.5611248130579685,2.423140447537694,-3.644424752091421,-15.692995881298947,1.648155440044694,0
554,2024-09-27 22:15:50.596337920,0,022,-0.8164172176321512,-0.062491951434340554,-2.0165960789571296,0.6119684174808184,2.069147544280137,-3.6170658465202106,-16.604342339725417,1.8845306522686611,0
555,2024-09-27 22:15:50.648778752,0,022,-0.8429959357418281,-0.05784077249699968,-2.250073074189761,0.6620687530726194,1.801235030558277,-3.587986702893829,-17.755397597279863,2.0630512434806714,0
556,2024-09-27 22:15:50.731789056,0,022,-0.8718843401864224,-0.052547666443183726,-2.45316800109656,0.7103790841647873,1.623136407682929,-3.5551985249975253,-19.12642013623785,2.210730435431116,0
557,2024-09-27 22:15:50.788038144,0,022,-0.9028413753493428,-0.046722508082280505,-2.614042838680512,0.7557355462224308,1.5334104981399874,-3.5175083218405696,-20.688971957095372,2.3586390645599087,0
558,2024-09-27 22:15:50.864813056,0,022,-0.9351705436903333,-0.04073159642507372,-2.7232686586635637,0.7972507745839991,1.5264478139716438,-3.4753246889866225,-22.41151785250458,2.542128841775092,0
559,2024-09-27 22:15:50.934976000,0,022,-0.9677050375886004,-0.03518407430452862,-2.7753476368322807,0.8347418610324261,1.5932482712107316,-3.430939435127672,-24.261902935702064,2.7993003091986353,0
560,2024-09-27 22:15:51.002595072,0,022,-0.9988576985244727,-0.030891493784085015,-2.769668224112342,0.8690224887135175,1.7218697712413584,-3.38819949678402,-26.20487950590098,3.166898599469564,0
561,2024-09-27 22:15:51.938185984,0,022,-1.0267581053319403,-0.028794368358187508,-2.710549045260185,0.9018662460233532,1.8978535808753136,-3.3517366438770306,-28.196888201165812,3.6744056172125537,0
562,2024-09-27 22:15:52.001214976,0,022,-1.0494767780386596,-0.0298530820554499,-2.6064155337068113,0.9355773238122339,2.105001698384797,-3.3260114405225645,-30.18186559455339,4.3381641738470575,0
563,2024-09-27 22:15:52.078910208,0,022,-1.065304677257471,-0.0349162724579836,-2.468472760835174,0.9723381093601566,2.3266382951157896,-3.3144442224315878,-32.089557250535286,5.15712152718891,0
564,2024-09-27 22:15:52.149499904,0,022,-1.0730296707912497,-0.04459561978122312,-2.3093736462271766,1.0136430928171107,2.547110667170247,-3.3189112834870764,-33.836197134125385,6.110813561243447,0
565,2024-09-27 22:15:52.203318016,0,022,-1.0721442502347058,-0.05917661163913745,-2.1422266936675127,1.0600377314296885,2.753015349021791,-3.3397409635529365,-35.328496133603394,7.159761637434675,0
566,2024-09-27 22:15:52.280802048,0,022,-1.062936973784697,-0.07858059591874678,-1.9799470202500495,1.1111606679848793,2.9337186494365395,-3.3760207054594686,-36.471827627039225,8.248332014186273,0
567,2024-09-27 22:15:52.343779072,0,022,-1.0464527428454953,-0.10237542211189618,-1.8347571387817039,1.1659505992412815,3.0811744079855488,-3.4258703178904266,-37.18133936445704,9.309866622519008,0
568,2024-09-27 22:15:53.282269952,0,022,-1.0243372706948735,-0.12982484983325476,-1.7176951981576944,1.222892122070288,3.189493840319775,-3.48657102940761,-37.39318536746683,10.27379481555624,0
569,2024-09-27 22:15:53.365204224,0,022,-0.9985975702059778,-0.15997268670582449,-1.6381207363722323,1.2802628134478675,3.2548077975505914,-3.5547069232064223,-37.07308837606605,11.074048704103545,0
570,2024-09-27 22:15:53.432102912,0,022,-0.9713251236094642,-0.1917528798132737,-1.6032609966891986,1.336384535465603,3.2756134587785515,-3.6264243361031574,-36.22071572412824,11.657000671980057,0
571,2024-09-27 22:15:53.500614912,0,022,-0.9444540350424329,-0.22409621348247422,-1.6178041214276322,1.3897988814246625,3.2533682590043718,-3.697732804878418,-34.86926643822378,11.986214723553847,0
572,2024-09-27 22:15:53.568306944,0,022,-0.9196256922873222,-0.25600245869928806,-1.6835555334007803,1.439220317449475,3.1929231885723364,-3.7647359953358364,-33.07928037301666,12.042280396720667,0
573,2024-09-27 22:15:53.635971072,0,022,-0.8981717952180571,-0.28657388139711215,-1.7992442617360238,1.483278855710307,3.10250086738011,-3.823784551870469,-30.927296499767433,11.819018551082346,0
574,2024-09-27 22:15:53.703409920,0,022,-0.8811535425802497,-0.3150275359168868,-1.9605262627080553,1.5203000731536693,2.9931518314193535,-3.8716455150128506,-28.494338283113475,11.319559809829956,0
575,2024-09-27 22:15:54.646541056,0,022,-0.8693795763594476,-0.3407011547424109,-2.1601409805675216,1.5483463689385473,2.877718427735515,-3.9057396731216527,-25.86005463764347,10.554883895116316,0
576,2024-09-27 22:15:54.714373120,0,022,-0.8633854662001061,-0.3630539446535671,-2.388228059997933,1.56549853226161,2.7693302075858264,-3.9243328986128274,-23.103008986769215,9.54463006371657,0
577,2024-09-27 22:15:54.781996032,0,022,-0.8634222148659978,-0.38165725977389425,-2.6328464220104535,1.5701947619978545,2.679625806488315,-3.9265320116467595,-20.302755171678914,8.318144609735663,0
578,2024-09-27 22:15:54.849725184,0,022,-0.8694878970044887,-0.3961792515881202,-2.8806154135825337,1.5614647703884499,2.6171586932976996,-3.91213200691571,-17.5400747238122,6.914018248847608,0
579,2024-09-27 22:15:54.906710016,0,022,-0.8813757855600866,-0.40637956018236215,-3.117387440051782,1.5390100796358461,2.586499980836776,-3.8815505129828445,-14.894704145736128,5.377765438516312,0
580,2024-09-27 22:15:54.984684032,0,022,-0.8987014867526342,-0.412125629665527,-3.329032377034048,1.5031771538375744,2.588322561458914,-3.8360307900918285,-12.441134873685494,3.7584937090914874,0
581,2024-09-27 22:15:55.046288128,0,022,-0.9209158681740434,-0.4134228296596693,-3.5024352240196897,1.454882876788554,2.620309968182251,-3.7780469640160184,-10.243009026013961,2.1057454209244284,0
582,2024-09-27 22:15:55.972758016,0,022,-0.947333575034437,-0.41043641927403457,-3.626609196684047,1.395527185413467,2.6783866238783833,-3.7116744255601932,-8.346563008355428,0.4667678362347534,0
583,2024-09-27 22:15:56.040397824,0,022,-0.9771794279852257,-0.403492535162557,-3.693667818224238,1.3269134783361864,2.757852088592813,-3.642767127672835,-6.774167300566613,-1.1166238301884015,0
584,2024-09-27 22:15:56.108152064,0,022,-1.009626181284189,-0.3930657348136242,-3.6994233465586173,1.2511760795405222,2.8542877943209883,-3.578875709329362,-5.5200385382469275,-2.6116541790918277,0
585,2024-09-27 22:15:56.175712256,0,022,-1.043810337791149,-0.37976142955126246,-3.643500796245993,1.1707014419369792,2.964106167712998,-3.5287280949589332,-4.550187476647779,-3.9969819802398487,0
586,2024-09-27 22:15:56.243474176,0,022,-1.0788427850631266,-0.3642884385877522,-3.528971393144343,1.0880363466169676,3.0844955025824077,-3.50110995118561,-3.8070188091132153,-5.262404350892086,0
587,2024-09-27 22:15:56.311032832,0,022,-1.1138360639441458,-0.34741712794535934,-3.36163867368104,1.0057696898219994,3.212795902744376,-3.5033555003610086,-3.217127007440653,-6.406404805265033,0
588,2024-09-27 22:15:56.378690816,0,022,-1.147951615927625,-0.32992614220295874,-3.149228502376935,0.9263779139009947,3.3458224953644295,-3.5400084842141992,-2.700170799178327,-7.433307199039927,0
589,2024-09-27 22:15:57.324945920,0,022,-1.1804518299612126,-0.3125429187004792,-2.90068090373132,0.8520527345948766,3.4796772016532653,-3.612198560855362,-2.1774111844506785,-8.351379287256302,0
590,2024-09-27 22:15:57.392678912,0,022,-1.2107353365247342,-0.29589040649649156,-2.62555689958357,0.7845288073848358,3.610161304604969,-3.717933524655385,-1.5793724533386952,-9.172000730704097,0
591,2024-09-27 22:15:57.460310016,0,022,-1.2383363559517377,-0.28046063788899195,-2.3335057516063236,0.7249054326557616,3.7335320226343987,-3.8530252774808647,-0.8518596906633302,-9.909043268188933,0
592,2024-09-27 22:15:57.519709184,0,022,-1.2628811826418493,-0.26662415885960966,-2.033819584944968,0.6734740471345123,3.8472225668142492,-4.012086098115169,0.04047518525296109,-10.577639021797449,0
593,2024-09-27 22:15:57.595502080,0,022,-1.2840281007171928,-0.25466032455774334,-1.7351329487336655,0.6296231671512413,3.9501979889032244,-4.189217772725089,1.112225097396005,-11.19212418855694,0
594,2024-09-27 22:15:57.661035776,0,022,-1.301444075529976,-0.24478565637879413,-1.4452330372164082,0.5919188362098087,4.042841346181874,-4.3784604681118555,2.355344324121709,-11.763427903558226,0
595,2024-09-27 22:15:57.723155968,0,022,-1.314843646593187,-0.23716855915525445,-1.1708959197476454,0.5583725688928519,4.126474340188746,-4.574230140342717,3.737404400581468,-12.29659523865363,0
596,2024-09-27 22:15:58.674423040,0,022,-1.32405732653279,-0.23192822480721,-0.9177664162827592,0.5267804159289647,4.202619679500479,-4.771711555956119,5.201649402472648,-12.789320948146553,0
597,2024-09-27 22:15:58.742059008,0,022,-1.329076109672713,-0.22912008706512768,-0.6904150152990418,0.4950265027284287,4.272083338503563,-4.966953993831393,6.669854373735198,-13.231849080845338,0
598,2024-09-27 22:15:58.808331008,0,022,-1.3300417675479759,-0.22871777824086525,-0.49265209749720984,0.4613641155646408,4.334012230134636,-5.156520952878972,8.047623530981106,-13.607778384948526,0
599,2024-09-27 22:15:58.875991296,0,022,-1.3271876556611857,-0.23060223462726373,-0.32798142030353217,0.4246972595834513,4.385175535044381,-5.33679588149574,9.230989155242128,-13.895000267423146,0
600,2024-09-27 22:15:58.945030912,0,022,-1.3207662953588981,-0.23455597907898257,-0.19992864781574782,0.38478391840214665,4.419782142317245,-5.503272309603927,10.113757602961588,-14.06650363573679,0
601,2024-09-27 22:15:59.012068096,0,022,-1.3110154714976405,-0.24025281962213893,-0.11203354683678395,0.3422758166340429,4.430016200955979,-5.65019020376061,10.59662765826222,-14.092011274110726,0
602,2024-09-27 22:15:59.080370944,0,022,-1.2981995723948263,-0.24724202330582562,-0.06753688194016617,0.2986219396053101,4.407046694540834,-5.770637490494499,10.59869964679757,-13.941873267256382,0
603,2024-09-27 22:15:59.997899776,0,022,-1.2827172582263373,-0.25493871557950404,-0.0690364447542159,0.2559309550550094,4.342017181648445,-5.8570069016295925,10.069340924213268,-13.59277563566665,0
604,2024-09-27 22:16:00.065188864,0,022,-1.2652163530139688,-0.26263468787186517,-0.1183236808206024,0.21684841371071012,4.226873170623324,-5.901722091382849,8.997365986007603,-13.032913456739537,0
