,time,MARKER,pid,L_O_DSI,L_D_DSI,L_O_DSphi,L_D_DSphi,R_O_DSI,R_D_DSI,R_O_DSphi,R_D_DSphi,trial_id
0,2024-09-28 16:59:53.462173184,TASK_BEGIN,023,0.24910787936192672,0.2206235662493163,3.4454494388987986,-1.75125385461281,0.10908428743160702,-0.07983190934249587,-1.8261336493798188,0.4463426621509473,3
1,2024-09-28 16:59:54.414540032,TASK_BEGIN,023,0.3695565927862694,0.24707982807137113,2.713999566048288,-1.503753070131044,0.3427157454408127,-0.08394438006389465,-1.5328137248200682,0.5372362379765572,3
2,2024-09-28 16:59:54.471164928,TASK_BEGIN,023,0.487456099888416,0.27164556397419976,2.0026701945473313,-1.2616014431225437,0.5709689789976109,-0.08887241235446112,-1.247431036776254,0.6261719877915478,3
3,2024-09-28 16:59:54.550030080,TASK_BEGIN,023,0.5999571496730862,0.29338165462145727,1.3281199481237593,-1.0286683926831046,0.7881756203056814,-0.0948708280590374,-0.9755956856787344,0.713249043120139,3
4,2024-09-28 16:59:54.617626880,TASK_BEGIN,023,0.7047509808944599,0.3114113761586511,0.704391609500033,-0.8082705711672276,0.9891151554740119,-0.10204050413350822,-0.7223359511049096,0.7985373375116533,3
5,2024-09-28 16:59:54.685499136,TASK_BEGIN,023,0.8002214744393098,0.32497041261500115,0.1424161514057738,-0.603136147166611,1.1691478513180278,-0.1102864474447858,-0.4919054934886627,0.8819237478737598,3
6,2024-09-28 16:59:54.753249024,TASK_BEGIN,023,0.8854919014241772,0.33347664691654194,-0.3500416559552145,-0.4154759847669071,1.3243157035087598,-0.11930521413810484,-0.28788063106046635,0.9630169306466106,3
7,2024-09-28 16:59:54.820930816,TASK_BEGIN,023,0.9603849211746597,0.3365968737745635,-0.7682471992821611,-0.24706365329561922,1.4514453856530611,-0.12860448928190865,-0.11348113054325175,1.0411496593463232,3
8,2024-09-28 16:59:55.762693888,TASK_BEGIN,023,1.0253294942540212,0.3342906646912797,-1.1103838967521806,-0.0992389218447617,1.5482454785284587,-0.13754485602342031,0.02820616409025302,1.115445440782137,3
9,2024-09-28 16:59:55.829971968,TASK_BEGIN,023,1.0812331419152077,0.32682475842103464,-1.3774812605313238,0.027154958706350166,1.6133612063748874,-0.14538527792381553,0.13432380381328132,1.1849051808625601,3
10,2024-09-28 16:59:55.898056192,TASK_BEGIN,023,1.1293274190485592,0.3147600740097801,-1.5732721066029152,0.13186226600327883,1.6463764257715843,-0.15132132458760855,0.20261052073432956,1.24849761568575,3
11,2024-09-28 16:59:55.953578752,TASK_BEGIN,023,1.1710081007784663,0.29891223883834234,-1.703891335564358,0.2153303607571027,1.6477835563215228,-0.15451797207645956,0.23181344311410937,1.305249765463768,3
12,2024-09-28 16:59:56.034032128,TASK_BEGIN,023,1.2076934160435668,0.2802915727868865,-1.7773477232133896,0.2788171237226217,1.618930603059801,-0.1541429271867417,0.22193846121363414,1.3543291178739687,3
13,2024-09-28 16:59:56.097572096,TASK_BEGIN,023,1.2407033421462283,0.2600376628338378,-1.802725027797889,0.3244059779872017,1.5619451538267268,-0.14940677424084417,0.1743282059528012,1.395106005109733,3
14,2024-09-28 16:59:56.169594880,TASK_BEGIN,023,1.2711509115667057,0.23935898176649056,-1.7892430679120974,0.35487558527511814,1.4796489432519102,-0.1396149731665791,0.09169605046276681,1.427197148527432,3
15,2024-09-28 16:59:57.076487936,TASK_BEGIN,023,1.2998438856539392,0.2194753611602267,-1.7454546331892065,0.3734456040033891,1.3754651216582412,-0.12422924524152051,-0.02186736907038019,1.4505149988566013,3
16,2024-09-28 16:59:57.155378176,TASK_BEGIN,023,1.3272050558126711,0.2015600790243408,-1.6787409661745585,0.3834546317835388,1.253286137527397,-0.10292683969167951,-0.16100627400537626,1.4653296321927158,3
17,2024-09-28 16:59:57.223087104,TASK_BEGIN,023,1.35322247548542,0.1866868494234182,-1.5950918145885726,0.38802412470322223,1.1172781232046012,-0.0756443356077394,-0.3193326314673652,1.4722954195584441,3
18,2024-09-28 16:59:57.278168832,TASK_BEGIN,023,1.3774488791042436,0.1757861974063963,-1.4991233696627204,0.3897542430704963,0.971658481711511,-0.042601170201014144,-0.48970491746485567,1.472395988568554,3
19,2024-09-28 16:59:57.358679808,TASK_BEGIN,023,1.3990783817988186,0.1696042179142379,-1.3942761458970934,0.3904939666405394,0.8205216488241631,-0.004308090963332572,-0.6645150263092945,1.4668172043434577,3
20,2024-09-28 16:59:57.426437888,TASK_BEGIN,023,1.4171073598446553,0.16865394122144342,-1.2830817269106052,0.391221832017419,0.6677488159798702,0.03843619754823877,-0.8360373330038859,1.4567890720661434,3
21,2024-09-28 16:59:57.491246080,TASK_BEGIN,023,1.430541974966335,0.1731622155132641,-1.167400302642185,0.3920631293835702,0.5169691461844308,0.0845663350401323,-0.996940812227781,1.4434295999647142,3
22,2024-09-28 16:59:58.434039040,TASK_BEGIN,023,1.4385972479940157,0.18303062099736123,-1.0486220325918292,0.3924642750646177,0.3715234531887106,0.13279719683075367,-1.1409014474190349,1.4276055868648228,3
23,2024-09-28 16:59:58.498491904,TASK_BEGIN,023,1.440851190505423,0.1978347864623371,-0.9279056787637611,0.39151213301804616,0.23441801268412096,0.18169611393628993,-1.2630595188165703,1.4098305648308365,3
24,2024-09-28 16:59:58.572491008,TASK_BEGIN,023,1.4373372882112563,0.21687358121032224,-0.8065096107729496,0.38830333802930284,0.10828435579631729,0.22977285872267098,-1.36018207471154,1.3902374545433773,3
25,2024-09-28 16:59:58.635147008,TASK_BEGIN,023,1.428569357473089,0.23925300438031769,-0.6861534466306806,0.3822303621691579,-0.00464701286020881,0.2755765010739202,-1.430637543216953,1.3686350242530494,3
26,2024-09-28 16:59:58.708243968,TASK_BEGIN,023,1.415507097325602,0.26397441777970765,-0.5692581052693477,0.3731120276821029,-0.10256880380816209,0.31778482655528045,-1.4743053841515996,1.3446061037797021,3
27,2024-09-28 16:59:58.775949056,TASK_BEGIN,023,1.3994828864683246,0.290005920483548,-0.4589313467404265,0.3611680574122865,-0.18412999443506303,0.3552714147220201,-1.4923976340642284,1.3176007707379815,3
28,2024-09-28 16:59:58.836424960,TASK_BEGIN,023,1.3821039940095075,0.31633440003926633,-0.35867247230926985,0.3468703835439877,-0.24848544022275684,0.3871449991008816,-1.4871682141504818,1.287012089530452,3
29,2024-09-28 16:59:59.774895104,TASK_BEGIN,023,1.3651252744785762,0.3420078297449197,-0.2719332912485533,0.3307280413908597,-0.2953495436847473,0.41276975683959466,-1.4616548187212322,1.2522590926814503,3
30,2024-09-28 16:59:59.852526848,TASK_BEGIN,023,1.3502838268632804,0.36617771731382187,-0.20179042905811131,0.3130762065062022,-0.32503284655179404,0.4317797928127137,-1.4196572784615122,1.2129179367792413,3
31,2024-09-28 16:59:59.923528704,TASK_BEGIN,023,1.339110399626674,0.3881425601359853,-0.15087626800905204,0.2939306349598552,-0.3384512398091652,0.4440932160082542,-1.3659341117512855,1.1689030818431958,3
32,2024-09-28 16:59:59.975877888,TASK_BEGIN,023,1.3327582141251064,0.40738358864024476,-0.12144130858571066,0.27294505631435095,-0.337102011114737,0.4499181817845287,-1.3062582014309558,1.1206175016363227,3
33,2024-09-28 17:00:00.053986048,TASK_BEGIN,023,1.3318925994580644,0.4235816806361366,-0.11531518797648306,0.24947671344250447,-0.3229841019053433,0.44973288881955625,-1.246926336149072,1.068966461433384,3
34,2024-09-28 17:00:00.116579072,TASK_BEGIN,023,1.3366636898114148,0.43660887081123606,-0.1336894517347314,0.2227291620263545,-0.2984362396890249,0.44422448118892127,-1.193760499140011,1.0152236841873346,3
35,2024-09-28 17:00:00.193768192,TASK_BEGIN,023,1.346752425375048,0.4464969971445529,-0.17681528652090947,0.19192249250362722,-0.2659029566016242,0.4341935937927579,-1.1511073504614888,0.9608390210728246,3
36,2024-09-28 17:00:01.112308224,TASK_BEGIN,023,1.3614588885915808,0.45339568321687035,-0.24376545792355914,0.15646097279383547,-0.22768214246568572,0.4204536767069892,-1.121298486857624,0.907269827765647,3
37,2024-09-28 17:00:01.169856000,TASK_BEGIN,023,1.3798064372982717,0.4575339732273655,-0.33236515801117583,0.11609122935101487,-0.1857117501408562,0.40375461065917717,-1.1046588904877788,0.8558747113170044,3
38,2024-09-28 17:00:01.247836160,TASK_BEGIN,023,1.4006475599278712,0.45919241267283856,-0.43928072232894905,0.0710176688203501,-0.14142509707838094,0.3847423717166621,-1.0999000571481692,0.8078863076666867,3
39,2024-09-28 17:00:01.312602112,TASK_BEGIN,023,1.4227558715287603,0.4586846355820585,-0.5602262105583465,0.021916888970359632,-0.09568720822772042,0.36394865207681165,-1.1046467444747468,0.7644226871910519,3
40,2024-09-28 17:00:01.383305216,TASK_BEGIN,023,1.4448881916234557,0.45634684290512506,-0.6903317817083521,-0.030157917090291808,-0.048823489946972116,0.3417969183528028,-1.115826987950034,0.7264543630318483,3
41,2024-09-28 17:00:01.448457984,TASK_BEGIN,023,1.4658251553904398,0.45253261235560566,-0.8246811462536402,-0.08392258954093319,-0.000731776841289726,0.3186139456382869,-1.1297915246159569,0.6947134025807348,3
42,2024-09-28 17:00:01.518803968,TASK_BEGIN,023,1.484423645051147,0.4476045656404212,-0.9588466978194173,-0.13799685513923424,0.048974988213296225,0.29463979809652197,-1.142289380051516,0.6696218744601196,3
43,2024-09-28 17:00:02.462132736,TASK_BEGIN,023,1.4996983104189385,0.44191556444209673,-1.0891821875056287,-0.19101948087782802,0.10086663749320053,0.2700323486797538,-1.1485638206726432,0.6512904077898327,3
44,2024-09-28 17:00:02.530054144,TASK_BEGIN,023,1.5109125760608793,0.4357838090066,-1.212758921932885,-0.24176361055865497,0.15565741608082811,0.24487126001472143,-1.1437082967455914,0.6395412625154698,3
45,2024-09-28 17:00:02.597837824,TASK_BEGIN,023,1.5176452749772253,0.4294726617110562,-1.3270204942581703,-0.28924851897771275,0.21417904126180917,0.21917372930893061,-1.123163509789671,0.6338907687232478,3
46,2024-09-28 17:00:02.664881152,TASK_BEGIN,023,1.5198089625922524,0.42317962727779374,-1.4293765764893869,-0.33281206061986396,0.27729868112427086,0.1929254348957476,-1.0830895579311701,0.6335021537247206,3
47,2024-09-28 17:00:02.733239040,TASK_BEGIN,023,1.517618163333541,0.41703055940291284,-1.5169903307694121,-0.3721168513105503,0.34577866088613585,0.16611486952193136,-1.0204336707622295,0.6371593120171228,3
48,2024-09-28 17:00:02.800954112,TASK_BEGIN,023,1.5115266557644782,0.41107610016455803,-1.586888713202969,-0.40710007793817,0.4201274804310324,0.13876119870783052,-0.9327760877026291,0.643276362836511,3
49,2024-09-28 17:00:02.855787008,TASK_BEGIN,023,1.5021492093816842,0.40529539882051513,-1.6363294591057311,-0.43789659343491844,0.5004723582203395,0.11093939401144998,-0.8182740889732482,0.649960655426076,3
50,2024-09-28 17:00:03.807483904,TASK_BEGIN,023,1.490164717059853,0.3996156535642064,-1.6632395914382454,-0.4647554462993054,0.58644810016339,0.0828050007298788,-0.6759655327409236,0.6551850898941408,3
51,2024-09-28 17:00:03.878875904,TASK_BEGIN,023,1.4761999448254968,0.39394970695335724,-1.6665269374858063,-0.48795537901737757,0.6771112395639765,0.05460732162294493,-0.5063636476635499,0.6570836857360227,3
52,2024-09-28 17:00:03.946642944,TASK_BEGIN,023,1.4607159245888373,0.38824351722730227,-1.6461489316533437,-0.5077218403593436,0.7709175739847094,0.026680625742965036,-0.3120352789336089,0.6542914642659331,3
53,2024-09-28 17:00:04.007648000,TASK_BEGIN,023,1.443933666807983,0.38251704055038027,-1.6030055348796877,-0.5241492521376961,0.8657922441749984,-0.0005821011961019403,-0.09789613959044806,0.6462247744104191,3
54,2024-09-28 17:00:04.070136064,TASK_BEGIN,023,1.4258291066047764,0.3768803389921583,-1.538834084186837,-0.5371433939604314,0.9592838708734022,-0.026760573234983952,0.12882461658439012,0.6332467388591586,3
55,2024-09-28 17:00:04.147580928,TASK_BEGIN,023,1.4062054055468707,0.3715158901912425,-1.4561512259296423,-0.546424159524277,1.0487614547491542,-0.05143439971275475,0.3588464775960035,0.6167019631903496,3
56,2024-09-28 17:00:04.217638912,TASK_BEGIN,023,1.3848231774682722,0.3666342757114972,-1.3581443134625526,-0.5516192011910929,1.1316139777995875,-0.07420221976187158,0.5813247233053533,0.598802600649278,3
57,2024-09-28 17:00:05.163796992,TASK_BEGIN,023,1.361544079898824,0.3624205275612368,-1.2484957725529024,-0.552420093111624,1.2054437687036732,-0.09469547514543966,0.784708945198429,0.5823522047528308,3
58,2024-09-28 17:00:05.231529984,TASK_BEGIN,023,1.3364418339781228,0.3589859562884436,-1.1311946353663405,-0.548734904898061,1.2682528541751505,-0.11259347007822589,0.9579435742057871,0.5703486577965777,3
59,2024-09-28 17:00:05.300102912,TASK_BEGIN,023,1.3098658040758535,0.35633383437625016,-1.0103288173779361,-0.5407747796687337,1.3185983617010884,-0.1276413066504242,1.09161881793993,0.5655633615711466,3
60,2024-09-28 17:00:05.367830016,TASK_BEGIN,023,1.28246637316479,0.3543455131096454,-0.8898925529796967,-0.5290330346973138,1.3556966745681192,-0.13966442413973615,1.1786361277102535,0.5701758015531936,3
61,2024-09-28 17:00:05.425261056,TASK_BEGIN,023,1.2551814955861915,0.3527924884148442,-0.7737367783491789,-0.5141679509556206,1.3794883868889578,-0.14857536128926188,1.2142705799360352,0.5855153647736316,3
62,2024-09-28 17:00:05.487799808,TASK_BEGIN,023,1.229174598708331,0.3513712179228375,-0.6656964286590373,-0.49685674563922755,1.3906789588110222,-0.15437667711578246,1.195788759078684,0.6119887171914751,3
63,2024-09-28 17:00:05.570092032,TASK_BEGIN,023,1.2057327950778767,0.3497456159731221,-0.5697460664350037,-0.4776915880529414,1.3907405562124373,-0.15716717995961818,1.1219040277150845,0.6492265513832394,3
64,2024-09-28 17:00:06.512482048,TASK_BEGIN,023,1.1861531582317875,0.3475835851221407,-0.48998472989124797,-0.45715291483375736,1.3818432818571222,-0.15715432371819343,0.9924553462023056,0.6963292931990431,3
65,2024-09-28 17:00:06.580365056,TASK_BEGIN,023,1.1716352599479714,0.3445887399990642,-0.43037752136900187,-0.4356461808128067,1.3666926863961169,-0.15466506801045946,0.8086770385709781,0.7520166238043893,3
66,2024-09-28 17:00:06.636703232,TASK_BEGIN,023,1.163179640639221,0.3405354213241308,-0.39437840694934573,-0.4135381995578104,1.3482791777919059,-0.15013987874888207,0.5740827871453899,0.8146053207441368,3
67,2024-09-28 17:00:06.715828736,TASK_BEGIN,023,1.161494522492024,0.335306198137308,-0.3846021313515915,-0.391139218965873,1.3295836035296673,-0.14410365881944381,0.2954675992547689,0.8819287481007773,3
68,2024-09-28 17:00:06.783610112,TASK_BEGIN,023,1.1669295707426237,0.3289196765791903,-0.40255616469914807,-0.3686610016968367,1.313300274042372,-0.13712298381476754,-0.016670054895769254,0.9513582930147565,3
69,2024-09-28 17:00:06.851360000,TASK_BEGIN,023,1.179458989653078,0.32153391958890154,-0.4483665261727332,-0.34621633878307195,1.3016188424293822,-0.12976245860549457,-0.34867108088564047,1.0199639156838067,3
70,2024-09-28 17:00:06.918289152,TASK_BEGIN,023,1.1987162423035702,0.31341965836573327,-0.5205619699713436,-0.32384731737059486,1.2960764531918503,-0.12254943902205037,-0.6851110898772188,1.08474048373032,3
71,2024-09-28 17:00:07.837325312,TASK_BEGIN,023,1.2240550976017794,0.30491224550452173,-0.6160715571473264,-0.3015111368191445,1.297476782745725,-0.11595338676567205,-1.010553967525802,1.1428214635510396,3
72,2024-09-28 17:00:07.899860992,TASK_BEGIN,023,1.2546077590307885,0.29635993861846577,-0.7304858522306129,-0.27900753736458916,1.305874693691561,-0.11038091642583542,-1.3110299488830235,1.1916316603838326,3
73,2024-09-28 17:00:07.972856832,TASK_BEGIN,023,1.289333276545183,0.28808394687435535,-0.8584926725544995,-0.2559152092448226,1.3206346974064642,-0.10618293090852937,-1.5748524849665826,1.2289745346470713,3
74,2024-09-28 17:00:08.040604928,TASK_BEGIN,023,1.3270635590409474,0.28035686537766247,-0.9943500313589719,-0.23162496480024236,1.3405730735085475,-0.10366802095985306,-1.7928772239393858,1.2531082882145852,3
75,2024-09-28 17:00:08.108357888,TASK_BEGIN,023,1.3665493581662127,0.273395375870949,-1.1322528089318085,-0.20550984244906342,1.364172387846901,-0.10311342202352657,-1.9585220100422114,1.2628590912551463,3
76,2024-09-28 17:00:08.168739072,TASK_BEGIN,023,1.4065021303026293,0.2673592776430284,-1.2664990431349832,-0.17719126850365,1.389821233008066,-0.1047662713680147,-2.067653540402016,1.257738144444576,3
77,2024-09-28 17:00:08.243847936,TASK_BEGIN,023,1.4456223096058702,0.26235685987052787,-1.3915142576071422,-0.1467894412990072,1.4160208181549074,-0.10883649365224649,-2.1182972125767985,1.2379888561986976,3
78,2024-09-28 17:00:09.187290112,TASK_BEGIN,023,1.4826108657670534,0.25846131529983357,-1.501932142285198,-0.11502528282472228,1.4415268304654545,-0.11548531990848265,-2.11032009764303,1.2045441750055181,3
79,2024-09-28 17:00:09.254935040,TASK_BEGIN,023,1.5161915350885733,0.25572966342832765,-1.592886719139084,-0.08311623722182371,1.4654171802552767,-0.12480629076023009,-2.045356934161724,1.158928038056272,3
80,2024-09-28 17:00:09.320998912,TASK_BEGIN,023,1.5451888143094614,0.2542027296612655,-1.6604548454155812,-0.05254884634932153,1.4870790849640978,-0.13679619556831402,-1.9270055483630395,1.1031128831103516,3
81,2024-09-28 17:00:09.390608128,TASK_BEGIN,023,1.5686771000379387,0.2538767793610041,-1.7020234460844619,-0.024869117706195765,1.5061312994192124,-0.15132533542164825,-1.7610594699941988,1.039324854444091,3
82,2024-09-28 17:00:09.458355968,TASK_BEGIN,023,1.586164753430557,0.25466061594646533,-1.7164252690307886,-0.0015552669597748681,1.522335774674146,-0.168121278962594,-1.5555933370551076,0.9698537379871194,3
83,2024-09-28 17:00:09.526103040,TASK_BEGIN,023,1.5977408600906644,0.25634064835504594,-1.703867998232875,0.016045956230167444,1.5355530689389576,-0.18677262462973943,-1.3208750711131818,0.8969721073313041,3
84,2024-09-28 17:00:09.593816064,TASK_BEGIN,023,1.6041136659862116,0.2585703920264591,-1.6657569215055363,0.026759261827319133,1.5457505441996484,-0.20675142384921458,-1.0690649334000124,0.8229798962407733,3
85,2024-09-28 17:00:10.538013952,TASK_BEGIN,023,1.6065153664419616,0.26088901454511143,-1.6044897003377532,0.029643312378701967,1.553032762883708,-0.22745045218400883,-0.8135554267999041,0.7502674815643675,3
86,2024-09-28 17:00:10.605787136,TASK_BEGIN,023,1.6065073215759575,0.2627623340913854,-1.5232685948797364,0.02410474602475544,1.5576619876683506,-0.24823011492405342,-0.5678686095484419,0.6812906108377966,3
87,2024-09-28 17:00:10.673544960,TASK_BEGIN,023,1.6057466629290014,0.2636358650875735,-1.4259344187838718,0.010029825279380646,1.5600570226883783,-0.2684677263870064,-0.3443081807833794,0.6184569687132482,3
88,2024-09-28 17:00:10.741297152,TASK_BEGIN,023,1.6057611737612896,0.26299158798366895,-1.316824748119857,-0.012123719138280118,1.560767335729589,-0.2876020736446462,-0.15278079927251573,0.5639938364584909,3
89,2024-09-28 17:00:10.802819072,TASK_BEGIN,023,1.6077531696288379,0.26040230569862227,-1.200694270020489,-0.04128718841397249,1.5604141780750056,-0.3051672766851245,-9.913166351343617e-05,0.5198369561024698,3
90,2024-09-28 17:00:10.876790016,TASK_BEGIN,023,1.6124453352190202,0.2555788122996646,-1.0826655473335962,-0.07580217984208637,1.5596003408892014,-0.32080997912887266,0.11019089177549267,0.48754148748812126,3
91,2024-09-28 17:00:10.944572928,TASK_BEGIN,023,1.6199927815194677,0.24840443164457227,-0.9680493282474598,-0.11354708161097404,1.5588203390927768,-0.3342887109084144,0.17759088610609247,0.46823110599411694,3
92,2024-09-28 17:00:11.862301952,TASK_BEGIN,023,1.629983539544201,0.23894947858989082,-0.8619425812000907,-0.15217385537141387,1.5584169400578958,-0.3454632099711523,0.20421032217516216,0.46261105786450507,3
93,2024-09-28 17:00:11.930718976,TASK_BEGIN,023,1.6415224021053352,0.22746154494260223,-0.7687381608653352,-0.18937925469984304,1.558601485346757,-0.35428184829586173,0.19421436820608734,0.4710353854919211,3
94,2024-09-28 17:00:11.997850880,TASK_BEGIN,023,1.6533717003883408,0.21433589641140355,-0.6917382774201738,-0.2231284180600881,1.5595092601230711,-0.3607669038681272,0.15316581933071488,0.4935825865758872,3
95,2024-09-28 17:00:12.066226944,TASK_BEGIN,023,1.6641212637354699,0.20007532671275455,-0.6329355558073556,-0.2517992071432386,1.5612410154947234,-0.36499410590763115,0.08727901804732648,0.5300840006139863,3
96,2024-09-28 17:00:12.133395968,TASK_BEGIN,023,1.6723615291521163,0.18524920234741168,-0.5929829673524389,-0.27423322598777244,1.5638605175783413,-0.36706771451001263,0.0027287974108328047,0.5800618053693458,3
97,2024-09-28 17:00:12.201680896,TASK_BEGIN,023,1.6768295176128512,0.17046043767593755,-0.5714290218761825,-0.2896623401677835,1.5673584181929763,-0.36709777877552235,-0.09483159370278789,0.6425892232210377,3
98,2024-09-28 17:00:12.269405952,TASK_BEGIN,023,1.6764941402546614,0.15632636817126525,-0.5672126714946201,-0.2975108776479376,1.5716237055879547,-0.3651892885603695,-0.20051000570506386,0.7161586200030278,3
99,2024-09-28 17:00:13.213284864,TASK_BEGIN,023,1.6705680702364956,0.14347238131898563,-0.5792280317888123,-0.2971620269177558,1.5764625074905076,-0.36145277507258816,-0.31016227961584136,0.7986448312043799,3
100,2024-09-28 17:00:13.280391936,TASK_BEGIN,023,1.6584846144867915,0.13252377283224334,-0.6067486612859244,-0.2878076741160127,1.581675151929159,-0.3560379567504653,-0.4200905224243591,0.887367951908125,3
101,2024-09-28 17:00:13.346605056,TASK_BEGIN,023,1.6399052551988413,0.1240722051754783,-0.6496463227471138,-0.2684332850476727,1.5871630445835347,-0.3491776956013474,-0.5265245231116465,0.9791881075821599,3
102,2024-09-28 17:00:13.416532992,TASK_BEGIN,023,1.614779495983895,0.11860869514977095,-0.7084071741782676,-0.23792908365455523,1.5930050654403083,-0.3412190116711437,-0.6251143979169731,1.0705838437444548,3
103,2024-09-28 17:00:13.484318976,TASK_BEGIN,023,1.5834097008556924,0.11644847509706413,-0.7838958210434567,-0.1953138299368094,1.5994471861425874,-0.332620059976717,-0.7107058819711519,1.1577445273289368,3
104,2024-09-28 17:00:13.547419904,TASK_BEGIN,023,1.5464557370046843,0.11768727209549971,-0.8768451715889356,-0.1400410403344379,1.6067992070004897,-0.3239091022498355,-0.7775504952523807,1.2367363897048904,3
105,2024-09-28 17:00:13.619823104,TASK_BEGIN,023,1.504855968684681,0.12220712628241844,-0.9871901595068272,-0.07232296640820343,1.6152875804930324,-0.31562290372644,-0.8198640586711737,1.3037337935287983,3
106,2024-09-28 17:00:14.563309824,TASK_BEGIN,023,1.4596971546630901,0.12971713375425664,-1.1134296406232693,0.006599503602474887,1.6249252658427873,-0.30824798255450486,-0.8324551843085752,1.3552398938971482,3
107,2024-09-28 17:00:14.620528128,TASK_BEGIN,023,1.4120914014375971,0.1398011321240588,-1.2521735500357387,0.09431261266604733,1.6354339062170236,-0.3021765899895336,-0.8111713921893546,1.3882517698385413,3
108,2024-09-28 17:00:14.698844928,TASK_BEGIN,023,1.3630968238134455,0.15195690212160096,-1.3980010377365644,0.1872759545837425,1.646228899086718,-0.29767845954526445,-0.7531235799978447,1.4003987077892683,3
109,2024-09-28 17:00:14.766590208,TASK_BEGIN,023,1.3136772749417192,0.16563075932784932,-1.543667236851765,0.281064300742737,1.656473864739611,-0.29488834652649004,-0.6568537503040232,1.3901123282169439,3
110,2024-09-28 17:00:14.834348800,TASK_BEGIN,023,1.2646840146386535,0.1802550263750082,-1.6805661443360485,0.37073677975029334,1.6652097526474683,-0.29381098844181197,-0.5226264354752667,1.3568695026237951,3
111,2024-09-28 17:00:14.902121216,TASK_BEGIN,023,1.2168576586162583,0.19528618486072202,-1.7993396486119575,0.4512555531545699,1.6715395481511623,-0.29434221583241926,-0.35282693264356346,1.3014726026856323,3
112,2024-09-28 17:00:14.969865984,TASK_BEGIN,023,1.1708499666427306,0.21023665619394719,-1.8905963558174776,0.5178962814889589,1.6748108668062724,-0.29629689609705545,-0.1522502451704337,1.2262167977384502,3
113,2024-09-28 17:00:15.913645056,TASK_BEGIN,023,1.1272540439709455,0.22469587220344966,-1.945698653108801,0.5665927101518304,1.6747211705374125,-0.29942734359916845,0.07190913384834328,1.1347807740565343,3
114,2024-09-28 17:00:15.978691840,TASK_BEGIN,023,1.086632551178525,0.23834011648029974,-1.9575089702978814,0.5941844724978536,1.6713035056244898,-0.3034206524935262,0.3103699088588317,1.0318367035986955,3
115,2024-09-28 17:00:16.049220864,TASK_BEGIN,023,1.0495310229409656,0.2509367526422598,-1.920982811499209,0.5985808897128543,1.6648260812356301,-0.30788293247684323,0.5522669269742398,0.9225551393909421,3
116,2024-09-28 17:00:16.110318848,TASK_BEGIN,023,1.016458742628464,0.26235157743482157,-1.8335687482736291,0.5788478509647982,1.6556875200610235,-0.3123342366491955,0.7857757025290497,0.8121925031606655,3
117,2024-09-28 17:00:16.184673024,TASK_BEGIN,023,0.987843370041341,0.2725587095537418,-1.695442319071898,0.5352097680648474,1.644351604131489,-0.3162281273674334,0.9988352050208917,0.7058141413241709,3
118,2024-09-28 17:00:16.252428032,TASK_BEGIN,023,0.9639921229825404,0.2816416922423664,-1.5095374461483198,0.46896705806113387,1.6312960273770363,-0.3189867645747078,1.1798712178284847,0.6081047650488315,3
119,2024-09-28 17:00:16.319605248,TASK_BEGIN,023,0.9450772651724157,0.2897776230180743,-1.281222577241217,0.38232733086137827,1.6169467472391061,-0.3200373553246962,1.318425165863323,0.523217074647935,3
120,2024-09-28 17:00:17.255259136,TASK_BEGIN,023,0.9311361998214109,0.2972054785046224,-1.017595447353958,0.2781610572149915,1.6016170388960012,-0.31884780060609635,1.405730794308284,0.4546329854089816,3
121,2024-09-28 17:00:17.330541056,TASK_BEGIN,023,0.9220813970059267,0.3041841897352894,-0.7266829596527704,0.15974038837527815,1.5854856601205052,-0.31496570025749676,1.4352518687389386,0.4050510768600705,3
122,2024-09-28 17:00:17.398235136,TASK_BEGIN,023,0.9177345331254536,0.3109468039959011,-0.41691125324852446,0.030550193821350283,1.5686185254085734,-0.3080604327232674,1.4030521166677952,0.3763578554604485,3
123,2024-09-28 17:00:17.466376960,TASK_BEGIN,023,0.9178946314866113,0.3176553828615657,-0.09694383093127949,-0.10577331707326428,1.5510108962311706,-0.29796165372011785,1.307967804272298,0.3696895415748331,3
124,2024-09-28 17:00:17.534116864,TASK_BEGIN,023,0.9224206157234882,0.32435918027965954,0.22430616715828464,-0.2454147934000889,1.53263070954224,-0.2846861879240275,1.1517333450807283,0.3854893806458704,3
125,2024-09-28 17:00:17.601872896,TASK_BEGIN,023,0.931285102105409,0.3309631091706043,0.5377183420544913,-0.3843758443217041,1.5134576799210098,-0.2684495587723089,0.9391445235236607,0.42346662041337313,3
126,2024-09-28 17:00:17.669601792,TASK_BEGIN,023,0.9445650269893572,0.33722028915112884,0.8341402720157416,-0.5185711204662545,1.4935219463049123,-0.2496635254638787,0.6782095313732702,0.48245025257932445,3
127,2024-09-28 17:00:18.571778048,TASK_BEGIN,023,0.9623663461802358,0.34275778951719854,1.1046579481814305,-0.6439937173157925,1.472963804702382,-0.22892407227628325,0.3801971257852383,0.5602143882316543,3
128,2024-09-28 17:00:18.649432832,TASK_BEGIN,023,0.9847069376586248,0.3471315094137392,1.3408977139274196,-0.7568798046577143,1.452133832610744,-0.20699333313416812,0.05936937155807859,0.6534139397135525,3
129,2024-09-28 17:00:18.711918336,TASK_BEGIN,023,1.011398294755024,0.34989716481147815,1.5352996685065798,-0.8538532914642865,1.4316969568585112,-0.18477113032745243,-0.26790675582647155,0.7577432638460689,3
130,2024-09-28 17:00:18.774403072,TASK_BEGIN,023,1.0419687606894195,0.35068011498163,1.6813136087175553,-0.9320641790170395,1.4126572474507229,-0.16324355281969952,-0.5847014634205687,0.868287845486645,3
131,2024-09-28 17:00:18.857649920,TASK_BEGIN,023,1.0756470467916042,0.3492280133129567,1.773544849044691,-0.9893187270052575,1.3962597925456188,-0.14340192371847874,-0.8753018355478296,0.9799278879175652,3
132,2024-09-28 17:00:18.913188864,TASK_BEGIN,023,1.1113976850665357,0.3454396285864549,1.8080251519877417,-1.0242112228372242,1.3838149363356413,-0.1261475567507866,-1.1267183516141925,1.0876866794146227,3
133,2024-09-28 17:00:18.993104128,TASK_BEGIN,023,1.1479967343667978,0.3393717604032348,1.782789970473289,-1.0362870439839607,1.3765268133511714,-0.11221337083835059,-1.329694741156364,1.1870074005481437,3
134,2024-09-28 17:00:19.930547200,TASK_BEGIN,023,1.1841357386449678,0.3312284566524313,1.6986664786811356,-1.0262090960021457,1.3753707212316468,-0.10212245764646517,-1.4792280447887565,1.2739663020430503,3
135,2024-09-28 17:00:20.004449024,TASK_BEGIN,023,1.2185319711416187,0.32133882709459827,1.559875079929932,-0.9958191448541289,1.3810191442647264,-0.09617882454286436,-1.5746024625767936,1.3454080064442928,3
136,2024-09-28 17:00:20.072037888,TASK_BEGIN,023,1.2500258423995079,0.3101322394949928,1.374066454233073,-0.9480069437339446,1.393800675681757,-0.09447244666520895,-1.618923787201111,1.3990037909244901,3
137,2024-09-28 17:00:20.139998976,TASK_BEGIN,023,1.2776614972571647,0.29811621634941426,1.1517623167347482,-0.886420121093309,1.413676808997079,-0.09688511405456042,-1.6182539274621444,1.4332760161375901,3
138,2024-09-28 17:00:20.207320064,TASK_BEGIN,023,1.3007542628779891,0.2858540611652961,0.905469570188606,-0.815145430422787,1.4402286463152683,-0.1030955038347846,-1.5805822259792663,1.447636343416564,3
139,2024-09-28 17:00:20.275531008,TASK_BEGIN,023,1.3189477457436325,0.27393472509216865,0.6486495148585062,-0.7384622337689792,1.47264918857657,-0.11258939236404025,-1.5148824730551178,1.4424377778071857,3
140,2024-09-28 17:00:20.332622080,TASK_BEGIN,023,1.3322532224274604,0.2629317915263523,0.3944950371469152,-0.6606535006737339,1.5097391681235544,-0.12467865024069935,-1.430409990135375,1.418986848139922,3
141,2024-09-28 17:00:21.282279168,TASK_BEGIN,023,1.3410437747054624,0.2533586116732417,0.15461178112930576,-0.585813295576419,1.5499213576634088,-0.13853019840840503,-1.3363009407489916,1.3794639643122648,3
142,2024-09-28 17:00:21.355256064,TASK_BEGIN,023,1.345975998153464,0.24563201073043714,-0.06198054807417816,-0.5176460701796021,1.5913014223328728,-0.1532084642034055,-1.2413980101921427,1.3267601111521674,3
143,2024-09-28 17:00:21.421976064,TASK_BEGIN,023,1.3478515863596394,0.2400508293217701,-0.24919323229631252,-0.45928575761051815,1.6317815488169518,-0.16773028871853266,-1.1540426898561325,1.2642815676499282,3
144,2024-09-28 17:00:21.490770944,TASK_BEGIN,023,1.3474629247774712,0.23678739652262068,-0.40362861975339953,-0.4131284083369466,1.6691977225523138,-0.18112243456320495,-1.081574562854789,1.195740699062116,3
145,2024-09-28 17:00:21.546100992,TASK_BEGIN,023,1.3454572586727689,0.2358895314508137,-0.5240811285147917,-0.3806579250300343,1.7014480202104034,-0.19247703204530858,-1.029533973013629,1.1248971401234953,3
146,2024-09-28 17:00:21.626323968,TASK_BEGIN,023,1.3422394705495815,0.23729166421399137,-0.6110881122451839,-0.36228685040981523,1.7266116296951137,-0.2010123065204353,-1.000837337548913,1.0552416358175944,3
147,2024-09-28 17:00:21.685750016,TASK_BEGIN,023,1.3379293635270433,0.24083277637997066,-0.6666400205174463,-0.3572809012354326,1.7430809367962528,-0.20614108912726253,-0.9952768447449549,0.9896928582151497,3
148,2024-09-28 17:00:22.613009920,TASK_BEGIN,023,1.3323698633995167,0.24627957721248497,-0.6939548709324662,-0.36382714142665223,1.7497012895697621,-0.20753112721841865,-1.009583538951013,0.93039570633713,3
149,2024-09-28 17:00:22.670757120,TASK_BEGIN,023,1.3251625612821756,0.25335089437525415,-0.6972086534642691,-0.3792403045789229,1.745871217236993,-0.2051339604243447,-1.038050062118057,0.8786610016391463,3
150,2024-09-28 17:00:22.748571904,TASK_BEGIN,023,1.3157172295129045,0.2617349174546319,-0.681216195845687,-0.4002563395867841,1.7315678185685957,-0.19917183139761152,-1.07346189287364,0.8350372235620445,3
151,2024-09-28 17:00:22.805841152,TASK_BEGIN,023,1.3033259879929446,0.2710948493937337,-0.6510889908604031,-0.42337051975166684,1.7073143074604997,-0.19009136642851002,-1.108055247150355,0.799483549007324,3
152,2024-09-28 17:00:22.883950848,TASK_BEGIN,023,1.2872755156389122,0.281066762350223,-0.6118875124345279,-0.4451823512222299,1.6741297493529055,-0.1785046575475118,-1.13443122637255,0.771609555940574,3
153,2024-09-28 17:00:22.951586816,TASK_BEGIN,023,1.2669886660008844,0.2912561029643649,-0.5683192441744201,-0.4626948422125506,1.6334770569232695,-0.1651364761110372,-1.1465034483478953,0.7509411257793381,3
154,2024-09-28 17:00:23.019591168,TASK_BEGIN,023,1.2421703889559716,0.301236084951943,-0.5245631014444437,-0.4735111990342942,1.5871946111076032,-0.15078196961187337,-1.1404285454044842,0.7371596111519999,3
155,2024-09-28 17:00:23.962522880,TASK_BEGIN,023,1.2129349287154942,0.31054733358306685,-0.4842492746436836,-0.4758899710215962,1.537386660806059,-0.13626579820940204,-1.1152366283728694,0.7302614991437044,3
156,2024-09-28 17:00:24.024866816,TASK_BEGIN,023,1.1798883128875544,0.3187006614442504,-0.45051432279788656,-0.46867209074703975,1.4862642640379822,-0.12239481605537268,-1.0728695169318783,0.7306083382323532,3
157,2024-09-28 17:00:24.097455104,TASK_BEGIN,023,1.1441353013372824,0.325191298914682,-0.4260279741676755,-0.4511516384149999,1.4359648997860963,-0.10990592991494212,-1.017642402660053,0.7388652890187397,3
158,2024-09-28 17:00:24.165703168,TASK_BEGIN,023,1.107203817935188,0.3295312841360537,-0.412986106335612,-0.4229695651039755,1.3883914008434233,-0.09941379624405149,-0.9554445567251099,0.7558461668125133,3
159,2024-09-28 17:00:24.233428992,TASK_BEGIN,023,1.0709115303905514,0.33129767533067134,-0.41309479980590286,-0.38407237022784557,1.345088020067952,-0.09136236712978701,-0.8929421602262243,0.7822917115601881,3
160,2024-09-28 17:00:24.301209856,TASK_BEGIN,023,1.0371954187556816,0.33018873613037075,-0.42748043411368,-0.33474370936757053,1.3071594651013567,-0.08598816692122893,-0.8368180127412481,0.8186121248604147,3
161,2024-09-28 17:00:24.359878912,TASK_BEGIN,023,1.0079075453329347,0.3260791440755393,-0.456446666963801,-0.27570475578614895,1.2752326107368703,-0.08330072231886364,-0.7930496914934013,0.8646351537148145,3
162,2024-09-28 17:00:25.312612096,TASK_BEGIN,023,0.9845930564626031,0.3190627361544636,-0.4991180802658936,-0.20825666383794558,1.2494364172277475,-0.08307493447561162,-0.7663098862283553,0.919413419217098,3
163,2024-09-28 17:00:25.380409856,TASK_BEGIN,023,0.9682933657358372,0.3094699016985097,-0.553120116953359,-0.13438616262413614,1.2293839554039814,-0.08485573983241053,-0.7595211723461739,0.9811439488055942,3
164,2024-09-28 17:00:25.440561152,TASK_BEGIN,023,0.9594169902361434,0.29785346478265173,-0.6144780480346367,-0.0567433275829226,1.2141936453675786,-0.08799323529344706,-0.773546447352249,1.0472434527015115,3
165,2024-09-28 17:00:25.503074048,TASK_BEGIN,023,0.957695646352544,0.2849462628517994,-0.6778912599963932,0.021521223989179043,1.2025999291371514,-0.09171897499242311,-0.8071252361643899,1.1146013939577446,3
166,2024-09-28 17:00:25.583581952,TASK_BEGIN,023,0.9622248873330723,0.27159568360506536,-0.7374299344057018,0.09699772123374345,1.1931521250972785,-0.0952443285738777,-0.8572203930362434,1.179963985506255,3
167,2024-09-28 17:00:25.642781952,TASK_BEGIN,023,0.9715820463965992,0.2586823383610031,-0.787540964773977,0.1663007360742681,1.184453991549041,-0.0978491514455513,-0.919668299845518,1.2403144380208824,3
168,2024-09-28 17:00:25.718643712,TASK_BEGIN,023,0.9840013530504826,0.24703737799393582,-0.8241373508835454,0.22640733664944251,1.1753852323411038,-0.09894189276168772,-0.9897612268994485,1.2931246884189243,3
169,2024-09-28 17:00:26.662002944,TASK_BEGIN,023,0.9975738958230803,0.2373713500965774,-0.8454752608402321,0.275017439073374,1.1652504748391928,-0.09809023534956969,-1.0625613299742596,1.3364817601264678,3
170,2024-09-28 17:00:26.730526976,TASK_BEGIN,023,1.0104518820238921,0.23021703204543248,-0.8525277681291556,0.31083000393672344,1.153820946804094,-0.09503068443940646,-1.1330888064746247,1.3691807380347247,3
171,2024-09-28 17:00:26.791970048,TASK_BEGIN,023,1.0210507778259335,0.22588962547873753,-0.8487493648619846,0.3336446132874806,1.1412749205030197,-0.0896647142553845,-1.1965533153981456,1.3908134925663895,3
172,2024-09-28 17:00:26.865992192,TASK_BEGIN,023,1.0282231142022076,0.2244746829670161,-0.8393529317399786,0.3442683722397376,1.1280857949226875,-0.08204664577617438,-1.2486441280987866,1.4017835098863063,3
173,2024-09-28 17:00:26.933736960,TASK_BEGIN,023,1.0313532850829665,0.22584553125491966,-0.8303130968253221,0.34426180347268803,1.114914124208558,-0.07237084393531798,-1.2858751527981287,1.4031936740504285,3
174,2024-09-28 17:00:26.994663168,TASK_BEGIN,023,1.0303457105527283,0.22969836699909255,-0.8273495223639906,0.33560278110827074,1.1025255090920325,-0.06096456914566923,-1.305985467318839,1.3966395733466421,3
175,2024-09-28 17:00:27.059006208,TASK_BEGIN,023,1.0255285137154093,0.23559659324366264,-0.8351540991476067,0.3203735917418337,1.0917204455861436,-0.04828061659295652,-1.3083168232033229,1.3839831321889238,3
176,2024-09-28 17:00:28.012614912,TASK_BEGIN,023,1.017513752692599,0.24302558614185482,-0.8569873418355106,0.300535611557785,1.0832504845170874,-0.03487416051166483,-1.2940265427811637,1.3671600012786342,3
177,2024-09-28 17:00:28.075315968,TASK_BEGIN,023,1.0070446189588391,0.2514555212843435,-0.8945646073436627,0.27778487773174537,1.0777071212372957,-0.021357078308467288,-1.265983642533287,1.3480236163039172,3
178,2024-09-28 17:00:28.148272896,TASK_BEGIN,023,0.9948555049295471,0.26039964967863666,-0.9481113073828991,0.2534701828780812,1.0754011727447361,-0.008340461054047213,-1.2282861872792572,1.328203650520131,3
179,2024-09-28 17:00:28.215176960,TASK_BEGIN,023,0.9815719336898664,0.2694536500355692,-1.0165587588084393,0.22858328592266844,1.0762683305467877,0.0036196131555927113,-1.1855587664949798,1.3089738092024905,3
180,2024-09-28 17:00:28.277268736,TASK_BEGIN,023,0.9676647732340979,0.2783099550939343,-1.0978515982103743,0.2038191412934234,1.0798201481731469,0.014065692445232215,-1.1423256068043564,1.2911394609822013,3
181,2024-09-28 17:00:28.351516160,TASK_BEGIN,023,0.953446740950768,0.2867530185850548,-1.18926603827064,0.17967657562893835,1.0851468950481453,0.022668305212123416,-1.1026266321945486,1.2749664684658242,3
182,2024-09-28 17:00:28.419271936,TASK_BEGIN,023,0.939085609169253,0.2946478603833831,-1.2876673235530283,0.15657036403385496,1.0909888452631415,0.029235421862883932,-1.0698221477195662,1.2601971049754923,3
183,2024-09-28 17:00:29.330609152,TASK_BEGIN,023,0.924628568145918,0.3019269074805571,-1.3897182200035376,0.1349254567197044,1.0958865865628413,0.033698354354879,-1.0464258902525527,1.246180310548537,3
184,2024-09-28 17:00:29.404039936,TASK_BEGIN,023,0.910042605601221,0.30857338238380866,-1.492080681511901,0.11522509844432748,1.098387078094659,0.03607763938776367,-1.0338520977942571,1.2320672636516488,3
185,2024-09-28 17:00:29.471823104,TASK_BEGIN,023,0.8952431141749384,0.31460911609849335,-1.5916246384981503,0.09801570161944079,1.0972542410683377,0.03643966883634023,-1.0321496950599964,1.2169900685407198,3
186,2024-09-28 17:00:29.531075072,TASK_BEGIN,023,0.8800794897253885,0.32009795295573984,-1.685588130555641,0.08389502187442656,1.0916299314142834,0.03485679610011606,-1.0399389407807593,1.2001920287557286,3
187,2024-09-28 17:00:29.607264768,TASK_BEGIN,023,0.8643075852762695,0.32515690973607964,-1.7716274235243825,0.07349129841621745,1.0811193200599132,0.031376193868755904,-1.0546675296990928,1.1811412440582165,3
188,2024-09-28 17:00:29.674954752,TASK_BEGIN,023,0.8476076575825637,0.32995622311555023,-1.8478180853184796,0.06742303159017643,1.0658194201409594,0.025994382405554895,-1.0731303390702027,1.1596660215478347,3
189,2024-09-28 17:00:29.742701056,TASK_BEGIN,023,0.8296564061753171,0.33470177541373547,-1.9127200245209692,0.0662496870344519,1.0463172618930041,0.018640628121534712,-1.0921096909091959,1.1360862270029524,3
190,2024-09-28 17:00:30.686364928,TASK_BEGIN,023,0.8102132349846232,0.3396054408114976,-1.965473130075063,0.07044263524711006,1.0236464782649193,0.009185129417785548,-1.108936425551535,1.111253407882452,3
191,2024-09-28 17:00:30.746078976,TASK_BEGIN,023,0.7891859764057674,0.34484945183389965,-2.0057585260645743,0.0803692230248132,0.9991778081367929,-0.002518913378821976,-1.1218037835952148,1.0864486447399129,3
192,2024-09-28 17:00:30.821843968,TASK_BEGIN,023,0.7666641846254001,0.35054985654976917,-2.0335540400821603,0.09622360355122689,0.9744568809346805,-0.01657419983437874,-1.1298165118184866,1.0631833977255398,3
193,2024-09-28 17:00:30.887468032,TASK_BEGIN,023,0.7429149975060607,0.35672641016815265,-2.048840247707372,0.11786073336982138,0.9510301851412472,-0.03298276403937133,-1.1329085050203378,1.042998735766135,3
194,2024-09-28 17:00:30.957243904,TASK_BEGIN,023,0.7183415494863262,0.36328954468151925,-2.0514819503749284,0.14460326281000813,0.9302866783411597,-0.05160351116954564,-1.1318020437923022,1.0273328440214067,3
195,2024-09-28 17:00:31.011243776,TASK_BEGIN,023,0.6934200415771891,0.3700526965415898,-2.0413071866566908,0.17514783133916725,0.9133281428267229,-0.07212379663915626,-1.127997017827021,1.0174541253586513,3
196,2024-09-28 17:00:31.088741888,TASK_BEGIN,023,0.6686359967052468,0.3767665706833296,-2.018219025259614,0.207627609122332,0.9008817228666959,-0.09404976577035885,-1.1235611594239219,1.0144063913544195,3
197,2024-09-28 17:00:32.036791040,TASK_BEGIN,023,0.6444234661623117,0.38316151103676616,-1.9822400818468586,0.23980446927636578,0.8932577811388986,-0.11672270564502685,-1.1206369941617862,1.0189482616987855,3
198,2024-09-28 17:00:32.104588800,TASK_BEGIN,023,0.6211044928495935,0.38898599511411586,-1.933527050862004,0.26933703674490694,0.8903377212240263,-0.13936100498022666,-1.1208693455412764,1.0315163049530747,3
199,2024-09-28 17:00:32.172331008,TASK_BEGIN,023,0.5988431255878585,0.3940384439808199,-1.8723924719531588,0.29406273615483225,0.8915740081415752,-0.16111702948557288,-1.1249484828403378,1.052203942059156,3
200,2024-09-28 17:00:32.240087808,TASK_BEGIN,023,0.5776397517431127,0.3981924303618841,-1.7993104823456385,0.3122463182111663,0.8959987869238818,-0.1811334749540728,-1.132351412662415,1.0807045179456265,3
201,2024-09-28 17:00:32.302476800,TASK_BEGIN,023,0.5573775075562097,0.40140738189096187,-1.714888360261397,0.3227814206618284,0.9022569876321981,-0.1985881212374168,-1.1413196261090837,1.1162000284560167,3
202,2024-09-28 17:00:32.364506112,TASK_BEGIN,023,0.5379047550506345,0.40371463982378986,-1.619835595190914,0.3253294143339488,0.9086951425536316,-0.2127271476849512,-1.1489444190397806,1.157221669908478,3
203,2024-09-28 17:00:32.443309056,TASK_BEGIN,023,0.5191195757164614,0.40518561441757134,-1.5150044549605488,0.3203667847782182,0.9135315432704347,-0.22289768017666745,-1.1511388746606233,1.2015217173902184,3
204,2024-09-28 17:00:33.386823936,TASK_BEGIN,023,0.5010291142872765,0.40590421539408905,-1.4015600660510374,0.30913639822735933,0.915102893405077,-0.2285920956435601,-1.1425480147505152,1.246022243847697,3
205,2024-09-28 17:00:33.454600960,TASK_BEGIN,023,0.48377511932862144,0.40595754644849663,-1.2812254948238584,0.29350624742789955,0.9121383513674219,-0.22950525723241458,-1.116732043881076,1.2869320752467437,3
206,2024-09-28 17:00:33.514199040,TASK_BEGIN,023,0.46762180568241263,0.40544037079956813,-1.15644911464937,0.27572284229541677,0.9039736768484291,-0.22558651152637213,-1.0668451219108133,1.3200797829281727,3
207,2024-09-28 17:00:33.590199040,TASK_BEGIN,023,0.4529016475700523,0.40446198033557923,-1.0303788415245252,0.2580745455165566,0.890633014369411,-0.21705940566431084,-0.9867114394563297,1.3414074600976698,3
208,2024-09-28 17:00:33.654337024,TASK_BEGIN,023,0.43993422895317874,0.4031494952227785,-0.9066202508203195,0.2425319840585707,0.8727845003586583,-0.20439735597942557,-0.8719902777967158,1.3474868854019764,3
209,2024-09-28 17:00:33.716389888,TASK_BEGIN,023,0.42895722082348803,0.4016496533114403,-0.7888293552690673,0.23043712200191746,0.8516394413902112,-0.18827058999673593,-0.7210761821084024,1.3359107674367836,3
210,2024-09-28 17:00:33.793356032,TASK_BEGIN,023,0.4200969195799031,0.4001349436467416,-0.6802876249451983,0.2222860125366831,0.8288488767709348,-0.16948941124846004,-0.5355131374191809,1.3054889520237294,3
211,2024-09-28 17:00:34.700325888,TASK_BEGIN,023,0.4133685950146439,0.3988139681689881,-0.5836394480047506,0.21763972751250302,0.8063891743642877,-0.14895302147102005,-0.319947418237696,1.2562919381106485,3
212,2024-09-28 17:00:34.781197056,TASK_BEGIN,023,0.40868614940122416,0.3979338309354419,-0.5008291437901139,0.2151945699975097,0.7863957097779292,-0.12759786269999004,-0.08174011169652541,1.1896235910358857,3
213,2024-09-28 17:00:34.838540032,TASK_BEGIN,023,0.4058788983323215,0.3977615185634557,-0.4331246312000843,0.21302669359208837,0.7709344273369392,-0.10634233580777044,0.16973520914550097,1.107935936850262,3
214,2024-09-28 17:00:34.915212032,TASK_BEGIN,023,0.40471669792679155,0.3985476971611595,-0.3811433000594442,0.20899137059329728,0.7617536118872312,-0.08603052516657554,0.42408973796373506,1.014633083602354,3
215,2024-09-28 17:00:34.977795840,TASK_BEGIN,023,0.4049349080419526,0.4004900306420424,-0.3448916332101187,0.20119161184514672,0.7600748868845978,-0.06737571597703634,0.6710216989616856,0.9137481246296353,3
216,2024-09-28 17:00:35.051981056,TASK_BEGIN,023,0.40625810810010904,0.4037061949456359,-0.32384324967516104,0.188367517959842,0.7664649483382476,-0.05090833658448707,0.901203227732575,0.8095592847870668,3
217,2024-09-28 17:00:35.119710976,TASK_BEGIN,023,0.4084289340885383,0.408211083437136,-0.3170400002916913,0.17007287401749632,0.7808072125653097,-0.03694519111823056,1.1067220633103316,0.7062390370244075,3
218,2024-09-28 17:00:36.062262016,TASK_BEGIN,023,0.4112344588623713,0.41389291426124813,-0.32319968678687633,0.14662048424270657,0.8023719773388897,-0.02559765841716861,1.2811270897738103,0.6075950934137354,3
219,2024-09-28 17:00:36.129419264,TASK_BEGIN,023,0.4145153255891524,0.4204971294862333,-0.3408548984166422,0.11890805148452423,0.8299690489835341,-0.01681814920571771,1.4193300985294341,0.5169167714276475,3
220,2024-09-28 17:00:36.197748736,TASK_BEGIN,023,0.41816028834122637,0.42762974358649036,-0.36853945951587813,0.08825718652469458,0.8621563868032934,-0.010463443725772022,1.5175428928328445,0.43691601614091685,3
221,2024-09-28 17:00:36.256978944,TASK_BEGIN,023,0.4220972709410759,0.4347809967729774,-0.40496267563694544,0.05630014189297123,0.8974556691556771,-0.006347765620965658,1.5732586103867265,0.36974047594570936,3
222,2024-09-28 17:00:36.326226176,TASK_BEGIN,023,0.42627400562207485,0.441365542444696,-0.44906697792158745,0.024860498508299658,0.93451481493246,-0.004270672660363861,1.5852812225896709,0.3170178683581649,3
223,2024-09-28 17:00:36.397235968,TASK_BEGIN,023,0.43061702602379553,0.4467746668099345,-0.49991960203800184,-0.00422341326607191,0.9721943948759459,-0.004024347474662157,1.5538519023584922,0.27988892093309303,3
224,2024-09-28 17:00:36.468627968,TASK_BEGIN,023,0.43498578978614927,0.4504290407451492,-0.5564768710986713,-0.029328419131270066,1.0095953505825321,-0.0053952148117529936,1.4807731576176695,0.2590338509106816,3
225,2024-09-28 17:00:37.412319744,TASK_BEGIN,023,0.4391525890173319,0.4518211329471624,-0.6172953879577466,-0.0492747041124997,1.0460447627467442,-0.008172224796010121,1.3692947189746107,0.2547306228619254,3
226,2024-09-28 17:00:37.480065280,TASK_BEGIN,023,0.4428150352779541,0.45055165954854576,-0.680305742778285,-0.06347139077794194,1.081055166656503,-0.012166325936242662,1.2237344013882472,0.2669300861705838,3
227,2024-09-28 17:00:37.547791104,TASK_BEGIN,023,0.4456257749374357,0.44637109377072404,-0.7428245764302445,-0.07190550490022138,1.1142851929258548,-0.01723521785745076,1.0490957944572072,0.2952854561435968,3
228,2024-09-28 17:00:37.615499008,TASK_BEGIN,023,0.44722639274008164,0.4392223626656119,-0.8018850150874088,-0.07496237516890253,1.1455126440673529,-0.023298378888321914,0.8508595148659441,0.33912245994976936,3
229,2024-09-28 17:00:37.681765120,TASK_BEGIN,023,0.44727637257766245,0.4292660807664293,-0.8546954720164894,-0.07318018421298801,1.1745961475000852,-0.030330326076747544,0.6348666549134863,0.3973980262403328,3
230,2024-09-28 17:00:37.742589184,TASK_BEGIN,023,0.4454692849754182,0.4168736830517744,-0.8989075310614959,-0.06710870095477434,1.201399192397833,-0.03833519411648474,0.40722352538370427,0.46868305170714175,3
231,2024-09-28 17:00:37.818721024,TASK_BEGIN,023,0.4415417162158719,0.402589673680712,-0.9326002771664342,-0.057351146425437996,1.2256925562549452,-0.04731813710711301,0.17428149982725719,0.551160721223253,3
232,2024-09-28 17:00:38.762449920,TASK_BEGIN,023,0.4352884268150297,0.38707916776898543,-0.95420268687403,-0.04468557347360977,1.2470951551489653,-0.05726740819342528,-0.05736842807979187,0.6426268726328113,3
233,2024-09-28 17:00:38.830450944,TASK_BEGIN,023,0.42658291207209764,0.3710798673908063,-0.9625694510254028,-0.03010074012781587,1.2651013011499466,-0.06815051026956502,-0.2810916408433962,0.7405064459244872,3
234,2024-09-28 17:00:38.898251008,TASK_BEGIN,023,0.41538829317690196,0.3553645367839251,-0.9571594916071798,-0.01470881457766347,1.2791820154755507,-0.07992005941849595,-0.4906428656117466,0.841901843076616,3
235,2024-09-28 17:00:38.965977088,TASK_BEGIN,023,0.40174854558344125,0.34070578427661224,-0.938131647785018,0.0003699152064399803,1.2889066927507917,-0.092522087983499,-0.6806238785516893,0.9436656609974434,3
236,2024-09-28 17:00:39.033714176,TASK_BEGIN,023,0.3857662592595123,0.32783360274831164,-0.9062716682115812,0.01405673046672393,1.2940367069201733,-0.10589798612727588,-0.8468025617601048,1.0425053581047676,3
237,2024-09-28 17:00:39.096530944,TASK_BEGIN,023,0.3675846253331545,0.317385457659286,-0.8628135554183156,0.025283010252652928,1.2945697544691932,-0.11997097060751723,-0.9864095150337454,1.1351584279116902,3
238,2024-09-28 17:00:39.166077952,TASK_BEGIN,023,0.34738343144900236,0.3098620108830823,-0.809292592278708,0.032942268665012396,1.290736219392057,-0.13461183901168408,-1.0985078777121893,1.2186178736238562,3
239,2024-09-28 17:00:40.086931968,TASK_BEGIN,023,0.32537744780455724,0.30560511239906196,-0.7475070142614195,0.03592010737489005,1.2829604377408155,-0.14959082873440308,-1.1841394129741951,1.2902859250354637,3
240,2024-09-28 17:00:40.154654976,TASK_BEGIN,023,0.3018028239465828,0.30479956128158187,-0.6795268269312619,0.033228284230139044,1.2718092376673327,-0.1645379507451559,-1.24586582261521,1.3479709500154218,3
241,2024-09-28 17:00:40.222342144,TASK_BEGIN,023,0.27690167609230437,0.30748509122669215,-0.6076596409528358,0.02417846731221495,1.257948745054045,-0.17893474512048768,-1.2868400911045834,1.3898055509513625,3
242,2024-09-28 17:00:40.290092032,TASK_BEGIN,023,0.2509339986744143,0.3135655406864225,-0.5343748078912048,0.00852697105748465,1.2421090933227068,-0.19214102927134274,-1.3099721644172875,1.4142306769662367,3
243,2024-09-28 17:00:40.356775936,TASK_BEGIN,023,0.22423374562349915,0.32280792894783994,-0.46223213087097986,-0.013432587188541121,1.2250419894945346,-0.20344449880242935,-1.3175347010810834,1.420089985104529,3
244,2024-09-28 17:00:40.424931840,TASK_BEGIN,023,0.1972915999205386,0.3348300604908565,-0.3938130070698222,-0.04084385061196612,1.2074624433361554,-0.21212290856470511,-1.3111174587440872,1.4067864999986717,3
245,2024-09-28 17:00:40.493325056,TASK_BEGIN,023,0.1708155463700705,0.3490869445729004,-0.33160930922773174,-0.07235516310680462,1.1899803922522825,-0.21751476638037862,-1.2917508975005851,1.3744580615641464,3
246,2024-09-28 17:00:41.435353088,TASK_BEGIN,023,0.14571956157535326,0.3648760846262436,-0.2778616372003295,-0.10626960008789325,1.1730479788138308,-0.21909597684297544,-1.2600932914530036,1.3241179038314088,3
247,2024-09-28 17:00:41.495449856,TASK_BEGIN,023,0.12303465035480995,0.38137403778667284,-0.23440550539654237,-0.1407163712609593,1.156954152401001,-0.21655823118798914,-1.2165453078068695,1.2576803533866845,3
248,2024-09-28 17:00:41.560662016,TASK_BEGIN,023,0.10378828925662949,0.3976968924224025,-0.20261578461892463,-0.17379072361672532,1.1418688335178129,-0.20987992177446874,-1.161202410442105,1.1778450332313535,3
249,2024-09-28 17:00:41.640254976,TASK_BEGIN,023,0.08890171963463162,0.41296751661586734,-0.18352010670899296,-0.2036511537614247,1.1279118174109184,-0.19937384966950672,-1.0937054253865528,1.0878798147545412,3
250,2024-09-28 17:00:41.707022080,TASK_BEGIN,023,0.07911621931216188,0.42637711203435935,-0.17804290041624313,-0.2285758486784958,1.11522383513047,-0.1856929905260157,-1.0131360027118108,0.9913551641083889,3
251,2024-09-28 17:00:41.775746048,TASK_BEGIN,023,0.07493429742338487,0.4372354130611213,-0.18720884839562618,-0.24698193017124334,1.1040229592886879,-0.16978511869960206,-0.9181176958669672,0.8918880844772088,3
252,2024-09-28 17:00:41.843516160,TASK_BEGIN,023,0.07657316468796056,0.44500694176796746,-0.21215549884496196,-0.2574371340087022,1.0946326494595815,-0.1528085367671734,-0.8071638200694089,0.7929282776930207,3
253,2024-09-28 17:00:42.787094272,TASK_BEGIN,023,0.08394963851506647,0.44933128154182284,-0.25393208442551324,-0.25872559555634533,1.0874729820122009,-0.13603085918484892,-0.6791079221351666,0.6975676273478817,3
254,2024-09-28 17:00:42.854832896,TASK_BEGIN,023,0.09671353816336485,0.4500264963813269,-0.313111918664536,-0.2500096576862569,1.0830164311738069,-0.1207230324531737,-0.5334879081223252,0.6083895085094404,3
255,2024-09-28 17:00:42.922587904,TASK_BEGIN,023,0.1143205843190914,0.44707884056818653,-0.389286438945704,-0.23103534420851907,1.0817324935931052,-0.10805432971459927,-0.37095949006328266,0.5274305121890601,3
256,2024-09-28 17:00:42.988889856,TASK_BEGIN,023,0.1361155419080529,0.44062542787661124,-0.48063669640949047,-0.2022562973737368,1.0840495446491418,-0.09899874900026578,-0.19375495154698547,0.45624533366082914,3
257,2024-09-28 17:00:43.057984000,TASK_BEGIN,023,0.1613968419884898,0.4309360125764423,-0.583813055641157,-0.16480528123801547,1.090327077613069,-0.09426679073011171,-0.00599596038223925,0.3959589534308266,3
258,2024-09-28 17:00:43.125202944,TASK_BEGIN,023,0.18944563807411222,0.41839780186624903,-0.6941922271311638,-0.12035397186918707,1.1008046445401005,-0.09427041831247644,0.18629291253066355,0.34723901142084934,3
259,2024-09-28 17:00:43.193419008,TASK_BEGIN,023,0.21952086087282066,0.4035046349699593,-0.8064013266412374,-0.07094036418993588,1.1155127678611607,-0.09911371571733153,0.3754843980848328,0.31023479571534957,3
260,2024-09-28 17:00:44.137715200,TASK_BEGIN,023,0.2508441192430192,0.38684619727466685,-0.9149111531949354,-0.01882294224757486,1.1341813758833608,-0.1085944312491341,0.5529355654196192,0.2845643403204871,3
261,2024-09-28 17:00:44.204710912,TASK_BEGIN,023,0.2826039897396968,0.36908878645185106,-1.0144969835125681,0.03359688178660853,1.1562141904786865,-0.12221550546451822,0.7097111749527029,0.26941242700799706,3
262,2024-09-28 17:00:44.273249024,TASK_BEGIN,023,0.3139835887071206,0.35094627745930035,-1.1005053248882686,0.08380056038708443,1.1807585234163471,-0.13922039550443693,0.8371829214386651,0.26375321386470657,3
263,2024-09-28 17:00:44.333478144,TASK_BEGIN,023,0.3441797268507591,0.33315208631295995,-1.1690579223924746,0.12923929189596722,1.206819812173729,-0.15865928397139625,0.9274321422981788,0.2666202506074134,3
264,2024-09-28 17:00:44.408648960,TASK_BEGIN,023,0.37238433901297535,0.3164412818231053,-1.21730808207397,0.16757375354585813,1.23335655677294,-0.1794775599193511,0.9736188871223439,0.2772977570589352,3
265,2024-09-28 17:00:44.476403200,TASK_BEGIN,023,0.39774907312153923,0.301536658250569,-1.243670501957602,0.19700046017670794,1.2593502522005224,-0.20061119177506434,0.9704648611682521,0.29535688293576556,3
266,2024-09-28 17:00:44.544174848,TASK_BEGIN,023,0.4193856816250534,0.28912639833773457,-1.247876733372823,0.21651140840900454,1.283873686703519,-0.2210739432328854,0.9149195847705646,0.32053485763867423,3
267,2024-09-28 17:00:45.458686976,TASK_BEGIN,023,0.4364191591676001,0.2798319402398497,-1.2308384842957107,0.22598778006775824,1.3061579624806676,-0.24002475891736672,0.8070088608055777,0.3525023274773795,3
268,2024-09-28 17:00:45.530259968,TASK_BEGIN,023,0.44806162101671,0.27417367374249924,-1.1944403044772354,0.22611579934724085,1.3256390292735274,-0.2568096009158786,0.650640543774922,0.3906079423103548,3
269,2024-09-28 17:00:45.598340096,TASK_BEGIN,023,0.4536775911445841,0.2725375564336948,-1.1413964351561334,0.21819113420633504,1.3419669936794278,-0.27097812038059077,0.45393955479089804,0.4337184433292243,3
270,2024-09-28 17:00:45.666065920,TASK_BEGIN,023,0.4528375904737056,0.2751393563320099,-1.0752096743216695,0.20392244206675889,1.3549810349002185,-0.2822793536102251,0.2288367394767366,0.4802345626526738,3
271,2024-09-28 17:00:45.722438912,TASK_BEGIN,023,0.44535387815680255,0.2819886974975555,-1.0001574347413094,0.18530428513952688,1.3646753903951332,-0.2906414007566239,-0.009968502864650966,0.5282605000251274,3
272,2024-09-28 17:00:45.801730048,TASK_BEGIN,023,0.43128131724694885,0.2928671678179709,-0.9211786186606956,0.1645372273638689,1.371190559294636,-0.29614231608039837,-0.24637212879196166,0.5758397871363368,3
273,2024-09-28 17:00:45.869271040,TASK_BEGIN,023,0.4108908898195396,0.30733453542336464,-0.8435482966203186,0.14391440113243412,1.3748483204573498,-0.29898129746395335,-0.4643651525910407,0.621203441492278,3
274,2024-09-28 17:00:46.812905984,TASK_BEGIN,023,0.3846509391552287,0.32476343272066,-0.7723067701576646,0.12562362220400056,1.376197930597802,-0.2994502878873588,-0.6495079721796767,0.6630082221924165,3
275,2024-09-28 17:00:46.880708096,TASK_BEGIN,023,0.3532329772351981,0.34439522928144384,-0.7115623230548118,0.11150689385348235,1.376000456075533,-0.297896210113778,-0.7901497644220897,0.7005051773515505,3
276,2024-09-28 17:00:46.941458944,TASK_BEGIN,023,0.3175231067399693,0.36541198830398663,-0.6639278831630093,0.10287480082657255,1.3751160284156219,-0.29467112600617995,-0.8782676996373857,0.7335584661226373,3
277,2024-09-28 17:00:47.002636032,TASK_BEGIN,023,0.2786107770180704,0.3870162139427692,-0.63032221945261,0.1004222860876656,1.3743332112123212,-0.29008219650175243,-0.909949466270962,0.7624875302006152,3
278,2024-09-28 17:00:47.081188096,TASK_BEGIN,023,0.2377388756378871,0.40850088291486064,-0.6101253205657662,0.10419150733317567,1.374210050566667,-0.2843583238390656,-0.885534562628838,0.78779328731642,3
279,2024-09-28 17:00:47.142270976,TASK_BEGIN,023,0.19621654652650106,0.4292930182136384,-0.6014754095520196,0.11352221699213448,1.374977932070948,-0.27764261816617486,-0.8094225531110232,0.8099093014041592,3
280,2024-09-28 17:00:47.219454208,TASK_BEGIN,023,0.15531034492003207,0.44896858567155923,-0.601571017465434,0.12703429610392072,1.3765185468352803,-0.2700038886485257,-0.6896065430269546,0.829117911754278,3
281,2024-09-28 17:00:48.162928896,TASK_BEGIN,023,0.11613186620135771,0.46724988747838453,-0.6069987486479672,0.14272442873152236,1.3783861945166427,-0.2614502068570656,-0.5369605039448092,0.8456436970032775,3
282,2024-09-28 17:00:48.219643136,TASK_BEGIN,023,0.07954057842116279,0.4839954782671581,-0.6140826434300944,0.15818121249464542,1.3798420704634644,-0.2519340717284374,-0.36430490077038213,0.8598089522294496,3
283,2024-09-28 17:00:48.298465024,TASK_BEGIN,023,0.04609713915235969,0.49918159298288023,-0.6192014881902193,0.1708739235656974,1.3798984245254482,-0.2413544144547923,-0.18540717814260765,0.8721424828406086,3
284,2024-09-28 17:00:48.366179840,TASK_BEGIN,023,0.016107348710109257,0.512869517295434,-0.6191114719419395,0.17847725884817445,1.3774027331033087,-0.22957132829955973,-0.01410768692317058,0.8834096814676831,3
285,2024-09-28 17:00:48.418826240,TASK_BEGIN,023,-0.010251971780246349,0.5251599614769539,-0.6113535652392128,0.1791835568195209,1.371180939082039,-0.21644363976431835,0.13644380362744085,0.894567283790619,3
286,2024-09-28 17:00:48.501725952,TASK_BEGIN,023,-0.03280049605414493,0.5361446882928476,-0.5947084372736665,0.17194489268916627,1.3602128067812436,-0.2018806244948114,0.2546324585054642,0.9066438499243643,3
287,2024-09-28 17:00:48.559459072,TASK_BEGIN,023,-0.051298130956128674,0.5458713049803031,-0.5695403573423038,0.15659792531000757,1.343789792745495,-0.1858889122111,0.33138244972272635,0.9205603734262667,3
288,2024-09-28 17:00:49.512980992,TASK_BEGIN,023,-0.06548767953725587,0.55433406110833,-0.5378507083089398,0.13382251418791433,1.3216244958515087,-0.1686016053912362,0.3611121466242361,0.936949237023097,3
289,2024-09-28 17:00:49.580624128,TASK_BEGIN,023,-0.07519495498052357,0.561490586320083,-0.5029599012556071,0.10491092720228887,1.2939082251927736,-0.15028634444698621,0.3422888594479772,0.9560513250513787,3
290,2024-09-28 17:00:49.648494848,TASK_BEGIN,023,-0.08043053727101454,0.5672943192168182,-0.46891909152487943,0.07141487089106532,1.261331566692047,-0.13133848166174197,0.2774062694961336,0.9777180413506532,3
291,2024-09-28 17:00:49.716237056,TASK_BEGIN,023,-0.08145719745228935,0.5717318452976181,-0.4398954222486568,0.03482229609808036,1.2250860301236672,-0.1122717331952359,0.17251792236866426,1.0014716131975931,3
292,2024-09-28 17:00:49.783948032,TASK_BEGIN,023,-0.07879633621530069,0.5748531855672154,-0.4197718473636315,-0.0035908141334225928,1.1868464732192492,-0.09371155867091147,0.03654419415666009,1.0265803705495828,3
293,2024-09-28 17:00:49.845609984,TASK_BEGIN,023,-0.07315209840008884,0.5767789411653242,-0.41203362807527655,-0.042706475012037184,1.1487076988905094,-0.07638259681005331,-0.11958760763475318,1.0521598402456873,3
294,2024-09-28 17:00:49.907202816,TASK_BEGIN,023,-0.06526859944447978,0.5776739387242124,-0.419772004303823,-0.08142844087321327,1.1130399041544086,-0.061077416886877844,-0.28395911316403893,1.0773051828505613,3
295,2024-09-28 17:00:50.825462272,TASK_BEGIN,023,-0.055783518225765605,0.5776953753854124,-0.4455407413929055,-0.11861355671697418,1.0822542485283335,-0.048601320087029734,-0.44470395024421866,1.1012023544602991,3
296,2024-09-28 17:00:50.903569152,TASK_BEGIN,023,-0.045137592899298515,0.576938675026216,-0.49097317359906184,-0.15311985418869528,1.0585213408746459,-0.03969978991887582,-0.5909800311606829,1.1231685142336891,3
297,2024-09-28 17:00:50.965114112,TASK_BEGIN,023,-0.03354646056873927,0.5754028132186592,-0.5563123835816347,-0.18393761188062197,1.0435154526753567,-0.03498443083683839,-0.7139212765442361,1.142640971412075,3
298,2024-09-28 17:00:51.041239040,TASK_BEGIN,023,-0.021010330681138244,0.5729839970260505,-0.6400724685764502,-0.21036435524602604,1.0382372912577942,-0.03487250921162827,-0.8075120922466078,1.1591614114531263,3
299,2024-09-28 17:00:51.108958976,TASK_BEGIN,023,-0.007348715807579313,0.5694953012850363,-0.7389724958946481,-0.2321773296719548,1.0429319522808802,-0.03954895554268425,-0.8690605572161676,1.1723635607481029,3
300,2024-09-28 17:00:51.176682752,TASK_BEGIN,023,0.007743770302523159,0.5647032820154693,-0.8481976079818727,-0.2497341132807686,1.0571097517568158,-0.04895990788779894,-0.8989804983045879,1.1819367005386598,3
301,2024-09-28 17:00:51.244397056,TASK_BEGIN,023,0.024632788735854103,0.5583692237639933,-0.9619206496118644,-0.2639569126900915,1.0796783560263634,-0.06284546864203829,-0.8999550747218007,1.1875553018048397,3
302,2024-09-28 17:00:52.172516096,TASK_BEGIN,023,0.043681695615673734,0.5502865305383965,-1.0738910076063097,-0.2762212637585453,1.10915820042787,-0.0808012061510068,-0.8758567589749737,1.188814470148435,3
303,2024-09-28 17:00:52.249233920,TASK_BEGIN,023,0.06518711137476225,0.540314560972399,-1.1779301544746799,-0.28820068406530763,1.1439024658908417,-0.1023398216844561,-0.8308295267643435,1.1852257917916216,3
304,2024-09-28 17:00:52.310980864,TASK_BEGIN,023,0.08930748283245282,0.5284099087460543,-1.268351300182494,-0.30168684384979394,1.1822527764969846,-0.12693187310788004,-0.7688100264818517,1.1763064667073544,3
305,2024-09-28 17:00:52.388178176,TASK_BEGIN,023,0.11599980595042789,0.5146490083653188,-1.3403695170778995,-0.3183742825452028,1.2226296023792043,-0.15402623061078993,-0.6935514134550202,1.161769848999377,3
306,2024-09-28 17:00:52.458427904,TASK_BEGIN,023,0.14499344502760933,0.49923466581942244,-1.3904342235222567,-0.3396224122040196,1.2635978351827872,-0.18306033726559845,-0.6088960065094896,1.1417721809572097,3
307,2024-09-28 17:00:52.526173952,TASK_BEGIN,023,0.1758151274619777,0.4824843693249034,-1.4163823179103416,-0.3662421394281277,1.3039284783311242,-0.21346458846654018,-0.5188922248605227,1.1171036783816921,3
308,2024-09-28 17:00:52.593868800,TASK_BEGIN,023,0.20784756304383364,0.4648051436180036,-1.4174489591841983,-0.39835277341847924,1.3426454204966725,-0.24465917963312978,-0.4276181356280197,1.0892153468329817,3
309,2024-09-28 17:00:53.533304064,TASK_BEGIN,023,0.24038847494427548,0.44666678451825587,-1.3942612969456751,-0.43533420095676184,1.3790429868980127,-0.276046771591623,-0.3389004814484783,1.0600514959294953,3
310,2024-09-28 17:00:53.605011968,TASK_BEGIN,023,0.2726941829729115,0.42858269888469275,-1.3488820850079648,-0.47588528444011513,1.41267365213751,-0.30701436081997796,-0.25611774575329666,1.0317442176501042,3
311,2024-09-28 17:00:53.663607040,TASK_BEGIN,023,0.3040152539534523,0.4110954774834536,-1.2848547909394175,-0.5181821149576767,1.4433089580009146,-0.336956017211356,-0.18209851801921084,1.0062791454305913,3
312,2024-09-28 17:00:53.740510976,TASK_BEGIN,023,0.3336287180653401,0.3947618205708872,-1.2071264933702415,-0.5600972812907609,1.470866134312467,-0.3653126888158088,-0.11902570223738537,0.9852456336602665,3
313,2024-09-28 17:00:53.807491840,TASK_BEGIN,023,0.36085645242285574,0.38013962776962035,-1.1217238562417668,-0.5994327378813987,1.4952940687699277,-0.3916122433110463,-0.06831928672247324,0.9697357759409196,3
314,2024-09-28 17:00:53.875974912,TASK_BEGIN,023,0.3850683102935238,0.36777872147082535,-1.0351360104410896,-0.6341556771942886,1.5164467550754404,-0.415494457770791,-0.030610279289585433,0.9603861908399124,3
315,2024-09-28 17:00:53.943733760,TASK_BEGIN,023,0.40569566311416794,0.3582059374561991,-0.9535239334520524,-0.6626370836889646,1.5340065019447258,-0.4367164816645014,-0.0058944662720479815,0.9575017314707928,3
316,2024-09-28 17:00:54.887329024,TASK_BEGIN,023,0.42228125008463047,0.35189612760865446,-0.8820206439586681,-0.6838434349519568,1.5474940749561028,-0.4551406390082013,0.006251155684638891,0.9611768959157162,3
317,2024-09-28 17:00:54.955170048,TASK_BEGIN,023,0.4345545897504904,0.3492353533965276,-0.8242915851104142,-0.6974223661028367,1.556335731480321,-0.4707073248738378,0.006594430904224759,0.9713463392188868,3
318,2024-09-28 17:00:55.012170240,TASK_BEGIN,023,0.44249433543896927,0.3504912396416885,-0.782263526798025,-0.7036967537559438,1.559938163861335,-0.48340059201471614,-0.0036334971178340063,0.987747177645041,3
319,2024-09-28 17:00:55.090648832,TASK_BEGIN,023,0.44634816409561484,0.35579693378513283,-0.7558839715293828,-0.7036192163775699,1.5577639295472918,-0.49321901584574696,-0.02257643545925834,1.009842422937671,3
320,2024-09-28 17:00:55.158416896,TASK_BEGIN,023,0.4466041980195249,0.365141818425501,-0.7429837065023753,-0.6986807486232466,1.5494099604495069,-0.5001584912027791,-0.047767009648125,1.0367866780932908,3
321,2024-09-28 17:00:55.226170112,TASK_BEGIN,023,0.44392409006670763,0.3783610216047342,-0.73944641631089,-0.690730136991121,1.534659222916847,-0.5042034194579724,-0.0764503567568914,1.0674629483714269,3
322,2024-09-28 17:00:55.293921024,TASK_BEGIN,023,0.4390613761053693,0.3951243003725748,-0.7398089952677737,-0.6817118168593551,1.5134863458464525,-0.5053223564399526,-0.10613172210299471,1.1005369789409445,3
323,2024-09-28 17:00:56.236561920,TASK_BEGIN,023,0.43279484286212744,0.41492990977791855,-0.7382360241758423,-0.6733837882036968,1.4860472312150819,-0.5034698726266039,-0.1350325314446193,1.1344732426559625,3
324,2024-09-28 17:00:56.300825088,TASK_BEGIN,023,0.4258916376015397,0.4371076865828465,-0.7296325619545722,-0.6670780189735334,1.4526920625281847,-0.49859750692610105,-0.1621355712361929,1.167533162455534,3
325,2024-09-28 17:00:56.372918016,TASK_BEGIN,023,0.419088542755537,0.4608349828439436,-0.7105826005084318,-0.6635372322961925,1.4140032881411941,-0.4906733201816568,-0.1867983483112212,1.1978252247591097,3
326,2024-09-28 17:00:56.440615936,TASK_BEGIN,023,0.4130707382606664,0.4851716194325999,-0.679904042841625,-0.6628201808605916,1.3708224101491735,-0.4797049178975516,-0.2082964702850161,1.223450476907914,3
327,2024-09-28 17:00:56.507898880,TASK_BEGIN,023,0.4084442372013463,0.5091157958811487,-0.6387920251324132,-0.6642545636164368,1.324225845399175,-0.4657595258504075,-0.22581254466410663,1.2427368354285095,3
328,2024-09-28 17:00:56.575702016,TASK_BEGIN,023,0.405713028402786,0.5316714812533924,-0.5905622716084594,-0.6664789022466059,1.2754407237291365,-0.4489805122643933,-0.23910122788580299,1.2545121045486705,3
329,2024-09-28 17:00:56.642855936,TASK_BEGIN,023,0.4052650570746462,0.5519142175903149,-0.5399203013619035,-0.6676647044802383,1.2257297427294205,-0.4296046929386775,-0.2494692545136811,1.258330501986524,3
330,2024-09-28 17:00:57.589167360,TASK_BEGIN,023,0.4073577669555433,0.5690479564041251,-0.4917627625244971,-0.6659340649074906,1.1762904558819303,-0.407981091544826,-0.26038688277264627,1.254580884743289,3
331,2024-09-28 17:00:57.656909056,TASK_BEGIN,023,0.41208939361244523,0.5824509326120006,-0.4498252488271832,-0.6598560792806657,1.128189662848037,-0.38458337296193773,-0.27735509274523984,1.2444650691611956,3
332,2024-09-28 17:00:57.724183040,TASK_BEGIN,023,0.41935261033326415,0.5917114157622436,-0.4156763593102679,-0.6488517019802096,1.0823222874037082,-0.3600044102661282,-0.3071942550793982,1.2298790654349565,3
333,2024-09-28 17:00:57.792301056,TASK_BEGIN,023,0.4287845698312253,0.5966544802486498,-0.38840434913200333,-0.6333755645954205,1.039395517060892,-0.3349295336649106,-0.35712653068147027,1.2132353709250867,3
334,2024-09-28 17:00:57.859308800,TASK_BEGIN,023,0.43972815815229555,0.5973590812030812,-0.36504008384097164,-0.6148366732742593,0.9999508468803531,-0.310095663805223,-0.43382644984316127,1.1972413003099798,3
335,2024-09-28 17:00:57.927720960,TASK_BEGIN,023,0.4512111029994504,0.5941608058908614,-0.3415148560870736,-0.5953273149440222,0.9644062488642208,-0.28624327317324566,-0.5423675281126745,1.1846215094619592,3
336,2024-09-28 17:00:57.995517952,TASK_BEGIN,023,0.4619573735343893,0.5876311314889286,-0.3138030951538923,-0.5772802849207628,0.9330817408128764,-0.26406354883429617,-0.6850487638940842,1.177778314508223,3
337,2024-09-28 17:00:58.939164928,TASK_BEGIN,023,0.4704516134825986,0.5785269741840945,-0.27888974872247396,-0.5631369955323082,0.9061912117206029,-0.2441434771145228,-0.8603811592667292,1.1784120954382666,3
338,2024-09-28 17:00:59.006668032,TASK_BEGIN,023,0.4750620444556521,0.5677161203465069,-0.23536174346323122,-0.5550458473659694,0.8838038137164459,-0.226914194658074,-1.0626524167097648,1.187160505297682,3
339,2024-09-28 17:00:59.074639872,TASK_BEGIN,023,0.474209805554902,0.5560938638371468,-0.18363637359313895,-0.5546004410261935,0.8657947946327967,-0.21261149039448557,-1.2822889395199084,1.2033623109895641,3
340,2024-09-28 17:00:59.142415104,TASK_BEGIN,023,0.4665648567157378,0.5445067919613674,-0.12589936024438342,-0.56266974741348,0.8518228392032867,-0.20125925181529686,-1.5069246931776528,1.2250486443974884,3
341,2024-09-28 17:00:59.209958912,TASK_BEGIN,023,0.45124043283703735,0.5336929987919258,-0.0657391412638722,-0.5793840730008605,0.8413591825408722,-0.1926805657236384,-1.7229176649780038,1.24917467311322,3
342,2024-09-28 17:00:59.277906944,TASK_BEGIN,023,0.4279505705093526,0.5242396972784634,-0.007498305546069396,-0.604266160574182,0.8337581035791454,-0.18653217651118648,-1.917037307217377,1.2720239642100313,3
343,2024-09-28 17:00:59.345537792,TASK_BEGIN,023,0.39709677791745673,0.5165556742697414,0.04447162803627651,-0.6364122886346006,0.828343727364875,-0.18235655455904617,-2.078078901644053,1.2897076560466,3
344,2024-09-28 17:01:00.262633984,TASK_BEGIN,023,0.35976301811292555,0.5108577338257371,0.08645800744059051,-0.6746381427037877,0.8244990978629982,-0.17964736537281736,-2.1981704407547205,1.2986791248031027,3
345,2024-09-28 17:01:00.319365888,TASK_BEGIN,023,0.3176186695253011,0.5071706069601011,0.11586991139237324,-0.7175738034185135,0.8217476492224132,-0.17791849791428535,-2.2735098738652617,1.2961659882723646,3
346,2024-09-28 17:01:00.397915904,TASK_BEGIN,023,0.2727441209925565,0.5053385651971137,0.1315066527132426,-0.7637255928405935,0.8198039289783213,-0.17675902473109908,-2.3043377884554395,1.2804343014659956,3
347,2024-09-28 17:01:00.463303936,TASK_BEGIN,023,0.22739884198942598,0.5050495023650137,0.1335265049153036,-0.8115093282559298,0.8185693412822637,-0.1758611390772162,-2.2941899715143257,1.2508516877457854,3
348,2024-09-28 17:01:00.533600000,TASK_BEGIN,023,0.18376389711895155,0.5058720067204266,0.12313595326778666,-0.859245960115307,0.8180827126239604,-0.1750252099785033,-2.2486645260971545,1.2077680301895792,3
349,2024-09-28 17:01:00.601327872,TASK_BEGIN,023,0.1437103973570576,0.5072986917230202,0.10220457690619937,-0.9051278131155523,0.8184670538718014,-0.17415668394032027,-2.17395510752399,1.152274549883033,3
350,2024-09-28 17:01:00.669033984,TASK_BEGIN,023,0.10864334368628134,0.5087868066763359,0.0730079807351228,-0.9471970085821949,0.8198985679601326,-0.17326436098312276,-2.0754419311483967,1.0859366495842964,3
351,2024-09-28 17:01:01.582799872,TASK_BEGIN,023,0.07944039750357375,0.5097926228632036,0.03808146875037691,-0.9833767195862315,0.8225879231748823,-0.17245868216784094,-1.956741989731171,1.010597796143792,3
352,2024-09-28 17:01:01.655288064,TASK_BEGIN,023,0.05646983259214224,0.5098022068107184,4.231811645568186e-05,-1.011557462906636,0.8267559856018566,-0.171941810018875,-1.8195475151837601,0.928308213994054,3
353,2024-09-28 17:01:01.722662144,TASK_BEGIN,023,0.03964891951771811,0.5083658591859992,-0.03865061932585849,-1.0297280191266707,0.8326029411382895,-0.17198383724566474,-1.6642514276457339,0.8413750325916488,3
354,2024-09-28 17:01:01.790717952,TASK_BEGIN,023,0.028505920828905677,0.505139313516934,-0.07592170880477132,-1.036154635805819,0.8402767607165053,-0.172889690817645,-1.4910330378558079,0.7524870165075273,3
355,2024-09-28 17:01:01.846969856,TASK_BEGIN,023,0.022235474628591406,0.49992165711285713,-0.11024645953545388,-1.0295911071497383,0.8498395021109955,-0.17496587028047977,-1.3009693843408492,0.6648279691951045,3
356,2024-09-28 17:01:01.926413056,TASK_BEGIN,023,0.019768912779800724,0.4926731019284245,-0.1407445613403751,-1.0094784278195,0.8612307938735155,-0.1784907024880283,-1.0968305107328093,0.5820705470646377,3
357,2024-09-28 17:01:01.994160896,TASK_BEGIN,023,0.01989157973420399,0.48350145864341704,-0.16713972395332888,-0.9761099595663095,0.8742376936383427,-0.18368664566041817,-0.883376795073517,0.5081813388623496,3
358,2024-09-28 17:01:02.935769088,TASK_BEGIN,023,0.021407136103878982,0.47262221648657077,-0.18958642229917733,-0.9307324247279989,0.8884768718939149,-0.1906927790444186,-0.6670899916682361,0.4470577894960169,3
359,2024-09-28 17:01:03.003478016,TASK_BEGIN,023,0.02329440009196214,0.46031676738139155,-0.2084886421111282,-0.8755178518018338,0.9033861415255033,-0.19953725206267964,-0.45541815884684406,0.402088563373479,3
360,2024-09-28 17:01:03.072050944,TASK_BEGIN,023,0.02478686441321043,0.44691629563997687,-0.22443201098808452,-0.8133651861097343,0.9182357472829898,-0.21011297864779466,-0.25585999958346295,0.37574754088497947,3
361,2024-09-28 17:01:03.139874048,TASK_BEGIN,023,0.025353754401959912,0.4328161247311737,-0.2382210668152448,-0.747571722897983,0.9321832368592932,-0.22216381328881318,-0.07525403682298065,0.3692967541779374,3
362,2024-09-28 17:01:03.207634944,TASK_BEGIN,023,0.02462561296309037,0.41849952676157254,-0.2509458085117421,-0.6814591263662186,0.9443672159637585,-0.23528836306118286,0.08071567107240951,0.38260265749668027,3
363,2024-09-28 17:01:03.275079168,TASK_BEGIN,023,0.022323376033148726,0.4045455366187137,-0.26406384857537035,-0.6180198224824285,0.95400079138597,-0.24896426493742305,0.20805855220938316,0.4140487415101596,3
364,2024-09-28 17:01:03.343159040,TASK_BEGIN,023,0.018218508658082253,0.39160934503731615,-0.27952738525333215,-0.5596328720016567,0.9604421981308635,-0.2625919028513028,0.3050849322870942,0.4605905348368609,3
365,2024-09-28 17:01:04.287654912,TASK_BEGIN,023,0.012127037551430747,0.3803789894244109,-0.2999130797575406,-0.5079011974854197,0.9632523318940882,-0.2755529096695121,0.37275850941606664,0.5180215233728892,3
366,2024-09-28 17:01:04.355411200,TASK_BEGIN,023,0.00393707822752576,0.37151913587970103,-0.3284120044601494,-0.4636301133838441,0.9622397969892967,-0.2872716834426191,0.41456117012150057,0.581425089617577,3
367,2024-09-28 17:01:04.423200000,TASK_BEGIN,023,-0.006340503961140523,0.36561258658941004,-0.36851925592576346,-0.4269077208340982,0.9574751983918651,-0.2972652310449066,0.4359812120998404,0.6456880671152517,3
368,2024-09-28 17:01:04.490923776,TASK_BEGIN,023,-0.018520721807248775,0.3631056235233895,-0.42339577234512493,-0.3972311081169088,0.9492721699736465,-0.3051757811761088,0.44387602695886463,0.7059524524008176,3
369,2024-09-28 17:01:04.557757952,TASK_BEGIN,023,-0.03220948516508398,0.3642601051794105,-0.49509229893708545,-0.37365359765435235,0.9381549995459115,-0.3107908199282981,0.4458678773263792,0.75796151583495,3
370,2024-09-28 17:01:04.626479104,TASK_BEGIN,023,-0.046790814781604406,0.3691191590074806,-0.5839320509035122,-0.35494354181568843,0.9248280630012607,-0.31405574940416536,0.44979481353978606,0.7983264750083507,3
371,2024-09-28 17:01:04.678778880,TASK_BEGIN,023,-0.06143916093459136,0.37749761516964364,-0.688268517147198,-0.3397292428631476,0.9101443992840433,-0.31507851157531647,0.46313221297544227,0.8247366995694343,3
372,2024-09-28 17:01:05.636748032,TASK_BEGIN,023,-0.07516246836320181,0.3890017782479047,-0.8046707982794468,-0.3266102921447121,0.8950674830265702,-0.314120651061172,0.49227515285873824,0.8360982414785288,3
373,2024-09-28 17:01:05.703770880,TASK_BEGIN,023,-0.08688021014386654,0.40307184796040785,-0.9284331776152547,-0.3142599051050919,0.8806348791903539,-0.311572218974813,0.5417039370581034,0.8325797261891711,3
374,2024-09-28 17:01:05.772216064,TASK_BEGIN,023,-0.09553046075023243,0.41903904055055,-1.0542063628912612,-0.3015633217234435,0.8679316255488647,-0.30791454477120456,0.6132598476947463,0.815552907418921,3
375,2024-09-28 17:01:05.839924992,TASK_BEGIN,023,-0.1001847512492758,0.4361945516299912,-1.1765578148559908,-0.2877845595540434,0.8580531967888925,-0.3036755688970046,0.7057890110395604,0.7874183172095771,3
376,2024-09-28 17:01:05.894769920,TASK_BEGIN,023,-0.10013712875066656,0.45386356748264906,-1.290385935427658,-0.272683961287209,0.8520290657234053,-0.2993816182549547,0.8152481467319278,0.7513311037667597,3
377,2024-09-28 17:01:05.974526976,TASK_BEGIN,023,-0.09494590994682268,0.4714696913427517,-1.3912433927912078,-0.2565178288656421,0.8507097206933244,-0.2955136990691372,0.9352080270212241,0.7108666173334882,3
378,2024-09-28 17:01:06.040155904,TASK_BEGIN,023,-0.08444411149572742,0.488579098963867,-1.475637497917094,-0.23993272887863482,0.8546517635796587,-0.2924789168079557,1.0575960188177245,0.669654602970152,3
379,2024-09-28 17:01:06.986808064,TASK_BEGIN,023,-0.06875106594901913,0.5049221942743729,-1.5412624242617927,-0.22382224537713094,0.8640295874232026,-0.29059886305462557,1.173516065817299,0.6309938213342008,3
380,2024-09-28 17:01:07.040055808,TASK_BEGIN,023,-0.048294698229004125,0.5203910318594793,-1.5870682607088915,-0.20919563868402055,0.8785720977108182,-0.2901018074380941,1.2741068423934103,0.597477967075249,3
381,2024-09-28 17:01:07.116777728,TASK_BEGIN,023,-0.023830132262106247,0.5350107844096798,-1.613185296143046,-0.19706692835314177,0.8975233387100713,-0.29110680178780457,1.3514944335002281,0.5707072643985904,3
382,2024-09-28 17:01:07.187764992,TASK_BEGIN,023,0.0035642888732220304,0.548889534861267,-1.6208241437488058,-0.18836068244473222,0.9196670950061218,-0.2936093489107653,1.3998349423154333,0.551168597240878,3
383,2024-09-28 17:01:07.257435136,TASK_BEGIN,023,0.03253033476069641,0.5621576330241463,-1.6122126065863276,-0.18384355384133347,0.9434638913491579,-0.29748894402078824,1.4162551454768462,0.5383139090553741,3
384,2024-09-28 17:01:07.324218880,TASK_BEGIN,023,0.06152172426266916,0.5749124831883526,-1.5904786690848067,-0.18410502473573584,0.9672807678986459,-0.3025423427494388,1.4013437552082593,0.5308042553123005,3
385,2024-09-28 17:01:07.393348864,TASK_BEGIN,023,0.0889361267500889,0.5871826996209122,-1.5593014413440525,-0.1895949964782612,0.9896247777643676,-0.30852690284652573,1.3589395850299673,0.5268660319292038,3
386,2024-09-28 17:01:08.337841152,TASK_BEGIN,023,0.11326397128901047,0.598914829674164,-1.5222602093120667,-0.20067599809190623,1.0093034059343688,-0.3151962105669895,1.2952707092632523,0.5247011264873305,3
387,2024-09-28 17:01:08.404951808,TASK_BEGIN,023,0.13323247499376897,0.6099765793971017,-1.482085617785669,-0.21762784239368044,1.0254906286424357,-0.32231806636956023,1.2177413109596102,0.5228715938405063,3
388,2024-09-28 17:01:08.473342720,TASK_BEGIN,023,0.1479280073500878,0.6201702017612685,-1.4401632288126511,-0.2405872000910713,1.0377058759220117,-0.32967366085824307,1.1336685556816923,0.5205820074259934,3
389,2024-09-28 17:01:08.535771904,TASK_BEGIN,023,0.15686846502215163,0.6292528951717711,-1.396449393566618,-0.2694670545410405,1.0457296635942934,-0.3370459305145432,1.0491389448135537,0.5178297030966822,3
390,2024-09-28 17:01:08.608385024,TASK_BEGIN,023,0.15999767832210676,0.6369619780783888,-1.3496943752213835,-0.3039166104442937,1.0495074583763613,-0.3442116270955603,0.9681403516202697,0.5154240832597293,3
391,2024-09-28 17:01:08.676610816,TASK_BEGIN,023,0.1576153905690254,0.6430406226800347,-1.2978610742599546,-0.34332009389759255,1.0490986026933435,-0.35095153130585577,0.8922033236753731,0.5148774690760629,3
392,2024-09-28 17:01:08.744343040,TASK_BEGIN,023,0.15029218876430206,0.6472598357565246,-1.2387159587934162,-0.3867794485072583,1.0446842368118936,-0.35708253470713175,0.8206411120754878,0.5181840720454305,3
393,2024-09-28 17:01:09.686664960,TASK_BEGIN,023,0.1387986434375975,0.649437502360155,-1.1704775242147496,-0.4330817756846006,1.0365969028527435,-0.3624980219939461,0.7512117663699136,0.5275146675906938,3
394,2024-09-28 17:01:09.754803968,TASK_BEGIN,023,0.12404193550423101,0.6494565535516716,-1.0922905652098438,-0.4807207828546398,1.025334697950693,-0.3671965317710563,0.680975346221301,0.5448470065821318,3
395,2024-09-28 17:01:09.817775872,TASK_BEGIN,023,0.10700148561281266,0.6472768508320391,-1.0043657399177561,-0.5280090648351993,1.0115577061773282,-0.3712856994875609,0.6071825709569854,0.571560572262074,3
396,2024-09-28 17:01:09.878892800,TASK_BEGIN,023,0.08866563231298248,0.6429338229187823,-0.9077774751106411,-0.5732604322517512,0.9960695533954558,-0.37495529070620515,0.5280680603836961,0.6080520401496818,3
397,2024-09-28 17:01:09.956645888,TASK_BEGIN,023,0.06996836033178117,0.6365295025079484,-0.8040221655784837,-0.6150094710138869,0.9797673596187348,-0.3784226964899342,0.4435321148390165,0.6534496324250109,3
398,2024-09-28 17:01:10.018301952,TASK_BEGIN,023,0.0517270850593282,0.6282305550922899,-0.6945434029055568,-0.6522208632095624,0.9635501322195179,-0.38186972149235415,0.355735645559915,0.7055047880769156,3
399,2024-09-28 17:01:10.093582080,TASK_BEGIN,023,0.03459328191498216,0.618279295970566,-0.580486463736032,-0.6844087369786279,0.9482075663538134,-0.38539313304863015,0.26943583898984885,0.760708760056627,3
400,2024-09-28 17:01:11.011701248,TASK_BEGIN,023,0.019023324565127227,0.6070104120569983,-0.4627886888372528,-0.7116079745867989,0.9343280110844602,-0.38897853412350225,0.1917165351055591,0.8146440223221713,3
401,2024-09-28 17:01:11.081556224,TASK_BEGIN,023,0.0052697289934908725,0.5948605252539203,-0.3424438912201958,-0.7342231779318437,0.9222513841949541,-0.39249564149408583,0.1309376354373246,0.8625441434203078,3
402,2024-09-28 17:01:11.134379008,TASK_BEGIN,023,-0.00659534751035843,0.58235930911836,-0.2207163336902349,-0.7528256677991471,0.9120713733506649,-0.39571154539203324,0.0951554736842805,0.8999610910556924,3
403,2024-09-28 17:01:11.212014848,TASK_BEGIN,023,-0.01661716422571412,0.570101260531452,-0.09921139106960125,-0.7679595726498785,0.9036789458715353,-0.3983196972115293,0.09054876849969064,0.9233685075720058,3
404,2024-09-28 17:01:11.284164096,TASK_BEGIN,023,-0.024887132876695774,0.5587105100421038,0.020197407238512613,-0.780018048053717,0.8968302889452614,-0.3999797247116126,0.12028490308469558,0.9305646225203891,3
405,2024-09-28 17:01:11.352582144,TASK_BEGIN,023,-0.03150804930335683,0.5488106142857109,0.13551324372773296,-0.7892196010255759,0.8912211138251144,-0.40036081381865485,0.1839673771473387,0.9208399006192063,3
406,2024-09-28 17:01:11.413502976,TASK_BEGIN,023,-0.036601888596734244,0.5409975322375367,0.24469710964184913,-0.7956470310323022,0.8865632213348513,-0.3991862736349965,0.2776038976282551,0.8949315203687669,3
407,2024-09-28 17:01:12.336638976,TASK_BEGIN,023,-0.04033147228141161,0.535806246745568,0.34561520519191424,-0.7992995552450955,0.8826613003934417,-0.39628090502090724,0.393981800877504,0.8548123442789949,3
408,2024-09-28 17:01:12.404891136,TASK_BEGIN,023,-0.04291379728557725,0.5336674808366643,0.43590260550059867,-0.8001405809499822,0.8794657380248088,-0.39161590227107484,0.5233562499365969,0.803400382759101,3
409,2024-09-28 17:01:12.472795904,TASK_BEGIN,023,-0.0446207469668975,0.534861424025443,0.512848256818936,-0.798144741081867,0.8770726761292559,-0.3853395236460263,0.6543512350745957,0.7442729205216787,3
410,2024-09-28 17:01:12.540492800,TASK_BEGIN,023,-0.04576797411503068,0.5394812451458555,0.5734349542614534,-0.7933700547292158,0.8756752306223287,-0.3777850243371612,0.7748914949076778,0.6814062019310038,3
411,2024-09-28 17:01:12.608237056,TASK_BEGIN,023,-0.046687563981760785,0.5474141421335043,0.614650580514801,-0.7860834502256348,0.8754912524735682,-0.3694503422438878,0.8729666130938731,0.6189209505184503,3
412,2024-09-28 17:01:12.675558144,TASK_BEGIN,023,-0.047674493214707986,0.5583361551037527,0.6340420664463077,-0.7769164681703683,0.8766776266742278,-0.36094595158105236,0.9372423839034048,0.5608296424515343,3
413,2024-09-28 17:01:12.742737152,TASK_BEGIN,023,-0.0489133371871533,0.5717155371054817,0.6302877461431873,-0.7669651620336471,0.8792416905609908,-0.352920384149767,0.9577524025742673,0.5107983348050076,3
414,2024-09-28 17:01:13.689146112,TASK_BEGIN,023,-0.05041690882771947,0.5868249021582732,0.6035215390300246,-0.7577422966691592,0.8829913213524764,-0.3459888525913189,0.9267589488627257,0.47194125058140896,3
415,2024-09-28 17:01:13.754055936,TASK_BEGIN,023,-0.05199845824372242,0.6027588309803293,0.5553286343520764,-0.7509632904717641,0.8875552134895636,-0.3406851155863127,0.839571028027336,0.44666415846545543,3
416,2024-09-28 17:01:13.810553856,TASK_BEGIN,023,-0.05327368500273416,0.6184519790221071,0.48856445487802785,-0.7482558099426999,0.8924489382387086,-0.33743268310498625,0.695116203462366,0.436548562247864,3
417,2024-09-28 17:01:13.888211968,TASK_BEGIN,023,-0.0536901985482663,0.6327030098182557,0.40718668246640666,-0.7509295345088813,0.8971444022700024,-0.33651786867863187,0.4962589922911599,0.44227026807467146,3
418,2024-09-28 17:01:13.960145920,TASK_BEGIN,023,-0.05259023949771562,0.644212977158714,0.31609609144800194,-0.7598656880264786,0.901132942092876,-0.33805736096233746,0.24986646343809213,0.4635832637094093,3
419,2024-09-28 17:01:14.027110144,TASK_BEGIN,023,-0.04930470905182772,0.6516358074446906,0.22077973571022688,-0.7754653682650066,0.9039847694266888,-0.3419704339569031,-0.03348841714398811,0.4993970138170785,3
420,2024-09-28 17:01:14.095586816,TASK_BEGIN,023,-0.043264735504881316,0.653631254554361,0.126629684108648,-0.7975837937240041,0.9053806139091493,-0.3479708016106405,-0.34028247313033017,0.5479392407662194,3
421,2024-09-28 17:01:15.039041024,TASK_BEGIN,023,-0.03410899455579321,0.6489151170114715,0.038123491329134535,-0.8254757156045732,0.9050878478681229,-0.3555852282658848,-0.6551747298623071,0.6069731385466917,3
422,2024-09-28 17:01:15.106801920,TASK_BEGIN,023,-0.021759841634566467,0.6363069012521777,-0.04178021415798245,-0.8578323057751807,0.9029005956063771,-0.36419741438421105,-0.9622372335055839,0.6740059415175345,3
423,2024-09-28 17:01:15.165308928,TASK_BEGIN,023,-0.006441234524879434,0.6147736749434044,-0.1118301931525432,-0.8929335263041059,0.8985960451226751,-0.3731109038457201,-1.2460643519201209,0.746416458443252,3
424,2024-09-28 17:01:15.226903808,TASK_BEGIN,023,0.011372053852294515,0.5834678990518161,-0.17231233256264536,-0.9288551341237098,0.8919370444365324,-0.38162200780591127,-1.4927938575942876,0.8214990196474413,3
425,2024-09-28 17:01:15.303644672,TASK_BEGIN,023,0.031046689271840094,0.541765297636,-0.22468481364432144,-0.9636471028089524,0.8827194279779983,-0.3890948601731299,-1.6910920223037995,0.8964939025497614,3
426,2024-09-28 17:01:15.375955200,TASK_BEGIN,023,0.05187232913309156,0.48931901065215727,-0.2711200737469036,-0.9954488153343155,0.8708480409258826,-0.395033104114801,-1.8329494636699983,0.9686548905197109,3
427,2024-09-28 17:01:15.442210816,TASK_BEGIN,023,0.07310061703509907,0.4261443243961998,-0.3139811564725779,-1.022570485502813,0.8564130412111611,-0.39913887750927124,-1.914100271080405,1.0353448028036047,3
428,2024-09-28 17:01:16.389142016,TASK_BEGIN,023,0.09394350180474709,0.352733532373688,-0.3552901171316235,-1.043584268509512,0.8397336413342953,-0.40134500362254005,-1.9340273496881986,1.094140159902143,3
429,2024-09-28 17:01:16.456886016,TASK_BEGIN,023,0.11353467562035505,0.27018636648833183,-0.39632340117152143,-1.0574214827237387,0.8213453939327234,-0.4018109643858663,-1.895662101237243,1.1429519860436612,3
430,2024-09-28 17:01:16.524609024,TASK_BEGIN,023,0.13085114631881908,0.18033507807061697,-0.43744733757356186,-1.0634327033930902,0.8019203089136142,-0.40088180792407435,-1.8049877882797616,1.180177084544595,3
431,2024-09-28 17:01:16.591881984,TASK_BEGIN,023,0.14461826460640098,0.08583662723929188,-0.47817699971586186,-1.0613912054746883,0.7821339170217421,-0.399014126317273,-1.670713854216401,1.2048730848539906,3
432,2024-09-28 17:01:16.659220992,TASK_BEGIN,023,0.15325300019264818,-0.009802876371327365,-0.5173509249698502,-1.0514736296355722,0.7625325030161486,-0.39668173385198635,-1.5039767282826875,1.2169071419164201,3
433,2024-09-28 17:01:16.723858176,TASK_BEGIN,023,0.15488947779308607,-0.10230218316200769,-0.5533152036344892,-1.0342677811457028,0.7434729687391666,-0.39428732392987226,-1.3178895277491605,1.2169963224759712,3
434,2024-09-28 17:01:16.787058176,TASK_BEGIN,023,0.14749398351020124,-0.18679380367635948,-0.584042998094289,-1.0108105278027673,0.7251699073205747,-0.3921082656352427,-1.1268185831539586,1.2065896631393291,3
435,2024-09-28 17:01:17.733045248,TASK_BEGIN,023,0.12905841844084068,-0.25813567898056855,-0.6071815221883115,-0.9825885859509756,0.707812916079664,-0.3902858915102532,-0.9453120935324911,1.1876150216833095,3
436,2024-09-28 17:01:17.785844992,TASK_BEGIN,023,0.0978698959821948,-0.31135516821051484,-0.6200992077481386,-0.9514180131462793,0.6916815601607348,-0.38884564632518975,-0.7866029394336346,1.1621577247257333,3
437,2024-09-28 17:01:17.862233856,TASK_BEGIN,023,0.05285229594487546,-0.34221786778286795,-0.6200312130670986,-0.9191778884304285,0.6772085094490966,-0.38772837584730313,-0.660776632574714,1.1321430344886745,3
438,2024-09-28 17:01:17.935550976,TASK_BEGIN,023,-0.006082808644371737,-0.3478302719244308,-0.6043947683599986,-0.8874579831130976,0.6649789489015487,-0.3868178647327001,-0.5730782514387224,1.0990954155904877,3
439,2024-09-28 17:01:18.003827968,TASK_BEGIN,023,-0.07782538599349717,-0.3270688190194639,-0.5712628729480247,-0.857238309713557,0.6556714555209137,-0.3859591058089375,-0.5230629727096303,1.0640371201912597,3
440,2024-09-28 17:01:18.071806976,TASK_BEGIN,023,-0.16013798277375213,-0.2806385330888715,-0.5198794979955467,-0.8287098153672763,0.649951702514581,-0.38497147899845297,-0.5049767173717438,1.0275398555064892,3
441,2024-09-28 17:01:18.127270144,TASK_BEGIN,023,-0.2499867516408313,-0.21077017958514666,-0.45109048781982647,-0.8012710390354838,0.6483454277442904,-0.38366220562610154,-0.5091135176237674,0.9898965079842253,3
442,2024-09-28 17:01:19.089412096,TASK_BEGIN,023,-0.3439367355925566,-0.12076845805709903,-0.36758692954839006,-0.7736828389437141,0.651133909882063,-0.381838444019071,-0.5236307073020425,0.9513720655692712,3
443,2024-09-28 17:01:19.147874048,TASK_BEGIN,023,-0.43842010868706066,-0.01462459535452108,-0.27382362513458425,-0.744346038115068,0.6583010903231263,-0.3793137155433121,-0.5364761773501763,0.9124710579838743,3
444,2024-09-28 17:01:19.224870912,TASK_BEGIN,023,-0.5298399863964727,0.10323050019242506,-0.17555299105400518,-0.7116177124381201,0.6695233598799928,-0.3759102640477086,-0.5371562941906814,0.8741276282235597,3
445,2024-09-28 17:01:19.292622080,TASK_BEGIN,023,-0.6145873225341553,0.22805849143741175,-0.07911491266088178,-0.6740637442604382,0.6841878269328971,-0.3714660500802283,-0.5180639446783063,0.8377718871383518,3
446,2024-09-28 17:01:19.360392960,TASK_BEGIN,023,-0.6890429045942231,0.3548712455941996,0.00931520861961607,-0.630623119740091,0.7014492540390936,-0.3658527414909391,-0.4752685522764995,0.8053002846064935,3
447,2024-09-28 17:01:19.428197888,TASK_BEGIN,023,-0.7495842141717853,0.4784341580658592,0.08440312688328792,-0.5807276755643552,0.7203301158820082,-0.3589988086755264,-0.408787415326097,0.7789630561006959,3
448,2024-09-28 17:01:19.495897856,TASK_BEGIN,023,-0.7925880833367059,0.593235613501268,0.14216530427355178,-0.524396669788572,0.7398387054603259,-0.350905771371489,-0.32228864023256615,0.7611440880444282,3
449,2024-09-28 17:01:20.424905984,TASK_BEGIN,023,-0.8144246068822956,0.693461997079991,0.18018832829562015,-0.4622571337913941,0.7590721069089814,-0.34165245096753827,-0.2222610236555173,0.754048676237975,3
450,2024-09-28 17:01:20.505673728,TASK_BEGIN,023,-0.811459942447484,0.7730212427116447,0.19747133021081809,-0.3954064262982689,0.7772818348089457,-0.3313883300025494,-0.11692984330352159,0.759377398058856,3
451,2024-09-28 17:01:20.563697920,TASK_BEGIN,023,-0.7800970001150043,0.8256346193105464,0.19392072078546801,-0.32508190058853637,0.7938868486807387,-0.3203158032479552,-0.015193641994959045,0.778064944779863,3
452,2024-09-28 17:01:20.640480000,TASK_BEGIN,023,-0.7168714993922864,0.844991785087183,0.16966480752569515,-0.252203530499359,0.8084279296870809,-0.30866079148157577,0.0744168707493672,0.810103472755886,3
453,2024-09-28 17:01:20.702074880,TASK_BEGIN,023,-0.6186021591734115,0.8249582922896584,0.12444844851026139,-0.17693413605950506,0.8204904027677161,-0.2966387600167159,0.1448442554101577,0.8544159883366168,3
454,2024-09-28 17:01:20.765494016,TASK_BEGIN,023,-0.48258064149885105,0.7598279096572238,0.057359154192948854,-0.09843735919668688,0.8296526866245342,-0.28442968180006556,0.191519040029953,0.908768795930425,3
455,2024-09-28 17:01:20.841854976,TASK_BEGIN,023,-0.30678111867275254,0.6446114216231094,-0.03297089965728099,-0.014969954516460817,0.8354925644632897,-0.27216881123476044,0.212982285913254,0.9697880146153478,3
456,2024-09-28 17:01:21.764915968,TASK_BEGIN,023,-0.09007189219534753,0.47535221825695595,-0.14770492281121894,0.07571035669116027,0.8376286027499102,-0.2599496865099902,0.21099276631510613,1.0331592529931393,3
457,2024-09-28 17:01:21.832681984,TASK_BEGIN,023,0.16758531065242865,0.2494558813310829,-0.2869016407561609,0.17579475757483762,0.8357674494972279,-0.24783769901049998,0.1901740770585021,1.0940194662937084,3
458,2024-09-28 17:01:21.900409856,TASK_BEGIN,023,0.4649664148357993,-0.033991598815901906,-0.44877004421954575,0.2869374640683228,0.8297591429730802,-0.23589867961403488,0.15724135459218372,1.1474809015028244,3
459,2024-09-28 17:01:21.968134912,TASK_BEGIN,023,0.7994667603687436,-0.3739568497817826,-0.6294490234195649,0.40997383138808896,0.8196617986222066,-0.22423889208503386,0.11985712100396714,1.1891938457791125,3
460,2024-09-28 17:01:22.031475200,TASK_BEGIN,023,1.167048203793742,-0.7672892875606944,-0.8233763146912522,0.5448596882629578,0.8057804778197072,-0.21303580207035136,0.08530253244286376,1.2158475427629585,3
461,2024-09-28 17:01:22.093615872,TASK_BEGIN,023,1.5622614309151532,-1.2086932103796169,-1.0239685415578925,0.6907229876692133,0.7886355266455236,-0.20253771419048988,0.059260957403917784,1.2255368572143643,3
462,2024-09-28 17:01:22.170270976,TASK_BEGIN,023,1.9783623549521665,-1.6908734090500332,-1.2242703322065502,0.8458978276861002,0.7688610634753292,-0.1930322518961432,0.04498884116355415,1.2179650946179497,3
463,2024-09-28 17:01:23.113609216,TASK_BEGIN,023,2.4075505712700207,-2.204850851882729,-1.4174376226693426,1.007913982751379,0.7470892482961426,-0.1848054469857186,0.04303117862543556,1.1944675663690676,3
464,2024-09-28 17:01:23.181421056,TASK_BEGIN,023,2.8413245774682063,-2.7404000573460205,-1.597153392067771,1.1735158524611278,0.7238858638537302,-0.1781132381131659,0.05151331327413106,1.1578378165196763,3
465,2024-09-28 17:01:23.249192960,TASK_BEGIN,023,3.270886928574341,-3.286536652818263,-1.7581079001549957,1.3387856118209889,0.699763022104841,-0.17317089226268179,0.06691126083609557,1.111963562470725,3
466,2024-09-28 17:01:23.309757184,TASK_BEGIN,023,3.687522713470435,-3.831993882419879,-1.896477501291586,1.4993808060225313,0.675238136311418,-0.17015110693679744,0.08504168575789431,1.0613309780934226,3
467,2024-09-28 17:01:23.372608768,TASK_BEGIN,023,4.082921197579632,-4.365643249538412,-2.0101656251367777,1.650835249377021,0.6508744904515106,-0.16917638207675267,0.10193651254592799,1.0104875762660372,3
468,2024-09-28 17:01:23.449878016,TASK_BEGIN,023,4.449443395032069,-4.8768264810212125,-2.0986545655954436,1.7888364004712103,0.6272577580148769,-0.17029409073790813,0.11437653841248142,0.9635482406785185,3
469,2024-09-28 17:01:23.520133120,TASK_BEGIN,023,4.780352370884014,-5.355607559576583,-2.162553653215771,1.9094211705661703,0.6049233936951125,-0.1734350303476356,0.12000921328265551,0.9238178155444511,3
470,2024-09-28 17:01:24.438132992,TASK_BEGIN,023,5.0700442686707206,-5.793020437905807,-2.2030929451921244,2.009130383329811,0.5842887480531975,-0.17837666073345335,0.11704791108153893,0.8935943093781523,3
471,2024-09-28 17:01:24.505847040,TASK_BEGIN,023,5.314325339000807,-6.181415244291276,-2.2217799274690093,2.0852029308968727,0.5656181879751531,-0.18473953708975854,0.10364402158038957,0.8741752545219136,3
472,2024-09-28 17:01:24.571315968,TASK_BEGIN,023,5.51074942864227,-6.514956237923419,-2.220247220424728,2.135807105999533,0.5490037800291673,-0.1920237221923962,0.07714702795145613,0.8660270379744728,3
473,2024-09-28 17:01:24.633331968,TASK_BEGIN,023,5.658962916987263,-6.7902143107174835,-2.200168762734363,2.160227158564656,0.534341263562957,-0.19966537465568526,0.03353538308061436,0.8690341518829513,3
474,2024-09-28 17:01:24.699897856,TASK_BEGIN,023,5.760937775118148,-7.0066811530478015,-2.1631736737177585,2.1589505938912588,0.5213097282288786,-0.2070914274216822,-0.03264908724186109,0.8827203158509394,3
475,2024-09-28 17:01:24.772130816,TASK_BEGIN,023,5.820970568722218,-7.167001500432192,-2.110811752700438,2.133661215367413,0.5093756478150014,-0.21376349754455354,-0.12761508932608245,0.9063469579224052,3
476,2024-09-28 17:01:24.844593920,TASK_BEGIN,023,5.845392222621164,-7.276806756072101,-2.044577146993816,2.0871357910869146,0.49783105378452597,-0.2192114960234993,-0.2570089035608474,0.9388815975293462,3
477,2024-09-28 17:01:25.787512832,TASK_BEGIN,023,5.842019713464209,-7.344163682493887,-1.9658766454393315,2.02301531051505,0.48586536270542896,-0.22306056086785536,-0.4244282447009454,0.9789194163083603,3
478,2024-09-28 17:01:25.855899904,TASK_BEGIN,023,5.819454499917274,-7.378752870084417,-1.8758959262660884,1.9454664912233606,0.47266148103385364,-0.22505229914620667,-0.6301756856973757,1.0246547395276042,3
479,2024-09-28 17:01:25.922413056,TASK_BEGIN,023,5.786373191452714,-7.390946286937564,-1.7754883858486468,1.8588253221671769,0.45748463777312887,-0.22505293267486223,-0.8704868787649385,1.0739552057502735,3
480,2024-09-28 17:01:25.991337216,TASK_BEGIN,023,5.750935495165107,-7.390947829360748,-1.6652519003166992,1.7673217932537504,0.43972156035424037,-0.22303843311424393,-1.1373622056088792,1.1245203987788257,3
481,2024-09-28 17:01:26.059129856,TASK_BEGIN,023,5.720365044051176,-7.388099691914078,-1.545835811913599,1.6749137526781392,0.418867804606782,-0.21906011295206299,-1.4190181076497053,1.1740472491361649,3
482,2024-09-28 17:01:26.125344000,TASK_BEGIN,023,5.700695465163307,-7.390390595991269,-1.4183591208988822,1.5851883972024559,0.39452125073837535,-0.21321094790861045,-1.7008903961354578,1.2203477891703647,3
483,2024-09-28 17:01:26.187830784,TASK_BEGIN,023,5.6966479351496195,-7.404164088084476,-1.2847767295360615,1.5012900074485314,0.366442650240208,-0.2056124648618102,-1.9670579348529502,1.2614359117612048,3
484,2024-09-28 17:01:27.133398016,TASK_BEGIN,023,5.7116057393030415,-7.434004370948169,-1.1481289673039623,1.4258770555422,0.3346781738358753,-0.1964251509744337,-2.2018094140770854,1.2956052955557837,3
485,2024-09-28 17:01:27.194983936,TASK_BEGIN,023,5.747656880550133,-7.482761868082818,-1.012701037330447,1.36112913534948,0.299680360406307,-0.18587132322732897,-2.391057031739967,1.321478466959804,3
486,2024-09-28 17:01:27.273915904,TASK_BEGIN,023,5.805677514575741,-7.5516774800897055,-0.8840658112395928,1.3087868150740944,0.2623687135542561,-0.17425736321353766,-2.5235497354845466,1.3380212279586805,3
487,2024-09-28 17:01:27.333753088,TASK_BEGIN,023,5.885431548098295,-7.640572618796902,-0.7688398015952329,1.270163696694864,0.22410545711842156,-0.16198473713364722,-2.591934684138542,1.3445546370936865,3
488,2024-09-28 17:01:27.409320192,TASK_BEGIN,023,5.9856768704948236,-7.748079647106276,-0.674005723573026,1.2460948575511126,0.18658675086072685,-0.14954185168463086,-2.5934366289327446,1.3407556186317457,3
489,2024-09-28 17:01:27.477127936,TASK_BEGIN,023,6.104288771034734,-7.87189048481723,-0.6059557387302399,1.2368639875506833,0.1516745720539641,-0.13747379336856944,-2.5298185956395574,1.3265956569818185,3
490,2024-09-28 17:01:27.544788992,TASK_BEGIN,023,6.2384174413824764,-8.009006243981535,-0.5696493551793015,1.242189104918506,0.12121091956206735,-0.12633368585964277,-2.406693315975862,1.3022396883071479,3
491,2024-09-28 17:01:28.487317248,TASK_BEGIN,023,6.384682661411185,-8.155976748867047,-0.5681341000989282,1.2613059633622155,0.09684068560544609,-0.11662481492119661,-2.2326411663346026,1.2679895590529338,3
492,2024-09-28 17:01:28.552673024,TASK_BEGIN,023,6.5393817659040465,-8.309118433881324,-0.6023675200446091,1.2931148896291271,0.07984428950685593,-0.10874338507573614,-2.0184504929244116,1.2242873709570257,3
493,2024-09-28 17:01:28.622889216,TASK_BEGIN,023,6.698672606917111,-8.46469752744713,-0.6712323229179817,1.336330294558636,0.07098684498956352,-0.10292838922993014,-1.7764028241920577,1.171722104822245,3
494,2024-09-28 17:01:28.690632192,TASK_BEGIN,023,6.858713104371787,-8.619072063318766,-0.771832278928332,1.3896129993713093,0.07041897844836728,-0.099224859193684,-1.5194445534310792,1.1110226164656314,3
495,2024-09-28 17:01:28.752521984,TASK_BEGIN,023,7.015767543555919,-8.768794853745321,-0.9001914365656085,1.4516886609214799,0.07766037473000131,-0.09747076608392616,-1.2603322175240483,1.043077736679775,3
496,2024-09-28 17:01:28.814126080,TASK_BEGIN,023,7.16629125028838,-8.910681542947435,-1.0521985249163182,1.5214187539812754,0.0916540530011898,-0.09731598274012605,-1.010941314312846,0.9690101127180241,3
497,2024-09-28 17:01:28.893876992,TASK_BEGIN,023,7.306990142100093,-9.041849472720875,-1.22434024392078,1.5977713697739822,0.11086141539005774,-0.09826991811562495,-0.7818098822324582,0.8903029877431045,3
498,2024-09-28 17:01:29.837404928,TASK_BEGIN,023,7.4348474749912254,-9.159739815860242,-1.413812867954815,1.67968447811824,0.13339052540750965,-0.09976391643814031,-0.5819730841800382,0.8089690214868213,3
499,2024-09-28 17:01:29.905217792,TASK_BEGIN,023,7.547127140934527,-9.262140302343937,-1.6180234044909634,1.7658740030375428,0.15716436154933788,-0.10121538583941143,-0.41915458821019397,0.7277075973822227,3
500,2024-09-28 17:01:29.972728064,TASK_BEGIN,023,7.6413892869041105,-9.347222034525991,-1.833912974051447,1.854664187664099,0.1801313422838922,-0.10208835913371475,-0.30014364638975605,0.6499555604294058,3
501,2024-09-28 17:01:30.040615936,TASK_BEGIN,023,7.715554175935681,-9.413593254440721,-2.057552320250632,1.943906095811358,0.200500906760366,-0.10194866562285756,-0.2309826371005333,0.5797687853366885,3
502,2024-09-28 17:01:30.108371968,TASK_BEGIN,023,7.768012290585829,-9.460362504031448,-2.2841148864893643,2.0310075239447793,0.2169440944053151,-0.10050644672740697,-0.21676223216429732,0.5215480303625948,3
503,2024-09-28 17:01:30.174884096,TASK_BEGIN,023,7.797742712381753,-9.487197554397206,-2.508025547399966,2.1130402678878872,0.2286851192564934,-0.09763406908963677,-0.26111588884640996,0.47966104122905057,3
504,2024-09-28 17:01:30.243779072,TASK_BEGIN,023,7.804400169262353,-9.494362750781493,-2.7231013231251238,2.186877710461915,0.23547010959897668,-0.09335526981034187,-0.36561790272016137,0.4580046967529007,3
505,2024-09-28 17:01:31.186214912,TASK_BEGIN,023,7.78835172424241,-9.482717425731082,-2.922745970543194,2.2493754810348463,0.23746329078115014,-0.08781372054537578,-0.5292913045751855,0.4595596685474701,3
506,2024-09-28 17:01:31.255309056,TASK_BEGIN,023,7.750662375146476,-9.453668371252698,-3.10038372610697,2.297645487105126,0.23511744592567396,-0.08123190323113295,-0.7483512429927252,0.48601873861760636,3
507,2024-09-28 17:01:31.322137088,TASK_BEGIN,023,7.693041229008515,-9.409086654054036,-3.2501563530172195,2.329401714395653,0.2290379625254317,-0.07386856281423447,-1.0161357897981897,0.5375508750552425,3
508,2024-09-28 17:01:31.386947072,TASK_BEGIN,023,7.61777123719708,-9.351208022814246,-3.3676706925337387,2.3432617022947846,0.21986174484869947,-0.0659836299520105,-1.3231313271532574,0.6127038780791835,3
509,2024-09-28 17:01:31.458554880,TASK_BEGIN,023,7.527640002683633,-9.282530192559653,-3.450530145913669,2.338900563110262,0.20817463954844415,-0.05781759495387349,-1.6570969093620753,0.7084196176040781,3
510,2024-09-28 17:01:31.526070016,TASK_BEGIN,023,7.425860613508273,-9.205710354991039,-3.4985463170522832,2.3170514975307857,0.1944712490827425,-0.04958489598119621,-2.0033039732666706,0.8201572312222178,3
511,2024-09-28 17:01:31.588503040,TASK_BEGIN,023,7.315951753056979,-9.123461386083859,-3.513717327728141,2.279409508001175,0.17915235721880007,-0.04147596847583944,-2.3449484166539394,0.9421484659445499,3
512,2024-09-28 17:01:32.512525824,TASK_BEGIN,023,7.20156099269744,-9.038444724730414,-3.5000375618539437,2.228473239564095,0.16256329806034653,-0.03366188028953336,-2.663934702179274,1.0677932710433387,3
513,2024-09-28 17:01:32.570988032,TASK_BEGIN,023,7.086253374766844,-8.95316305537531,-3.4630515268017015,2.167315743516385,0.14506691753610892,-0.026296296856537626,-2.9421503204966433,1.1901540872812608,3
514,2024-09-28 17:01:32.632988160,TASK_BEGIN,023,6.973319587114236,-8.869864063480705,-3.409141125282588,2.099293065407704,0.1271112190084599,-0.019511796324496802,-3.1630257371924335,1.3024822359363217,3
515,2024-09-28 17:01:32.715836928,TASK_BEGIN,023,6.865655918351522,-8.790467895653272,-3.3447994181168625,2.0277572442003375,0.10923239587918071,-0.013407129420406649,-3.3130152642053385,1.3987229795398648,3
516,2024-09-28 17:01:32.772028160,TASK_BEGIN,023,6.765725518824396,-8.716523174529513,-3.2761411734467822,1.9558354309966832,0.09196614944107898,-0.008020635404548901,-3.3827919903479606,1.4739778336422702,3
517,2024-09-28 17:01:32.850635008,TASK_BEGIN,023,6.675560740345227,-8.64918623358672,-3.2086181514494743,1.886277425799458,0.0757058763292514,-0.003294575828316401,-3.368136720079718,1.5249095543276379,3
518,2024-09-28 17:01:32.919034880,TASK_BEGIN,023,6.596757964728442,-8.589213618116348,-3.146799367218481,1.8213675109955993,0.06058780289207702,0.0009477850734952597,-3.2704451113122794,1.550019654846408,3
519,2024-09-28 17:01:33.859898112,TASK_BEGIN,023,6.530449041247478,-8.536961724710036,-3.0942086348203346,1.7629329081813567,0.046474151410263544,0.004988342841712508,-3.0966939273172787,1.5497089346741322,3
520,2024-09-28 17:01:33.930458880,TASK_BEGIN,023,6.477259516109545,-8.492394244056062,-3.0532407458281097,1.7124524765064864,0.03305726808875443,0.00915999249986888,-2.858859363290664,1.5261262568620786,3
521,2024-09-28 17:01:33.983753984,TASK_BEGIN,023,6.437266896057724,-8.455101248787447,-3.0250682264249984,1.6711805893455163,0.02004212432573748,0.013772239285048187,-2.5729209900302266,1.482879179707538,3
522,2024-09-28 17:01:34.061430016,TASK_BEGIN,023,6.409978591902538,-8.424333347761722,-3.0094649335673935,1.6401679888949368,0.00732603427876275,0.019042770472532472,-2.25754634161664,1.424647046815583,3
523,2024-09-28 17:01:34.133652224,TASK_BEGIN,023,6.3943597668421415,-8.399053698637509,-3.0046129668703707,1.620132022049596,-0.0048849291285287194,0.0250498685052936,-1.9325585498147309,1.3567352236804908,3
524,2024-09-28 17:01:34.201395968,TASK_BEGIN,023,6.388926010803212,-8.378009493439752,-3.0070030136234203,1.6112325334762754,-0.016043546868195247,0.03170961259876273,-1.6173735131463478,1.2846547271232038,3
525,2024-09-28 17:01:34.269119232,TASK_BEGIN,023,6.39187342895072,-8.359818298770314,-3.0114990490299154,1.612869256083502,-0.02531785259522793,0.03878204321975693,-1.329571149406569,1.213767300319444,3
526,2024-09-28 17:01:35.171090944,TASK_BEGIN,023,6.401191987063347,-8.34305481018743,-3.011653721750097,1.623611508334152,-0.03172384832442101,0.04591012511627605,-1.0836667455645128,1.1489350935189508,3
527,2024-09-28 17:01:35.248275200,TASK_BEGIN,023,6.414737308307658,-8.326323419129812,-3.0003066419748987,1.6412964206181804,-0.03429390331803852,0.05268392986147223,-0.8901263664718843,1.09413187501794,3
528,2024-09-28 17:01:35.310362112,TASK_BEGIN,023,6.430296979215638,-8.308317206586505,-2.970303646170088,1.6632279265997798,-0.03223698841222286,0.05871135369735507,-0.7547115177363402,1.0520865529011574,3
529,2024-09-28 17:01:35.389805056,TASK_BEGIN,023,6.445698865145281,-8.287876309680097,-2.915115733629517,1.6863794098911997,-0.025068141255344602,0.06367757010993311,-0.6782521576306704,1.0240617858676484,3
530,2024-09-28 17:01:35.451340800,TASK_BEGIN,023,6.458955215415582,-8.264052793222747,-2.829318968310725,1.7075692115320085,-0.01269571011910704,0.06738127361603319,-0.65692016061353,1.0098044481710262,3
531,2024-09-28 17:01:35.511177984,TASK_BEGIN,023,6.46840113130698,-8.236177921231857,-2.7090425167962553,1.7236425455373885,0.004554054649942642,0.06973938305147907,-0.6830017491430355,1.0076598465641353,3
532,2024-09-28 17:01:35.593035008,TASK_BEGIN,023,6.47280869758678,-8.20392608339297,-2.552434214726647,1.7316902352668624,0.025997401138054772,0.0707612439307767,-0.7460574079987672,1.0148375572793635,3
533,2024-09-28 17:01:36.536560128,TASK_BEGIN,023,6.471483019784996,-8.167371400187262,-2.3600807256487615,1.7292884522379222,0.05072563627914272,0.07050968566848059,-0.8342654514889883,1.0277895762338882,3
534,2024-09-28 17:01:36.604363008,TASK_BEGIN,023,6.46433919290967,-8.127028085201387,-2.1352944260398408,1.7147112898342012,0.07775792688778638,0.06907027053440032,-0.935723530579233,1.0426365509571551,3
535,2024-09-28 17:01:36.671681024,TASK_BEGIN,023,6.451944408839863,-8.083857896088876,-1.884170116428174,1.6870696486304986,0.10617476012687793,0.06653432932588207,-1.0395590391215404,1.0556140320150107,3
536,2024-09-28 17:01:36.739860224,TASK_BEGIN,023,6.435502959073543,-8.03922787045898,-1.6152593372137865,1.6463416273663651,0.13522267673630473,0.06298804420539648,-1.1367923078139759,1.063533445513811,3
537,2024-09-28 17:01:36.807643904,TASK_BEGIN,023,6.4167612979498765,-7.994811164560932,-1.338767447452811,1.5932841631716896,0.16437898190342065,0.0585036294058078,-1.22090473476109,1.064195478765576,3
538,2024-09-28 17:01:36.875407104,TASK_BEGIN,023,6.397821835231146,-7.9524352916665215,-1.065453303059051,1.5292688885990755,0.19335802461290583,0.053136707016023924,-1.2880644644319643,1.0566576348538477,3
539,2024-09-28 17:01:36.942347776,TASK_BEGIN,023,6.380876000683331,-7.913888668386347,-0.8056305585050183,1.4561145507852291,0.2220510507613363,0.04693324690579806,-1.3370347507176559,1.041308999874857,3
540,2024-09-28 17:01:37.886654976,TASK_BEGIN,023,6.367888844415225,-7.8807018786675975,-0.56851876430111,1.3759481268340958,0.25040857021950447,0.03994185035721139,-1.3688466961890948,1.0197583162272281,3
541,2024-09-28 17:01:37.954468096,TASK_BEGIN,023,6.3602866186929665,-7.8539284716756015,-0.361850471818572,1.2910816222278851,0.2782938217335214,0.03222213879651556,-1.3862964824585275,0.9945507013719811,3
542,2024-09-28 17:01:38.008227072,TASK_BEGIN,023,6.358704128157762,-7.833954419258812,-0.1915486480053234,1.2039032146706703,0.3053530681976334,0.023844648524548626,-1.3932996438072531,0.9687532187691826,3
543,2024-09-28 17:01:38.089950208,TASK_BEGIN,023,6.362832318070988,-7.820360477910693,-0.0614943487949589,1.116800927763934,0.33095342058839533,0.014886181119873608,-1.3941666245790172,0.9454977538471807,3
544,2024-09-28 17:01:38.148673024,TASK_BEGIN,023,6.371381281653508,-7.811851189085702,0.02645264390395624,1.0321139954148248,0.3542185981156986,0.005426612225000681,-1.3929051940829014,0.9275754848649415,3
545,2024-09-28 17:01:38.210767104,TASK_BEGIN,023,6.3821440980690305,-7.806253759170361,0.0721396554021797,0.952083717677397,0.3741479978856165,-0.004451573326396555,-1.3926149105917678,0.9171344191682079,3
546,2024-09-28 17:01:38.293188096,TASK_BEGIN,023,6.39212236933445,-7.800586776967624,0.07668803365693652,0.878796061028443,0.3897722152836946,-0.014665089360113558,-1.3949543488632317,0.915485394158668,3
547,2024-09-28 17:01:39.236731904,TASK_BEGIN,023,6.397683558904973,-7.7912005415169645,0.04217321650243231,0.8141440931559771,0.4003037584159168,-0.02513718605552302,-1.3997011955988878,0.9229957580214972,3
548,2024-09-28 17:01:39.304569088,TASK_BEGIN,023,6.394756257792347,-7.773987106849304,-0.028518771783401765,0.7598510616870441,0.40525652799211404,-0.03580841240864657,-1.404588877918054,0.9390610020724302,3
549,2024-09-28 17:01:39.372334080,TASK_BEGIN,023,6.379087634558943,-7.744652317406301,-0.13179004134755992,0.7175662045971262,0.4045124695362299,-0.046643646774863844,-1.4056140369080266,0.9621748504322195,3
550,2024-09-28 17:01:39.439612928,TASK_BEGIN,023,6.34657120931234,-7.699040740903394,-0.2634843789389127,0.6889793603151071,0.39832933711307245,-0.057631291094234635,-1.397751842402637,0.9901080942085059,3
551,2024-09-28 17:01:39.507847936,TASK_BEGIN,023,6.293624512742234,-7.633497972891496,-0.41904276740528484,0.6758637914484463,0.38730073213453137,-0.06877505046129462,-1.3757729967137766,1.020156511717127,3
552,2024-09-28 17:01:39.575217152,TASK_BEGIN,023,6.217572273138536,-7.545239614898779,-0.5935985508906974,0.6799994695659732,0.3722749997487569,-0.08007753303202032,-1.334872774648316,1.0493839867209187,3
553,2024-09-28 17:01:39.642818816,TASK_BEGIN,023,6.116977077382872,-7.4326863061201385,-0.7820300806451973,0.702995079649555,0.35424132827533755,-0.09151576841599346,-1.2710257733123007,1.0748041444683698,3
554,2024-09-28 17:01:40.586795264,TASK_BEGIN,023,5.991869587413156,-7.295727371555259,-0.979008976105251,0.7460486218938943,0.33421589127889834,-0.10301721342617337,-1.1811809046356472,1.0935161615588709,3
555,2024-09-28 17:01:40.654618880,TASK_BEGIN,023,5.843861205835109,-7.135882962362951,-1.1790607559847974,0.8096677421110345,0.31317004368550516,-0.11444989710444277,-1.0634628333082539,1.1028689685556898,3
556,2024-09-28 17:01:40.722394112,TASK_BEGIN,023,5.676138379314961,-6.956336521748478,-1.3766304420721296,0.8933552132641325,0.29201575693692755,-0.12563174789707138,-0.9174464105877179,1.1006978986377576,3
557,2024-09-28 17:01:40.790204160,TASK_BEGIN,023,5.493330859413982,-6.761814582207027,-1.5661508902055086,0.995300578653341,0.2716238773978268,-0.13634860809841892,-0.7444629040237286,1.085607532234342,3
558,2024-09-28 17:01:40.857914112,TASK_BEGIN,023,5.301245522242416,-6.5583140402953575,-1.7421617017076698,1.1121959416797116,0.25282855665825127,-0.14636298770572417,-0.5478186456224797,1.0572310641925922,3
559,2024-09-28 17:01:40.925678848,TASK_BEGIN,023,5.1064763427173,-6.352708412237221,-1.8995650423170007,1.2393140586215283,0.23638224302925132,-0.15540234716915136,-0.33274064265888686,1.0163766022282246,3
560,2024-09-28 17:01:40.993389824,TASK_BEGIN,023,4.915935183918057,-6.152280893788854,-2.034055436778787,1.3708848380455851,0.22286825733079257,-0.16313310726129393,-0.10593066433924113,0.9649917069804858,3
561,2024-09-28 17:01:41.937842944,TASK_BEGIN,023,4.736378645323838,-5.96423242826693,-2.1426060646844456,1.5006570708578768,0.2126188239462124,-0.1691437151191226,0.12518223220541067,0.9059503951100186,3
562,2024-09-28 17:01:42.001336064,TASK_BEGIN,023,4.574000142563142,-5.795212602859192,-2.223782441062963,1.6224743963615595,0.20567729054683795,-0.1729589433318086,0.353230401699994,0.8427388915846955,3
563,2024-09-28 17:01:42.072398848,TASK_BEGIN,023,4.434113725221255,-5.650919952346634,-2.2777308146240003,1.7307612723539516,0.20179813278959133,-0.1740857304972578,0.5714827861381637,0.7791305531551403,3
564,2024-09-28 17:01:42.125905920,TASK_BEGIN,023,4.32091977102976,-5.535802920285011,-2.305843383892177,1.8208990229552136,0.20046244346818545,-0.1720725320492266,0.7741722318175558,0.7188840057562063,3
565,2024-09-28 17:01:42.208892160,TASK_BEGIN,023,4.237339011223468,-5.452866651601316,-2.310219831328124,1.8894911880734035,0.20090907683533907,-0.16656720196146085,0.9567367630581747,0.6654479681047728,3
566,2024-09-28 17:01:42.276250880,TASK_BEGIN,023,4.184909966137637,-5.403571819168843,-2.293154453709918,1.934507570744389,0.20220052965554278,-0.1573710549229309,1.1159845676868865,0.6216968601392225,3
567,2024-09-28 17:01:42.344395008,TASK_BEGIN,023,4.163738838185487,-5.387802909195519,-2.256906003030349,1.955309191086033,0.20333756027597905,-0.14448928116565896,1.249968678110345,0.5897677324529857,3
568,2024-09-28 17:01:43.286948864,TASK_BEGIN,023,4.172484170185592,-5.403880397756373,-2.2038281859022013,1.952578884938175,0.20340889556353095,-0.128168818419082,1.357530715570833,0.5710030926598955,3
569,2024-09-28 17:01:43.354721280,TASK_BEGIN,023,4.208376262309139,-5.448601133759794,-2.1366628755336037,1.9281816295230656,0.20173362152077096,-0.10891021239186284,1.437787683899893,0.5659147854808848,3
570,2024-09-28 17:01:43.422509056,TASK_BEGIN,023,4.2672908592131815,-5.517310710259952,-2.0586975856004273,1.8849547892495713,0.19795786739203042,-0.08745008936176825,1.4898302917500623,0.5741065230260735,3
571,2024-09-28 17:01:43.490263040,TASK_BEGIN,023,4.34388542173041,-5.604019383241966,-1.9736345978146181,1.8264101137933832,0.19209250615676324,-0.06472035596417954,1.5126923795345113,0.5941905257614046,3
572,2024-09-28 17:01:43.558015232,TASK_BEGIN,023,4.431787380952369,-5.701565065755991,-1.8852064033763092,1.756350580835578,0.18448583668343113,-0.041785004312025184,1.5054856291260894,0.6238060103004363,3
573,2024-09-28 17:01:43.625630976,TASK_BEGIN,023,4.523825304197656,-5.801819738474316,-1.7966565506587229,1.6784687879511706,0.1757303814229388,-0.019752527616250636,1.467489028672445,0.6598452487650319,3
574,2024-09-28 17:01:43.692846848,TASK_BEGIN,023,4.612294608361058,-5.895936207621847,-1.7102505026403643,1.5960329498146126,0.16653375218153652,0.0003244203274024018,1.3980888425543616,0.6988851524619049,3
575,2024-09-28 17:01:44.613569024,TASK_BEGIN,023,4.689239869687569,-5.974635730801189,-1.626991023506344,1.5117104728746185,0.1576034062085643,0.01753741389135031,1.2968043721052434,0.7376749100667738,3
576,2024-09-28 17:01:44.681337856,TASK_BEGIN,023,4.7467399214685555,-6.02853819390133,-1.546603817882804,1.4274828262588957,0.14957101994575606,0.03117797149241988,1.163714009787478,0.7735113603652594,3
577,2024-09-28 17:01:44.749105920,TASK_BEGIN,023,4.777196038667605,-6.048532383793683,-1.4677577202661634,1.3445990179603287,0.14294358728584317,0.04075641884917621,1.0002086031795936,0.8044412703499122,3
