,time,MARKER,pid,L_O_DSI,L_D_DSI,L_O_DSphi,L_D_DSphi,R_O_DSI,R_D_DSI,R_O_DSphi,R_D_DSphi,trial_id
0,2024-09-28 16:37:39.835108096,TASK_BEGIN,023,-0.06860878410531022,-0.0564666575213259,0.6307876125902414,-1.1762841176856662,0.47483597315096626,-0.23949466539394176,-5.239718175859967,1.7454896049821955,0
1,2024-09-28 16:37:39.898115072,TASK_BEGIN,023,0.16304788221692443,-0.12089776833370001,-0.11673026567441891,-0.9289001904286532,0.3514931777237954,-0.25347123482699707,-6.5523088047393765,2.062037994611806,0
2,2024-09-28 16:37:39.970629888,TASK_BEGIN,023,0.38787873594250005,-0.18402053884431563,-0.8367459970106833,-0.6912274702644868,0.23391432096869877,-0.2680636712279646,-7.831296946644507,2.3713543342682417,0
3,2024-09-28 16:37:40.038362112,TASK_BEGIN,023,0.6004442842130507,-0.24483718037919777,-1.5104064270301503,-0.46940438415092733,0.12733065262536436,-0.28364767626831067,-9.050020975176796,2.666542127163939,0
4,2024-09-28 16:37:40.106084864,TASK_BEGIN,023,0.7962988573750959,-0.30253154039126323,-2.1227466054079174,-0.2681624343849108,0.03619940021083478,-0.30047509357335056,-10.185809491810216,2.941282161855255,0
5,2024-09-28 16:37:40.173818112,TASK_BEGIN,023,0.9722203486255839,-0.35650209140734107,-2.663321736812155,-0.09062009070662884,-0.036116444824214486,-0.31862075525604744,-11.220776136392294,3.1900163923973768,0
6,2024-09-28 16:37:40.241552128,TASK_BEGIN,023,1.1262730588569105,-0.40636193950126925,-3.1261077685020413,0.06164309074699086,-0.08758192722666465,-0.3379422951335501,-12.14212795602813,3.40810140395731,0
7,2024-09-28 16:37:41.184310016,TASK_BEGIN,023,1.2577622828959938,-0.4519193757557838,-3.509000893331765,0.1883539216676759,-0.11760821870853327,-0.35806401900994256,-12.94225253302109,3.592003607009749,0
8,2024-09-28 16:37:41.252985088,TASK_BEGIN,023,1.3671275866455939,-0.4931489867849703,-3.81317273910948,0.2902765403552902,-0.12704200596526513,-0.3783962521953186,-13.618682772459673,3.739572784940838,0
9,2024-09-28 16:37:41.320772864,TASK_BEGIN,023,1.4557812035794586,-0.5301527714170549,-4.042318251144115,0.3689596047187499,-0.11805205502182342,-0.3981907606842684,-14.173873939684093,3.850331093311118,0
10,2024-09-28 16:37:41.381616128,TASK_BEGIN,023,1.5258846027309383,-0.5631109519513323,-4.201833387561085,0.42651662109239513,-0.0939322946852946,-0.41662279551544507,-14.61456874593305,3.9256174185073016,0
11,2024-09-28 16:37:41.443617280,TASK_BEGIN,023,1.5800636295452646,-0.5922304005886728,-4.29810603207971,0.46545292215907197,-0.05881684660446155,-0.43288337632528756,-14.95057275975535,3.968453444028209,0
12,2024-09-28 16:37:41.521052928,TASK_BEGIN,023,1.6210773794427835,-0.6176992705751149,-4.338026049023435,0.48850611687810924,-0.017325716431240108,-0.4462574819065423,-15.193107468517498,3.983153176252409,0
13,2024-09-28 16:37:41.591881216,TASK_BEGIN,023,1.6514850140695176,-0.6396537915335817,-4.3286447636976915,0.49844790179395454,0.025809158437554453,-0.45616869354223083,-15.353327384827576,3.97484007501984,0
14,2024-09-28 16:37:42.535154944,TASK_BEGIN,023,1.6733762608526683,-0.6581639780891748,-4.276949437156642,0.4978804804669036,0.06609509027919475,-0.4621932211851588,-15.441672319706665,3.949043413336744,0
15,2024-09-28 16:37:42.595215104,TASK_BEGIN,023,1.6882143853031661,-0.6732396658555594,-4.189819411605718,0.48912170803795046,0.09956504404237897,-0.4640577506744172,-15.468245237653923,3.9114266891825014,0
16,2024-09-28 16:37:42.656269056,TASK_BEGIN,023,1.6968048877889639,-0.684850264656246,-4.074162070581813,0.47421467055588756,0.12294593257762208,-0.4616254630097006,-15.44377357471351,3.8675816264870875,0
17,2024-09-28 16:37:42.733926912,TASK_BEGIN,023,1.6993788274543664,-0.6929542517997276,-3.9370858190640674,0.4550158646597256,0.13369523806600828,-0.4548685805378968,-15.38048306253465,3.822801092901514,0
18,2024-09-28 16:37:42.795521024,TASK_BEGIN,023,1.6957610956882345,-0.6975382172507736,-3.785969385768864,0.43329455079305185,0.12996772908769286,-0.4438356292640781,-15.29232186076727,3.7817863018263833,0
19,2024-09-28 16:37:42.874237952,TASK_BEGIN,023,1.6855785906425937,-0.698657975388742,-3.628370705722759,0.41078319538524954,0.1105990095873108,-0.42863176657982044,-15.19422800792776,3.748301211013066,0
20,2024-09-28 16:37:42.934790912,TASK_BEGIN,023,1.668460704038255,-0.6964663567252845,-3.471674577073381,0.3891205728496589,0.07514041194471906,-0.4094265988367465,-15.100592882095064,3.7248702970723397,0
21,2024-09-28 16:37:43.861673984,TASK_BEGIN,023,1.6441918849238202,-0.6912155048368299,-3.3223650345985103,0.36966153347955155,0.023915227570888004,-0.38648710437848466,-15.023513610435545,3.712656370173751,0
22,2024-09-28 16:37:43.929509120,TASK_BEGIN,023,1.6127931374216418,-0.6832338529720425,-3.1850834196624365,0.35322644896690847,-0.04193831941717325,-0.3602196009619308,-14.971449239224064,3.7115657894424032,0
23,2024-09-28 16:37:43.997308160,TASK_BEGIN,023,1.5745390799703824,-0.6728903217430071,-3.0618965141430015,0.3399479631661441,-0.12044725502511068,-0.3312042912367257,-14.948555259944037,3.720498142723983,0
24,2024-09-28 16:37:44.065054976,TASK_BEGIN,023,1.5299353628404264,-0.660561214616145,-2.952089246445137,0.3293291393546114,-0.20884084231126596,-0.30020857592253436,-14.954662857604603,3.737635076041449,0
25,2024-09-28 16:37:44.132181760,TASK_BEGIN,023,1.4796689669034566,-0.6466078929929245,-2.852559540663568,0.320496802911814,-0.3037081123078124,-0.26816633992627154,-14.985748580410359,3.760724177881425,0
26,2024-09-28 16:37:44.195907328,TASK_BEGIN,023,1.4245275457386806,-0.6313621486964486,-2.7587773444767754,0.31253835767941407,-0.4012929568403719,-0.23611864647390524,-15.034687106082902,3.7873335800783146,0
27,2024-09-28 16:37:44.268419072,TASK_BEGIN,023,1.3652890344499848,-0.6151091401411047,-2.6660695382051127,0.3047818830292371,-0.49787218051345367,-0.20512339114265038,-15.092107789807141,3.815025611881638,0
28,2024-09-28 16:37:45.211703040,TASK_BEGIN,023,1.3026001084249086,-0.5980619051090457,-2.5707427760452157,0.29691177700861243,-0.5901407281306508,-0.17614864848838485,-15.14734559593185,3.8414205091768174,0
29,2024-09-28 16:37:45.279507968,TASK_BEGIN,023,1.2368822520184917,-0.58033474878428,-2.470688647696266,0.28890681549867536,-0.6755293596898241,-0.1499690258667191,-15.18954784124989,3.8641966438801147,0
30,2024-09-28 16:37:45.347312896,TASK_BEGIN,023,1.1683268871487582,-0.5619345905071733,-2.365552361917519,0.2808850697202646,-0.7523861395608621,-0.12708767082930747,-15.208824353194636,3.8811183380604373,0
31,2024-09-28 16:37:45.414515200,TASK_BEGIN,023,1.0970291852655134,-0.5427884645309257,-2.2566970711685608,0.2729656538904961,-0.8199985138390556,-0.10770376303146256,-15.19722057473249,3.890173356913401,0
32,2024-09-28 16:37:45.482812928,TASK_BEGIN,023,1.0232207234034958,-0.5228055198928862,-2.1469803941623833,0.2652101481787532,-0.8784884616220978,-0.09173375802303511,-15.149400307916196,3.8898403843781115,0
33,2024-09-28 16:37:45.550550016,TASK_BEGIN,023,0.9474622091143421,-0.5019459345164479,-2.0402507678034194,0.25763993706535027,-0.9286161715118892,-0.07887848662305458,-15.06299179767274,3.8793990727097905,0
34,2024-09-28 16:37:45.618308096,TASK_BEGIN,023,0.8706792112907666,-0.48026479576994013,-1.9406401140603187,0.2502948530774206,-0.9715145738666422,-0.06871425137743985,-14.93855218976767,3.8591407511679683,0
35,2024-09-28 16:37:46.528071168,TASK_BEGIN,023,0.7940571208995046,-0.4579232537791869,-1.851884222570694,0.24331012967833296,-1.0084121199819296,-0.06077907117203652,-14.77919471555231,3.8303966462106263,0
36,2024-09-28 16:37:46.605053952,TASK_BEGIN,023,0.718905049736402,-0.4351839046491837,-1.7768083065312923,0.23698339831962556,-1.0404207433490709,-0.05463422903473703,-14.589973767145192,3.795376217149601,0
37,2024-09-28 16:37:46.672882176,TASK_BEGIN,023,0.6465669125536954,-0.412404181872263,-1.7168933199483436,0.2317653549136193,-1.068406989451355,-0.049903207098782355,-14.377072952305406,3.7568318232010465,0
38,2024-09-28 16:37:46.729799168,TASK_BEGIN,023,0.5783730899354197,-0.39002238175363846,-1.6718196518811799,0.2281273995870828,-1.092926639830123,-0.04629625627824917,-14.146866446851268,3.7175903830263057,0
39,2024-09-28 16:37:46.808422144,TASK_BEGIN,023,0.5155935153528198,-0.36852749461956696,-1.6391500048444774,0.22636056708634839,-1.1142471710346789,-0.04361527955166242,-13.905017222988656,3.6800502409345253,0
40,2024-09-28 16:37:46.869008128,TASK_BEGIN,023,0.4593852685330233,-0.34841794059563413,-1.6144980233034554,0.22641575710953366,-1.1324884738027892,-0.0417337430226981,-13.655757716440073,3.6457716940862057,0
41,2024-09-28 16:37:46.943887872,TASK_BEGIN,023,0.41076174447222796,-0.3301633025785178,-1.5923234551092087,0.22784717397345314,-1.1478217106490962,-0.04056541519475069,-13.401401417911604,3.615248471307992,0
42,2024-09-28 16:37:47.886805248,TASK_BEGIN,023,0.3706019507257394,-0.3141780221709357,-1.5670755240919423,0.2298548273708612,-1.160594958469254,-0.04004586314867302,-13.142204133770488,3.587899456658415,0
43,2024-09-28 16:37:47.943686144,TASK_BEGIN,023,0.33968276241475787,-0.3008051761586839,-1.5342243534378193,0.2313944614024597,-1.1713001276440096,-0.04013784804448326,-12.87682032912014,3.5622882848556587,0
44,2024-09-28 16:37:48.022248960,TASK_BEGIN,023,0.3186950558893004,-0.29030471428135074,-1.4909234951232713,0.23132254666571442,-1.1804160925453528,-0.04084778948349125,-12.603317579660596,3.5364866363592924,0
45,2024-09-28 16:37:48.090139904,TASK_BEGIN,023,0.30821216208797436,-0.282845077842712,-1.4362892861894825,0.22854814337886145,-1.1882421064970963,-0.04223021584566269,-12.320241990621401,3.508421925715882,0
46,2024-09-28 16:37:48.145355008,TASK_BEGIN,023,0.30860251430182756,-0.27849844619123987,-1.3713330918644724,0.22215356301866185,-1.1948218121903378,-0.04437074249738897,-12.027280752605716,3.476134291091315,0
47,2024-09-28 16:37:48.222542848,TASK_BEGIN,023,0.31990992459222584,-0.27723813125284835,-1.2985933877612226,0.21144248132492194,-1.1999995345327026,-0.04735575336358821,-11.725512416112547,3.437994788818003,0
48,2024-09-28 16:37:48.293481216,TASK_BEGIN,023,0.34175237988723,-0.27893884768178945,-1.2215834083336292,0.19591308637430951,-1.2035873239609494,-0.05124015963576682,-11.417490074891019,3.3929478923249223,0
49,2024-09-28 16:37:49.236897024,TASK_BEGIN,023,0.3732847209055872,-0.2833816613393903,-1.144253546824767,0.17521758386654376,-1.2055630135624655,-0.056019640437661125,-11.107397338332078,3.340786577690145,0
50,2024-09-28 16:37:49.291386112,TASK_BEGIN,023,0.4132374825342272,-0.2902631322655173,-1.0706675520381594,0.14919084418740974,-1.2061981557223838,-0.0616130339904249,-10.801295704596017,3.2823961754405393,0
51,2024-09-28 16:37:49.369023232,TASK_BEGIN,023,0.46002142507220734,-0.29920862255617525,-1.004848265193803,0.11795430118609448,-1.206046183644306,-0.06786176885403067,-10.507175054079223,3.219835770710549,0
52,2024-09-28 16:37:49.440200192,TASK_BEGIN,023,0.5118742212837566,-0.3097925154757536,-0.9504412745526997,0.08199619418536674,-1.20579487087634,-0.07454623191999633,-10.234603143433382,3.1561737914332153,0
53,2024-09-28 16:37:49.493506048,TASK_BEGIN,023,0.5670033353249999,-0.32156615011825407,-0.9099988055577541,0.04214535888574327,-1.2060738919988365,-0.08140861187775908,-9.994196653874917,3.095147247003843,0
54,2024-09-28 16:37:49.572055296,TASK_BEGIN,023,0.623675015076863,-0.3340864968881373,-0.8842499223438399,-0.0005180873281216994,-1.2073247399653475,-0.08817256182795875,-9.797186296150283,3.0407744802755694,0
55,2024-09-28 16:37:49.643361024,TASK_BEGIN,023,0.6802369954523473,-0.3469355798500164,-0.871908096745631,-0.04470745129818643,-1.2097595733790807,-0.09455916742000843,-9.65491137413189,2.9969591442517403,0
56,2024-09-28 16:37:50.580090112,TASK_BEGIN,023,0.7351059878577766,-0.35973007646870925,-0.8701020412414179,-0.08889757109331635,-1.213369360100878,-0.10030377562582177,-9.577858082592765,2.967058567083496,0
57,2024-09-28 16:37:50.654850048,TASK_BEGIN,023,0.7867629174893276,-0.3721319411070515,-0.875073803561303,-0.13129146848021553,-1.2179557412399458,-0.10517715747440556,-9.574224208508575,2.9534622133750155,0
58,2024-09-28 16:37:50.722632704,TASK_BEGIN,023,0.8337803499045846,-0.3838681076182018,-0.8828040276839892,-0.1698755595755686,-1.2231922724962956,-0.10900911630536836,-9.648515221884564,2.957314731513026,0
59,2024-09-28 16:37:50.780703232,TASK_BEGIN,023,0.874873783132325,-0.3947508433293047,-0.889406741975208,-0.20259273147032797,-1.2287142954165655,-0.1117073952259611,-9.800788766038561,2.9784913833211357,0
60,2024-09-28 16:37:50.858117120,TASK_BEGIN,023,0.9089447656852339,-0.4046792320487842,-0.891240882134538,-0.22760274175840353,-1.2342037120787996,-0.11326677712402346,-10.026837249447578,3.015818613762037,0
61,2024-09-28 16:37:50.919070976,TASK_BEGIN,023,0.9350902362808522,-0.41361318041815615,-0.8847888270431071,-0.24356001564442267,-1.2394309813535573,-0.11376826143599797,-10.319189422113602,3.067438575818728,0
62,2024-09-28 16:37:50.981103104,TASK_BEGIN,023,0.9525815735352311,-0.42153460804869247,-0.8665015246543587,-0.24981425250329345,-1.244265691530945,-0.11336914114729543,-10.66858274360975,3.1311999684088687,0
63,2024-09-28 16:37:51.937047040,TASK_BEGIN,023,0.960838817851627,-0.428417948482144,-0.8328605716788782,-0.2464544401049586,-1.2486881150602902,-0.11228900220713899,-11.06542025953811,3.2049661306094466,0
64,2024-09-28 16:37:52.004806912,TASK_BEGIN,023,0.959419968548656,-0.43421662092283647,-0.78072894512228,-0.23419792786507088,-1.2527793099328843,-0.1108038830947978,-11.500580741029763,3.286728546261778,0
65,2024-09-28 16:37:52.065572096,TASK_BEGIN,023,0.9480195757108594,-0.43885743877521355,-0.7078674628702467,-0.21421211591667694,-1.256635136962013,-0.10925267370243243,-11.965134418483135,3.3744725915164318,0
66,2024-09-28 16:37:52.128568064,TASK_BEGIN,023,0.9264556543604533,-0.44223692019053995,-0.6135300942987195,-0.18794795364840455,-1.2602028230335776,-0.10804040568446924,-12.449186124153028,3.4658835572287345,0
67,2024-09-28 16:37:52.208039168,TASK_BEGIN,023,0.8946365592277146,-0.4442202291324585,-0.4991498041174217,-0.1569944699994153,-1.2631021502825528,-0.10762184052207262,-12.940669903083508,3.5580957104993827,0
68,2024-09-28 16:37:52.275751936,TASK_BEGIN,023,0.852528082694183,-0.4446439278923589,-0.3690426308921835,-0.12293486578013385,-1.2645134379873355,-0.10846415093257666,-13.424930177812612,3.6476683720666436,0
69,2024-09-28 16:37:52.328845056,TASK_BEGIN,023,0.8001699659979408,-0.4433253518453791,-0.23081490612000294,-0.08720200830943586,-1.26319416202311,-0.11099569891626017,-13.885390895408978,3.7308181130411113,0
70,2024-09-28 16:37:53.286134016,TASK_BEGIN,023,0.737790700662918,-0.44008656699837334,-0.09498417486334708,-0.05096187744704963,-1.257621294112961,-0.11555131383238883,-14.304947881612508,3.8037795654086546,0
71,2024-09-28 16:37:53.353977088,TASK_BEGIN,023,0.6660088694057018,-0.4347959592998127,0.02645941241415628,-0.01507721480028833,-1.2461922079676675,-0.12232898196056151,-14.667457982066798,3.8631611045902874,0
72,2024-09-28 16:37:53.409536000,TASK_BEGIN,023,0.5860342040330967,-0.4274136209814037,0.1221493608474265,0.01983558429456341,-1.2274150592552662,-0.1313689519144479,-14.959013801999836,3.906265287995903,0
73,2024-09-28 16:37:53.486735104,TASK_BEGIN,023,0.4997780056090159,-0.4180197799244284,0.18313069564837559,0.05333426681995327,-1.2000638884122872,-0.142554301833394,-15.169088695888165,3.931386899840083,0
74,2024-09-28 16:37:53.549592064,TASK_BEGIN,023,0.40983576289906865,-0.40681926209046043,0.2036347177573574,0.08515868980072555,-1.1633103918795382,-0.15562269040625024,-15.291659100256338,3.938058763302344,0
75,2024-09-28 16:37:53.625036800,TASK_BEGIN,023,0.3193368390841004,-0.3941291427491092,0.18100465469019678,0.11530763095113551,-1.116845845192672,-0.17017914708160672,-15.326208635364004,3.9271965896698044,0
76,2024-09-28 16:37:53.692775936,TASK_BEGIN,023,0.23167549676278174,-0.3803567014381425,0.11541594896233688,0.14406469570623082,-1.060981070420005,-0.185707764221042,-15.278311248687166,3.901100872408195,0
77,2024-09-28 16:37:54.605799168,TASK_BEGIN,023,0.15018662597896007,-0.3659713704036412,0.00973494982677458,0.17188418490740862,-0.9966901080394194,-0.20158895042333064,-15.159341731044876,3.863253063214352,0
78,2024-09-28 16:37:54.666279936,TASK_BEGIN,023,0.07786759153491253,-0.3514769437336198,-0.1306260054253179,0.19918590309023523,-0.9255730662249312,-0.21713157809541614,-14.984995816628967,3.8178686689291226,0
79,2024-09-28 16:37:54.744355072,TASK_BEGIN,023,0.01722078923638201,-0.33739288882945656,-0.2981032463687384,0.22618317320573514,-0.8497549587336926,-0.23162093467334235,-14.77280667976936,3.7692895482275723,0
80,2024-09-28 16:37:54.805974784,TASK_BEGIN,023,-0.029778579046762333,-0.32424735869045734,-0.4836775213184986,0.25280817542468326,-0.7717671206780196,-0.24437036613951052,-14.539361245123223,3.721384159233439,0
81,2024-09-28 16:37:54.881854976,TASK_BEGIN,023,-0.06164408953608271,-0.31257170261813894,-0.6777267344098399,0.278706947675664,-0.6944386278547467,-0.2547628843736244,-14.298035301359318,3.677089365464176,0
82,2024-09-28 16:37:54.945771008,TASK_BEGIN,023,-0.07734536949451848,-0.3028798344263064,-0.8707813128091312,0.30324960409743346,-0.6207843706557289,-0.26228161115254456,-14.057705771512119,3.638147848463468,0
83,2024-09-28 16:37:55.011549184,TASK_BEGIN,023,-0.0763314992423851,-0.2956255438523186,-1.0539906976121964,0.3255385163404073,-0.5538622841649227,-0.2665401774250704,-13.822417185978017,3.6050357745731305,0
84,2024-09-28 16:37:55.956597248,TASK_BEGIN,023,-0.05859264320299879,-0.2911519247921848,-1.2194245910657318,0.34445880683505053,-0.4965869461342738,-0.26732113166930693,-13.591867068454556,3.5770437934670305,0
85,2024-09-28 16:37:56.018763264,TASK_BEGIN,023,-0.024694500141000972,-0.2896586368662114,-1.3605469834704567,0.3588364280078614,-0.4515171761727404,-0.26461206578230545,-13.362734954048467,3.5524940164907384,0
86,2024-09-28 16:37:56.081008896,TASK_BEGIN,023,0.02425020659856771,-0.29119899251708126,-1.4729357729853274,0.3677082645651428,-0.4206702830232173,-0.258615219780159,-13.130732364567054,3.529107957590168,0
87,2024-09-28 16:37:56.163507200,TASK_BEGIN,023,0.08664795079249732,-0.2956952967477217,-1.5549115884290328,0.3706177676358204,-0.4054099665473514,-0.24971577401267497,-12.892788437575113,3.5045021563516507,0
88,2024-09-28 16:37:56.220876032,TASK_BEGIN,023,0.16048544539297524,-0.3029545197693428,-1.6077191324403601,0.36780795695032126,-0.40639743167697173,-0.23841958210231537,-12.64858257699844,3.4767049921230373,0
89,2024-09-28 16:37:56.299365888,TASK_BEGIN,023,0.24337718235473463,-0.31267862254628104,-1.6351661854986834,0.3602087540693861,-0.4235611644497144,-0.22528953030511412,-12.400950631559486,3.4445583709611354,0
90,2024-09-28 16:37:56.367063040,TASK_BEGIN,023,0.3326341866541372,-0.3244756178174674,-1.6428059752715887,0.34919729097253716,-0.45606647446531723,-0.21090662779449762,-12.155336674492949,3.4079175802447836,0
91,2024-09-28 16:37:57.303591936,TASK_BEGIN,023,0.4253842676429072,-0.3378764944548494,-1.6368909626637664,0.3362428181304265,-0.5023057414208666,-0.19586138866194697,-11.918997503244208,3.3676498378264923,0
92,2024-09-28 16:37:57.365230848,TASK_BEGIN,023,0.5187210574679876,-0.3523545581976684,-1.6234788862400666,0.3226354414732155,-0.5599525504137561,-0.18076138613752468,-11.700551436440929,3.3254968250877237,0
93,2024-09-28 16:37:57.442472960,TASK_BEGIN,023,0.6098344816100036,-0.36734203182541086,-1.6079537549830747,0.30941413223160147,-0.6261105184201545,-0.1662332853119755,-11.509757051620525,3.283852860056866,0
94,2024-09-28 16:37:57.505148928,TASK_BEGIN,023,0.6961138062658924,-0.38224818049558507,-1.5948994031386934,0.2974427219906063,-0.6975384900522823,-0.1529021898199958,-11.356967622884543,3.245454812830333,0
95,2024-09-28 16:37:57.582765056,TASK_BEGIN,023,0.7752480062913377,-0.3964899064654582,-1.5881512218586573,0.2875229230920869,-0.7709000854160724,-0.14134912979191117,-11.25205120080782,3.213000802263094,0
96,2024-09-28 16:37:57.644841728,TASK_BEGIN,023,0.8453233172977197,-0.4095378688836389,-1.590952317199075,0.2804775615476885,-0.8429914388437356,-0.13206676476356036,-11.203108351840465,3.188797904818048,0
97,2024-09-28 16:37:57.707329024,TASK_BEGIN,023,0.9048767726858004,-0.4209666252790291,-1.6061545709591165,0.2771782129113749,-0.9109124094092627,-0.12543116258561912,-11.215316482718643,3.1745160775369268,0
98,2024-09-28 16:37:58.621729024,TASK_BEGIN,023,0.9528814829511845,-0.43049415144239694,-1.6363074724166864,0.2785054534806712,-0.9721685921888291,-0.1216891259463352,-11.289940525427186,3.171013992378906,0
99,2024-09-28 16:37:58.698970880,TASK_BEGIN,023,0.98870006712589,-0.4380076261878705,-1.6834931025860158,0.28523081833316033,-1.0247384293338961,-0.12095118068572434,-11.423628565111754,3.178219048108124,0
100,2024-09-28 16:37:58.761025024,TASK_BEGIN,023,1.0120550859168553,-0.4435794293323475,-1.7489254824903917,0.297807349577416,-1.0671611107574002,-0.12318386677911443,-11.608326819879323,3.1951415721853715,0
101,2024-09-28 16:37:58.839716096,TASK_BEGIN,023,1.0230231546171975,-0.44747163516054295,-1.8324162935951593,0.31608802110457446,-1.0986540463605359,-0.12820155053474971,-11.831894835451006,3.2200485986630447,0
102,2024-09-28 16:37:58.899800064,TASK_BEGIN,023,1.022037256613931,-0.45012439323599857,-1.9318252256130404,0.3390661834333418,-1.119199842931474,-0.1356667204370493,-12.079063604085825,3.2506848391869507,0
103,2024-09-28 16:37:58.961831936,TASK_BEGIN,023,1.0098817525686423,-0.4521272039635373,-2.0427144975039395,0.36477636508752953,-1.1295415731860843,-0.14511087710562784,-12.332380752151398,3.284415044282606,0
104,2024-09-28 16:37:59.043031040,TASK_BEGIN,023,0.9876542712683445,-0.45417346283596866,-2.1585147242052423,0.39045314990680585,-1.1310928303580445,-0.15597373853674532,-12.573055845155084,3.318250079439185,0
105,2024-09-28 16:37:59.981765120,TASK_BEGIN,023,0.9566842374971964,-0.4570023932280597,-2.27144126138382,0.4129545625372624,-1.1257999480752978,-0.1676435231131327,-12.781713541392621,3.3488019133267435,0
106,2024-09-28 16:38:00.044251904,TASK_BEGIN,023,0.9184455460758562,-0.4613404564022022,-2.3741003845179676,0.4293651896611927,-1.115955550951747,-0.17948913665365196,-12.939122810027442,3.3722778321083036,0
107,2024-09-28 16:38:00.106556928,TASK_BEGIN,023,0.8744905347541199,-0.4678511079130871,-2.4612512175067875,0.4376297229628865,-1.1039557177144548,-0.19089023811838915,-13.02718051010166,3.384656080932308,0
108,2024-09-28 16:38:00.185050112,TASK_BEGIN,023,0.8263674462703071,-0.47708735598867386,-2.5309788328110887,0.43704528586962865,-1.0920493909019802,-0.2012695944960149,-13.030417072691838,3.382105755958837,0
109,2024-09-28 16:38:00.257596928,TASK_BEGIN,023,0.7754925923348986,-0.4894403274007303,-2.5848512818796854,0.42845990414408636,-1.0821463320196982,-0.21012496154913884,-12.937806357792324,3.3615361787439095,0
110,2024-09-28 16:38:00.325325824,TASK_BEGIN,023,0.7230229888852479,-0.5050913286904365,-2.6271158118165943,0.414095154633293,-1.0756949936135733,-0.21705872318853342,-12.744234450358455,3.3210757121448706,0
111,2024-09-28 16:38:00.393080064,TASK_BEGIN,023,0.669793688016736,-0.5239809815014675,-2.6633087025234032,0.39705266444256093,-1.0736076058228057,-0.22180279275594472,-12.451244664851911,3.2603844199251664,0
112,2024-09-28 16:38:01.336556032,TASK_BEGIN,023,0.6163393300126138,-0.5458011756146007,-2.6988118549988545,0.38070736971336977,-1.0762378461379556,-0.22423044159720545,-12.067263305605367,3.1808140159502396,0
113,2024-09-28 16:38:01.393793280,TASK_BEGIN,023,0.5629763149148914,-0.5700068309426031,-2.737869195635657,0.36820255012111175,-1.0834417408798256,-0.22434856304356107,-11.607543938109847,3.085391356166753,0
114,2024-09-28 16:38:01.472123904,TASK_BEGIN,023,0.5099128724015508,-0.5958434155270317,-2.7833659656775454,0.36213762783878634,-1.0947332417570659,-0.22227369079401388,-11.093618059920818,2.9785511641697804,0
115,2024-09-28 16:38:01.532344064,TASK_BEGIN,023,0.4573761690030269,-0.6223932999216932,-2.837304928308844,0.3644082128894964,-1.1095053073228363,-0.21820104386913294,-10.551917319335647,2.8656281698761608,0
116,2024-09-28 16:38:01.607604992,TASK_BEGIN,023,0.4057543886312047,-0.6486479875329405,-2.901490996167834,0.3761065691348596,-1.127250917828506,-0.2123751833934276,-10.011598833338448,2.7522541791361093,0
117,2024-09-28 16:38:01.675371776,TASK_BEGIN,023,0.35571818943849787,-0.673599714286676,-2.9778283740072893,0.3974322704174831,-1.1477085194196521,-0.2050664450287603,-9.50195101389336,2.6438352553332742,0
118,2024-09-28 16:38:01.743127296,TASK_BEGIN,023,0.3082575521217824,-0.6963267970023189,-3.0679893182991833,0.4276436783348955,-1.1708939945328467,-0.19655201600184258,-9.0498381513146,2.545195984534504,0
119,2024-09-28 16:38:02.686763008,TASK_BEGIN,023,0.26459757225141894,-0.716049054860333,-3.1726488820744834,0.46509934279834675,-1.1970407356336314,-0.1870990907823765,-8.677592058943437,2.4603777295479787,0
120,2024-09-28 16:38:02.754357248,TASK_BEGIN,023,0.22600612151079247,-0.732147265760282,-3.290752304134323,0.5073940938309472,-1.2264930127992193,-0.17695096972695665,-8.401673807532255,2.392550702695162,0
121,2024-09-28 16:38:02.821492992,TASK_BEGIN,023,0.1935365354897885,-0.7441526634973934,-3.419311650103527,0.5515674814015675,-1.2595741948759964,-0.16632161992341357,-8.23234314952072,2.3440329237202557,0
122,2024-09-28 16:38:02.890074880,TASK_BEGIN,023,0.16778424189399443,-0.751721817107614,-3.553852514464773,0.5943598303276642,-1.2964354463161405,-0.1554047721444183,-8.17439195693822,2.3164117348598494,0
123,2024-09-28 16:38:02.957164032,TASK_BEGIN,023,0.14876442917337118,-0.7546194691787428,-3.6891636013139295,0.6324894215960211,-1.3369129969768832,-0.14439674045162865,-8.228540463820572,2.310684739689951,0
124,2024-09-28 16:38:03.025121792,TASK_BEGIN,023,0.13596817845143525,-0.7527227925375896,-3.819950967009426,0.6629247341160917,-1.3804317345830035,-0.13352389994005076,-8.39268506526097,2.3272766179178115,0
125,2024-09-28 16:38:03.093314048,TASK_BEGIN,023,0.12854671222205935,-0.7460413543758697,-3.9412512230226215,0.6831247142531292,-1.4259639980723042,-0.12306327748624733,-8.662394955333811,2.3658798064636586,0
126,2024-09-28 16:38:04.022000128,TASK_BEGIN,023,0.12551589949250286,-0.734735892861007,-4.048657620952099,0.6912226985581035,-1.472038032650764,-0.11334617040889707,-9.030695406948153,2.4252442572713258,0
127,2024-09-28 16:38:04.102057984,TASK_BEGIN,023,0.12590518941619688,-0.7191180364766269,-4.1385221250619155,0.6861616786754796,-1.516806894127486,-0.10474002599320885,-9.487578821846741,2.5031000687172944,0
128,2024-09-28 16:38:04.172239872,TASK_BEGIN,023,0.12884123247577778,-0.6996221741246748,-4.208340494761351,0.6678276928939859,-1.5581885425153148,-0.09761505581113196,-10.019692121430907,2.5962914658243297,0
129,2024-09-28 16:38:04.239963136,TASK_BEGIN,023,0.1336042819111996,-0.6767594355120627,-4.2573716694452886,0.637197363172442,-1.5940536105776872,-0.09231161367192883,-10.610482726227854,2.7010745212161926,0
130,2024-09-28 16:38:04.307675904,TASK_BEGIN,023,0.13970544470216267,-0.6510768872891832,-4.28722670422194,0.5964290169719813,-1.6224078628100738,-0.08912114668198781,-11.240816148867996,2.81347615335894,0
131,2024-09-28 16:38:04.375369216,TASK_BEGIN,023,0.147002001868754,-0.6231398316651349,-4.3020267783179325,0.5487943085247263,-1.641527772369109,-0.08827841205499874,-11.88986477622877,2.929613485942667,0
132,2024-09-28 16:38:04.443116032,TASK_BEGIN,023,0.15582169327252784,-0.5935390071360142,-4.307918010776196,0.4983959857285172,-1.6500426713588785,-0.08995142618969718,-12.536137365497817,3.0459136183917503,0
133,2024-09-28 16:38:05.348339968,TASK_BEGIN,023,0.1670391989520025,-0.5629109823178474,-4.31200484699886,0.4496824008772394,-1.6469786567457205,-0.09422090249988675,-13.15861479157274,3.1592217770250444,0
134,2024-09-28 16:38:05.428961024,TASK_BEGIN,023,0.18204962055665372,-0.5319544219486834,-4.320987114878425,0.40683513685330436,-1.6317831400227685,-0.10105406201580946,-13.737793378759443,3.2668115209886617,0
135,2024-09-28 16:38:05.485528064,TASK_BEGIN,023,0.20261434142873322,-0.5014270508547093,-4.339956687698571,0.37318452820359505,-1.6043465951265812,-0.11028496542230404,-14.2563785994221,3.3663403975941213,0
136,2024-09-28 16:38:05.564483840,TASK_BEGIN,023,0.23060377984004934,-0.47211746682989225,-4.371698929435439,0.35081784852711756,-1.5650276597919526,-0.12161567711377887,-14.699640028513036,3.4558121735744898,0
137,2024-09-28 16:38:05.632214016,TASK_BEGIN,023,0.2677008292501562,-0.4447987342004968,-4.416451072045955,0.34043529007124373,-1.5146693157226632,-0.1346480919479159,-15.055599974090322,3.533572746505678,0
138,2024-09-28 16:38:05.699960832,TASK_BEGIN,023,0.31513482711325386,-0.42017608148649804,-4.471901234497272,0.34140285189426445,-1.4545811174696481,-0.14894004766456875,-15.315140318406257,3.5983301540681243,0
139,2024-09-28 16:38:05.767712256,TASK_BEGIN,023,0.373488148575596,-0.3988345436520023,-4.533409242826889,0.3519480567445206,-1.3864599198448462,-0.16406631594825544,-15.472118023740432,3.649183518054353,0
140,2024-09-28 16:38:06.711614976,TASK_BEGIN,023,0.442585049455046,-0.3811888287450529,-4.594525727941129,0.36946693092259586,-1.3122405047128416,-0.17966864792033993,-15.52365472310619,3.6856386151076532,0
141,2024-09-28 16:38:06.778600704,TASK_BEGIN,023,0.5214550732899788,-0.36744428345264907,-4.647696951886199,0.3908823772385272,-1.233920415495349,-0.195485185067225,-15.470594445073694,3.707589256179033,0
142,2024-09-28 16:38:06.846980096,TASK_BEGIN,023,0.6083453826334612,-0.3575770233291215,-4.684945289038459,0.4129740562639609,-1.1534405343620378,-0.21134965589283727,-15.317811189868408,3.715273799531015,0
143,2024-09-28 16:38:06.914959104,TASK_BEGIN,023,0.7007585801619913,-0.351330790217925,-4.698486659793014,0.43264603465052326,-1.072663936356181,-0.22715812936388707,-15.074026556712965,3.709245967612672,0
144,2024-09-28 16:38:06.972424192,TASK_BEGIN,023,0.7955416581960544,-0.34822929638175704,-4.681364419249451,0.4471410768707834,-0.9934105888582188,-0.24281735141662594,-14.751161976729682,3.690400300845063,0
145,2024-09-28 16:38:07.050412800,TASK_BEGIN,023,0.8890791312576998,-0.3476136496768994,-4.62810741962026,0.4541991733137923,-0.9174580085500543,-0.25819888828017257,-14.363548504509948,3.6600422412590916,0
146,2024-09-28 16:38:07.110825984,TASK_BEGIN,023,0.9775964389186128,-0.34871229754949584,-4.535377885520034,0.45215588679120544,-0.8464536571587516,-0.2731204100208489,-13.927224951190082,3.6199238591813443,0
147,2024-09-28 16:38:08.060958976,TASK_BEGIN,023,1.0575206478162775,-0.35073366005824375,-4.402573467991562,0.44000703791760004,-0.7817735849895615,-0.28736013226929874,-13.459310607229837,3.5721866027802975,0
148,2024-09-28 16:38:08.129270016,TASK_BEGIN,023,1.1258251933053696,-0.3529567785034715,-4.232230120670459,0.41747215179011843,-0.7244202564104468,-0.3006878993192486,-12.97728644387612,3.5192345163749015,0
149,2024-09-28 16:38:08.183958016,TASK_BEGIN,023,1.1802863175573985,-0.3547972457723293,-4.029949257151041,0.38504272990716076,-0.6750251803759847,-0.31288544444757027,-12.498032569595885,3.463567698456126,0
150,2024-09-28 16:38:08.265282048,TASK_BEGIN,023,1.2195975912805972,-0.35584059215649555,-3.803741499235888,0.34395970558092004,-0.633944161833819,-0.3237428355498094,-12.036711204471331,3.4075776845157013,0
151,2024-09-28 16:38:08.333024000,TASK_BEGIN,023,1.243335445624601,-0.3558453542927141,-3.5630465691429216,0.29609379563649074,-0.6013848133449934,-0.33304161288574863,-11.605794144540637,3.3533332214974743,0
152,2024-09-28 16:38:08.400815872,TASK_BEGIN,023,1.2518265187339859,-0.3547212140731665,-3.317761566748158,0.24375324732405204,-0.5775154536862023,-0.3405416183602146,-11.214459236344378,3.3024034819231494,0
153,2024-09-28 16:38:08.468549120,TASK_BEGIN,023,1.2460019944362166,-0.3524935585626753,-3.077392553509787,0.1894482638641921,-0.5625326630426195,-0.34597917512547083,-10.868454443785422,3.2557557361145015,0
154,2024-09-28 16:38:09.385809920,TASK_BEGIN,023,1.2273010987297346,-0.34926562997337746,-2.850396279844118,0.1356591049352634,-0.5566781043410065,-0.34907878959713934,-10.57048351890748,3.2137663525095848,0
155,2024-09-28 16:38:09.452570112,TASK_BEGIN,023,1.1976193058005142,-0.3451798878009233,-2.6438404553828176,0.08468853519136912,-0.5602082473787279,-0.3495799412453617,-10.321008635906294,3.1763560418064194,0
156,2024-09-28 16:38:09.521293056,TASK_BEGIN,023,1.1592455470913952,-0.3403791439036279,-2.4633518714956657,0.038619580713487846,-0.5733397849338762,-0.3472727519611447,-10.11918366770697,3.1432022016745167,0
157,2024-09-28 16:38:09.589021952,TASK_BEGIN,023,1.1147388511845275,-0.3349751580384963,-2.3131090845073174,-0.0007044861082800545,-0.5961831746069315,-0.3420293842998232,-9.96366679213489,3.1139618469932158,0
158,2024-09-28 16:38:09.656725760,TASK_BEGIN,023,1.0667616563225235,-0.3290343586581499,-2.195694109898824,-0.03175845245948162,-0.6286416122530817,-0.33382634241932946,-9.853150930705782,3.0884511801703565,0
159,2024-09-28 16:38:09.724139008,TASK_BEGIN,023,1.0179472764287998,-0.32258863907161206,-2.111850709814172,-0.05347675730587084,-0.670257773265036,-0.3227645507012886,-9.786427010149822,3.0667365557873705,0
160,2024-09-28 16:38:09.792205056,TASK_BEGIN,023,0.9708397465797786,-0.31567105075408597,-2.060306043518976,-0.06543076421902215,-0.7200451855649049,-0.30908943859586246,-9.76188472164177,3.049102315033557,0
161,2024-09-28 16:38:10.732969984,TASK_BEGIN,023,0.9278473287964419,-0.30835669131323973,-2.0377571256192697,-0.06800528668118316,-0.7763781077833126,-0.29320013685100854,-9.776691966963732,3.0358998190420765,0
162,2024-09-28 16:38:10.803021056,TASK_BEGIN,023,0.8911291145470274,-0.3007777363242797,-2.0390530800468776,-0.06250049746937363,-0.8370047373495874,-0.2756353582041231,-9.826205997452824,3.0273656378027325,0
163,2024-09-28 16:38:10.870783232,TASK_BEGIN,023,0.8624107384006284,-0.293097709125971,-2.0575472359678644,-0.051074318380169174,-0.8992122131094861,-0.2570350336559786,-9.904057922668349,3.023535164677498,0
164,2024-09-28 16:38:10.938547968,TASK_BEGIN,023,0.8428113844811744,-0.28545979005554983,-2.0855400779442617,-0.03650059389082368,-0.9601068821518944,-0.2380893470039258,-10.002822722925172,3.02427223050164,0
165,2024-09-28 16:38:11.004793856,TASK_BEGIN,023,0.8327785908494366,-0.2779405697527078,-2.114757338188907,-0.021789283406024665,-1.0169190634638834,-0.21948761046249374,-10.11483152648353,3.0293082740953285,0
166,2024-09-28 16:38:11.073816832,TASK_BEGIN,023,0.8321604090416928,-0.27053362444686835,-2.1368782498967156,-0.009748959652496702,-1.0672619127220138,-0.20186910816603992,-10.232846525800214,3.038204902353156,0
167,2024-09-28 16:38:11.141795840,TASK_BEGIN,023,0.8403634117447527,-0.2631650145000622,-2.144130114484312,-0.002573466070087418,-1.1093162826705885,-0.18577650045132066,-10.3506229100598,3.0502692278449755,0
168,2024-09-28 16:38:12.084944128,TASK_BEGIN,023,0.8565226096347719,-0.2557253662551261,-2.1299282344657833,-0.001506273472622961,-1.141919915685444,-0.17162130146548032,-10.463421902625056,3.0645134305598734,0
169,2024-09-28 16:38:12.152427008,TASK_BEGIN,023,0.879642750454637,-0.24810339978069756,-2.0895283917466143,-0.00661710003683656,-1.1645691613579532,-0.1596687108102219,-10.568346301871614,3.079696042231245,0
170,2024-09-28 16:38:12.219951872,TASK_BEGIN,023,0.9086982744449619,-0.24021282931051896,-2.0205624114794536,-0.016756051869931798,-1.1773823528735363,-0.15003820057318748,-10.664271715794872,3.0943808355383147,0
171,2024-09-28 16:38:12.287298816,TASK_BEGIN,023,0.9426770887454967,-0.23200532924769648,-1.9232192850072667,-0.02975816116867115,-1.1810416715417327,-0.14271440132773,-10.751302656071816,3.106934852551673,0
172,2024-09-28 16:38:12.354951936,TASK_BEGIN,023,0.9805576742897586,-0.22346284353914977,-1.8000076571196595,-0.042870185151439734,-1.1766811385619207,-0.1375671304237742,-10.829842768912886,3.115476438983096,0
173,2024-09-28 16:38:12.419329792,TASK_BEGIN,023,1.021233877325968,-0.21457082541025793,-1.6553139928011613,-0.05325415985473903,-1.1657131437581063,-0.1343810971480912,-10.8994619086631,3.117864913949205,0
174,2024-09-28 16:38:12.490264832,TASK_BEGIN,023,1.0634216010128967,-0.20528495174669284,-1.4949822557714818,-0.058420995148700514,-1.1496359004939662,-0.1328937875358477,-10.958007906123981,3.111833782189969,0
175,2024-09-28 16:38:13.435384064,TASK_BEGIN,023,1.1055870783803308,-0.19550847709854355,-1.3260185707040906,-0.05651455696173742,-1.1298679740100837,-0.13283546631970705,-11.00159953336759,3.0953132419347833,0
176,2024-09-28 16:38:13.503197952,TASK_BEGIN,023,1.1459334718546264,-0.18509406670205927,-1.1564131168417582,-0.04642318374472189,-1.1076307482300005,-0.13396342212062237,-11.025689712353488,3.066872604133922,0
177,2024-09-28 16:38:13.571011072,TASK_BEGIN,023,1.1824700664444376,-0.17387634212829747,-0.9949054695986695,-0.02776148519226347,-1.0838795550125104,-0.13608640873508263,-11.026571889675036,3.0261096991259198,0
178,2024-09-28 16:38:13.638756096,TASK_BEGIN,023,1.2131642637423101,-0.16172820103887786,-0.8504703806177848,-0.0008143990990260164,-1.0592647690626542,-0.13907917568314823,-11.002427339875666,2.973832354881122,0
179,2024-09-28 16:38:13.706479104,TASK_BEGIN,023,1.2361517531014654,-0.14861803263751547,-0.7314919080393489,0.033495088858188894,-1.0340912893710679,-0.14288811282650105,-10.953493336608881,2.912001817756458,0
180,2024-09-28 16:38:13.768577024,TASK_BEGIN,023,1.2499667040308304,-0.13464122593840572,-0.644804760848722,0.07362015306492234,-1.0082678638514333,-0.1475308548737468,-10.881572544795864,2.84350805756789,0
181,2024-09-28 16:38:13.829446144,TASK_BEGIN,023,1.2537455389011516,-0.1200140839549063,-0.5948423922498675,0.11741902088209366,-0.9812827948085302,-0.1530925846164281,-10.78941094368155,2.7718585625340784,0
182,2024-09-28 16:38:14.784950016,TASK_BEGIN,023,1.2473596269209601,-0.10504062795823338,-0.5831125582374725,0.16223320386295229,-0.9522498796537818,-0.15971580885762007,-10.680342950375008,2.7008359293379782,0
183,2024-09-28 16:38:14.851144960,TASK_BEGIN,023,1.2314577144410268,-0.09007810809175151,-0.6081647471511431,0.2050535783580206,-0.9200269532776463,-0.16757949731952662,-10.558220333238644,2.63416359496116,0
184,2024-09-28 16:38:14.919964160,TASK_BEGIN,023,1.2074250485445674,-0.0755240540934537,-0.6660450302031619,0.24279111756523428,-0.8833742410390614,-0.17687419046682445,-10.427395519645739,2.5752103590512525,0
185,2024-09-28 16:38:14.988172032,TASK_BEGIN,023,1.1772654765282695,-0.06182822725236971,-0.7510375105859965,0.2726235140724478,-0.8411148878544749,-0.1877856128695712,-10.292580107539077,2.526758156041998,0
186,2024-09-28 16:38:15.055964160,TASK_BEGIN,023,1.1434035516665164,-0.04951208594862184,-0.8564724422711343,0.2923604889290047,-0.7922696794435604,-0.20048933674852742,-10.158557408579215,2.4908544634337773,0
187,2024-09-28 16:38:15.123744000,TASK_BEGIN,023,1.108423689675074,-0.03917106224504836,-0.9754557271074189,0.3007578525825648,-0.7361578839191302,-0.21514658402106507,-10.029856567778898,2.4687558780244867,0
188,2024-09-28 16:38:15.191511040,TASK_BEGIN,023,1.074802965127034,-0.03144585535818404,-1.1014241313629491,0.2977031489875901,-0.6724662477600539,-0.23189288143144152,-9.910475820272579,2.460928544327506,0
189,2024-09-28 16:38:16.110853888,TASK_BEGIN,023,1.0447005611763434,-0.02696767333208724,-1.2286128207892129,0.28423207504419423,-0.6012782018870584,-0.2508225011347968,-9.803525653628023,2.4670267121322085,0
190,2024-09-28 16:38:16.164228096,TASK_BEGIN,023,1.019832203294612,-0.026293994827253555,-1.352641822017391,0.2623944890216551,-0.5230602041683798,-0.2719748619397449,-9.710609159892517,2.485784585074303,0
191,2024-09-28 16:38:16.246295808,TASK_BEGIN,023,1.0014150741652534,-0.02985127533117135,-1.4711340831813566,0.23499786392974162,-0.43862249529363934,-0.2953232067596184,-9.631081666975629,2.5148497086149746,0
192,2024-09-28 16:38:16.311397888,TASK_BEGIN,023,0.9901459852357124,-0.03789148944682368,-1.5839813471925053,0.20525532854694253,-0.3490704459832662,-0.32076350991498154,-9.561606384236493,2.550684387423679,0
193,2024-09-28 16:38:16.370373120,TASK_BEGIN,023,0.9861969242374969,-0.05046003888800468,-1.6930155258655746,0.17640263850347937,-0.2557457527566189,-0.3481037972524637,-9.496289074634,2.5886815231768066,0
194,2024-09-28 16:38:16.449537024,TASK_BEGIN,023,0.9892446467996989,-0.06737312564347295,-1.8011378580851565,0.15135461898640312,-0.16014998960975585,-0.3770554930243516,-9.427411200976886,2.623576423192146,0
195,2024-09-28 16:38:16.516561920,TASK_BEGIN,023,0.9985391141791821,-0.08820735334436139,-1.911178430766683,0.13243881039092958,-0.06385144423110894,-0.4072279303535652,-9.346758171178733,2.6501166801674554,0
196,2024-09-28 16:38:17.460510976,TASK_BEGIN,023,1.0129920507120302,-0.11230509482665357,-2.0249065789507865,0.12123408089924027,0.0316004247054289,-0.4381251518647072,-9.247542760440766,2.6638341069547207,0
197,2024-09-28 16:38:17.528322048,TASK_BEGIN,023,1.031276299874278,-0.1387994414494438,-2.1425128106465636,0.11853828944888088,0.12470599155029373,-0.46914444495150065,-9.126545971157006,2.66172950254005,0
198,2024-09-28 16:38:17.596107008,TASK_BEGIN,023,1.0519336781342292,-0.16666169088219035,-2.262568667553774,0.1244529128525355,0.21396168806841934,-0.49958070725031056,-8.985609653738804,2.6427207557552967,0
199,2024-09-28 16:38:17.663857920,TASK_BEGIN,023,1.0734766179515862,-0.1947688635258243,-2.3822900795338593,0.13852203126606658,0.2977544460262657,-0.5286433712071834,-8.831732841865298,2.6077573912101943,0
200,2024-09-28 16:38:17.731653888,TASK_BEGIN,023,1.094479130292678,-0.221985691708482,-2.4979746647870793,0.15984921571426183,0.37428187177225825,-0.5554876260510427,-8.675811902393955,2.5595994034777783,0
201,2024-09-28 16:38:17.798470912,TASK_BEGIN,023,1.1136769479568378,-0.24725550670925506,-2.60553008420565,0.18716365286996206,0.44154428303545207,-0.5792539856486325,-8.530739762744615,2.5023723157369147,0
202,2024-09-28 16:38:17.867240960,TASK_BEGIN,023,1.1300837150538199,-0.26968868619576825,-2.7009855066686055,0.21886382453422693,0.49740134837152866,-0.5991095474472926,-8.409592798549566,2.4410385693080507,0
203,2024-09-28 16:38:18.811609088,TASK_BEGIN,023,1.14309962558877,-0.28863314147344277,-2.78091788805779,0.2530767268647415,0.5396802522508274,-0.6142897488479426,-8.324295845079833,2.380876560754493,0
204,2024-09-28 16:38:18.869989888,TASK_BEGIN,023,1.1525817951066952,-0.30371746281157,-2.8428259260564843,0.28775061497570104,0.5663311382047911,-0.624141903444047,-8.284890350416966,2.3270123759973065,0
205,2024-09-28 16:38:18.947165952,TASK_BEGIN,023,1.1588462330452376,-0.3148633913804949,-2.885466917780929,0.3207664176386194,0.5756083003398279,-0.6281693304794624,-8.299258983382142,2.28401431415489,0
206,2024-09-28 16:38:19.014944000,TASK_BEGIN,023,1.1625798267255338,-0.3222650873841628,-2.909007835869704,0.3500060713414105,0.5662390667343357,-0.6260711610336203,-8.37285805566309,2.255532288487291,0
207,2024-09-28 16:38:19.082544128,TASK_BEGIN,023,1.1646771562586742,-0.3263357458003404,-2.9147991147585164,0.37331655450050094,0.5375482475735109,-0.617768957392141,-8.508143992756022,2.2439874511960536,0
208,2024-09-28 16:38:19.150447872,TASK_BEGIN,023,1.1660544166025815,-0.3276296294318952,-2.90481955593743,0.3884015146264115,0.48952151520375325,-0.60340987463303,-8.70400595545577,2.2503885279820626,0
209,2024-09-28 16:38:19.218265088,TASK_BEGIN,023,1.1674933683174715,-0.32675469336844487,-2.8810900751738746,0.39277521180091796,0.4228078103803871,-0.5833441060544957,-8.95578110947854,2.274360794047112,0
210,2024-09-28 16:38:20.132893184,TASK_BEGIN,023,1.169534521409047,-0.3242912366296127,-2.8453434037720635,0.3839152692504117,0.3386757113350677,-0.5580897123303579,-9.255924991568772,2.314370283137968,0
211,2024-09-28 16:38:20.205082880,TASK_BEGIN,023,1.1724076904222778,-0.32072650719902923,-2.7990665683285316,0.35963851424657944,0.2389430152368636,-0.5283032057362594,-9.594835217495875,2.3680186102573857,0
212,2024-09-28 16:38:20.272837888,TASK_BEGIN,023,1.1759909455321085,-0.31641346870130305,-2.7438526664398606,0.3185798075919254,0.1259009168971395,-0.4947617799543141,-9.961301998612438,2.43227948896582,0
213,2024-09-28 16:38:20.333316096,TASK_BEGIN,023,1.1798110057059161,-0.3115617426736234,-2.681845354350741,0.26059009759070134,0.0022696164170132762,-0.458352221155597,-10.34250052725121,2.5036418670977936,0
214,2024-09-28 16:38:20.395803904,TASK_BEGIN,023,1.1831034002986072,-0.30625873000803705,-2.616037531910184,0.186936921639567,-0.12877868925606703,-0.42006514600343536,-10.723942287110523,2.578237448560013,0
215,2024-09-28 16:38:20.476076032,TASK_BEGIN,023,1.1849313434563773,-0.300505234781849,-2.550333752384115,0.10031198079065409,-0.2635506730204252,-0.38099405625678406,-11.089903526752876,2.6520511129403506,0
216,2024-09-28 16:38:20.543847936,TASK_BEGIN,023,1.184336524144043,-0.2942486675964036,-2.489390096871407,0.004700401954168727,-0.39780308478890225,-0.3423272773649083,-11.424460668150445,2.7212199170598175,0
217,2024-09-28 16:38:21.486758144,TASK_BEGIN,023,1.1804790214079142,-0.28740685032358526,-2.438212130409355,-0.09486649745677438,-0.5268338744064139,-0.30531612065793007,-11.71289695369557,2.782351122364401,0
218,2024-09-28 16:38:21.553318144,TASK_BEGIN,023,1.1727282912953123,-0.27988438274520117,-2.4015651976130643,-0.1926724580104838,-0.645710626891431,-0.27121401070444656,-11.943229033414568,2.8328107580386193,0
219,2024-09-28 16:38:21.621775872,TASK_BEGIN,023,1.1607064014692559,-0.27159067248689284,-2.3834360567505795,-0.2827643891680359,-0.7495963909805381,-0.2411958993657837,-12.10763369586838,2.870962378064058,0
220,2024-09-28 16:38:21.689129216,TASK_BEGIN,023,1.1443303611267186,-0.26247240740111555,-2.386749766027426,-0.3594371918900515,-0.8340937714415877,-0.21627688192683614,-12.203447489929053,2.8963076475353695,0
221,2024-09-28 16:38:21.756824064,TASK_BEGIN,023,1.1238832954236269,-0.2525595253829627,-2.4133064467805156,-0.4176999598950816,-0.8955282072879014,-0.1972502121626432,-12.23340618917319,2.909454864526997,0
222,2024-09-28 16:38:21.824592128,TASK_BEGIN,023,1.1000742837548856,-0.24200052311163606,-2.4637615899351095,-0.4536809756743287,-0.9311571120856598,-0.18465304290760462,-12.205049167963539,2.9118858882033987,0
223,2024-09-28 16:38:21.893166080,TASK_BEGIN,023,1.0740188880179837,-0.2310623776115809,-2.537547762474134,-0.46494753761985835,-0.9393546391840913,-0.17875250184636932,-12.12952114263777,2.905583811403436,0
224,2024-09-28 16:38:22.836808960,TASK_BEGIN,023,1.047117800930863,-0.22009580926890698,-2.6328312819605557,-0.45070889300495426,-0.9197901110422484,-0.17954131592034245,-12.020023060772784,2.892624108241524,0
225,2024-09-28 16:38:22.904600064,TASK_BEGIN,023,1.0208724193591947,-0.2094872731565297,-2.7466397967353187,-0.411865630962972,-0.8735351988614474,-0.18674083621089374,-11.890026243582122,2.8748062615104306,0
226,2024-09-28 16:38:22.972350208,TASK_BEGIN,023,0.9967035508245068,-0.19961732394401743,-2.8751157005959675,-0.35090703052615224,-0.8030206872008118,-0.19981628086453437,-11.751464946317107,2.853394616700363,0
227,2024-09-28 16:38:23.040082944,TASK_BEGIN,023,0.9758254054945849,-0.19083332964132899,-3.0137705850165597,-0.2716965300735299,-0.7118336944039804,-0.21800792996003948,-11.613337035846426,2.8290290705698546,0
228,2024-09-28 16:38:23.107846912,TASK_BEGIN,023,0.9591883201176503,-0.18343786249155242,-3.157692584610402,-0.1791853312705742,-0.604409966687258,-0.24038047932911602,-11.481121782042791,2.8018025858218265,0
229,2024-09-28 16:38:23.175106048,TASK_BEGIN,023,0.9474648625822449,-0.17768857384237285,-3.301694729732171,-0.07906059038688813,-0.4856886759272286,-0.26589136487954435,-11.357129983411504,2.7714445151126594,0
230,2024-09-28 16:38:23.243320064,TASK_BEGIN,023,0.9410455485562512,-0.17379920770720333,-3.440459939457925,0.022690047925689565,-0.360784752117839,-0.29346767795469675,-11.241408538171168,2.7375300475095687,0
231,2024-09-28 16:38:24.186937088,TASK_BEGIN,023,0.9400411498658203,-0.17193641351662137,-3.568829806996518,0.12027568211141264,-0.23470790015117537,-0.32207047625304513,-11.132455179205389,2.6996227272497526,0
232,2024-09-28 16:38:24.253951232,TASK_BEGIN,023,0.9443107542213299,-0.17221745176743147,-3.682280751568799,0.208586240317521,-0.11213834355700299,-0.3507326339750682,-11.027266221297767,2.6572929079462364,0
233,2024-09-28 16:38:24.322441216,TASK_BEGIN,023,0.9535146755578207,-0.17471174454839405,-3.777393639245919,0.283591981447419,0.0027141808538118243,-0.3785702349591308,-10.921003295121956,2.6100693544269924,0
234,2024-09-28 16:38:24.381378048,TASK_BEGIN,023,0.9671697099793206,-0.1794411545730673,-3.8520200250447987,0.3425916539552961,0.10614173504651951,-0.4047739340489726,-10.807048395010314,2.5574677459286823,0
235,2024-09-28 16:38:24.443705088,TASK_BEGIN,023,0.984688885191813,-0.186375404601019,-3.9049869692902663,0.3842461413407348,0.19490276085947902,-0.42859359646209977,-10.677902902552837,2.4991878854133156,0
236,2024-09-28 16:38:24.525667072,TASK_BEGIN,023,1.0053958743969,-0.19542573316146325,-3.9355129241337328,0.40841496012317685,0.2662144731944695,-0.4493336459974485,-10.526580078739258,2.435411923060601,0
237,2024-09-28 16:38:24.583329792,TASK_BEGIN,023,1.0285109377637571,-0.2064409335596885,-3.9427708945888016,0.41590416188979656,0.31781542689823417,-0.46636624984377306,-10.34772610416961,2.3670295390492306,0
238,2024-09-28 16:38:25.536994816,TASK_BEGIN,023,1.0531198800436736,-0.21920673951723457,-3.9258748201505247,0.4082113922381399,0.3480613141027891,-0.4791549812549884,-10.138089787963473,2.2956745172412596,0
239,2024-09-28 16:38:25.604729856,TASK_BEGIN,023,1.0781523879356527,-0.2334494048871822,-3.8841320503297774,0.38727394947242244,0.35600321359272613,-0.48727739864993674,-9.89656609228977,2.2235996625652166,0
240,2024-09-28 16:38:25.672538112,TASK_BEGIN,023,1.1023995347272373,-0.24884430342212238,-3.817278122838862,0.3552218394709137,0.3414358956734661,-0.4904414993361545,-9.62422580077023,2.1534946234326724,0
241,2024-09-28 16:38:25.740283904,TASK_BEGIN,023,1.1245813309179176,-0.26502597564454156,-3.7256648357556674,0.3141965956883395,0.30494657894718397,-0.48850104546368617,-9.324514054795614,2.088319022847335,0
242,2024-09-28 16:38:25.808061952,TASK_BEGIN,023,1.1434480391950743,-0.28159737915515193,-3.6105130800552203,0.2663084010276033,0.24799034977641246,-0.4814756375341222,-9.003445271600942,2.031139891880489,0
243,2024-09-28 16:38:25.875794944,TASK_BEGIN,023,1.1578953126320704,-0.2981445944782741,-3.4741966574615537,0.21372704824220304,0.17295711050421625,-0.4695712290731369,-8.669461636003248,1.9849177424664233,0
244,2024-09-28 16:38:25.943433984,TASK_BEGIN,023,1.1670776598475658,-0.3142606499609023,-3.320423874306899,0.1588036819039047,0.08315652357744784,-0.45319091474562473,-8.332860218454222,1.9522291123933257,0
245,2024-09-28 16:38:26.861577216,TASK_BEGIN,023,1.170483680388201,-0.32956736583503277,-3.15423364429497,0.10408915447958446,-0.017311270903060685,-0.4329308651210117,-8.005073289758698,1.9350051848877425,0
246,2024-09-28 16:38:26.929198848,TASK_BEGIN,023,1.1679206134934847,-0.343719334453387,-2.981694552594082,0.05216698768670394,-0.12376403458964756,-0.40956392493543264,-7.6980842501381,1.9343859516721031,0
247,2024-09-28 16:38:26.996584960,TASK_BEGIN,023,1.1593985754143314,-0.35638862494279305,-2.8092118871866556,0.005332101636273445,-0.231169220662091,-0.38401652076714426,-7.423825315752108,1.9506700100337189,0
248,2024-09-28 16:38:27.064840192,TASK_BEGIN,023,1.1449838469865337,-0.3672485982874911,-2.6426524616998703,-0.03473342136191904,-0.3343748848340542,-0.35734039793915723,-7.193159935295882,1.983232544747322,0
249,2024-09-28 16:38:27.132593920,TASK_BEGIN,023,1.1247160320097334,-0.3759776097671871,-2.4867002178512405,-0.06713070196686559,-0.42835825976041325,-0.33067206117579834,-7.014441481715563,2.0303686106715357,0
250,2024-09-28 16:38:27.199947008,TASK_BEGIN,023,1.0986216385032161,-0.38228287225935287,-2.344613628723517,-0.09172533448930381,-0.5085187712128921,-0.3051699068048549,-6.892181066357823,2.089175181220022,0
251,2024-09-28 16:38:27.268153856,TASK_BEGIN,023,1.0667847830381358,-0.38592922186111234,-2.218337122311792,-0.10899426747847958,-0.5709989786269116,-0.28192899419658507,-6.826407799554643,2.155604452666252,0
252,2024-09-28 16:38:28.210608896,TASK_BEGIN,023,1.029422748157158,-0.3867641532413785,-2.1089998912852774,-0.119792163188363,-0.6129645229102967,-0.26188915073143554,-6.812972516505305,2.2247407144633002,0
253,2024-09-28 16:38:28.278441984,TASK_BEGIN,023,0.9869362254344238,-0.38473875342513897,-2.0177385711410283,-0.12509948650890237,-0.6327682980179132,-0.24575994935812037,-6.844684106397871,2.291273044546112,0
254,2024-09-28 16:38:28.346216704,TASK_BEGIN,023,0.9399294900167241,-0.3799226569885973,-1.9464186542873707,-0.12584750264329245,-0.6299764079905514,-0.2339797487660753,-6.912860996306704,2.350065243802996,0
255,2024-09-28 16:38:28.413768960,TASK_BEGIN,023,0.8892170503989443,-0.3725093431225999,-1.8977706618668566,-0.12287851082560679,-0.6053057461318868,-0.22670961557916433,-7.008824515574142,2.396709149636886,0
256,2024-09-28 16:38:28.481767936,TASK_BEGIN,023,0.8358311227044409,-0.3628080037615723,-1.8748288689278956,-0.11699830326675366,-0.5605428336216441,-0.22384876841115467,-7.125129450491045,2.4279924562174076,0
257,2024-09-28 16:38:28.549530880,TASK_BEGIN,023,0.7810226384186332,-0.3512200619493543,-1.879949715158695,-0.10903093520791117,-0.4984558469956364,-0.22505899620718758,-7.256483419688009,2.442222303774132,0
258,2024-09-28 16:38:28.605472256,TASK_BEGIN,023,0.726238770839933,-0.33820387341669367,-1.9138617082474294,-0.09982540881381594,-0.4226532195691613,-0.22979705459588531,-7.40017373377792,2.4393273540968266,0
259,2024-09-28 16:38:29.559111936,TASK_BEGIN,023,0.6730659682564714,-0.32423480772038604,-1.9751348906662687,-0.09021343776363147,-0.33735648251140776,-0.23735681789031438,-7.5558156333711075,2.4207120311083132,0
260,2024-09-28 16:38:29.629148928,TASK_BEGIN,023,0.6231378028280242,-0.30976821602223664,-2.0601922664758847,-0.08094582779603751,-0.24710430931265776,-0.2469161935710898,-7.724530721374978,2.388937255174238,0
261,2024-09-28 16:38:29.696930816,TASK_BEGIN,023,0.5780226108517509,-0.2952130920673997,-2.163737922479486,-0.07265188695171985,-0.15642454197501657,-0.25758364639485803,-7.907901607848268,2.3473412058323664,0
262,2024-09-28 16:38:29.764684800,TASK_BEGIN,023,0.5391146401926353,-0.2809210050925986,-2.2794202196510414,-0.0658477393889666,-0.06952423882608104,-0.2684408129311227,-8.106926557491047,2.299652700931091,0
263,2024-09-28 16:38:29.831828992,TASK_BEGIN,023,0.5075422790391999,-0.26718679005026147,-2.400589161153258,-0.060959702606692645,0.009931220282519419,-0.2785739871434032,-8.320913363146678,2.24956880842517,0
264,2024-09-28 16:38:29.900253184,TASK_BEGIN,023,0.48409939368239585,-0.25425305540834997,-2.521042078559974,-0.058292770375530566,0.0789120872650869,-0.28709384841786006,-8.54626950674747,2.2002827328907406,0
265,2024-09-28 16:38:29.968028160,TASK_BEGIN,023,0.4692061708536928,-0.24231164595561555,-2.635699860894973,-0.05791837195864927,0.13503267012496173,-0.293158071309744,-8.77551582076548,2.154057233684949,0
266,2024-09-28 16:38:30.910959872,TASK_BEGIN,023,0.4628940872715111,-0.23149662821069608,-2.7411738895364013,-0.05952994341145416,0.1765408321562635,-0.2960102336335922,-8.997086908008761,2.1120014305233274,0
267,2024-09-28 16:38:30.969530880,TASK_BEGIN,023,0.4648063866201062,-0.22186903807455388,-2.836081249795178,-0.06234456907355809,0.2023093053217979,-0.2950306601429522,-9.196216052002157,2.0741228277984582,0
268,2024-09-28 16:38:31.046829824,TASK_BEGIN,023,0.4742229577072648,-0.2134034313133574,-2.9208845709377393,-0.06512114522714246,0.2118255564351213,-0.28978652693976437,-9.356632458797002,2.0395725907768667,0
269,2024-09-28 16:38:31.114580992,TASK_BEGIN,023,0.4901118659053571,-0.20598752266442907,-2.9972278611217567,-0.06632814930754953,0.20519967161103683,-0.2800754306279544,-9.462429503253828,2.006945259913439,0
270,2024-09-28 16:38:31.182342912,TASK_BEGIN,023,0.5111828517919333,-0.19943722463099153,-3.0670647275867324,-0.06440956273123667,0.18319537047798767,-0.2659578644945005,-9.499583156006901,1.9745659768492132,0
271,2024-09-28 16:38:31.249048064,TASK_BEGIN,023,0.5359287940056778,-0.1935221919543711,-3.1319604174367224,-0.058027041329264555,0.14724083895146697,-0.24776813171431042,-9.45703060116718,1.940775960311454,0
272,2024-09-28 16:38:31.310053888,TASK_BEGIN,023,0.5626770231223623,-0.1879968116947498,-3.192759694043384,-0.04619286838620166,0.09938313348173243,-0.22609915789144835,-9.327498218446244,1.9042156100670473,0
273,2024-09-28 16:38:32.236384000,TASK_BEGIN,023,0.5896802131198002,-0.1826345361411625,-3.2495338838574463,-0.02831714170188261,0.04218414633963231,-0.20176737940103703,-9.108202191521803,1.8640458091211052,0
274,2024-09-28 16:38:32.304173056,TASK_BEGIN,023,0.6152596561008065,-0.17726496635591346,-3.301556108093927,-0.004239031796517119,-0.021446459880486088,-0.17576199694227015,-8.801422770925212,1.8200523481972148,0
275,2024-09-28 16:38:32.371926016,TASK_BEGIN,023,0.6379936209814235,-0.1718109052865805,-3.3471905556271273,0.025744881498952685,-0.08847884297787471,-0.14917755104623884,-8.414933906987356,1.7726587651501764,0
276,2024-09-28 16:38:32.439611904,TASK_BEGIN,023,0.6569123651722997,-0.16631722871231847,-3.3838797938134526,0.060901588680820025,-0.15601209005644354,-0.12313084946631811,-7.962152959779951,1.7229055846895813,0
277,2024-09-28 16:38:32.500169984,TASK_BEGIN,023,0.6716286491328641,-0.1609589636596823,-3.4084920385083866,0.1001627116160164,-0.22149332738575175,-0.09866946606905729,-7.4617027396909,1.6723915835094563,0
278,2024-09-28 16:38:32.562654976,TASK_BEGIN,023,0.6823381233114318,-0.15601685109149252,-3.4180470034287747,0.14228474261505714,-0.28287008049701917,-0.07668633087509347,-6.936184802170508,1.6231354309327501,0
279,2024-09-28 16:38:32.638985984,TASK_BEGIN,023,0.6896751376802442,-0.1518172463702994,-3.410562085322986,0.18603216183625287,-0.3386614494937624,-0.05785471454444708,-6.410349948737559,1.5773687810509565,0
280,2024-09-28 16:38:33.572581120,TASK_BEGIN,023,0.6944751563159153,-0.14865014092680837,-3.3857436345916754,0.2303669515364721,-0.3879720900294413,-0.04258460682286315,-5.909130900762687,1.5373344321625952,0
281,2024-09-28 16:38:33.650675968,TASK_BEGIN,023,0.6975443645726392,-0.14669566230551956,-3.345374147211658,0.2746232777249239,-0.4304967672595321,-0.03099329441250241,-5.455984567956223,1.5051816721630522,0
282,2024-09-28 16:38:33.712199936,TASK_BEGIN,023,0.6995335304593625,-0.14598884409272617,-3.2932611988557476,0.3186251946431284,-0.4665244251718735,-0.022894087282182424,-5.071788152331438,1.4830110787354116,0
283,2024-09-28 16:38:33.789340160,TASK_BEGIN,023,0.7009467151136519,-0.146431897205989,-3.2346404808452105,0.3627187144559174,-0.4968872268178029,-0.0178198212375127,-4.7742252713180005,1.47300138203866,0
284,2024-09-28 16:38:33.858056192,TASK_BEGIN,023,0.7022430518545597,-0.14784075299177313,-3.1751344941673385,0.40769909689593453,-0.5227951132119817,-0.015092624999084358,-4.5773307261281335,1.4774507218557167,0
285,2024-09-28 16:38:33.925924096,TASK_BEGIN,023,0.7039622033442307,-0.15000517846353578,-3.119602389179846,0.4546114288023978,-0.5455614475809265,-0.01393375670744098,-4.490848025588767,1.4986133787801739,0
286,2024-09-28 16:38:33.990258176,TASK_BEGIN,023,0.7068180380439041,-0.15274784118587426,-3.071263126306937,0.5044632650827706,-0.5662964335686269,-0.01359040693169017,-4.519318667114716,1.5383532875032728,0
287,2024-09-28 16:38:34.931737856,TASK_BEGIN,023,0.7117400421852564,-0.15597512756422635,-3.0313433712760456,0.5579663996830339,-0.5856529058432802,-0.013452869968069187,-4.6612206151761235,1.5977391142588735,0
288,2024-09-28 16:38:34.993799168,TASK_BEGIN,023,0.7198662281475067,-0.15971264335881238,-2.9993230118163545,0.6154010117603166,-0.603654806587185,-0.013149480996282714,-4.9086632349293815,1.6767219710180232,0
289,2024-09-28 16:38:35.070920960,TASK_BEGIN,023,0.7324861469382535,-0.16411313152415102,-2.9736291224607,0.6765918353766285,-0.6196100549403798,-0.012614764061081592,-5.24782296549096,1.773965190198884,0
290,2024-09-28 16:38:35.139216896,TASK_BEGIN,023,0.7509233679345081,-0.16942657524504035,-2.9523848690209094,0.7409198925191649,-0.6321403825969506,-0.012112914678813903,-5.659783938879427,1.8868009109843678,0
291,2024-09-28 16:38:35.196240896,TASK_BEGIN,023,0.7763587960485594,-0.17593924959850546,-2.933822874081505,0.8073155521216788,-0.6393574428318118,-0.01219577143815792,-6.121377363621711,2.0112621908398576,0
292,2024-09-28 16:38:35.275335936,TASK_BEGIN,023,0.8096259709109371,-0.18390543878945254,-2.9163489544649073,0.8742432853651259,-0.6391439380159392,-0.013602866258849856,-6.6060324615823,2.142187700874477,0
293,2024-09-28 16:38:35.342117120,TASK_BEGIN,023,0.8510318879727273,-0.1934899240334838,-2.8986042827105005,0.9397264496689399,-0.6294645616487285,-0.017136753742386098,-7.084971734588256,2.273447775387394,0
294,2024-09-28 16:38:36.275264000,TASK_BEGIN,023,0.9002424333590323,-0.20471903227603752,-2.8797934560059906,1.0014439335695617,-0.6086591915295109,-0.023543855784744397,-7.528971853980528,2.3983347841974765,0
295,2024-09-28 16:38:36.354274048,TASK_BEGIN,023,0.9562403841295718,-0.21743616588677211,-2.8601585871144755,1.0568868457302587,-0.5756739309319723,-0.033418337645113094,-7.910630286051957,2.510102293854392,0
296,2024-09-28 16:38:36.421204992,TASK_BEGIN,023,1.0173623684238595,-0.23127712460324865,-2.8412478769397236,1.1035351892010057,-0.530177064254262,-0.047138326888261736,-8.206875372217842,2.602579360521039,0
297,2024-09-28 16:38:36.489266176,TASK_BEGIN,023,1.0814286193205689,-0.24568664242622992,-2.8257341213168177,1.1390237582285165,-0.47255563884303453,-0.06483430087492192,-8.4012710098878,2.67075634161133,0
298,2024-09-28 16:38:36.557062912,TASK_BEGIN,023,1.1459492720867148,-0.2599779566234675,-2.816806221727301,1.1613086041096583,-0.4038526595989767,-0.08638142155978061,-8.485566160732517,2.711236195409581,0
299,2024-09-28 16:38:36.617430016,TASK_BEGIN,023,1.2083465201684644,-0.2734151589762961,-2.817373639567456,1.1688594807217634,-0.32571166391973144,-0.11140903693277693,-8.460128654858076,2.7224837916608284,0
300,2024-09-28 16:38:36.693129216,TASK_BEGIN,023,1.2661260992408019,-0.28529180264848986,-2.829421765291169,1.1608445469503865,-0.24034691148120016,-0.13932601913295425,-8.33325066283865,2.704865153225634,0
301,2024-09-28 16:38:37.607144960,TASK_BEGIN,023,1.31697285970575,-0.2949883672093312,-2.853753749962689,1.1372178804920143,-0.1505067257534609,-0.16935900681449317,-8.119574904255227,2.6604980883840463,0
302,2024-09-28 16:38:37.678086912,TASK_BEGIN,023,1.3587946207155348,-0.302005799826763,-2.890035753827602,1.0986598960406233,-0.05939208711200568,-0.20059410755958776,-7.838081478913682,2.592952250211046,0
303,2024-09-28 16:38:37.746650880,TASK_BEGIN,023,1.3897513425401038,-0.3059805434604092,-2.9368648866437663,1.0464196283109213,0.029482529989781812,-0.23201355517372507,-7.5101228148591925,2.5068598620205393,0
304,2024-09-28 16:38:37.814416128,TASK_BEGIN,023,1.4082881567866627,-0.3066861018886935,-2.991715625556292,0.9821497283597218,0.11247743127474255,-0.26252745077944417,-7.157727134503178,2.407483565804075,0
305,2024-09-28 16:38:37.882176000,TASK_BEGIN,023,1.413181992412321,-0.3040247361897097,-3.05080116063006,0.9077783773071466,0.1860365000792508,-0.2910048550653386,-6.802056671567185,2.300254952957188,0
306,2024-09-28 16:38:37.949978880,TASK_BEGIN,023,1.4036200901967433,-0.29801598521628514,-3.108960163164222,0.8254229855281261,0.24689633181973208,-0.3163097787169759,-6.461916573710427,2.190313008474502,0
307,2024-09-28 16:38:38.016740096,TASK_BEGIN,023,1.3793176659194748,-0.2887914882830133,-3.159770396638521,0.737353164719556,0.2923162575486928,-0.33735179652394387,-6.152493973017041,2.0821121943266685,0
308,2024-09-28 16:38:38.961167872,TASK_BEGIN,023,1.3406332901572668,-0.2765963079054547,-3.196094435991793,0.6459901445787337,0.3203373793219145,-0.3531536332710707,-5.884659033665922,1.979170955296026,0
309,2024-09-28 16:38:39.028621824,TASK_BEGIN,023,1.2886098073511758,-0.2617834652087741,-3.2110400575347646,0.5539007945480561,0.33000891295401624,-0.3629191800616121,-5.66499156598869,1.8839804482025924,0
310,2024-09-28 16:38:39.096700928,TASK_BEGIN,023,1.2249130007508822,-0.24479413452379625,-3.1990375060414484,0.4637490047456273,0.3215099120728353,-0.3660855490461596,-5.496377175489396,1.7980360922024632,0
311,2024-09-28 16:38:39.157181952,TASK_BEGIN,023,1.1517119597053747,-0.22613379166276948,-3.1566822279978233,0.37818196623656225,0.2961594806010069,-0.3623634301680135,-5.378843568035114,1.7219556476832492,0
312,2024-09-28 16:38:39.232207104,TASK_BEGIN,023,1.0715584588436846,-0.20635564424793434,-3.0831754724494185,0.29965263964202987,0.2563384252758343,-0.3517732301740149,-5.3103990404022605,1.6556922704794295,0
313,2024-09-28 16:38:39.299917056,TASK_BEGIN,023,0.9872826317912671,-0.18604881015657335,-2.9803174787134172,0.2302068382906915,0.20531118709455537,-0.3346641307123383,-5.287756084406694,1.5988340873121674,0
314,2024-09-28 16:38:39.367696128,TASK_BEGIN,023,0.9018933884399247,-0.16582394352277735,-2.852000527508425,0.1712671864593992,0.1469348727179782,-0.31169758981300644,-5.306785985930795,1.5508984002508408,0
315,2024-09-28 16:38:40.311224064,TASK_BEGIN,023,0.8184743568421861,-0.14629473406586327,-2.703272016395968,0.12345392917532944,0.08530945058535998,-0.28379796042854977,-5.36263674171643,1.5115243506590799,0
316,2024-09-28 16:38:40.378534912,TASK_BEGIN,023,0.7400778043433953,-0.12805713891362416,-2.539273987735672,0.08649920507891182,0.024461086441905578,-0.2520881545342174,-5.4497479382653315,1.4805636032154263,0
317,2024-09-28 16:38:40.438200832,TASK_BEGIN,023,0.6696233463631748,-0.11166911252545808,-2.3644363947410896,0.05929154429686,-0.03190366822999715,-0.21782218229250724,-5.562061628423246,1.4581140549513585,0
318,2024-09-28 16:38:40.514496000,TASK_BEGIN,023,0.6097964589378457,-0.09763285316264064,-2.1821273765133156,0.040040661893784524,-0.08060306920913994,-0.18231881795712337,-5.693467604122465,1.4445043277869585,0
319,2024-09-28 16:38:40.582262016,TASK_BEGIN,023,0.5629285228336793,-0.08637716689371915,-1.994663385750818,0.026519880240789755,-0.1191760430386001,-0.1468991151249577,-5.8383014355734,1.440210770842404,0
320,2024-09-28 16:38:40.641554176,TASK_BEGIN,023,0.5308494153521727,-0.07823523638644575,-1.803436319099395,0.016345577391538545,-0.14605352723299816,-0.112826261295141,-5.991675386320287,1.4456992250372445,0
321,2024-09-28 16:38:40.702776832,TASK_BEGIN,023,0.514718757519939,-0.0734155714293914,-1.6091657630085214,0.007295638242093915,-0.16064611343333812,-0.08124694720737556,-6.14953596599554,1.4612073190533812,0
322,2024-09-28 16:38:41.661915136,TASK_BEGIN,023,0.51485585209246,-0.07197026091375838,-1.412564612323439,-0.002319611376557185,-0.1632874709002564,-0.05314381287538748,-6.30850182444797,1.4865149221219511,0
323,2024-09-28 16:38:41.729736192,TASK_BEGIN,023,0.5306259989187689,-0.07377446505913114,-1.2154423788242723,-0.013299670687342023,-0.1550371134552522,-0.029310185768106477,-6.465588500323754,1.5207742178869514,0
324,2024-09-28 16:38:41.797473024,TASK_BEGIN,023,0.5604601056106528,-0.0785325001544967,-1.0217303185505773,-0.02533755087111936,-0.13742287499152334,-0.010345682350056576,-6.617946338509219,1.5624566421523796,0
325,2024-09-28 16:38:41.865225216,TASK_BEGIN,023,0.6020270361612584,-0.08581273125798858,-0.8377981951887422,-0.03703519405954596,-0.11220723463983674,0.0033366889151687173,-6.762824448317772,1.6094338045475176,0
326,2024-09-28 16:38:41.929683712,TASK_BEGIN,023,0.6524947359532749,-0.09509992234750163,-0.6718105556546263,-0.04617658909329228,-0.08120530945399333,0.011499242411339464,-6.897926387169497,1.659183074093933,0
327,2024-09-28 16:38:42.000790016,TASK_BEGIN,023,0.7087901048565266,-0.10584880987030636,-0.5323458434588269,-0.05022293050200467,-0.04614817810703968,0.014071694757933519,-7.021947378108548,1.7090718753980467,0
328,2024-09-28 16:38:42.067575808,TASK_BEGIN,023,0.7678114049880992,-0.11752790570267081,-0.4267950938834415,-0.04691525343482959,-0.008587965421329745,0.011155260695009168,-7.134733937482902,1.7566215995441912,0
329,2024-09-28 16:38:42.985754880,TASK_BEGIN,023,0.8266096864654929,-0.12965530122992233,-0.3600702275134907,-0.034824624845532615,0.030160538456188924,0.003039939347810133,-7.236780207704231,1.7996870757884116,0
330,2024-09-28 16:38:43.053552128,TASK_BEGIN,023,0.8825684711016799,-0.14183013040234563,-0.3339577110566208,-0.01370374189159292,0.0690504362210889,-0.00977410193861068,-7.328424237792122,1.8365934373368318,0
331,2024-09-28 16:38:43.121288960,TASK_BEGIN,023,0.933571225141247,-0.15375132944626366,-0.3471676255480146,0.015444221979821404,0.10729438174249879,-0.026564237314431603,-7.40924272007139,1.8662660897750416,0
332,2024-09-28 16:38:43.188813056,TASK_BEGIN,023,0.9781218739823514,-0.16521521122994443,-0.39583869364877217,0.05055199676074504,0.14429191181432463,-0.04639480109226107,-7.477695938705565,1.8882900543957934,0
333,2024-09-28 16:38:43.256785920,TASK_BEGIN,023,1.0153989902927005,-0.1760977824465601,-0.47417122997889516,0.08881744130371455,0.17949840000366424,-0.0681546418853357,-7.5308178812264535,1.9028319767039874,0
334,2024-09-28 16:38:43.324539904,TASK_BEGIN,023,1.0452373123768668,-0.1863323375984676,-0.575020775602794,0.12707865330788212,0.21229584677417984,-0.09061732066767862,-7.563949697536484,1.9104488951364806,0
335,2024-09-28 16:38:43.392316160,TASK_BEGIN,023,1.0680250440534778,-0.19588484047726662,-0.6904092522381996,0.16218391599798027,0.24193740045637677,-0.11251150178281623,-7.570756458304117,1.9118648445879527,0
336,2024-09-28 16:38:44.335723008,TASK_BEGIN,023,1.0845170100017114,-0.20472546370900158,-0.8119470243071473,0.19132559627407494,0.26757289087487257,-0.13259154431932557,-7.543784884608072,1.9077892401865726,0
337,2024-09-28 16:38:44.403569920,TASK_BEGIN,023,1.095606763704639,-0.21279979976793578,-0.9313006673384122,0.21233359367301513,0.2882923303129734,-0.14970522175487316,-7.475652038561976,1.8988066156228025,0
338,2024-09-28 16:38:44.471412736,TASK_BEGIN,023,1.1021316564330756,-0.22000928241159917,-1.0408744099602663,0.22392718044967957,0.3031498820358296,-0.1628632323019935,-7.360672910677082,1.8853261571858417,0
339,2024-09-28 16:38:44.538420992,TASK_BEGIN,023,1.1047635647612668,-0.22620725812313605,-1.134598764570137,0.2258734316102809,0.31120128181458867,-0.17131291379356484,-7.196507173151511,1.86758218939131,0
340,2024-09-28 16:38:44.606945024,TASK_BEGIN,023,1.1039865261946848,-0.2312059998447105,-1.2085502227618203,0.2189794432279648,0.3115770461072203,-0.17460118274400552,-6.985339977771806,1.8456907253171388,0
341,2024-09-28 16:38:44.669181952,TASK_BEGIN,023,1.100128036227858,-0.23478656147511054,-1.2612839910766283,0.20491377164539165,0.30355654658180187,-0.1726014713559672,-6.734149162199059,1.8197400144351934,0
342,2024-09-28 16:38:44.742411008,TASK_BEGIN,023,1.093407751526618,-0.23671386708984377,-1.2938998242666584,0.18594506599249347,0.28661809142391925,-0.16549469792524119,-6.453899933869869,1.789873496834659,0
343,2024-09-28 16:38:45.685283072,TASK_BEGIN,023,1.083979876379294,-0.2367621625434894,-1.3098667516503633,0.16470395835772864,0.26049189061730005,-0.15371792676736543,-6.158077910014768,1.756365727253476,0
344,2024-09-28 16:38:45.753127936,TASK_BEGIN,023,1.0719584960034443,-0.23474227401090966,-1.3146294581215603,0.14399249014815785,0.22524077737437118,-0.137900998456551,-5.861232054541407,1.7197112784676805,0
345,2024-09-28 16:38:45.820508160,TASK_BEGIN,023,1.0574285746432845,-0.23051897586195297,-1.314968774676129,0.12657016829839546,0.18134558107015777,-0.11880103523546566,-5.5778920474893585,1.6806877438555101,0
346,2024-09-28 16:38:45.888649984,TASK_BEGIN,023,1.0404562158234605,-0.22402059415005895,-1.3180910569399107,0.11485451281681072,0.1297524110163345,-0.0972361773368111,-5.321848069722186,1.6403236803052996,0
347,2024-09-28 16:38:45.956392192,TASK_BEGIN,023,1.0211050091770104,-0.21524899886587484,-1.3305899746472059,0.11058404594787016,0.07185811103227066,-0.07402160073956772,-5.105555191777934,1.599758578594073,0
348,2024-09-28 16:38:46.024162048,TASK_BEGIN,023,0.999452392302298,-0.20429462827382383,-1.3575332740488686,0.11457058833222493,0.0094245947492309,-0.0499130375276601,-4.93935333714659,1.5600534492395535,0
349,2024-09-28 16:38:46.091908864,TASK_BEGIN,023,0.9756131935441817,-0.19135901715302597,-1.4018125911989485,0.12663098530712297,-0.05557261444547527,-0.02556263980417816,-4.830501929490349,1.522042935479177,0
350,2024-09-28 16:38:47.035358976,TASK_BEGIN,023,0.9497920919318326,-0.17677875199556986,-1.4637566750751614,0.14569614901952702,-0.12111819031755454,-0.0014961196529429844,-4.782466871622539,1.4862973499595185,0
351,2024-09-28 16:38:47.103165952,TASK_BEGIN,023,0.9223530288347469,-0.161033291610547,-1.5410534827426534,0.1700324134688524,-0.18529075817727977,0.02187898142487328,-4.794905152003387,1.4532046682764832,0
352,2024-09-28 16:38:47.170897920,TASK_BEGIN,023,0.8938478360468679,-0.14472416535706925,-1.629125398461925,0.19749726802450582,-0.24633242830069663,0.044237872340194176,-4.864387456339536,1.423135658822211,0
353,2024-09-28 16:38:47.238590976,TASK_BEGIN,023,0.8649562694738694,-0.12852896744987785,-1.7219960558716603,0.2257754499332952,-0.30267968859005373,0.06529570868815063,-4.985429032795217,1.3966060787564207,0
354,2024-09-28 16:38:47.291554816,TASK_BEGIN,023,0.8363463351656956,-0.11313840499281437,-1.81341984864832,0.252567694664192,-0.3529865783441338,0.08477582005686257,-5.1511974621588,1.3743095080895635,0
355,2024-09-28 16:38:47.369949952,TASK_BEGIN,023,0.8085202352234055,-0.09918290911882474,-1.8978880457929905,0.27571625242024467,-0.39614730741397913,0.10239515624414672,-5.353646862900032,1.356977775107929,0
356,2024-09-28 16:38:47.441821952,TASK_BEGIN,023,0.7817328292697939,-0.08716363164621029,-1.9712185792130543,0.2932791462282465,-0.43131822383261614,0.11786697570290852,-5.5834834839144065,1.34519606661149,0
357,2024-09-28 16:38:48.361325056,TASK_BEGIN,023,0.7560287379559387,-0.07741084274319211,-2.030692663635938,0.303600835206079,-0.45793840468495356,0.1309176970468431,-5.830517040230092,1.3393306263645652,0
358,2024-09-28 16:38:48.429153792,TASK_BEGIN,023,0.7313585646547993,-0.07008037575829715,-2.074905617887886,0.30541537493377147,-0.4757308483416871,0.1413068776811007,-6.084509123476319,1.3395720834660765,0
359,2024-09-28 16:38:48.496250112,TASK_BEGIN,023,0.7076846989065093,-0.06517522860964763,-2.1035315977109676,0.29797142229065177,-0.484673375535379,0.1488398805956751,-6.336205586237494,1.345958816428986,0
360,2024-09-28 16:38:48.563823872,TASK_BEGIN,023,0.6850244383033909,-0.06257207850980613,-2.1171360445787615,0.2811418591196484,-0.4849658845457955,0.15337689078267036,-6.578138834934945,1.3582715149879145,0
361,2024-09-28 16:38:48.632289792,TASK_BEGIN,023,0.6634493282144865,-0.06204421757497781,-2.11707527618522,0.25547553241507015,-0.477017521332934,0.15484583985861722,-6.804869877002017,1.3758314318371376,0
362,2024-09-28 16:38:48.697613056,TASK_BEGIN,023,0.6430822014870103,-0.06328142338377837,-2.1054167755288864,0.2221511324344085,-0.4614400538038448,0.15325482163548376,-7.012545699747464,1.3973387375831152,0
363,2024-09-28 16:38:48.767716864,TASK_BEGIN,023,0.6241066774777253,-0.0659048272030409,-2.084775946755002,0.1828255431004205,-0.4390295435959579,0.14869638362914098,-7.197967831289183,1.4208579359885722,0
364,2024-09-28 16:38:49.710305792,TASK_BEGIN,023,0.6067814954069418,-0.06947611604811409,-2.058046777728784,0.13943198117220165,-0.4107304565645847,0.14134632817143,-7.357611623929025,1.4439443517856607,0
365,2024-09-28 16:38:49.768315904,TASK_BEGIN,023,0.5914466345785901,-0.07350976029466072,-2.028142581073718,0.09402114622749382,-0.37757163274625016,0.13146221123213106,-7.487020651887136,1.4638379031480504,0
366,2024-09-28 16:38:49.846590976,TASK_BEGIN,023,0.5784991562316057,-0.07749663239336431,-1.997894858860479,0.04869917881621671,-0.3405777497610352,0.11937886400826872,-7.580770391423412,1.4776800284122915,0
367,2024-09-28 16:38:49.908085248,TASK_BEGIN,023,0.5683155566307762,-0.08093537074802992,-1.9700438071489754,0.005630021148296415,-0.30070601135713715,0.10549907991352515,-7.632934915273442,1.4827613819362977,0
368,2024-09-28 16:38:49.970573056,TASK_BEGIN,023,0.5611240136892979,-0.08336264318078539,-1.9470401538248372,-0.032973557158571885,-0.25887398781617504,0.09028719198038172,-7.637839849109235,1.476793755140677,0
369,2024-09-28 16:38:50.049743872,TASK_BEGIN,023,0.5568645196023907,-0.08437860318908778,-1.9305822886220334,-0.06491911452676291,-0.2160798502919146,0.07426987952412364,-7.590838497337042,1.4581450024574596,0
370,2024-09-28 16:38:50.117478912,TASK_BEGIN,023,0.5550925367628237,-0.08366738764985503,-1.9212028985338767,-0.0881669194081772,-0.1735208081573752,0.05803220589573084,-7.488873670663431,1.4259683121784252,0
371,2024-09-28 16:38:51.060961792,TASK_BEGIN,023,0.5549815836645762,-0.08101276191726914,-1.9182044916609045,-0.10099596364380907,-0.13260086201158003,0.04219328071072757,-7.330747921770511,1.3802183745729117,0
372,2024-09-28 16:38:51.117893120,TASK_BEGIN,023,0.5554497189619808,-0.07631205340906556,-1.9199277637556225,-0.10216144523262029,-0.09481073626147371,0.02736215941016753,-7.117240156250669,1.3216034159123047,0
373,2024-09-28 16:38:51.195557120,TASK_BEGIN,023,0.5553644352802146,-0.06959163247697564,-1.9241970792380325,-0.0910219020302725,-0.061560183805464415,0.014090465181322134,-6.851221251051312,1.2515082776745496,0
374,2024-09-28 16:38:51.258368000,TASK_BEGIN,023,0.5537250051688988,-0.06101864752864418,-1.9288122124141545,-0.06764149399699548,-0.03405616089321423,0.002839216733437045,-6.53776873502145,1.1718972147214948,0
375,2024-09-28 16:38:51.320688896,TASK_BEGIN,023,0.549747631753791,-0.050898485170862866,-1.9319748435696962,-0.03285731950315733,-0.01326770418670222,-0.006032744129492672,-6.184210667104996,1.0852268306956463,0
376,2024-09-28 16:38:51.398795776,TASK_BEGIN,023,0.5428584069433608,-0.039653273486386205,-1.9325907713482933,0.011738319593401077,3.6584176857205734e-05,-0.012262656606564021,-5.800039094848327,0.9944026616197625,0
377,2024-09-28 16:38:51.467279104,TASK_BEGIN,023,0.5326452708575488,-0.02778376722259881,-1.9304516494693709,0.06393821488815107,0.0052212708866415675,-0.015669380220342023,-5.39663173452514,0.9027614540004704,0
378,2024-09-28 16:38:52.411537920,TASK_BEGIN,023,0.5188119399478157,-0.015820548254891903,-1.9263042504317223,0.12114854129856756,0.0017356202237358187,-0.01613755602852992,-4.986743096529208,0.8140229294344322,0
379,2024-09-28 16:38:52.479322880,TASK_BEGIN,023,0.5011593336610882,-0.004273704461374414,-1.921806687428969,0.18063527588991646,-0.010882847677530465,-0.013602470909528768,-4.58380028450212,0.7321633741725844,0
380,2024-09-28 16:38:52.546337024,TASK_BEGIN,023,0.4795985269626361,0.0064128182135874436,-1.9193574840858778,0.23975883841344695,-0.03295105083476166,-0.008037832362239363,-4.201137150696091,0.6611988995204339,0
381,2024-09-28 16:38:52.614806016,TASK_BEGIN,023,0.45416444987223836,0.01590311653813567,-1.9217027610494501,0.2961905245057636,-0.06456256133584398,0.0005483308477632926,-3.8513345528155525,0.6049091422438289,0
382,2024-09-28 16:38:52.682525952,TASK_BEGIN,023,0.42500001467294035,0.02400499101127193,-1.931213440569497,0.3480708175549364,-0.10554394118248957,0.012108701232837214,-3.5457594164728032,0.5665632823818135,0
383,2024-09-28 16:38:52.737172224,TASK_BEGIN,023,0.3923204874962783,0.030690299351801117,-1.948937182678657,0.39406209965725786,-0.15547861734252827,0.026549494410298788,-3.294270120558561,0.5487034050983407,0
384,2024-09-28 16:38:52.818036992,TASK_BEGIN,023,0.3563790866719078,0.03609757648834419,-1.9737606567984995,0.43330159768333554,-0.21377911388339033,0.043727861418887494,-3.1048998830785237,0.5529804121001332,0
385,2024-09-28 16:38:53.736272128,TASK_BEGIN,023,0.3174345492351278,0.04052247118079259,-2.0020493508236896,0.46531117792691223,-0.27976427260807735,0.06345628901492908,-2.983313546203192,0.579999909568663,0
386,2024-09-28 16:38:53.804256000,TASK_BEGIN,023,0.275727057428635,0.044396541110240995,-2.0280208345951807,0.48992833583939177,-0.3527007547665889,0.08551122064932692,-2.9321457202050376,0.6292092442615342,0
387,2024-09-28 16:38:53.866280960,TASK_BEGIN,023,0.23149524955125825,0.04824774789395297,-2.0448238716215066,0.5072918502630844,-0.4317639786385397,0.10963487943735131,-2.950568712008966,0.6989257550267199,0
388,2024-09-28 16:38:53.939897856,TASK_BEGIN,023,0.185052494833242,0.05264141558673211,-2.045857445820117,0.5178502950205197,-0.5159067472986931,0.13551894373100015,-3.034210997145238,0.7865232722619453,0
389,2024-09-28 16:38:54.007328000,TASK_BEGIN,023,0.13687867189427544,0.05811456444322281,-2.0257009907806447,0.5223118704780882,-0.6037061984560692,0.16277257852674862,-3.1752717281629783,0.8886732763557297,0
390,2024-09-28 16:38:54.069763840,TASK_BEGIN,023,0.08765467759811578,0.06512184846259945,-1.980437132858593,0.5214977374466236,-0.6932931739482142,0.1908916719558604,-3.362772037084869,1.001528600476591,0
391,2024-09-28 16:38:54.143155968,TASK_BEGIN,023,0.038217841475188266,0.07400197480165469,-1.9076981604569558,0.5161671595390246,-0.782407182672938,0.21925137466758507,-3.5830582611126354,1.1208041513474079,0
392,2024-09-28 16:38:55.086895872,TASK_BEGIN,023,-0.010522172464598469,0.08496212654305693,-1.8068766099201454,0.5069395562527891,-0.8685419560803792,0.24713762827722313,-3.8205791230497868,1.241779460089323,0
393,2024-09-28 16:38:55.154640896,TASK_BEGIN,023,-0.05767077952614863,0.09807333492719737,-1.6796484010686084,0.4943925825452871,-0.9491309711194695,0.27381334545009256,-4.058804527028466,1.3593045680368208,0
394,2024-09-28 16:38:55.221028096,TASK_BEGIN,023,-0.10243215220783272,0.11327062612685017,-1.530619300814779,0.4792818046110113,-1.0217553759096325,0.2985956786271151,-4.281271466082667,1.467921884092127,0
395,2024-09-28 16:38:55.284563968,TASK_BEGIN,023,-0.14417029795731878,0.13035621730764324,-1.367691878058697,0.4627016151489027,-1.084346331875298,0.320917134517657,-4.472884009976194,1.5621835140334175,0
396,2024-09-28 16:38:55.357452032,TASK_BEGIN,023,-0.18241070103132376,0.14900688838230633,-1.2018064533960742,0.4460406218625178,-1.1352898383770238,0.34034758087571276,-4.6213303405103545,1.637122434521453,0
397,2024-09-28 16:38:55.425615104,TASK_BEGIN,023,-0.2167752114971171,0.16878320494990676,-1.0460471915763299,0.43077196029701137,-1.1733643915604528,0.35656703802279016,-4.718129325208587,1.6887282956901974,0
398,2024-09-28 16:38:55.493457152,TASK_BEGIN,023,-0.2468772391460636,0.18913409986750035,-0.9143227461161847,0.4182359983401721,-1.1975882414828438,0.3693113329369898,-4.7589737350813435,1.7143123123305348,0
399,2024-09-28 16:38:56.429531904,TASK_BEGIN,023,-0.2722054195445707,0.20939468830348593,-0.8197762043796044,0.40949483643647266,-1.207137931997393,0.37833695412801005,-4.743500935024092,1.7127465619931073,0
400,2024-09-28 16:38:56.504358144,TASK_BEGIN,023,-0.2920344739427161,0.2287876496736916,-0.773127547486605,0.4052291227964034,-1.2014135927679883,0.3834310462535403,-4.674836391860068,1.684584376193045,0
401,2024-09-28 16:38:56.568724224,TASK_BEGIN,023,-0.3054272279664038,0.2464451124738359,-0.7813407660975958,0.4056675303309736,-1.1801991834897432,0.3844516254382056,-4.559136735877735,1.6320409325904668,0
402,2024-09-28 16:38:56.632728064,TASK_BEGIN,023,-0.311372073242114,0.2614600339950485,-0.8469378654154862,0.4105809412764096,-1.1438305854311803,0.3813711621542444,-4.405111666394581,1.5588219731194217,0
403,2024-09-28 16:38:56.707834880,TASK_BEGIN,023,-0.30902279587153625,0.27296306796092557,-0.9679128216603984,0.41931987709537466,-1.093322082503429,0.3743127713407523,-4.223380638749091,1.4698122755073888,0
404,2024-09-28 16:38:56.775603968,TASK_BEGIN,023,-0.2979344578319343,0.2802100400594586,-1.1379540229369844,0.4308463057484821,-1.030440036424403,0.36357777678283265,-4.025694682146832,1.3706489887553175,0
405,2024-09-28 16:38:56.832222976,TASK_BEGIN,023,-0.27819726682479096,0.2826583890937849,-1.3468269356955436,0.44378953129336485,-0.957709799019884,0.34965638732461296,-3.824253247586678,1.2672328209461445,0
406,2024-09-28 16:38:57.786799872,TASK_BEGIN,023,-0.2504578588065171,0.28001534960829577,-1.5810072781983433,0.45658812394420917,-0.878316344996885,0.3332084293448567,-3.631222350017503,1.1652670928248599,0
407,2024-09-28 16:38:57.854537216,TASK_BEGIN,023,-0.21588159299561835,0.27225288970840117,-1.8246016496780282,0.46769929702529983,-0.795879056391507,0.3150111085651542,-3.4583292065456006,1.0699220635312239,0
408,2024-09-28 16:38:57.920770048,TASK_BEGIN,023,-0.17609345728036008,0.2595951215329485,-2.0604042889975602,0.4758066763444926,-0.7141532619334792,0.29588784797534484,-3.3164024327697477,0.9856816530816898,0
409,2024-09-28 16:38:57.990039040,TASK_BEGIN,023,-0.13308920769077023,0.24249075119492994,-2.2709536981750187,0.47998842049143403,-0.6367453842625436,0.27664082927068595,-3.214832622327766,0.9163501089024457,0
410,2024-09-28 16:38:58.057768192,TASK_BEGIN,023,-0.0890827972850824,0.2215799941309244,-2.4396090655575007,0.4798267092745057,-0.5668868563802937,0.25800233908368203,-3.160923936878657,0.8650974772075891,0
411,2024-09-28 16:38:58.118326784,TASK_BEGIN,023,-0.04627331353264556,0.1976554037548915,-2.551746666106331,0.47542995391713605,-0.5072715484422446,0.24060545866200697,-3.1590744910267268,0.8343787713924924,0
412,2024-09-28 16:38:58.190465024,TASK_BEGIN,023,-0.006577261635367931,0.17161613873572856,-2.5960222611556976,0.4673419712630647,-0.4599648518213435,0.22496848367371441,-3.209867372427015,0.8256620054165325,0
413,2024-09-28 16:38:59.111984896,TASK_BEGIN,023,0.028584534206936327,0.14442072757964272,-2.5653490424839602,0.4563395359544862,-0.4263810802143509,0.21148844053356333,-3.309390411831765,0.8390801726968021,0
414,2024-09-28 16:38:59.179743232,TASK_BEGIN,023,0.05838963570689126,0.11703967764774063,-2.457350873577629,0.443201592330761,-0.40728276559888793,0.20043634033530558,-3.449184626445245,0.8732123313247657,0
415,2024-09-28 16:38:59.247461888,TASK_BEGIN,023,0.08261140331695209,0.09040452294800926,-2.27456222576447,0.42860448877506097,-0.40275078418577925,0.1919467770230873,-3.6170641542020765,0.9251402356569067,0
416,2024-09-28 16:38:59.299644928,TASK_BEGIN,023,0.10154409626083968,0.06535136879249209,-2.024643122284529,0.4131877392552168,-0.4121282176123114,0.1860057685748162,-3.7986389457817293,0.9907709958416863,0
417,2024-09-28 16:38:59.382950912,TASK_BEGIN,023,0.11589215083261899,0.04256048159576541,-1.7202906294570033,0.3976273859448397,-0.4339894268276124,0.18244997423398235,-3.978936629148373,1.065267592962691,0
418,2024-09-28 16:38:59.438890752,TASK_BEGIN,023,0.1266510786960919,0.022502698792346565,-1.3784060465198709,0.38256373930551185,-0.46618624914553164,0.18098623184730875,-4.1435187317298725,1.14341350167309,0
419,2024-09-28 16:38:59.516134912,TASK_BEGIN,023,0.13498327802157475,0.005413944111532127,-1.0186301514136207,0.3684663429012029,-0.5060006059430039,0.18123275314731335,-4.27891386792959,1.2198604135376212,0
420,2024-09-28 16:39:00.461136896,TASK_BEGIN,023,0.1420728079724191,-0.008686331173382173,-0.6617237472245528,0.3556398275090141,-0.5504086489322304,0.182778836684059,-4.372651900802891,1.2893315594834294,0
421,2024-09-28 16:39:00.529210112,TASK_BEGIN,023,0.14895858402863832,-0.019937741159394957,-0.32807938807040565,0.34442443373106646,-0.5964102293174295,0.18525220718259172,-4.413420899342458,1.3468702251925244,0
422,2024-09-28 16:39:00.586486016,TASK_BEGIN,023,0.15638570088152878,-0.028565983956026532,-0.036350947124071206,0.335434268241301,-0.6413225013609626,0.1883755836983869,-4.391740053742716,1.388167684157601,0
423,2024-09-28 16:39:00.664160000,TASK_BEGIN,023,0.16472842950026312,-0.034823060041721955,0.19786460861529834,0.32963910407266783,-0.6829571726110824,0.19199625140224152,-4.301091764847024,1.409950143999121,0
424,2024-09-28 16:39:00.726772992,TASK_BEGIN,023,0.17400620873352662,-0.038959914491259996,0.3631913228033732,0.32823127898848253,-0.7196685140284985,0.19608083193995693,-4.13899878016239,1.4103428398922444,0
425,2024-09-28 16:39:00.799984896,TASK_BEGIN,023,0.1839701843719614,-0.04122989484358014,0.4531819525121715,0.3323602831044656,-0.7502799877094091,0.20067719868453887,-3.9074231176012613,1.389077498877256,0
426,2024-09-28 16:39:00.864649216,TASK_BEGIN,023,0.1942118084845305,-0.04190325947131024,0.46632523452644536,0.342852567486816,-0.7739035750148482,0.20585706019948638,-3.6122158855790154,1.3474456310137115,0
427,2024-09-28 16:39:01.811507968,TASK_BEGIN,023,0.20424495659847167,-0.04127349331802031,0.4054704409830211,0.36000608628980885,-0.7897319682785683,0.21166279309490346,-3.261842621542404,1.2880029972766787,0
428,2024-09-28 16:39:01.879270144,TASK_BEGIN,023,0.21354347855706443,-0.039652146907029895,0.2770655340623983,0.38351039380544033,-0.7969443231199933,0.21808483655014968,-2.865895414414795,1.2141104327042789,0
429,2024-09-28 16:39:01.947035904,TASK_BEGIN,023,0.22155726026681768,-0.0373590702857797,0.09053078394706766,0.4124826712089165,-0.7948109356202503,0.2250837116893503,-2.4339677573900853,1.129440383894051,0
430,2024-09-28 16:39:02.014237952,TASK_BEGIN,023,0.22774190526497767,-0.03471081442760363,-0.14220728999807966,0.44556538720631156,-0.78294094675344,0.23264278720399476,-1.9752759814493264,1.037588623921429,0
431,2024-09-28 16:39:02.082573056,TASK_BEGIN,023,0.23161077052388873,-0.032004366570975044,-0.40720025359116213,0.4810445936606232,-0.7615166387396006,0.24081578629181077,-1.4989274050031987,0.9418551945230872,0
432,2024-09-28 16:39:02.136905984,TASK_BEGIN,023,0.23278809275690837,-0.02949440799211134,-0.6890716482278088,0.5169820322188238,-0.7313732406887725,0.249738821743296,-1.0143160493130796,0.8451239898761219,0
433,2024-09-28 16:39:02.214530048,TASK_BEGIN,023,0.2310435650232977,-0.02736680581756103,-0.9716426553133989,0.5513815489269682,-0.6938876737640493,0.25960205650411944,-0.5311458357413081,0.7497273653692889,0
434,2024-09-28 16:39:03.161724160,TASK_BEGIN,023,0.22631642899008317,-0.025716704883595915,-1.2385466083099033,0.5824121765196505,-0.6507368704368244,0.2705951430077016,-0.05897486797272543,0.6572875394388976,0
435,2024-09-28 16:39:03.228637952,TASK_BEGIN,023,0.21875676965676996,-0.02454264736624283,-1.4739145843736183,0.608653516466353,-0.6036170160298002,0.28284318697670296,0.3933609117470509,0.5686444508413507,0
436,2024-09-28 16:39:03.290283008,TASK_BEGIN,023,0.20879938677857768,-0.023764066210299757,-1.66318741039285,0.629259145988334,-0.5540147270483601,0.2963491379652123,0.8179307750760016,0.4839780357101823,0
437,2024-09-28 16:39:03.351886080,TASK_BEGIN,023,0.19724670724690513,-0.023258760006421766,-1.793956586460584,0.6439489093178358,-0.5031122640673937,0.31096261927195273,1.2073564549274174,0.4031124909149106,0
438,2024-09-28 16:39:03.429360128,TASK_BEGIN,023,0.1853086189490649,-0.022904158386293526,-1.8566798703135252,0.6528531999162032,-0.4518494356091743,0.32638780868604406,1.554300855484693,0.32585691580308895,0
439,2024-09-28 16:39:03.500554240,TASK_BEGIN,023,0.17455801987894887,-0.022601890822013967,-1.8452167825003325,0.6563205589064962,-0.40106504389218695,0.34221786343976324,1.851309241947176,0.2522199239034129,0
440,2024-09-28 16:39:03.567627008,TASK_BEGIN,023,0.16679581409396707,-0.022278837218377326,-1.7572192954879435,0.6547689293170824,-0.3515982375651052,0.357970850098356,2.0912418207418684,0.18244900767920552,0
441,2024-09-28 16:39:04.508702976,TASK_BEGIN,023,0.16385617001345845,-0.021878690135496794,-1.5944105487481053,0.6485926025995736,-0.30428780231703595,0.3731189026489625,2.2681607433107556,0.11696234301620242,0
442,2024-09-28 16:39:04.570599168,TASK_BEGIN,023,0.16740643931573312,-0.021360863017267206,-1.362711834416514,0.6381183007617731,-0.25989498732852395,0.3871203569722702,2.3783507016881895,0.05625665337559727,0
443,2024-09-28 16:39:04.646884096,TASK_BEGIN,023,0.17878334737324705,-0.020705623613136548,-1.0720851639758002,0.6235866706271772,-0.2190230697866004,0.3994617863468677,2.4212010133147865,0.0008255708028378776,0
444,2024-09-28 16:39:04.714586880,TASK_BEGIN,023,0.19887142532193766,-0.019912112969188926,-0.7359457486007719,0.6051071328356776,-0.1820898703481002,0.40970464657985056,2.399728313464739,-0.0489046586539195,0
445,2024-09-28 16:39:04.782339072,TASK_BEGIN,023,0.22801401537739668,-0.018983119305594418,-0.37009568139846616,0.5825659420040783,-0.14933718346018962,0.4175234308996217,2.3205191492986312,-0.09261802888920777,0
446,2024-09-28 16:39:04.850127872,TASK_BEGIN,023,0.265963036657495,-0.017903490133424415,0.008692413855349808,0.5555472883418401,-0.12081175436177707,0.4227215500690755,2.193005978838138,-0.13013797796230975,0
447,2024-09-28 16:39:04.917943808,TASK_BEGIN,023,0.3119004563988173,-0.016626465982893635,0.38412225954853524,0.5233616075803484,-0.09629070922717148,0.42521854030355555,2.0282747903564906,-0.16144972185860593,0
448,2024-09-28 16:39:05.860506112,TASK_BEGIN,023,0.36456839099875077,-0.015083596128645675,0.7415046781864553,0.48522850354223424,-0.07519472005260121,0.42501489230103034,1.837743848465809,-0.1866876892680234,0
449,2024-09-28 16:39:05.922569984,TASK_BEGIN,023,0.4225008056231476,-0.01322557149856926,1.068433028087486,0.4405690761553325,-0.05655466989665869,0.42215055828850906,1.6319114833299115,-0.20605125037681374,0
450,2024-09-28 16:39:05.990679040,TASK_BEGIN,023,0.48428571389207753,-0.011081702851667074,1.3550989301079834,0.38928827172331176,-0.03907373194537828,0.41667402971797257,1.419302496162649,-0.21968162869083188,0
451,2024-09-28 16:39:06.060312064,TASK_BEGIN,023,0.5487603816868695,-0.008809086583618737,1.5944269752019817,0.3319385094890968,-0.021282482794284154,0.4086310973086127,1.205880483212177,-0.22759627914809522,0
452,2024-09-28 16:39:06.132329728,TASK_BEGIN,023,0.6150704020545747,-0.006704307170084069,1.7821639834027163,0.26974682128829364,-0.0017309978284518897,0.39806991227702404,0.9950495849948522,-0.22971738391534693,0
453,2024-09-28 16:39:06.199956736,TASK_BEGIN,023,0.6825924860080983,-0.005168738022908681,1.9169038097045614,0.20457311892338478,0.02086805794359783,0.3850480642283677,0.7879148366582833,-0.2259226021056147,0
454,2024-09-28 16:39:06.267766784,TASK_BEGIN,023,0.7508048673897052,-0.004642989722903742,1.9998604341155521,0.13886003424352403,0.0476056278600867,0.3696271440302026,0.5834848396720486,-0.2160697943895826,0
455,2024-09-28 16:39:07.211368192,TASK_BEGIN,023,0.8192153868178716,-0.005543484481160108,2.0342870826871335,0.07553518058926036,0.07943876816298397,0.35185514051679445,0.37905295613679457,-0.20005417684331575,0
456,2024-09-28 16:39:07.279278080,TASK_BEGIN,023,0.887370446399322,-0.008226073011697423,2.024740652757771,0.017765844987442582,0.11725813032103206,0.331754838380942,0.1710969642014456,-0.17792386848405303,0
457,2024-09-28 16:39:07.347064064,TASK_BEGIN,023,0.9548582752619537,-0.012973425236022507,1.976495659538442,-0.03144138191116396,0.1618553390832003,0.3093366534278746,-0.043498481417808856,-0.14995021988023796,0
458,2024-09-28 16:39:07.413984000,TASK_BEGIN,023,1.0212298513692202,-0.019989030235552766,1.8952031938555858,-0.06965669663097446,0.21376799882753678,0.2846355849143168,-0.26641876171786066,-0.11655637576495807,0
459,2024-09-28 16:39:07.482535936,TASK_BEGIN,023,1.0858671182072377,-0.029391139285052516,1.7867168377286406,-0.09530107496862036,0.27307818762546987,0.2577555785836661,-0.49744694222033786,-0.07813938330320168,0
460,2024-09-28 16:39:07.550298112,TASK_BEGIN,023,1.1478841319157926,-0.041207360114799606,1.657028162749437,-0.10773189010232904,0.3392440510036676,0.22890672862678516,-0.734534989942017,-0.034906344137144545,0
461,2024-09-28 16:39:07.611181824,TASK_BEGIN,023,1.2061089282820416,-0.05536390909703273,1.5122517411710872,-0.10719126205197296,0.41098053987489974,0.19843187885010524,-0.9741607922284196,0.013178847032758819,0
462,2024-09-28 16:39:08.523504896,TASK_BEGIN,023,1.259143943554053,-0.07166461578246629,1.3585260009405857,-0.09467708617404991,0.4861973154588452,0.1668207422871574,-1.2117844450083433,0.06633889372778114,0
463,2024-09-28 16:39:08.602068224,TASK_BEGIN,023,1.305485639825271,-0.08977057114292562,1.2017407300933411,-0.07176332624901183,0.562049860065632,0.13470369251284553,-1.4423433768236258,0.12487289776551629,0
464,2024-09-28 16:39:08.672107008,TASK_BEGIN,023,1.3436700418254603,-0.10919766292965426,1.0471621624899847,-0.040383130126059805,0.6351519470981424,0.10282016896501495,-1.6606405881957913,0.1890078982289029,0
465,2024-09-28 16:39:08.738878976,TASK_BEGIN,023,1.3724024103329446,-0.1293376428298804,0.8991180256771283,-0.002606130468770591,0.7019262078486875,0.07196839545782117,-1.8615461889254987,0.25872135230837573,0
466,2024-09-28 16:39:08.800508928,TASK_BEGIN,023,1.3906581448566382,-0.14949864797076517,0.7608928788016469,0.03953988679077114,0.759021337238786,0.04294771055527558,-2.040201895492072,0.33361249996504455,0
467,2024-09-28 16:39:08.875346944,TASK_BEGIN,023,1.397774703440251,-0.16896028076381808,0.6349509062863005,0.08415538478032927,0.8037187424532316,0.01649955541100468,-2.1924264157887605,0.4128927867404099,0
468,2024-09-28 16:39:08.942210816,TASK_BEGIN,023,1.393538837658946,-0.1870369063988922,0.5234782147180158,0.12943895617343112,0.8342523007827283,-0.0067463499539496055,-2.315283651066388,0.49546166414423753,0
469,2024-09-28 16:39:09.854344960,TASK_BEGIN,023,1.3782334044695148,-0.20313853177606636,0.42900786386018697,0.17356497468325344,0.8499737847010203,-0.026306390804941453,-2.4076656430958985,0.5799815415706233,0
470,2024-09-28 16:39:09.929309952,TASK_BEGIN,023,1.352601713476635,-0.21681563971590567,0.35483381552845616,0.21456350996238266,0.8513325708993508,-0.0418467904523223,-2.4708141368170025,0.6649264735888472,0
471,2024-09-28 16:39:09.997030144,TASK_BEGIN,023,1.317733358231064,-0.22778041754227046,0.3050954631138283,0.2503310695098733,0.8396892882692208,-0.05316286190712847,-2.508681751415835,0.7486513268091487,0
472,2024-09-28 16:39:10.056310016,TASK_BEGIN,023,1.2749327213065205,-0.23591300619171768,0.284535620061966,0.2788400685586127,0.8170171018077241,-0.06015191498380592,-2.5277538351154347,0.8294940197973518,0
473,2024-09-28 16:39:10.132509952,TASK_BEGIN,023,1.2256359991970325,-0.24126674951972982,0.2979673460103128,0.2984878903834554,0.7855370490521135,-0.06278892085288924,-2.535885411787526,0.9058524846752465,0
474,2024-09-28 16:39:10.200256000,TASK_BEGIN,023,1.1713874489383178,-0.24406873268945636,0.3495477570424997,0.30843249197425426,0.7473216638715618,-0.06109834209660913,-2.5403079026233972,0.9761988799252884,0
475,2024-09-28 16:39:10.267964160,TASK_BEGIN,023,1.1138324808162516,-0.24469663287052024,0.44193266048322405,0.3087741186067417,0.7039453230699434,-0.05512099201871601,-2.5456582479458887,1.0390456962190255,0
476,2024-09-28 16:39:11.211678976,TASK_BEGIN,023,1.0546867347970907,-0.24362298460498547,0.5753248943038388,0.3005441107242023,0.6563000536002578,-0.044893307352758156,-2.5528996607944237,1.092885054245619,0
477,2024-09-28 16:39:11.279496704,TASK_BEGIN,023,0.9956804507870806,-0.24133817262213206,0.746578721672336,0.2855606652878162,0.6046352567076655,-0.030455312664610164,-2.5594540203682707,1.1361366722285893,0
478,2024-09-28 16:39:11.339442944,TASK_BEGIN,023,0.9384997778145018,-0.23827074696890999,0.9487326360098917,0.26622114321908935,0.5487715711577934,-0.01188488962981868,-2.5603272510267683,1.1671703069227288,0
479,2024-09-28 16:39:11.401928960,TASK_BEGIN,023,0.8847309312833718,-0.2347189629363895,1.1712833056585943,0.24523573851434516,0.48837823860408835,0.010656671702540513,-2.549752936381449,1.1844542655523091,0
480,2024-09-28 16:39:11.482760960,TASK_BEGIN,023,0.8357935996115158,-0.2308032957981924,1.401233109045003,0.2252789007788667,0.4232050586670976,0.03688775581655321,-2.5227951060493887,1.1868099850824971,0
481,2024-09-28 16:39:11.541142016,TASK_BEGIN,023,0.7928585074189353,-0.22644916306020038,1.6246528668505853,0.20859635902377152,0.3532170070094785,0.06639674600690669,-2.476367726808946,1.1736725500055558,0
482,2024-09-28 16:39:11.618000896,TASK_BEGIN,023,0.7567679946660456,-0.22140656907431147,1.8282994889536448,0.1966805539973678,0.27865777797262925,0.098662114911858,-2.409399653793067,1.145238359706395,0
483,2024-09-28 16:39:12.561740032,TASK_BEGIN,023,0.7279845929574174,-0.21530634820886965,2.000853662133874,0.19011529309539613,0.20009097795944195,0.13308432576890433,-2.3223834595160717,1.1024695612856674,0
484,2024-09-28 16:39:12.629529088,TASK_BEGIN,023,0.7065793871694241,-0.20774338736586567,2.133572403440044,0.18860414404061482,0.1184171255653209,0.16901140585361876,-2.2168739348052404,1.04704908667983,0
485,2024-09-28 16:39:12.697280000,TASK_BEGIN,023,0.6922617152239308,-0.19836878889201584,2.220314204883129,0.1911545115810195,0.034827451353462976,0.2057569963875169,-2.0953043655964385,0.9813691413368628,0
486,2024-09-28 16:39:12.765033984,TASK_BEGIN,023,0.6844398470524267,-0.1869687701600711,2.2570259075297323,0.1964006808043903,-0.04930452660519587,0.24261461419286368,-1.9610740843458974,0.9084968991059537,0
487,2024-09-28 16:39:12.832066816,TASK_BEGIN,023,0.6822843864508565,-0.17350908397608159,2.241021146814538,0.20300067047268236,-0.13253424311085601,0.27886095010499884,-1.8187149635757094,0.8320193437882768,0
488,2024-09-28 16:39:12.893372928,TASK_BEGIN,023,0.6847753778204437,-0.15813337965385152,2.170460806861186,0.20995849546721845,-0.21340841410111192,0.31374365463319903,-1.673988775257528,0.7557826747507423,0
489,2024-09-28 16:39:12.967580160,TASK_BEGIN,023,0.6907535141719152,-0.1411259468297313,2.0442442330560002,0.21674717538138746,-0.29048541738541345,0.3464699252568677,-1.5337978623094572,0.6836231172871262,0
490,2024-09-28 16:39:13.903496192,TASK_BEGIN,023,0.6990075374300297,-0.12286820218737449,1.8622586261018144,0.2232503649472496,-0.36235382161242696,0.37621672463375266,-1.4058501986174665,0.6191321799263985,0
491,2024-09-28 16:39:13.980135936,TASK_BEGIN,023,0.7083841932138913,-0.10381155542552055,1.6257643397690227,0.22965537353378593,-0.4276743672216654,0.4021635548751655,-1.298025891776886,0.5654083822313923,0
492,2024-09-28 16:39:14.044091136,TASK_BEGIN,023,0.7178601882538793,-0.0844642268088385,1.3377383476444897,0.23639411557763454,-0.4852520681212492,0.4235385071457481,-1.2173811992958066,0.5247558151435856,0
493,2024-09-28 16:39:14.115040000,TASK_BEGIN,023,0.726536963877435,-0.0653759658308843,1.003184193349786,0.24410605753122902,-0.534138903711542,0.43967620948013186,-1.16895653078647,0.4984010271580448,0
494,2024-09-28 16:39:14.183470080,TASK_BEGIN,023,0.7335865536156394,-0.04711207616896694,0.6294374560324507,0.2535514115912686,-0.5737475921790551,0.45008585098282466,-1.1547766129140615,0.48634800428228125,0
495,2024-09-28 16:39:14.251183104,TASK_BEGIN,023,0.7382119426962492,-0.030219891596276683,0.22636339284667514,0.2654626622665658,-0.6039394939398818,0.45451579266279307,-1.1732124775283121,0.48738137906520707,0
496,2024-09-28 16:39:14.318981888,TASK_BEGIN,023,0.7396688480846124,-0.015196137282951813,-0.19368754443681757,0.2803798450715456,-0.6250718440257891,0.4529989902709609,-1.2186215592925322,0.49914152293343056,0
497,2024-09-28 16:39:15.261871104,TASK_BEGIN,023,0.7373577566288511,-0.002465793390709138,-0.616238458767524,0.2985083624030083,-0.6380152557745394,0.4458702946525698,-1.281386963839056,0.5182717577043532,0
498,2024-09-28 16:39:15.329649920,TASK_BEGIN,023,0.7309494062337341,0.007620731177329648,-1.025376239137224,0.31961452696824894,-0.6441306371365418,0.43374949917402295,-1.3486847447438526,0.5407101115861439,0
499,2024-09-28 16:39:15.384933120,TASK_BEGIN,023,0.7204808811563546,0.014778394091720935,-1.4046868644574433,0.34297034792503045,-0.6451645147536196,0.41748896609361086,-1.4060461356469633,0.5621403833272858,0
500,2024-09-28 16:39:15.465181184,TASK_BEGIN,023,0.706388458152851,0.01878147881765362,-1.7382315532369181,0.3673423702974105,-0.6430541020990531,0.3981008016888906,-1.439388256609373,0.5785423813863612,0
501,2024-09-28 16:39:15.532958976,TASK_BEGIN,023,0.689489476906997,0.019470725083734024,-2.011389679807373,0.39100508241868825,-0.639710458335152,0.3766901542809697,-1.437085394931919,0.5867570172254543,0
502,2024-09-28 16:39:15.600743168,TASK_BEGIN,023,0.6709321903722816,0.01677377776022367,-2.211582461010298,0.4118188575498112,-0.6368630392309856,0.3544083445275875,-1.3917272220156376,0.5849521110420081,0
503,2024-09-28 16:39:15.663768064,TASK_BEGIN,023,0.6521145440907681,0.010732781962371513,-2.3290389060878955,0.4274749106485164,-0.6359610279686848,0.33241274444189794,-1.301205927531103,0.5728514988604726,0
504,2024-09-28 16:39:16.604186112,TASK_BEGIN,023,0.6345595479674822,0.0015293946782445052,-2.357654044431887,0.4359108385920237,-0.6380609329717338,0.31181143897815955,-1.1688138115719353,0.5516480563559442,0
505,2024-09-28 16:39:16.667136000,TASK_BEGIN,023,0.6197427484929823,-0.010502834185147837,-2.2956963348436896,0.435713861421696,-0.6436873805642069,0.29359031217892617,-1.0023106074290984,0.523633671785756,0
506,2024-09-28 16:39:16.745243136,TASK_BEGIN,023,0.6089012625780728,-0.02488444027115829,-2.1460314804899334,0.42632051028023255,-0.6527394455653501,0.2785433035147685,-0.812295796169927,0.4916637115681893,0
507,2024-09-28 16:39:16.807728128,TASK_BEGIN,023,0.602867619529503,-0.041011301037256906,-1.9157743833636571,0.4080056560305493,-0.6645109395334908,0.26722825518961757,-0.610437512228956,0.4586075197329458,0
508,2024-09-28 16:39:16.868928000,TASK_BEGIN,023,0.6019408147842064,-0.05817911540594454,-1.615573933865406,0.38178113661386803,-0.677832214263198,0.25995696248608396,-0.4080342224306847,0.4269176289011337,0
509,2024-09-28 16:39:16.946362112,TASK_BEGIN,023,0.6057923362303568,-0.07560119145168837,-1.25884249334727,0.34929594040502454,-0.6912988520450289,0.25681640269422445,-0.21513743795507229,0.3984035955108536,0
510,2024-09-28 16:39:17.018560768,TASK_BEGIN,023,0.6134402083378989,-0.09242579472989715,-0.8611028427591297,0.31275528243329315,-0.7035421628330911,0.2577123420167787,-0.040301603019445444,0.3742566225715241,0
511,2024-09-28 16:39:17.948172032,TASK_BEGIN,023,0.6233454081953006,-0.10777091503865316,-0.43935265330515644,0.27483370399387547,-0.7135058596414933,0.2624243620928704,0.10912477012946628,0.35529637424099536,0
512,2024-09-28 16:39:18.025999104,TASK_BEGIN,023,0.6336382754224222,-0.12078470248073964,-0.011302178832767566,0.2385496040519685,-0.7207015136688734,0.27066179954836933,0.2266019753218288,0.34228823672665876,0
513,2024-09-28 16:39:18.088485120,TASK_BEGIN,023,0.6424060671453635,-0.13071864240764058,0.40536788221171016,0.20708512136244916,-0.7253958533083235,0.28211122446851644,0.30650814243912294,0.3361288222560612,0
514,2024-09-28 16:39:18.165294848,TASK_BEGIN,023,0.6479305735533677,-0.13698867292411154,0.7934600736714087,0.18354812356061886,-0.7286672383339894,0.2964698556359514,0.3449232994568541,0.33780624373495494,0
515,2024-09-28 16:39:18.233050112,TASK_BEGIN,023,0.6487890643109226,-0.13920654552657602,1.1365139016539376,0.17067320600349176,-0.7323051513662084,0.31346486419135244,0.34066256724376587,0.3481946853818487,0
516,2024-09-28 16:39:18.300866048,TASK_BEGIN,023,0.6438204850575817,-0.13718361756334607,1.419220138971107,0.17050822256144244,-0.7385818561996299,0.33285969903538737,0.29604892752399675,0.36779164357784555,0
517,2024-09-28 16:39:18.366999040,TASK_BEGIN,023,0.6320423802701219,-0.13092349600092418,1.6280719284936225,0.1842153444797647,-0.7499525716810187,0.3544482898217984,0.21711462301634488,0.39648994497191575,0
518,2024-09-28 16:39:19.278017024,TASK_BEGIN,023,0.6126062081394175,-0.12061542918442619,1.7519741119774626,0.2120846030666084,-0.768745502144603,0.3780408913759718,0.11304089408826384,0.4334708688733975,0
519,2024-09-28 16:39:19.340046848,TASK_BEGIN,023,0.5848278575544906,-0.10662750901335713,1.782637082374975,0.2537185345787582,-0.7968890798160626,0.40344483675259996,-0.005110337329264396,0.4772495512835869,0
520,2024-09-28 16:39:19.421484800,TASK_BEGIN,023,0.5482856240769076,-0.08949374636556838,1.7149099520735245,0.3082680654423331,-0.8356959328301032,0.43043767360183377,-0.12591400740384406,0.5257881693509502,0
521,2024-09-28 16:39:19.485737984,TASK_BEGIN,023,0.5029363119998758,-0.06988876892657124,1.5473010302605676,0.37462070245314294,-0.8857095819073484,0.458730972753158,-0.23876530108964963,0.5765642331351758,0
522,2024-09-28 16:39:19.556884992,TASK_BEGIN,023,0.44917505615962383,-0.04858314962417374,1.2827058878531907,0.4514892892081218,-0.946622527100357,0.4879359523385547,-0.3345525320584904,0.6266011365039149,0
523,2024-09-28 16:39:19.618484736,TASK_BEGIN,023,0.38780328273373554,-0.026380807035010206,0.9290888318816088,0.5373902974808534,-1.017261691854805,0.5175504186501776,-0.4061419450594687,0.6725683973595551,0
524,2024-09-28 16:39:19.680489984,TASK_BEGIN,023,0.3199411495586891,-0.004056285738870772,0.4998087359291844,0.6305296357039519,-1.0956070995453173,0.5469728568647402,-0.4489903514199616,0.7110069150781301,0
525,2024-09-28 16:39:20.605372928,TASK_BEGIN,023,0.2469401611942579,0.01768714837223636,0.013337144164160935,0.7286632197897038,-1.1788107560362173,0.5755264514440895,-0.46176664992677574,0.7386256662064292,0
526,2024-09-28 16:39:20.678543872,TASK_BEGIN,023,0.1703167615692949,0.03823471032415542,-0.5078912581648406,0.8290613403776369,-1.263234601726061,0.602471949882412,-0.4465628826517384,0.7525866133981403,0
527,2024-09-28 16:39:20.734500096,TASK_BEGIN,023,0.09170289639610005,0.05706654413050986,-1.0395361300013586,0.9286588716739119,-1.3445733343489148,0.6270085304745987,-0.408462679861195,0.7507483467034564,0
528,2024-09-28 16:39:20.812197888,TASK_BEGIN,023,0.012805631674764183,0.0737678731510467,-1.5577431117289704,1.0243167043803223,-1.4181117488070902,0.6482828823552192,-0.3546500536184697,0.7318790270384614,0
529,2024-09-28 16:39:20.881862912,TASK_BEGIN,023,-0.06463414867207218,0.08804236316118029,-2.040935899950925,1.1130395512672124,-1.4790951761647568,0.6654264868955714,-0.29329908549730915,0.6957938371816338,0
530,2024-09-28 16:39:20.935391744,TASK_BEGIN,023,-0.1388826827590796,0.09971563591979958,-2.470513096419092,1.1920631990841166,-1.5231308297902415,0.6776223980069928,-0.23228607210539434,0.643319702276925,0
531,2024-09-28 16:39:21.012953088,TASK_BEGIN,023,-0.20823779955832386,0.10871913837015104,-2.830751268986866,1.2588382662745057,-1.5465398976745246,0.6841845657997186,-0.17789839787498407,0.5760884571950576,0
532,2024-09-28 16:39:21.956455168,TASK_BEGIN,023,-0.27103173250484125,0.11505612414254769,-3.1086246418982624,1.3110058954631414,-1.5466321478698688,0.6846277795305504,-0.13397024195256974,0.49629129672347205,0
533,2024-09-28 16:39:22.018553088,TASK_BEGIN,023,-0.32562757073543896,0.11875895395395139,-3.294043129260195,1.3464456688450996,-1.5219172454969807,0.6787137695319141,-0.1017051146379399,0.4065019297044237,0
534,2024-09-28 16:39:22.096920832,TASK_BEGIN,023,-0.3704265700946715,0.11984963618683228,-3.3804794459974574,1.3633874214444093,-1.4722541730156486,0.6664697011818705,-0.08008508195195986,0.30956973147241534,0
535,2024-09-28 16:39:22.164637952,TASK_BEGIN,023,-0.4038954070642464,0.11831658984271216,-3.365573362210889,1.3605063925954222,-1.3989041970961456,0.6481829891286238,-0.06663508480433225,0.20854501165346634,0
536,2024-09-28 16:39:22.219361024,TASK_BEGIN,023,-0.42461804763311983,0.11411816966089576,-3.251338765743933,1.3369538025675325,-1.3044554610953827,0.6243792752578307,-0.05829156332084161,0.10660993309377442,0
537,2024-09-28 16:39:22.300218880,TASK_BEGIN,023,-0.43138093770822933,0.10721340100713381,-3.04392318638733,1.292372632875128,-1.1926233114504754,0.5957884847022501,-0.052092632036719724,0.007004810199591305,0
538,2024-09-28 16:39:22.358241024,TASK_BEGIN,023,-0.4233136650238918,0.09760886811841148,-2.7531288368196227,1.2269952055439703,-1.067965970515118,0.5633030838440355,-0.04552786279585558,-0.0870359173748429,0
539,2024-09-28 16:39:23.303860224,TASK_BEGIN,023,-0.4000942639485649,0.08540606985607543,-2.3918740674286925,1.1418518757482252,-0.9355758496749196,0.5279358007002175,-0.036642147868987944,-0.1723237351562095,0
540,2024-09-28 16:39:23.366184960,TASK_BEGIN,023,-0.36216411907528934,0.07083151689276772,-1.9755396860654564,1.0389769214012166,-0.8007947770838179,0.49078273554166685,-0.02411418988344824,-0.24576849375213408,0
541,2024-09-28 16:39:23.443262208,TASK_BEGIN,023,-0.3108541262802173,0.05423568151618583,-1.5210448200406814,0.9214268666343972,-0.668948562834145,0.4529876000770359,-0.007458383961200559,-0.30451101155936106,0
542,2024-09-28 16:39:23.514665984,TASK_BEGIN,023,-0.24836335575875967,0.03606360829602708,-1.045713150689697,0.7930415940192946,-0.5450543281608025,0.4156960238263362,0.01264968739591769,-0.34614416926554537,0
543,2024-09-28 16:39:23.582462208,TASK_BEGIN,023,-0.17759583211526597,0.01681366533431388,-0.5662441641036046,0.6580604505761103,-0.43349645203872483,0.37999869825121546,0.03407873739389649,-0.3689416628806238,0
544,2024-09-28 16:39:23.650194944,TASK_BEGIN,023,-0.10189318063900056,-0.0030026762380846433,-0.09804423238183918,0.5207573147090789,-0.3377531806478146,0.34687831825049464,0.05320330509895616,-0.37201110265100695,0
545,2024-09-28 16:39:23.705564928,TASK_BEGIN,023,-0.024720340276431996,-0.022896064761792605,0.34511708878000175,0.3851827601755927,-0.2602602116563659,0.3171765073410768,0.06528152900094909,-0.35536457330630383,0
546,2024-09-28 16:39:24.661419008,TASK_BEGIN,023,0.05062256643890808,-0.04242761285771752,0.7513336068572697,0.2550136593734152,-0.20240602467060392,0.2915809320680086,0.06523342858343759,-0.31993774659837426,0
547,2024-09-28 16:39:24.729233920,TASK_BEGIN,023,0.12119675251428808,-0.0612274959106078,1.1108131217540993,0.1334600577300561,-0.1645822984694077,0.27061665386212647,0.04857926543491489,-0.26756031009226916,0
548,2024-09-28 16:39:24.796988928,TASK_BEGIN,023,0.1845059624237979,-0.07900129090626558,1.41615925948722,0.023172509113989964,-0.14624094251623182,0.25462866391744604,0.012248791245204633,-0.20088024821409586,0
549,2024-09-28 16:39:24.864733952,TASK_BEGIN,023,0.23850484983358333,-0.09552405194156834,1.6626519465813405,-0.07386967652081769,-0.14598972982714695,0.24376375596306188,-0.044828230283175695,-0.12328781552702565,0
550,2024-09-28 16:39:24.924196096,TASK_BEGIN,023,0.28161866005020936,-0.11062759785214346,1.848470356909261,-0.15645393371876212,-0.16177915132854037,0.23797033951508428,-0.12125716250853975,-0.03887843175962627,0
551,2024-09-28 16:39:25.000287232,TASK_BEGIN,023,0.3128266645745515,-0.12418943160644036,1.9747326894310322,-0.22415934815539548,-0.19115614478940196,0.23701805875271587,-0.21275460157060616,0.047583831614721905,0
552,2024-09-28 16:39:25.063536896,TASK_BEGIN,023,0.3317826049750896,-0.13612598303694992,2.045266668252541,-0.27730412085372175,-0.23148749192239723,0.24052155718371518,-0.3118602739043609,0.13080338960578683,0
553,2024-09-28 16:39:26.011500032,TASK_BEGIN,023,0.3388984328341431,-0.14638514474782724,2.0661360691647066,-0.31685290160184326,-0.28007821333079974,0.24795702049693777,-0.40806344768458297,0.20526429051610243,0
554,2024-09-28 16:39:26.065464064,TASK_BEGIN,023,0.33533874608937675,-0.15493440871914774,2.0449213243827025,-0.3442747322174085,-0.3341762903374685,0.25867169297211196,-0.48856078947513837,0.2656890415528334,0
555,2024-09-28 16:39:26.142723072,TASK_BEGIN,023,0.32290781902827465,-0.16174809055155734,1.9897365860647165,-0.36128481783093613,-0.39090987260803134,0.2718922403893425,-0.5395973314568265,0.3075406884349924,0
556,2024-09-28 16:39:26.205698048,TASK_BEGIN,023,0.3038235383813149,-0.1667984201398815,1.9081705621583251,-0.3694708216760724,-0.4472568351403079,0.2867421773146042,-0.5481094106763017,0.32745541991190036,0
557,2024-09-28 16:39:26.267704064,TASK_BEGIN,023,0.2804110442812272,-0.17005108523954024,1.8065377324035097,-0.3699363266191324,-0.500152516247084,0.30228039382165783,-0.5033058765753629,0.3235281319821216,0
558,2024-09-28 16:39:26.344856064,TASK_BEGIN,023,0.25479902281549677,-0.17146360920254536,1.689745076506486,-0.3631256990455699,-0.5467607828123241,0.31756753239822355,-0.3979799164594495,0.2954246960203338,0
559,2024-09-28 16:39:26.418108928,TASK_BEGIN,023,0.2286866575586289,-0.17098523700083432,1.5617450578188863,-0.34889123510938114,-0.5848274850076725,0.33175413639184725,-0.22957264032275304,0.24433429452875013,0
560,2024-09-28 16:39:27.361587200,TASK_BEGIN,023,0.20320362845318227,-0.1685599755696067,1.4261868384146408,-0.3267320825628683,-0.6129749189558644,0.34416714916359303,-0.0008768136544432528,0.17279002831352805,0
561,2024-09-28 16:39:27.419110144,TASK_BEGIN,023,0.1788756212410323,-0.16413895943955434,1.286815965413061,-0.29608370559345537,-0.6308226827502071,0.35436691653767266,0.28006806026360537,0.08440429162781535,0
562,2024-09-28 16:39:27.481594880,TASK_BEGIN,023,0.15569705942542997,-0.1577042718717427,1.1474876546236252,-0.25656210085475983,-0.6389133769307085,0.3621647864065651,0.601127505360265,-0.016414951292282397,0
563,2024-09-28 16:39:27.559286016,TASK_BEGIN,023,0.13327608771704927,-0.14929209691758522,1.0119682979587323,-0.20810574206750607,-0.6384906316465025,0.36760805531298063,0.9477793197843097,-0.1247256624610998,0
564,2024-09-28 16:39:27.632544000,TASK_BEGIN,023,0.11099578608960513,-0.13899815724702713,0.8836892410550778,-0.15100209100092293,-0.6312064787021742,0.37094017134997753,1.3046250502255647,-0.23531116261266213,0
565,2024-09-28 16:39:27.698105088,TASK_BEGIN,023,0.08814616677718708,-0.12696269025866316,0.7654867067437208,-0.08584236624417385,-0.6188485286203906,0.3725426762266863,1.6564329600096124,-0.34296831647251463,0
566,2024-09-28 16:39:27.760143104,TASK_BEGIN,023,0.06400906400508376,-0.1133454000226096,0.6594169695849265,-0.01348795983833795,-0.6031331868182384,0.3728656092897765,1.988831673269468,-0.44278466071578765,0
567,2024-09-28 16:39:28.705393152,TASK_BEGIN,023,0.03790704243489989,-0.09830090845195143,0.5668700874950183,0.06488078000642028,-0.5855457497737823,0.37235509638547154,2.288755878491922,-0.5303312153003523,0
568,2024-09-28 16:39:28.766629888,TASK_BEGIN,023,0.00924833222018974,-0.08196753042628326,0.4890894086857794,0.14763003292655505,-0.5672108079543947,0.37139220684278024,2.544696556315621,-0.6017746104771754,0
569,2024-09-28 16:39:28.847256064,TASK_BEGIN,023,-0.02238522134174612,-0.06448772206219382,0.42784233165389246,0.2325273782222997,-0.5488093450103068,0.3702549107640496,2.7467847836248023,-0.6539800642446795,0
570,2024-09-28 16:39:28.905374976,TASK_BEGIN,023,-0.057081595657368554,-0.046065194072325163,0.3857807596239342,0.3166989918457872,-0.5305648800686367,0.36910356246974235,2.886750738307395,-0.6846415052951471,0
571,2024-09-28 16:39:28.982164992,TASK_BEGIN,023,-0.09442562960749862,-0.027033079111233278,0.36621467239393696,0.39678182518618427,-0.5123205224543906,0.3679844587147599,2.9579338193433595,-0.6924070629033097,0
572,2024-09-28 16:39:29.043726080,TASK_BEGIN,023,-0.13341148197821975,-0.00789299553698108,0.3723740159137198,0.46929379036180713,-0.4937088020398266,0.366848176389921,2.955525627526075,-0.6769556146210187,0
573,2024-09-28 16:39:29.105396992,TASK_BEGIN,023,-0.17249305566787895,0.010697498144073439,0.4064600083506152,0.5311418319162152,-0.4743620278404707,0.36558060315428786,2.8770758895597153,-0.6390274292607151,0
