,time,MARKER,pid,L_O_DSI,L_D_DSI,L_O_DSphi,L_D_DSphi,R_O_DSI,R_D_DSI,R_O_DSphi,R_D_DSphi,trial_id
0,2024-09-28 16:50:04.606743040,TASK_BEGIN,023,-0.08409950262647277,-0.24487261337338975,-1.5500592305251737,0.007262891732113637,0.08724921568245111,-0.019615146569674856,-1.244227165081772,1.1979244830398252,2
1,2024-09-28 16:50:04.669230848,TASK_BEGIN,023,-0.1470572169036757,-0.2730217168281104,-1.018174276177483,-0.03719812115834,0.0026639875751748674,-0.00048468078915060015,-0.9114997387732645,1.0133909866825312,2
2,2024-09-28 16:50:04.746897920,TASK_BEGIN,023,-0.2076222121090462,-0.3018419402498812,-0.5078997818489551,-0.07920789879876174,-0.08278627589312731,0.018625771260564833,-0.5926430206180284,0.8362042992574813,2
3,2024-09-28 16:50:04.818801920,TASK_BEGIN,023,-0.26332544539724956,-0.33163827786286754,-0.03927827254056534,-0.11465187256355827,-0.16880179707116705,0.037524548066202625,-0.2937044579384428,0.6720164920744739,2
4,2024-09-28 16:50:05.737672192,TASK_BEGIN,023,-0.31226563327960793,-0.36247114138740644,0.37017722170125134,-0.13926386848998745,-0.25486299403722384,0.0561078547277657,-0.018489137832234763,0.5252211287276319,2
5,2024-09-28 16:50:05.805460992,TASK_BEGIN,023,-0.3532693489661791,-0.3940845453600337,0.7063971200941751,-0.1487559107162867,-0.34018177788304466,0.0743759411408345,0.2318667598770613,0.398602222357584,2
6,2024-09-28 16:50:05.860641024,TASK_BEGIN,023,-0.3859380117223714,-0.4258654903774323,0.9592359279888575,-0.1390235066562061,-0.4236712894070144,0.09241742239223372,0.45895600942757475,0.2932037995169371,2
7,2024-09-28 16:50:05.938268672,TASK_BEGIN,023,-0.4105998829234283,-0.4568385569775699,1.122671164505964,-0.10643152413061262,-0.5039686101801291,0.1103687009493021,0.6666877861540903,0.20843169825015054,2
8,2024-09-28 16:50:06.000878080,TASK_BEGIN,023,-0.4281928644952968,-0.48571501628316405,1.1949057901768723,-0.04820739728541379,-0.5795452508781381,0.12836644495129626,0.8603276899078778,0.14238244538848902,2
9,2024-09-28 16:50:06.063576832,TASK_BEGIN,023,-0.44009148048136165,-0.5110136064545594,1.1784113220345844,0.03704035571872803,-0.6488807457128345,0.14651136465417017,1.0451109655166262,0.09235217657062454,2
10,2024-09-28 16:50:06.140777216,TASK_BEGIN,023,-0.44789775198350706,-0.5312375945521071,1.0798261213838467,0.1487598558427222,-0.7106148018889297,0.16484855037454954,1.2247922393064254,0.05541344895934332,2
11,2024-09-28 16:50:07.087696896,TASK_BEGIN,023,-0.45322925828467714,-0.5450617432762381,0.9095826396252494,0.2840887915894225,-0.7636140354213728,0.1833587076890743,1.4005907203254937,0.028913928764247573,2
12,2024-09-28 16:50:07.156129024,TASK_BEGIN,023,-0.4575180732268018,-0.551489593117441,0.6812069544433991,0.43793377409680273,-0.8069631732867156,0.20195439975485596,1.5708472982183768,0.010780716224163036,2
13,2024-09-28 16:50:07.218705920,TASK_BEGIN,023,-0.46181647507359797,-0.5499692999485523,0.4103392171107793,0.6035509001221908,-0.8399360594377021,0.22047801064092615,1.731377577868809,-0.0004062173058960877,2
14,2024-09-28 16:50:07.291380736,TASK_BEGIN,023,-0.46663867712240475,-0.5404604817663514,0.11357247316271368,0.773449444587966,-0.8619972131558257,0.23870110300167247,1.8762404594106536,-0.005523605311466835,2
15,2024-09-28 16:50:07.359428096,TASK_BEGIN,023,-0.4718977083518975,-0.523433474808907,-0.19272633260335917,0.9403189962527259,-0.8728587561474346,0.25633216328234737,1.998708906855314,-0.0051135942182791785,2
16,2024-09-28 16:50:07.422194944,TASK_BEGIN,023,-0.4769624796831779,-0.49979773848614234,-0.4934180936178143,1.0977411060161362,-0.8725878640554736,0.2730422328074929,2.0924287738602176,0.00038554009353122766,2
17,2024-09-28 16:50:07.494316288,TASK_BEGIN,023,-0.48081064856750955,-0.470784919140881,-0.7753424844115987,1.2406258940905444,-0.8617253223094288,0.2885059918096514,2.152674071659837,0.010458066213785554,2
18,2024-09-28 16:50:08.434660864,TASK_BEGIN,023,-0.48223727932311244,-0.43781653359755973,-1.0278500806868176,1.3654065419062693,-0.8413524060379016,0.3024416758462038,2.177380852120442,0.02443257294491139,2
19,2024-09-28 16:50:08.504605952,TASK_BEGIN,023,-0.4800787115159774,-0.4023741546861405,-1.2431168200680665,1.4700107062620589,-0.8130658594943169,0.31463485947402975,2.1676709378630457,0.04150389905315277,2
20,2024-09-28 16:50:08.571757056,TASK_BEGIN,023,-0.47341714151522246,-0.36588314655990306,-1.4162296966287227,1.5536631756100812,-0.7788805644075816,0.32494547745400626,2.1277429132716854,0.060813396034709116,2
21,2024-09-28 16:50:08.633529856,TASK_BEGIN,023,-0.4617419415233144,-0.3296196250976808,-1.5450956670366534,1.616635715065634,-0.7411083109652888,0.3333059586811362,2.064112339119668,0.08156262522715621,2
22,2024-09-28 16:50:08.695571712,TASK_BEGIN,023,-0.44504224308351503,-0.29464774094107876,-1.6302483361971094,1.6600353079254986,-0.7022283728753248,0.33971481604168724,1.9844605414699001,0.10313704119202712,2
23,2024-09-28 16:50:08.775636992,TASK_BEGIN,023,-0.4238077377069825,-0.26178781733623036,-1.6745553857491857,1.6856486383540954,-0.6647286135554503,0.34422451287543665,1.8966243389459778,0.12517886076371948,2
24,2024-09-28 16:50:08.843386880,TASK_BEGIN,023,-0.39894164407446137,-0.23161014845335723,-1.6827621728135727,1.6958074920482042,-0.630905215951636,0.34692238974444206,1.8080003982156179,0.14755159022101588,2
25,2024-09-28 16:50:09.753881856,TASK_BEGIN,023,-0.37162298353176565,-0.20444842861636897,-1.660873832765224,1.6932173711475704,-0.6026476712883808,0.3479077964138833,1.725165792777493,0.170198090005846,2
26,2024-09-28 16:50:09.815905024,TASK_BEGIN,023,-0.34316571139594365,-0.18042611889585067,-1.6154894228948007,1.6807196556869246,-0.5812668032848409,0.34727315557406513,1.6534861466723585,0.19294253091531455,2
27,2024-09-28 16:50:09.897499136,TASK_BEGIN,023,-0.31490418342482,-0.15948772717265247,-1.5531890924374778,1.6610215654635374,-0.567421065960097,0.3450962163259175,1.5967003455355326,0.21531962793439427,2
28,2024-09-28 16:50:09.955311104,TASK_BEGIN,023,-0.28811156001237187,-0.14142954650732686,-1.4800109602021885,1.6364627232317481,-0.5611525325263247,0.341443451101063,1.556495992187256,0.23655130111249936,2
29,2024-09-28 16:50:10.032536832,TASK_BEGIN,023,-0.2639478753283454,-0.12592957989084333,-1.401052694439864,1.608862291763324,-0.5619969678462371,0.3363796970570369,1.5321234194898614,0.25573773826249774,2
30,2024-09-28 16:50:10.100827904,TASK_BEGIN,023,-0.2434294610608748,-0.11257830971778257,-1.3202678479334313,1.579455093081251,-0.5691264106616702,0.3299851919286009,1.5203207123411389,0.27216005757265355,2
31,2024-09-28 16:50:10.168584192,TASK_BEGIN,023,-0.22741121157205435,-0.10090824464381118,-1.2405271898045194,1.5489315587741668,-0.5814980912567514,0.32238525265133294,1.5158129658022685,0.28550679001930335,2
32,2024-09-28 16:50:11.103776000,TASK_BEGIN,023,-0.2165827095236048,-0.0904178144280231,-1.163917330738935,1.5175956968776818,-0.5979823176064982,0.3137856476506338,1.5122773728425778,0.29593053165826555,2
33,2024-09-28 16:50:11.179357952,TASK_BEGIN,023,-0.21148357624041544,-0.08059063550930767,-1.0921056130235594,1.485591314551974,-0.617446115746661,0.30449307028603423,1.5034763628345118,0.3039423670075173,2
34,2024-09-28 16:50:11.247507968,TASK_BEGIN,023,-0.21253098130338724,-0.07091627695804407,-1.0265423865564927,1.4530941679658724,-0.638803042483126,0.2949064675503035,1.4843732999798416,0.31018904890895926,2
35,2024-09-28 16:50:11.314249984,TASK_BEGIN,023,-0.22003278282581787,-0.06091707452780017,-0.9683585901184335,1.4204075594464298,-0.6610648291370272,0.28548533362717426,1.452044155739164,0.3152107536745094,2
36,2024-09-28 16:50:11.370240000,TASK_BEGIN,023,-0.23416188164814591,-0.05018222785994137,-0.9180346738712745,1.3879775036858375,-0.6834141451871364,0.27671329100970077,1.4061265352071486,0.31929990944718045,2
37,2024-09-28 16:50:11.450814976,TASK_BEGIN,023,-0.25490780332464547,-0.03840275290607089,-0.8751260409125964,1.356372695629342,-0.7052745513504344,0.2690688482136866,1.3486993684326103,0.32250624062666994,2
38,2024-09-28 16:50:11.518606080,TASK_BEGIN,023,-0.2820537130176903,-0.02538960966339655,-0.8382991878991394,1.326254238007797,-0.7263241888078423,0.2630010438679376,1.2837260258687007,0.3247384324828267,2
39,2024-09-28 16:50:12.461442816,TASK_BEGIN,023,-0.31520095222197053,-0.011061741136474268,-0.8056791787223597,1.298342509188543,-0.7464285117284122,0.2589039794157754,1.2162811808200182,0.3258848872668684,2
40,2024-09-28 16:50:12.529198080,TASK_BEGIN,023,-0.35381945458471137,0.004586022102938965,-0.7753495082227418,1.273392399372318,-0.7655331416756311,0.25709164549306046,1.151766049284662,0.32589989936114927,2
41,2024-09-28 16:50:12.586476032,TASK_BEGIN,023,-0.3972980263425374,0.021512034165910646,-0.7458804190958546,1.2521843257438747,-0.783575109573461,0.2577770212835052,1.0952692518293132,0.32483394980767105,2
42,2024-09-28 16:50:12.664756224,TASK_BEGIN,023,-0.44498592923521924,0.03964382717741515,-0.7167698957480999,1.235512839115551,-0.8004264883884685,0.26105421793343014,1.0510907109566487,0.3228276572092991,2
43,2024-09-28 16:50:12.732507136,TASK_BEGIN,023,-0.4962234579767125,0.05888752512505421,-0.6886462395821439,1.2241414392523498,-0.8158580308155167,0.2668833423301467,1.0223216242307676,0.3201191638795613,2
44,2024-09-28 16:50:12.787794176,TASK_BEGIN,023,-0.5503564193782379,0.07913438636882414,-0.6631733053292796,1.21871213683595,-0.8295294639832504,0.2750843144376841,1.0104731213895919,0.3170786112456449,2
45,2024-09-28 16:50:12.868077056,TASK_BEGIN,023,-0.606725703323452,0.10025969756885016,-0.6427547120104532,1.21962876765903,-0.841026813294565,0.2853455067080465,1.0153147066849202,0.31422229073342633,2
46,2024-09-28 16:50:13.811575808,TASK_BEGIN,023,-0.6646248173236825,0.12211380020631057,-0.6301894082948636,1.2269534726076197,-0.8499547795946522,0.2972494149226527,1.0350271912396012,0.31216756658965733,2
47,2024-09-28 16:50:13.879355904,TASK_BEGIN,023,-0.7232337643549706,0.14451304897170758,-0.6283805532594054,1.24035736963665,-0.8560625319475662,0.31031465673457315,1.0666028962790208,0.3115409840827308,2
48,2024-09-28 16:50:13.946574080,TASK_BEGIN,023,-0.7815572788916644,0.16723684180703619,-0.6401033971467941,1.2591342266185126,-0.8593405184074533,0.32404417697797805,1.106410234818957,0.31286134327068094,2
49,2024-09-28 16:50:14.008083968,TASK_BEGIN,023,-0.8383971221981306,0.19002965896788385,-0.6677795285997687,1.2822386594213269,-0.860027115921405,0.33796236004008234,1.1509049292585387,0.31639697488846436,2
50,2024-09-28 16:50:14.082446080,TASK_BEGIN,023,-0.8923730738938258,0.21260326039568755,-0.713261256576874,1.3083139760524602,-0.858535193875514,0.3516316792425808,1.1973685298013819,0.32201423804013374,2
51,2024-09-28 16:50:14.147712000,TASK_BEGIN,023,-0.9419928948520614,0.23463696353852523,-0.7776935528071793,1.3357233523672754,-0.8553595362063602,0.36465091506472097,1.244366944668103,0.32908948912761454,2
52,2024-09-28 16:50:14.218068224,TASK_BEGIN,023,-0.9857549002436118,0.25577745886220593,-0.8614481840547984,1.3626073104283456,-0.8509932527669601,0.3766406770241827,1.2916707365267373,0.33656369164423017,2
53,2024-09-28 16:50:15.163853056,TASK_BEGIN,023,-1.022247866401916,0.27563815683947185,-0.9640617856669084,1.3869673870896664,-0.8458442915833781,0.3872256970440612,1.339693881046077,0.34314877816609324,2
54,2024-09-28 16:50:15.229778944,TASK_BEGIN,023,-1.0502180702910637,0.2937979357501146,-1.0841694825955839,1.4067798745636149,-0.8401623181858014,0.3960274046421722,1.388740972985114,0.3476210892168513,2
55,2024-09-28 16:50:15.299333888,TASK_BEGIN,023,-1.0686052033894529,0.30980585078599115,-1.2194422808881182,1.4201478985341165,-0.8340030800408185,0.40267492600024263,1.4383299075592078,0.34910960009338715,2
56,2024-09-28 16:50:15.353863936,TASK_BEGIN,023,-1.0765708489116852,0.3232016998564883,-1.366506770830426,1.4254765838331518,-0.8272370476125465,0.4068323822092768,1.4868154707988959,0.3472808476460771,2
57,2024-09-28 16:50:15.434825984,TASK_BEGIN,023,-1.0735360460067285,0.33355347882908226,-1.5208818778740518,1.4216402707204323,-0.8195933244041325,0.4082359316898959,1.5315429255941604,0.34235402471796655,2
58,2024-09-28 16:50:15.501554944,TASK_BEGIN,023,-1.0592306534776124,0.34050191304835026,-1.677057383688528,1.4081216103157843,-0.8107325229250558,0.4067328827911171,1.5695206379348734,0.3349804946260791,2
59,2024-09-28 16:50:15.570256896,TASK_BEGIN,023,-1.0337540157258875,0.34380124610103413,-1.828862059594067,1.3851166052654722,-0.8003369166040623,0.4023114369091118,1.5982189101362778,0.32609363492662424,2
60,2024-09-28 16:50:16.487291904,TASK_BEGIN,023,-0.9976403311723182,0.34334844063643605,-1.970130969017774,1.3536033741630147,-0.788193696593397,0.3951094964432278,1.6160525334807592,0.31678434992626975,2
61,2024-09-28 16:50:16.554028032,TASK_BEGIN,023,-0.9519069579259798,0.33919308501826984,-2.0954226685241615,1.3153769674110465,-0.774247749654141,0.38540085429181065,1.6224222691656545,0.3081815415375694,2
62,2024-09-28 16:50:16.616513024,TASK_BEGIN,023,-0.8980601183279924,0.33152603218132537,-2.2004574074172485,1.2730386708225643,-0.758604300285422,0.3735655303225296,1.6175121790630418,0.30132003768062937,2
63,2024-09-28 16:50:16.679603968,TASK_BEGIN,023,-0.8380487860950261,0.3206577492889144,-2.282162883568046,1.2298772660405908,-0.7414629727821069,0.3600480738141876,1.6020663012063907,0.297023990302269,2
64,2024-09-28 16:50:16.756815872,TASK_BEGIN,023,-0.7741714778217277,0.3069991047016155,-2.33847366917574,1.1895794031278792,-0.7229962225751404,0.3453060449408396,1.5770874224798628,0.2958712699296268,2
65,2024-09-28 16:50:16.826068992,TASK_BEGIN,023,-0.7089432790086911,0.2910429322531606,-2.368105287442751,1.1558137568275286,-0.703243479816355,0.3297609553567588,1.5432602726191569,0.29830087171948794,2
66,2024-09-28 16:50:16.893841152,TASK_BEGIN,023,-0.6449401763419951,0.27333710566930997,-2.3704259283647837,1.1318196300513867,-0.6820994726977514,0.3137699850877733,1.5002339174389454,0.3048341359638822,2
67,2024-09-28 16:50:17.833541888,TASK_BEGIN,023,-0.5846488532671971,0.25444932172799667,-2.3454636529573634,1.1201004502776342,-0.6593966568719567,0.297623139576846,1.4462545879367028,0.3162532226049814,2
68,2024-09-28 16:50:17.905261056,TASK_BEGIN,023,-0.5303410049966873,0.23493195109337198,-2.294089637359843,1.1222562160094918,-0.6350124691098217,0.28155270953344297,1.3785015359685018,0.3335653365560978,2
69,2024-09-28 16:50:17.973062912,TASK_BEGIN,023,-0.483974153708711,0.21529068367180224,-2.2183403195974356,1.1389435348809835,-0.6089525787200861,0.2657429048479055,1.2940672171460317,0.35772731663380436,2
70,2024-09-28 16:50:18.035682816,TASK_BEGIN,023,-0.44711795165877405,0.19595494862441584,-2.1216616639142187,1.1699198076848505,-0.5814051330384842,0.2503383305352872,1.1912747686806122,0.389274547960892,2
71,2024-09-28 16:50:18.097419008,TASK_BEGIN,023,-0.4209088053102335,0.177251991585515,-2.008837288081032,1.214135220671437,-0.5527637540815665,0.23545245796826106,1.0709441813654557,0.4280329348935951,2
72,2024-09-28 16:50:18.175528192,TASK_BEGIN,023,-0.4060301413540438,0.15939338370774647,-1.8855907075454421,1.269872028476874,-0.5236231899669604,0.2211777691492384,0.9372065078538054,0.47299811990868573,2
73,2024-09-28 16:50:18.237575936,TASK_BEGIN,023,-0.4027105924620141,0.14248154064369511,-1.7580968075041428,1.3349322677886537,-0.4947682030003627,0.20760135775191704,0.7976236022336188,0.5223626550855354,2
74,2024-09-28 16:50:19.181686016,TASK_BEGIN,023,-0.4107415063856535,0.1265346784116217,-1.6326668998496086,1.4068501049133373,-0.4671484280977412,0.19482162198376832,0.6626150545057315,0.5736435173628551,2
75,2024-09-28 16:50:19.244484864,TASK_BEGIN,023,-0.4295186025072351,0.11152015083977199,-1.5156719781753276,1.4831020061491154,-0.4417913924281137,0.18295063183462565,0.5443204068687928,0.6238882756706263,2
76,2024-09-28 16:50:19.321620224,TASK_BEGIN,023,-0.4580967306376057,0.09738469201394968,-1.4135088539784029,1.5612906958728925,-0.41963873731605306,0.17209446671019307,0.4551258841498129,0.6699391103995487,2
77,2024-09-28 16:50:19.390759936,TASK_BEGIN,023,-0.49523924093149374,0.08407499942013365,-1.3323314861168598,1.6392729079854471,-0.40137081133208974,0.16232493375595372,0.4061862289762661,0.7087078267582453,2
78,2024-09-28 16:50:19.457859072,TASK_BEGIN,023,-0.5394586140447718,0.07154991512490039,-1.277465080377803,1.7152180311607903,-0.38729873916322033,0.15366243627262918,0.40616936744998,0.7374293249845625,2
79,2024-09-28 16:50:19.521842944,TASK_BEGIN,023,-0.5890583227421378,0.059793531002900926,-1.2527041092707254,1.7876131734175331,-0.37733492934653184,0.14607376651608378,0.4602565230602598,0.7538974312397599,2
80,2024-09-28 16:50:19.585594112,TASK_BEGIN,023,-0.6421865862955793,0.048839150263676565,-1.2597975561873014,1.8552388559635689,-0.37100797529132684,0.13947387239169998,0.5694444363867581,0.7566827518803647,2
81,2024-09-28 16:50:20.533665024,TASK_BEGIN,023,-0.6969111956751024,0.03880146298279045,-1.2982842431653452,1.917139095421269,-0.36751660640864453,0.13372672494012533,0.730315659376923,0.7453071481555921,2
82,2024-09-28 16:50:20.596201984,TASK_BEGIN,023,-0.7513176595351595,0.029901165036608293,-1.3656046382287128,1.972585619420545,-0.3658450327539311,0.12865495724957096,0.9353562888320641,0.7203452666455592,2
83,2024-09-28 16:50:20.673878784,TASK_BEGIN,023,-0.8036160312059484,0.022467776743496485,-1.4573242458213527,2.021002375867284,-0.36492902508301056,0.12406670602052049,1.173686630936006,0.6834326306216897,2
84,2024-09-28 16:50:20.742327808,TASK_BEGIN,023,-0.8522309737735527,0.016918056614159505,-1.5674350503171588,2.061860119432878,-0.3638158810443925,0.1197919840792652,1.4320390867211443,0.6371650504430514,2
85,2024-09-28 16:50:20.797980928,TASK_BEGIN,023,-0.8958609116460255,0.013717377703559845,-1.6887801782472998,2.0946215481537718,-0.36176387848058594,0.11571104275153428,1.695890124427551,0.5848885595313754,2
86,2024-09-28 16:50:20.874690048,TASK_BEGIN,023,-0.9335146700112086,0.013334957741660984,-1.813508411951933,2.11877384863764,-0.35826505857389024,0.11176120904031572,1.9505793247792895,0.5304126185444178,2
87,2024-09-28 16:50:20.936742912,TASK_BEGIN,023,-0.9645391376494689,0.016201302457578202,-1.9333761920280657,2.13388643125628,-0.3530029774489778,0.10791839930924617,2.1821866023817895,0.47769294431694653,2
88,2024-09-28 16:50:21.862600192,TASK_BEGIN,023,-0.9886322156160271,0.022671590524946127,-2.0398611411647902,2.1396197294035937,-0.34577027750777145,0.10416214244721048,2.378093734673724,0.4305138597067227,2
89,2024-09-28 16:50:21.929496064,TASK_BEGIN,023,-1.0058199181390697,0.032995185739517534,-2.1242676373019873,2.1356722699951116,-0.33638724553229815,0.10044658768508943,2.527373702972035,0.3922033519017557,2
90,2024-09-28 16:50:21.989278976,TASK_BEGIN,023,-1.0163854323030186,0.047288333135118515,-2.178080080517053,2.121709075531423,-0.32465866384767944,0.09669947760370534,2.62122240375817,0.3654248800186263,2
91,2024-09-28 16:50:22.065812992,TASK_BEGIN,023,-1.0207577047712781,0.0655059229339336,-2.1936927952674727,2.097338836562313,-0.3103673775057535,0.09284922376104365,2.6535124961857943,0.352058933940614,2
92,2024-09-28 16:50:22.133537024,TASK_BEGIN,023,-1.0193856230492628,0.08741460677708288,-2.1654175061378518,2.0621977963762363,-0.29327951074931286,0.08885952794576463,2.6213354566307996,0.35314842482582637,2
93,2024-09-28 16:50:22.191791872,TASK_BEGIN,023,-1.012635347060657,0.11258005937707674,-2.090477918053678,2.016146039932649,-0.2731570998753586,0.08475355734943388,2.5253286786859874,0.368886051168047,2
94,2024-09-28 16:50:22.254279936,TASK_BEGIN,023,-1.0007335690662154,0.14038038681358367,-1.9696296798095778,1.9594960016709373,-0.24978830235903787,0.08062280238466078,2.3696812457744807,0.39863281844082515,2
95,2024-09-28 16:50:23.202828800,TASK_BEGIN,023,-0.9837530282704134,0.17004449444768313,-1.807171316196241,1.893142604093895,-0.2230214634357185,0.07661880902280892,2.1618449892591585,0.44094078181836105,2
96,2024-09-28 16:50:23.279072000,TASK_BEGIN,023,-0.9616392975561096,0.20070560450695715,-1.6103925583404006,1.8185196095720184,-0.19277985347284718,0.07292728581608697,1.9120745497970322,0.4935662151166105,2
97,2024-09-28 16:50:23.343111936,TASK_BEGIN,023,-0.934285101688604,0.23145929952024144,-1.3886942187569957,1.7374228692537397,-0.15907489137398198,0.06973583785559453,1.6328788642567227,0.5535208625352168,2
98,2024-09-28 16:50:23.415366912,TASK_BEGIN,023,-0.901629465509826,0.2614155585389172,-1.1525622248365863,1.6518005633852324,-0.12206580818825971,0.06721333319503814,1.3383137273526082,0.6172278987945287,2
99,2024-09-28 16:50:23.482620160,TASK_BEGIN,023,-0.8637390949314556,0.28974072171470544,-0.9124758896493748,1.5635794713029576,-0.08217388396117604,0.06550590813094631,1.0430921702123497,0.6807811044124742,2
100,2024-09-28 16:50:23.550838016,TASK_BEGIN,023,-0.8208628227685655,0.3156984003560998,-0.6779105409104041,1.4745587602108419,-0.040192633623156365,0.06473838405780427,0.7617102920230625,0.7402336058067959,2
101,2024-09-28 16:50:23.618656000,TASK_BEGIN,023,-0.7734828961674823,0.338699336289737,-0.4567118030858688,1.3864030612853484,0.002686647212742842,0.06500961055604562,0.507746457938486,0.7918490088538439,2
102,2024-09-28 16:50:24.555620864,TASK_BEGIN,023,-0.722365496977382,0.3583524507672389,-0.2549756455655786,1.3007229069697936,0.0449826791640746,0.06637667489683871,0.2932273791657406,0.8323116421196535,2
103,2024-09-28 16:50:24.618108928,TASK_BEGIN,023,-0.6685787541492232,0.3744958631125694,-0.07726670292886155,1.2191260014400744,0.08515025801352356,0.06882562589453967,0.1278931585990017,0.8589368737353813,2
104,2024-09-28 16:50:24.696688896,TASK_BEGIN,023,-0.6134554088520681,0.38719488273780134,0.07313912372586216,1.1431031306493018,0.1218405150294727,0.07223587098878806,0.01841015616726616,0.869895727889185,2
105,2024-09-28 16:50:24.756994816,TASK_BEGIN,023,-0.558509240811988,0.3967114167836505,0.19423864195738338,1.073749986910763,0.1540842611781395,0.07636027047622904,-0.03219846009187699,0.8644019087349587,2
106,2024-09-28 16:50:24.832244992,TASK_BEGIN,023,-0.5053266829129437,0.40345710255068984,0.28556737499864204,1.0114809596694023,0.18133048281142297,0.08083996712778395,-0.02465021719974905,0.842798660680385,2
107,2024-09-28 16:50:24.897345024,TASK_BEGIN,023,-0.4554545480237711,0.40793945631469325,0.3485556812817239,0.9558989448244457,0.20335785402539397,0.08524951476591733,0.0369993947839751,0.8065379820487422,2
108,2024-09-28 16:50:24.967793920,TASK_BEGIN,023,-0.41030935873720653,0.4107081596682871,0.3866812465003349,0.9058690258927646,0.22013998953503736,0.08915236616517105,0.14608041427906274,0.758074589819797,2
109,2024-09-28 16:50:25.912745216,TASK_BEGIN,023,-0.37112382712599684,0.4123099946527149,0.40527310705440567,0.8597515701216851,0.23174137046222296,0.09215336040916956,0.2940990628033004,0.7006821443740662,2
110,2024-09-28 16:50:25.970189824,TASK_BEGIN,023,-0.3389135809436804,0.4132553962613215,0.4110275065440451,0.8157319604363547,0.23828022105859728,0.09394388274834234,0.4713999660249596,0.6381938668818123,2
111,2024-09-28 16:50:26.045262848,TASK_BEGIN,023,-0.3144322855609954,0.41398946995929353,0.41133867082499975,0.7721783732475515,0.23995830421029526,0.09433372946707952,0.6676946949052721,0.5746870147378321,2
112,2024-09-28 16:50:26.116684032,TASK_BEGIN,023,-0.29811345722297045,0.41486375978223766,0.4134879224488161,0.7279495181780508,0.23711718729372955,0.09326493316960606,0.8725753794546067,0.5141613297273971,2
113,2024-09-28 16:50:26.184376064,TASK_BEGIN,023,-0.2900356686298507,0.41611997728373823,0.4237553211486174,0.6825913958970605,0.2302522246538969,0.09081280734615446,1.076018707888301,0.46027848621667966,2
114,2024-09-28 16:50:26.252083968,TASK_BEGIN,023,-0.2899365920476869,0.41789714147120094,0.44663950453872286,0.6363966715558543,0.2199499478995357,0.08718262970122416,1.268778276496889,0.4161887648902201,2
115,2024-09-28 16:50:26.310019072,TASK_BEGIN,023,-0.29725097963941083,0.42025455693095193,0.4844336375396752,0.5903361387998731,0.20678406395306942,0.08270041832967902,1.4426463728833674,0.3844072168431879,2
116,2024-09-28 16:50:27.236990976,TASK_BEGIN,023,-0.3111328220250931,0.4231917265755527,0.5372564522444757,0.5459102586012142,0.19122801037761822,0.07778932164257679,1.5906558924482228,0.36669386889490946,2
117,2024-09-28 16:50:27.292990976,TASK_BEGIN,023,-0.3304578697831752,0.4266542139699758,0.6033988478825246,0.5049707783179196,0.17361240749643858,0.07293133732818566,1.7072882772000177,0.36394071408494233,2
118,2024-09-28 16:50:27.372545024,TASK_BEGIN,023,-0.3538252723971543,0.4305246692539425,0.6797984340224269,0.46951198961514096,0.154127009584722,0.06862519197191966,1.7887426066749998,0.37610720708677303,2
119,2024-09-28 16:50:27.431802880,TASK_BEGIN,023,-0.37957415742720546,0.43460412873379867,0.7625646929527975,0.4414097221884901,0.13286384687699765,0.0653479808225246,1.8333294626923675,0.40222782979984656,2
120,2024-09-28 16:50:27.508050944,TASK_BEGIN,023,-0.4058409938039684,0.43859736686345724,0.8474830069335089,0.4221365513768459,0.109905465464424,0.06351717471803309,1.8419880891842053,0.44046894280663706,2
121,2024-09-28 16:50:27.575354880,TASK_BEGIN,023,-0.4306796044954327,0.4421193091357326,0.9303467660393356,0.41252888761550593,0.08544546287562411,0.06345135266140423,1.818721592459401,0.4882103465317054,2
122,2024-09-28 16:50:27.643141120,TASK_BEGIN,023,-0.4522160954650848,0.4447283864151388,1.0070436628097041,0.4126674535963855,0.05989595730909493,0.065340610269417,1.7706065520885583,0.5421642490397941,2
123,2024-09-28 16:50:28.580612864,TASK_BEGIN,023,-0.4687812052789081,0.4459795324367815,1.073494590798228,0.42189073779184366,0.033938863179421394,0.06923841563070775,1.7071929396817362,0.5985575357407541,2
124,2024-09-28 16:50:28.642636032,TASK_BEGIN,023,-0.47900342593293577,0.44548554997231,1.125573444841391,0.43893115101824287,0.008507263008137592,0.07507445639729306,1.639371387051565,0.6533871504828593,2
125,2024-09-28 16:50:28.720293888,TASK_BEGIN,023,-0.4818907556315686,0.44297529460282187,1.1590914789542595,0.46214283174832066,-0.015300784074974734,0.08268202055097613,1.577913801569175,0.7027363121373762,2
126,2024-09-28 16:50:28.789048832,TASK_BEGIN,023,-0.4769119418765336,0.43833560749840816,1.1699186986394272,0.48977294464602333,-0.036355896585286915,0.0918322479838398,1.5319951810873027,0.7431098981111902,2
127,2024-09-28 16:50:28.843365888,TASK_BEGIN,023,-0.46405033319908945,0.4316258430069079,1.1542497471701811,0.5202155273259761,-0.053636349384632076,0.1022607867923721,1.5080434465987254,0.7717280591040199,2
128,2024-09-28 16:50:28.921765120,TASK_BEGIN,023,-0.443806228430684,0.42306277828213934,1.1089417730829518,0.5521865808592153,-0.06634333907703119,0.11367377312809879,1.509094002995004,0.7867326593160281,2
129,2024-09-28 16:50:28.992290048,TASK_BEGIN,023,-0.4171541476229902,0.41298482154648536,1.0318562602247505,0.5847980352747372,-0.07399526612245733,0.12573888418045084,1.5346947535911306,0.7872855772725089,2
130,2024-09-28 16:50:29.932384000,TASK_BEGIN,023,-0.3854737086746593,0.4018085421861004,0.9221586253614718,0.6175703002288602,-0.07650732728240175,0.1380812194662044,1.5814541835151636,0.7735472901712224,2
131,2024-09-28 16:50:29.994868992,TASK_BEGIN,023,-0.35046262500386327,0.3899864320445275,0.7805001841703774,0.650436066031084,-0.0742499943910525,0.15029604443235636,1.6441681338822374,0.7465527502233152,2
132,2024-09-28 16:50:30.069504768,TASK_BEGIN,023,-0.31402907619985465,0.37797126224543626,0.609005147587342,0.683743122731108,-0.0680756386041934,0.16197631562154094,1.7170915371967181,0.7080450457173093,2
133,2024-09-28 16:50:30.136223232,TASK_BEGIN,023,-0.27815487887251955,0.36619022999772016,0.4110999626386459,0.718226348848748,-0.059296841240653125,0.17274918953666799,1.794889985192768,0.6603115658840074,2
134,2024-09-28 16:50:30.207586816,TASK_BEGIN,023,-0.24472648082911705,0.35502445713465836,0.1913428977860176,0.7549069260079352,-0.04958809763479307,0.18231469499577718,1.8731232969812361,0.6060110932490026,2
135,2024-09-28 16:50:30.275333120,TASK_BEGIN,023,-0.21535215464123206,0.34478459359051467,-0.04466770349807815,0.7948839917857828,-0.040792942825342376,0.19047333489167198,1.9483401093496242,0.5479795744405097,2
136,2024-09-28 16:50:30.339707904,TASK_BEGIN,023,-0.19120463524066758,0.3356842159591293,-0.29042942257608584,0.8390392066181579,-0.03467472858279819,0.1971312598515643,2.0179954303727357,0.48902689933397037,2
137,2024-09-28 16:50:31.280713216,TASK_BEGIN,023,-0.17293015629274505,0.32782641155839654,-0.5388397645156854,0.8877492563210304,-0.03269634455444965,0.20228793566652234,2.08047795947647,0.43171787991773314,2
138,2024-09-28 16:50:31.354606080,TASK_BEGIN,023,-0.1606461323457134,0.3212139240424638,-0.7825873152686826,0.940698811938332,-0.03588335801727336,0.20602135008335687,2.135327911729107,0.37813038419271544,2
139,2024-09-28 16:50:31.418735104,TASK_BEGIN,023,-0.15402219433806508,0.3157769691709551,-1.0145011776894242,0.9968085434450571,-0.04476390598567322,0.20847768043375522,2.1834249229756875,0.32963657515436123,2
140,2024-09-28 16:50:31.490058752,TASK_BEGIN,023,-0.1524165149907414,0.3114065277073553,-1.2278873767693383,1.0542569324079885,-0.05935678245534854,0.20985926862910595,2.226938842320098,0.2867738081667389,2
141,2024-09-28 16:50:31.542799104,TASK_BEGIN,023,-0.15502857449471588,0.3079852197365736,-1.4168901082463663,1.1106028597311208,-0.07918427605304315,0.21040175938119604,2.2690857626831167,0.2492342308432136,2
142,2024-09-28 16:50:31.620891136,TASK_BEGIN,023,-0.16103122189506258,0.30541115444209965,-1.5767529568319485,1.1630095835727352,-0.1033072156539495,0.21034110498500153,2.3138682810693703,0.21597570172135241,2
143,2024-09-28 16:50:31.682939904,TASK_BEGIN,023,-0.16965516759416258,0.30360956497468267,-1.7038915544379518,1.208531713965347,-0.13041113099416635,0.2098837755847015,2.365875600992138,0.18545694880187516,2
144,2024-09-28 16:50:32.611983872,TASK_BEGIN,023,-0.1802134626247949,0.30252779659297563,-1.7959119315154481,1.2444291130394192,-0.15896622992936,0.2091934820522237,2.4300292550892273,0.15597206447733195,2
145,2024-09-28 16:50:32.679410944,TASK_BEGIN,023,-0.19207598131177223,0.30211661532938916,-1.8517271329271086,1.2684758805281322,-0.1874298602402626,0.20839297475178445,2.5111020864370333,0.12600441767964013,2
146,2024-09-28 16:50:32.747489024,TASK_BEGIN,023,-0.20462981337717986,0.30231099266758754,-1.8717086722307876,1.2791931135215213,-0.21441985613116388,0.20756623921297593,2.6129669796821893,0.09451137237973396,2
147,2024-09-28 16:50:32.802015232,TASK_BEGIN,023,-0.21726209573017086,0.30302463684249736,-1.8576607991738394,1.27592128803826,-0.23880195489993358,0.2067485164070727,2.7377601524350137,0.06110110665456265,2
148,2024-09-28 16:50:32.880168960,TASK_BEGIN,023,-0.229371573829445,0.30416150543605924,-1.8125035911984564,1.2587125785147153,-0.25969169165518624,0.2059067467504323,2.88527798915356,0.026103870106107274,2
149,2024-09-28 16:50:32.950738944,TASK_BEGIN,023,-0.24039320148481774,0.30563566228698874,-1.7398287736105549,1.2281188517400172,-0.27642310057147096,0.20492821879916812,3.052808012913225,-0.00945392935524081,2
150,2024-09-28 16:50:33.003802880,TASK_BEGIN,023,-0.249825878765086,0.30738795013397463,-1.6436062442140014,1.1850002567699132,-0.2885233215763859,0.20363309517562725,3.235387934397109,-0.04396289692320982,2
151,2024-09-28 16:50:33.958016000,TASK_BEGIN,023,-0.2572623361380477,0.3093902842789109,-1.5280812236802925,1.1304304002223278,-0.29567497536752374,0.2018046709132002,3.426390511769734,-0.07541043360633237,2
152,2024-09-28 16:50:34.029393920,TASK_BEGIN,023,-0.2624154301322655,0.31163234929462935,-1.397699289658708,1.0656782196198948,-0.2976511494984639,0.19921749616152887,3.618258676175764,-0.10159993153850502,2
153,2024-09-28 16:50:34.097292032,TASK_BEGIN,023,-0.2651293337779215,0.3140953448801657,-1.2570123278252496,0.9922225998534587,-0.2942743916090729,0.19565745168476628,3.803145311331054,-0.12037922360261741,2
154,2024-09-28 16:50:34.159665152,TASK_BEGIN,023,-0.2653673770984605,0.3167269366717126,-1.1106603634160748,0.9117993763537318,-0.2854563240232247,0.19094435701176193,3.9732897602724266,-0.1298393667747725,2
155,2024-09-28 16:50:34.221216768,TASK_BEGIN,023,-0.26318000883318404,0.3194303768606401,-0.9634761453798382,0.8264844591293127,-0.2712947146539176,0.1849601501322286,4.121168770237643,-0.12845412532050848,2
156,2024-09-28 16:50:34.298849024,TASK_BEGIN,023,-0.25867962214339885,0.3220749535792294,-0.8206359613324666,0.7387713637634707,-0.2521555554780022,0.1776710035348432,4.239645116004518,-0.11517612221454808,2
157,2024-09-28 16:50:34.368357888,TASK_BEGIN,023,-0.2520580420965849,0.3245287167074972,-0.6877094704368186,0.6515822813972703,-0.2286928364906723,0.1691352000537148,4.322398273088795,-0.08954513883781182,2
158,2024-09-28 16:50:35.311795968,TASK_BEGIN,023,-0.2436395317468369,0.32670114740594675,-0.5705071007480146,0.5681727509013894,-0.20180530168399735,0.1595023689851329,4.364705361814258,-0.05183296274478627,2
159,2024-09-28 16:50:35.374512896,TASK_BEGIN,023,-0.23391672843572203,0.32857342803920414,-0.47469815435273255,0.49190760483393475,-0.17256402656852934,0.14901216058204952,4.364183335269683,-0.0031533428352416974,2
160,2024-09-28 16:50:35.436978944,TASK_BEGIN,023,-0.22354397311139704,0.3302037421458943,-0.4051792627935881,0.4259097539956107,-0.14214647312392178,0.13798951133157422,4.320939114173954,0.054583098603504646,2
161,2024-09-28 16:50:35.515112960,TASK_BEGIN,023,-0.21331243616932663,0.3317102624149995,-0.3652615329781548,0.37265153961730213,-0.11177445837922614,0.1268251176593763,4.237003422384344,0.11891438401024076,2
162,2024-09-28 16:50:35.575414016,TASK_BEGIN,023,-0.20412231595193456,0.33323728943353265,-0.3559466686465589,0.3336203402432941,-0.08262282423704946,0.11593463058340239,4.115447540391171,0.18719308042697644,2
163,2024-09-28 16:50:35.650604032,TASK_BEGIN,023,-0.1969389054928427,0.3349141009150452,-0.3756056063993022,0.3091730726668296,-0.05568490337955001,0.10570358317258603,3.959709171167201,0.25692328892138994,2
164,2024-09-28 16:50:35.718339840,TASK_BEGIN,023,-0.1927340814803869,0.3368268217305635,-0.42016904448129905,0.29862295641004266,-0.031625224199044365,0.0964344974336851,3.7734214181580454,0.32594877923069027,2
165,2024-09-28 16:50:36.662162176,TASK_BEGIN,023,-0.19243352031141156,0.339017866172862,-0.48370813403721874,0.30052414297591235,-0.01067013341380105,0.08831114205952659,3.5606518575842503,0.39248401156076557,2
166,2024-09-28 16:50:36.729978880,TASK_BEGIN,023,-0.1968687534380037,0.3415039183163437,-0.5592148455363417,0.3130515681825172,0.007427936358428609,0.08138616814656603,3.3261830339567413,0.4550847190593668,2
167,2024-09-28 16:50:36.797728000,TASK_BEGIN,023,-0.20671308498987906,0.3442922955034661,-0.6394465490643957,0.33434656175770017,0.023339268034518558,0.07558986095140535,3.075539716534456,0.5126458663891769,2
168,2024-09-28 16:50:36.859686912,TASK_BEGIN,023,-0.22239651254496692,0.3473875069472408,-0.7177063878529508,0.36273040989943434,0.03802045889723196,0.07075547994102027,2.8147426902253927,0.5644158979076005,2
169,2024-09-28 16:50:36.922617856,TASK_BEGIN,023,-0.24401699255457374,0.3507924739834157,-0.7883922295410067,0.3967504446835641,0.05251916695825274,0.06665862731074716,2.54991297662326,0.6099666621250324,2
170,2024-09-28 16:50:37.000978944,TASK_BEGIN,023,-0.2712718403937234,0.35450762992238316,-0.8472391472228404,0.4350883997118601,0.067780140095831,0.06306366292717583,2.286859353342752,0.649099394037966,2
171,2024-09-28 16:50:37.061844992,TASK_BEGIN,023,-0.3034292132228101,0.35852556483144166,-0.891376228423423,0.4764164017667362,0.08451558072515294,0.05976270614785838,2.0308131917377295,0.6817114666119977,2
172,2024-09-28 16:50:37.987479040,TASK_BEGIN,023,-0.339337073772772,0.36281790484868237,-0.9193782330525734,0.5192995693956031,0.10315542653610545,0.05659869084137553,1.7864535722717816,0.7076602573459162,2
173,2024-09-28 16:50:38.055282944,TASK_BEGIN,023,-0.377448664059625,0.36731768044223073,-0.9313563573222082,0.5621914802748733,0.12384154228825733,0.05347728176473809,1.5581912709509516,0.7266663854156779,2
174,2024-09-28 16:50:38.114706176,TASK_BEGIN,023,-0.4158701821563668,0.37191242836517285,-0.9290232233981939,0.603514557087268,0.14642615911883283,0.050374201810133155,1.3505736848505305,0.7382838423812624,2
175,2024-09-28 16:50:38.190806016,TASK_BEGIN,023,-0.45246519159827436,0.3764622873901949,-0.9156823673477678,0.6418110648778934,0.1704694185638163,0.04733847994121324,1.1687565982433454,0.7419249014731693,2
176,2024-09-28 16:50:38.257704192,TASK_BEGIN,023,-0.48502781936196593,0.3808371095591058,-0.8960321285629623,0.6759164299674191,0.19526535775876383,0.044490468891041704,1.0189539650857824,0.7369218834015948,2
177,2024-09-28 16:50:38.313043200,TASK_BEGIN,023,-0.5114979278983044,0.38495090495049056,-0.8755744928047282,0.7050474625120923,0.21993175331318726,0.042013153208525576,0.9085923649543537,0.7226446597459573,2
178,2024-09-28 16:50:38.390577152,TASK_BEGIN,023,-0.5301726440262093,0.3887759487612233,-0.8596088143669575,0.728748892221845,0.2435612718521543,0.04013259630362256,0.8458999899707882,0.6986970922129117,2
179,2024-09-28 16:50:39.337627904,TASK_BEGIN,023,-0.5398703940766305,0.3923339847495126,-0.8521617852644123,0.7467770569946611,0.26538230603186835,0.03908514299959394,0.8388487658246014,0.6651558928578941,2
180,2024-09-28 16:50:39.389674752,TASK_BEGIN,023,-0.5400310791726413,0.3956748092237153,-0.8552905131643125,0.7590382081209537,0.2848791974538352,0.03907766057597145,0.8936251873153345,0.6227557464418408,2
181,2024-09-28 16:50:39.473195008,TASK_BEGIN,023,-0.5307663296235637,0.39885500880189556,-0.8689372872221961,0.7656080539071459,0.3018624377061181,0.04025255746391589,1.013109270919955,0.5729319254765868,2
182,2024-09-28 16:50:39.531836928,TASK_BEGIN,023,-0.5128702985643003,0.40192385502187455,-0.8912630383115103,0.7667703145592744,0.3164882062268162,0.04266580561393962,1.1959248204535657,0.5176934538946605,2
183,2024-09-28 16:50:39.608679936,TASK_BEGIN,023,-0.4877809696057203,0.4049157517784914,-0.9193225674864206,0.763016016430581,0.3291974445407242,0.046282355764970654,1.4363283035233163,0.4593620544512911,2
184,2024-09-28 16:50:39.670237952,TASK_BEGIN,023,-0.4574814923964758,0.4078424719172334,-0.9499208472416824,0.7550107417077735,0.34055195055634135,0.050992370968777505,1.7247848879999732,0.400254941909072,2
185,2024-09-28 16:50:39.744226048,TASK_BEGIN,023,-0.4243497720161962,0.41067966747260726,-0.9803932406340335,0.7435753239752739,0.35101356232555564,0.05664483047689067,2.0488165070562556,0.3424202327190646,2
186,2024-09-28 16:50:40.687728128,TASK_BEGIN,023,-0.3909771207380719,0.41335125241052695,-1.0090401974343168,0.729706324445769,0.3607593525022382,0.06308482875804089,2.3937314757641657,0.28752016900548416,2
187,2024-09-28 16:50:40.755533056,TASK_BEGIN,023,-0.35997035203403,0.41571966243979586,-1.035131895323709,0.7146304602822409,0.3695888931825593,0.07018026418603085,2.7431783677814945,0.23685335231305651,2
188,2024-09-28 16:50:40.823272960,TASK_BEGIN,023,-0.3337501990034817,0.41758616463890275,-1.0586057988229713,0.6998641853289748,0.3769208612069845,0.07783218539209041,3.0798409928102948,0.19139164793812918,2
189,2024-09-28 16:50:40.887849984,TASK_BEGIN,023,-0.31437967879324163,0.41870246150219637,-1.0796300834891164,0.6872261461878942,0.3818604101811637,0.08597202123579416,3.386602558233513,0.15172977413150815,2
190,2024-09-28 16:50:40.958163968,TASK_BEGIN,023,-0.3034603036012078,0.4187942266273267,-1.0981531203458463,0.6787550974790355,0.3833174563957322,0.09455475144443883,3.6481516208491143,0.11797577173979053,2
191,2024-09-28 16:50:41.013916928,TASK_BEGIN,023,-0.302100664939774,0.4175946034787898,-1.1135413459584507,0.6765397330185934,0.38014881450480226,0.10355557848556785,3.852675828906482,0.08968228487007028,2
192,2024-09-28 16:50:41.094157056,TASK_BEGIN,023,-0.31093267415992615,0.4148796540697089,-1.124399510347178,0.6825033988429312,0.37130555909657115,0.11296914235563779,3.993203855072776,0.06589093673257666,2
193,2024-09-28 16:50:42.037963008,TASK_BEGIN,023,-0.3301500498298762,0.4104926379192486,-1.1285605130491116,0.6981605643377111,0.35597716297443205,0.12280686771411736,4.06825007895037,0.04530918246373053,2
194,2024-09-28 16:50:42.100622848,TASK_BEGIN,023,-0.35955249174615317,0.4043480413777524,-1.1231156546800647,0.7243478349937399,0.3337142033667735,0.1330932143257876,4.081647027006997,0.02659305611825953,2
195,2024-09-28 16:50:42.162163968,TASK_BEGIN,023,-0.3985837807784454,0.3964182744406043,-1.1043910030791206,0.7609707253019101,0.3045080179732166,0.1438635912109153,4.0417078312145645,0.008667979188305645,2
196,2024-09-28 16:50:42.241547008,TASK_BEGIN,023,-0.4463527030265449,0.38671547676328627,-1.0679163077391938,0.8068219768131316,0.26882164032430944,0.15516215329636598,3.959986951783634,-0.009004801126110936,2
197,2024-09-28 16:50:42.309260032,TASK_BEGIN,023,-0.5016276528681897,0.3752804343094224,-1.008539027130765,0.8594973835022859,0.22756733041741742,0.16703561829835517,3.8498987337431516,-0.026303229696834605,2
198,2024-09-28 16:50:42.363090944,TASK_BEGIN,023,-0.5628125488914172,0.3621826581974647,-0.920821431716155,0.9154327249815464,0.18201370053283863,0.17952126691301717,3.7253512581143,-0.04249514087247965,2
199,2024-09-28 16:50:42.440271872,TASK_BEGIN,023,-0.6279397444946788,0.34753131436282314,-0.799712617790501,0.9701139021347392,0.13362584644414566,0.19262938055709442,3.599423084807352,-0.056412650396913976,2
200,2024-09-28 16:50:43.359752960,TASK_BEGIN,023,-0.6947236395627386,0.3314981756803721,-0.6413398904745145,1.018497517461646,0.08388410783865635,0.20632414546984415,3.4831143966029616,-0.06665802468862063,2
201,2024-09-28 16:50:43.421377024,TASK_BEGIN,023,-0.7606908311995942,0.31435044502966797,-0.4437681728997044,1.0556079015203688,0.034134781998152106,0.2205098431375263,3.3843161714724355,-0.07178545557787373,2
202,2024-09-28 16:50:43.498395904,TASK_BEGIN,023,-0.8233612494577367,0.2964828750511934,-0.20767526052233473,1.077211272515216,-0.014501374416818357,0.23502471955581747,3.307142529463591,-0.0704471447483241,2
203,2024-09-28 16:50:43.560648960,TASK_BEGIN,023,-0.8804309843565162,0.27843573525993454,0.06309926024685686,1.0804403274016177,-0.06115675493676515,0.24963940472339882,3.251707527958783,-0.061509636571008684,2
204,2024-09-28 16:50:43.622189056,TASK_BEGIN,023,-0.929918214568643,0.2608896762598577,0.36128363985687173,1.0642419562411418,-0.10517857338529171,0.264058253451384,3.2144478446785714,-0.0441606829278913,2
205,2024-09-28 16:50:43.702185984,TASK_BEGIN,023,-0.9702696218951121,0.24463657679710255,0.6763864143520698,1.0295443948824587,-0.14603670482630923,0.2779262720050701,3.1890275794146277,-0.018027958823603855,2
206,2024-09-28 16:50:43.769969920,TASK_BEGIN,023,-1.0004457807120273,0.23053402339687312,0.9954413552672636,0.979101276536337,-0.18321598579061338,0.29084527850043085,3.1676410620958837,0.01669607672391911,2
207,2024-09-28 16:50:44.712028160,TASK_BEGIN,023,-1.0199870998853877,0.2194539235230596,1.304091385553991,0.9170662079763584,-0.21613650160979395,0.3024004122740489,3.1424348312237638,0.05916249263664624,2
208,2024-09-28 16:50:44.779800064,TASK_BEGIN,023,-1.029039028371577,0.21223095449154378,1.5877418934874066,0.848427197930302,-0.2441204873168733,0.3121936144975976,3.1068511680966067,0.10785450627270164,2
209,2024-09-28 16:50:44.847596032,TASK_BEGIN,023,-1.0283194299283074,0.20961211182178385,1.8326371983529484,0.7784316914707398,-0.26640649611885137,0.3198766250660554,3.0567124347749095,0.16067455802990732,2
210,2024-09-28 16:50:44.906868992,TASK_BEGIN,023,-1.0190308859903077,0.21220928208042764,2.0268125034703433,0.7120750784309685,-0.2822115632575966,0.32517498294468966,2.9908569146887714,0.21510923192766015,2
211,2024-09-28 16:50:44.968471808,TASK_BEGIN,023,-1.002732643192469,0.22045642113711372,2.1608351391485194,0.6536658575515535,-0.2908325959484045,0.3278985387621209,2.911286964594087,0.2684327057764029,2
212,2024-09-28 16:50:45.050791936,TASK_BEGIN,023,-0.9811859590844264,0.23456900193635782,2.228253529440463,0.6064747992601033,-0.2917647501821171,0.32794318240897447,2.8229201086847637,0.3179180912450834,2
213,2024-09-28 16:50:45.108774912,TASK_BEGIN,023,-0.9561826364597176,0.25450463050416927,2.225816219602944,0.5725113136775932,-0.28481507091483427,0.3252935224224903,2.732935898566466,0.361059045717272,2
214,2024-09-28 16:50:46.062026752,TASK_BEGIN,023,-0.9293706997203386,0.2799322576836174,2.1535820147944054,0.5524738483826198,-0.27019626998677926,0.3200304081851422,2.649652167206591,0.3958248709416295,2
215,2024-09-28 16:50:46.114501888,TASK_BEGIN,023,-0.9021031271255587,0.3102221082752258,2.0149206681953165,0.5458759115399344,-0.24859039171043829,0.31234039607207315,2.581113883078846,0.4209274940724306,2
216,2024-09-28 16:50:46.190845952,TASK_BEGIN,023,-0.8753417277033028,0.344464233947603,1.8163214436582384,0.5513005343421774,-0.2211610511924739,0.30252046426906276,2.5338364697999243,0.4360083954097513,2
217,2024-09-28 16:50:46.265191168,TASK_BEGIN,023,-0.8496325202866198,0.3815149682631305,1.5669775381965374,0.5667066446612405,-0.18948010087090222,0.2909683972194008,2.5120448532309654,0.4416618302549823,2
218,2024-09-28 16:50:46.329643008,TASK_BEGIN,023,-0.8251363309655985,0.42006211771330004,1.2781933826161669,0.5897084913844669,-0.15537151515923217,0.27815683510985895,2.5174683039255084,0.43928335158702214,2
219,2024-09-28 16:50:46.400660224,TASK_BEGIN,023,-0.8016844802480755,0.45869857728043445,0.9627363066921701,0.6177801869943969,-0.1207322552486928,0.264601400592663,2.5495428843392194,0.4307970979690004,2
220,2024-09-28 16:50:46.468348928,TASK_BEGIN,023,-0.7788521190551423,0.49600090580513134,0.6342684019849727,0.6483881486298781,-0.08738317025442462,0.2508305920835452,2.605710753038909,0.41837231385117246,2
221,2024-09-28 16:50:47.407090944,TASK_BEGIN,023,-0.7560605947209301,0.5306117388220662,0.3068508032337394,0.6790975572254908,-0.05694959205587825,0.2373532902450708,2.681550905261925,0.40422982924752743,2
222,2024-09-28 16:50:47.479842048,TASK_BEGIN,023,-0.7327005470539403,0.5613193984651581,-0.005633193756129749,0.7076876244374815,-0.030750766987814995,0.22461848438796495,2.7708334784283517,0.3905128648370176,2
223,2024-09-28 16:50:47.545789184,TASK_BEGIN,023,-0.7082410353136616,0.5871262287277994,-0.290206497689341,0.732240614347619,-0.00970398509253146,0.21297101150440437,2.8657900770981106,0.37912347607987473,2
224,2024-09-28 16:50:47.615370240,TASK_BEGIN,023,-0.6822989051762645,0.6073024978074104,-0.5355700292547232,0.75115098839059,0.0057279156889524984,0.20261533593250583,2.957663670837188,0.37151861939386743,2
225,2024-09-28 16:50:47.683122944,TASK_BEGIN,023,-0.6546750581900738,0.6214262757171198,-0.7328121398722927,0.7630834291433192,0.015535517409038543,0.19360000615223655,3.0373769727350712,0.3685492784891039,2
226,2024-09-28 16:50:47.746588928,TASK_BEGIN,023,-0.6253766944597727,0.6294054481008537,-0.8760764291371415,0.7669709507376649,0.02012925522195245,0.18582612592341924,3.096231093771746,0.3703999402028626,2
227,2024-09-28 16:50:47.809506816,TASK_BEGIN,023,-0.5946302164231361,0.6314733586146948,-0.9631955790734926,0.7621134353497857,0.020286539846487543,0.17907254711332113,3.1266641207251067,0.37663700725564064,2
228,2024-09-28 16:50:48.737395968,TASK_BEGIN,023,-0.5628877530802988,0.6281565902563988,-0.9961213275710006,0.7483626331610667,0.01705710257274904,0.1730333069105473,3.1230432381956628,0.38634991413101,2
229,2024-09-28 16:50:48.805216000,TASK_BEGIN,023,-0.5308419723119737,0.620225179852477,-0.9808899537143991,0.7262997398403983,0.011600238936999907,0.16737258929505414,3.0823624116088655,0.39833773729034255,2
230,2024-09-28 16:50:48.873022976,TASK_BEGIN,023,-0.4994476961724609,0.6086350110560056,-0.9270000766712088,0.6972794961941962,0.0049756473765810326,0.16179662936568315,3.0047535856485457,0.41127287045784183,2
231,2024-09-28 16:50:48.940745216,TASK_BEGIN,023,-0.46991916946135487,0.5944639582259373,-0.8463007676116456,0.6632909334159948,-0.002039554425220254,0.15612218109487075,2.8937882601327463,0.42378744780075744,2
232,2024-09-28 16:50:49.008508928,TASK_BEGIN,023,-0.44367620901144333,0.5788425718322424,-0.7516146223423166,0.6266945236235069,-0.009040106442726117,0.15031564634541603,2.756403250135014,0.43448807739240286,2
233,2024-09-28 16:50:49.075515136,TASK_BEGIN,023,-0.4222401907858716,0.5628841696960165,-0.6553593564463478,0.5899264651009054,-0.01597856245427436,0.14449720990174006,2.6021254710710098,0.44197441188469266,2
234,2024-09-28 16:50:49.144023040,TASK_BEGIN,023,-0.40709268515918884,0.5476198934160399,-0.5684435195911486,0.5552419904962725,-0.02309405369975598,0.13892581589898687,2.441586673632478,0.444919638995151,2
235,2024-09-28 16:50:50.087214080,TASK_BEGIN,023,-0.39950558505160605,0.5339428672263791,-0.49963706238485156,0.5245535473576026,-0.030845280853098588,0.13397921608714286,2.2848809166366175,0.44218463820615334,2
236,2024-09-28 16:50:50.154398976,TASK_BEGIN,023,-0.4003590074836398,0.5225639719886521,-0.45543523919894724,0.49938522790754625,-0.03988588044199246,0.13012901850208364,2.1403722858591823,0.4329158003597378,2
237,2024-09-28 16:50:50.208304896,TASK_BEGIN,023,-0.4099928407456843,0.5139820496119127,-0.44027549414801465,0.4809184406821514,-0.05108211593310678,0.12790648874581845,2.014133314242525,0.4166213337275803,2
238,2024-09-28 16:50:50.290491136,TASK_BEGIN,023,-0.42815983510842287,0.508476750975927,-0.4568919526261124,0.470073035983929,-0.06553921602057611,0.12786015118343377,1.9099069654859886,0.3932312959780116,2
239,2024-09-28 16:50:50.356561920,TASK_BEGIN,023,-0.45411599467103814,0.5061328902361442,-0.5065923668000651,0.4675558697591159,-0.08457694762197629,0.13050797412921616,1.8294633639073021,0.3631145086477216,2
240,2024-09-28 16:50:50.424760064,TASK_BEGIN,023,-0.48680699530612037,0.5068897359794383,-0.5893710251096038,0.47383583518655853,-0.1095991038919218,0.1362853634194626,1.7732019742752492,0.327030911499436,2
241,2024-09-28 16:50:50.493738752,TASK_BEGIN,023,-0.5250632288388142,0.5105921692518779,-0.7039546667070942,0.4890737693605812,-0.14185973646579905,0.14549146241039762,1.7407850363018662,0.2860568493245405,2
242,2024-09-28 16:50:51.437516032,TASK_BEGIN,023,-0.5677395746553406,0.5170242165045253,-0.8478956226665365,0.513083888308901,-0.1821951719515765,0.1582387829370714,1.7316206336895936,0.24153560528051496,2
243,2024-09-28 16:50:51.505341184,TASK_BEGIN,023,-0.6137828454516436,0.5259211253372194,-1.0176555159236225,0.5453617301221116,-0.23079900213492213,0.1744128872738594,1.7451378608165993,0.1950466104931865,2
244,2024-09-28 16:50:51.558067200,TASK_BEGIN,023,-0.662238053884141,0.5369662958445588,-1.2085263333661802,0.5851103968380845,-0.28708170524099685,0.19365128461807452,1.7808647684153767,0.14835079509227908,2
245,2024-09-28 16:50:51.640835840,TASK_BEGIN,023,-0.7122182116158509,0.5497841351360365,-1.4143997818355147,0.6311752764702656,-0.3496311578602357,0.2153518493000033,1.8383348367501058,0.10328993806837958,2
246,2024-09-28 16:50:51.698228992,TASK_BEGIN,023,-0.7628610706166448,0.5639414028961037,-1.6276532755689508,0.6819217833215019,-0.41627838717916815,0.2387155824959765,1.9168763897487995,0.06165862756707164,2
247,2024-09-28 16:50:51.776349184,TASK_BEGIN,023,-0.8132823786479425,0.5789632309475974,-1.839453288961811,0.7351974959580213,-0.48425166135411013,0.26281691870198554,2.015305215676531,0.02511061251328669,2
248,2024-09-28 16:50:51.837007104,TASK_BEGIN,023,-0.8625340843800918,0.5943606990038391,-2.0405311223709557,0.7884572704306839,-0.5503888959271118,0.2866871633492819,2.1314885126618903,-0.004841871966827562,2
249,2024-09-28 16:50:52.787454208,TASK_BEGIN,023,-0.9095867556481313,0.6096648691215185,-2.222196961507635,0.8389999172979368,-0.6113923010110083,0.30940003979090597,2.26185682883561,-0.026752882834078173,2
250,2024-09-28 16:50:52.840908032,TASK_BEGIN,023,-0.9533503252659629,0.6244641601081145,-2.3772357493136296,0.884237677117437,-0.6641190121861489,0.33015436621056504,2.4011238496473783,-0.03918749773731431,2
251,2024-09-28 16:50:52.923022080,TASK_BEGIN,023,-0.992730810517369,0.6384393506777657,-2.5004344406387706,0.9219724289373182,-0.7058803363599262,0.34834733317078453,2.542471771859204,-0.040784497548723396,2
252,2024-09-28 16:50:52.990717696,TASK_BEGIN,023,-1.0267101651396922,0.6513866332259233,-2.5887245744624727,0.9506582524528592,-0.7346876804016593,0.3636250922791927,2.6782343078054187,-0.030451727169134732,2
253,2024-09-28 16:50:53.058440960,TASK_BEGIN,023,-1.0544239230911874,0.6632194138043609,-2.6410785308722513,0.9695820211818974,-0.7493772410798852,0.3758963738609438,2.800836868162691,-0.007612508746462413,2
254,2024-09-28 16:50:53.126219008,TASK_BEGIN,023,-1.075207190611712,0.6739430973787647,-2.6582939366007783,0.978892091429753,-0.7495984591060892,0.3853079481095909,2.9035937927551414,0.02761056355557457,2
255,2024-09-28 16:50:53.181189888,TASK_BEGIN,023,-1.0886062268706351,0.6836056669315016,-2.642713827591322,0.9794751901287676,-0.7357196816181081,0.3921965277829382,2.981058225947433,0.07434759174992397,2
256,2024-09-28 16:50:54.138087936,TASK_BEGIN,023,-1.0943830268492516,0.6922397411142598,-2.5978617862927726,0.9727446883708569,-0.7087096620947907,0.3970294336037917,3.0289727356000213,0.13106686798394462,2
257,2024-09-28 16:50:54.205837824,TASK_BEGIN,023,-1.0925353536358884,0.6998181395549028,-2.5280308248382974,0.9604137654270013,-0.6700079643148317,0.4003343143124696,3.044097700294239,0.19575753443904,2
258,2024-09-28 16:50:54.260402944,TASK_BEGIN,023,-1.0833304782408804,0.7062378501502541,-2.4380014576798166,0.9443173968567039,-0.6213788392641652,0.40262128316426754,3.0240709200952867,0.2662003985511288,2
259,2024-09-28 16:50:54.336683008,TASK_BEGIN,023,-1.067339320065553,0.7113321002214368,-2.333030136950547,0.926324084346262,-0.5647663843262195,0.4043146737048894,2.96732290052555,0.34029171342400943,2
260,2024-09-28 16:50:54.409022976,TASK_BEGIN,023,-1.045454802360917,0.714896562814908,-2.2189864758315645,0.9083103469875863,-0.5021804190020422,0.4057125253163489,2.873120936318115,0.4162965836632657,2
261,2024-09-28 16:50:54.476648960,TASK_BEGIN,023,-1.0188752510026569,0.7167135035490616,-2.1023478190910168,0.8921165609270257,-0.43561649340114517,0.4069764032461266,2.7417679835857727,0.4929279720509142,2
262,2024-09-28 16:50:54.544487168,TASK_BEGIN,023,-0.9890401697018715,0.7165699184963796,-1.989903976997564,0.8794447480911789,-0.3669867752723699,0.40814029749312913,2.5748358091735155,0.5692778780183232,2
263,2024-09-28 16:50:55.457566976,TASK_BEGIN,023,-0.9575183044609994,0.7142773581693727,-1.888250132512263,0.8717352374965464,-0.29804349951387776,0.4091261503826746,2.375340297058553,0.6446916411289474,2
264,2024-09-28 16:50:55.519175936,TASK_BEGIN,023,-0.9258575661380574,0.7096969026996468,-1.8032143006309764,0.8700759190400116,-0.23030037622346441,0.40976059015751637,2.1478759257642674,0.7186460407644809,2
265,2024-09-28 16:50:55.598120960,TASK_BEGIN,023,-0.8954189120448696,0.7027615448174287,-1.739323624485452,0.8751674756307992,-0.16497750733854444,0.40979610407822814,1.8986580520312855,0.7906656920530319,2
266,2024-09-28 16:50:55.665831168,TASK_BEGIN,023,-0.8672256239077929,0.6934875914604415,-1.6993514941383012,0.8873285399529339,-0.10299063245266946,0.40894117612700426,1.6353238007780921,0.8602930778020355,2
267,2024-09-28 16:50:55.720392192,TASK_BEGIN,023,-0.84185663884527,0.6819766709518837,-1.6839749643062165,0.9064947078940669,-0.044974394843556864,0.40689492166012337,1.3664793950837721,0.9270774012184587,2
268,2024-09-28 16:50:55.798500864,TASK_BEGIN,023,-0.819404616090168,0.6684154702103067,-1.6915999848857688,0.9321646937903778,0.008681887310480061,0.4033795947968394,1.101216200623369,0.9905141346367926,2
269,2024-09-28 16:50:55.860641024,TASK_BEGIN,023,-0.7995039716327567,0.6530746152494434,-1.71838427939988,0.9632902833841193,0.05777900330326548,0.3981748153625202,0.8488396381805843,1.0499095804848635,2
270,2024-09-28 16:50:56.804677888,TASK_BEGIN,023,-0.7814167625511312,0.6363021297601323,-1.7584501522118565,0.9981765322460454,0.1022155905881668,0.3911575643908271,0.6188282347098835,1.1042283446370427,2
271,2024-09-28 16:50:56.866501888,TASK_BEGIN,023,-0.7641663987174615,0.618508683230422,-1.804309098523599,1.03448932811596,0.1418817224850167,0.38233596716045015,0.4207689914112115,1.152016391539404,2
272,2024-09-28 16:50:56.948200960,TASK_BEGIN,023,-0.7467172409424366,0.600147206178463,-1.8475186348208972,1.0694235549143063,0.1765956737144444,0.37185915858680574,0.2639335097935897,1.1914469830667644,2
273,2024-09-28 16:50:57.004836096,TASK_BEGIN,023,-0.7281819711254494,0.5816936130182037,-1.8795228807615247,1.1000157348887278,0.20611589378154613,0.3600016697040291,0.1563858071030225,1.220473659290703,2
274,2024-09-28 16:50:57.083720960,TASK_BEGIN,023,-0.7080118117908265,0.5636339702150671,-1.8925965215174398,1.1235398293196601,0.23020785203502508,0.3471362178075021,0.10387255598893447,1.2370551179314146,2
275,2024-09-28 16:50:57.145095936,TASK_BEGIN,023,-0.6861226631497326,0.5464570975991011,-1.880802317282554,1.1379062438814904,0.24871797475424878,0.333707031599732,0.10889244451391326,1.2394197838263277,2
276,2024-09-28 16:50:57.206854912,TASK_BEGIN,023,-0.6629358181458638,0.530648887639924,-1.8407985938398157,1.1419844209067724,0.2616091728624417,0.3202070210592924,0.17020581084917666,1.2263198377069655,2
277,2024-09-28 16:50:58.161396992,TASK_BEGIN,023,-0.6393435094281422,0.5166877536322311,-1.7722511149046904,1.1357802480524042,0.26894137209461105,0.3071566204664221,0.28285370636485113,1.1972187187011674,2
278,2024-09-28 16:50:58.223692800,TASK_BEGIN,023,-0.616632568425149,0.5050433125349143,-1.6776796523130084,1.1204297133323577,0.2708212203171489,0.2950810070366385,0.43862200126422096,1.1524053906108334,2
279,2024-09-28 16:50:58.285722880,TASK_BEGIN,023,-0.5963956752311682,0.4961772433137767,-1.561837835944553,1.098031116923633,0.267358357597074,0.2844846187941838,0.6268248350957969,1.0930676309583371,2
280,2024-09-28 16:50:58.365951232,TASK_BEGIN,023,-0.5804200274977583,0.4905371690532283,-1.4309307990337714,1.0713821928175062,0.2586555148409459,0.2758221969447834,0.8353340831475279,1.0213159178083537,2
281,2024-09-28 16:50:58.433700096,TASK_BEGIN,023,-0.5705152999328694,0.4885323274259059,-1.2919161845221188,1.0436779212999105,0.24484819862570092,0.26946588083065487,1.051832735477832,0.9400957301376667,2
282,2024-09-28 16:50:58.501465088,TASK_BEGIN,023,-0.5682741660101849,0.4904896900825227,-1.1519592904553089,1.0181928560328841,0.2261791079402044,0.2656762024870687,1.2651553477999145,0.8529509900078172,2
283,2024-09-28 16:50:58.565092096,TASK_BEGIN,023,-0.5748136162617627,0.4966002060406806,-1.0180145835551682,0.9979517095381889,0.2030592767793125,0.26459059662908324,1.4663963235985082,0.7636818111726189,2
284,2024-09-28 16:50:59.485753856,TASK_BEGIN,023,-0.5905692062638124,0.5068686862364203,-0.8964875735529927,0.9854030006263628,0.17607831413836278,0.26623297567838144,1.6494908315833787,0.6759921029630741,2
285,2024-09-28 16:50:59.553573888,TASK_BEGIN,023,-0.6152032921059345,0.5210815548353456,-0.7929516010638389,0.9821532463641427,0.14595801286933027,0.27053568254810695,1.8112271458767375,0.5932116430508266,2
286,2024-09-28 16:50:59.621309184,TASK_BEGIN,023,-0.6476519060799006,0.5388052963305249,-0.7119408325305288,0.9888392193220247,0.11346263742751223,0.27736387577530347,1.950820447005734,0.5181219888622876,2
287,2024-09-28 16:50:59.680449024,TASK_BEGIN,023,-0.6862864737546711,0.559420398213227,-0.6568529204297359,1.0051648789645653,0.0793069953395552,0.28653207851127216,2.0691947748904775,0.45285149503532074,2
288,2024-09-28 16:50:59.741549056,TASK_BEGIN,023,-0.7291361672480244,0.582182901527532,-0.6299256772302525,1.0300464734416164,0.04412446945509249,0.297803135137014,2.1682237473704653,0.3987907422207389,2
289,2024-09-28 16:50:59.824574976,TASK_BEGIN,023,-0.7741158088158088,0.6062969117218195,-0.632207964993703,1.061787017567165,0.008512823510392781,0.31087505534582066,2.2502636462555423,0.3565372524059967,2
290,2024-09-28 16:50:59.880079104,TASK_BEGIN,023,-0.819218805137399,0.6309819249481814,-0.6635035301720061,1.0982521093511042,-0.026899105665122915,0.3253781278291549,2.3180558224779007,0.3259216514854403,2
291,2024-09-28 16:51:00.835572992,TASK_BEGIN,023,-0.8626566261652261,0.6555268689413617,-0.7223200859975688,1.1370495148437971,-0.06142769714073289,0.3408966838649513,2.374683797141571,0.30613595915073066,2
292,2024-09-28 16:51:00.899389952,TASK_BEGIN,023,-0.902948858477708,0.6793308348498736,-0.8058442272528407,1.17569810093263,-0.09435558315768314,0.35700619860384436,2.4232706061999014,0.2959369942012193,2
293,2024-09-28 16:51:00.960946944,TASK_BEGIN,023,-0.9389745600665733,0.7019311607483859,-0.9099537828792092,1.2117736821558904,-0.12495625690653571,0.37330601249450274,2.4664697659270773,0.29388573045741634,2
294,2024-09-28 16:51:01.037600000,TASK_BEGIN,023,-0.9699866857724133,0.7230146264879896,-1.0293045876837472,1.2430419082035356,-0.15250171313983027,0.3894357453355695,2.505989782017178,0.2985912085827612,2
295,2024-09-28 16:51:01.106411008,TASK_BEGIN,023,-0.99559139739072,0.7424067157338056,-1.1575699995442936,1.2675852115297535,-0.17626582112955516,0.4050749554325696,2.542262285135435,0.30892989751299615,2
296,2024-09-28 16:51:01.174483200,TASK_BEGIN,023,-1.0157091647569092,0.7600417686524835,-1.2879003904434811,1.2839002834210205,-0.19552677609991886,0.41993030757173566,2.5742918837894053,0.32420273580730763,2
297,2024-09-28 16:51:01.241602816,TASK_BEGIN,023,-1.0305339578463049,0.7759258567559468,-1.4135457992689757,1.2909203116709185,-0.2095510172259689,0.43371542834742444,2.5997655291316404,0.34419367621665825,2
298,2024-09-28 16:51:02.185262848,TASK_BEGIN,023,-1.0404865796973517,0.7901049158940383,-1.5284717623571986,1.2879547265999778,-0.2175594593143417,0.4461333259609568,2.6154057531214137,0.369120073043582,2
299,2024-09-28 16:51:02.253038848,TASK_BEGIN,023,-1.0461586057084158,0.8026435749659268,-1.6278486274517752,1.2746216045379188,-0.21871478256258906,0.45687443449788023,2.6174384312509815,0.3994917827211185,2
300,2024-09-28 16:51:02.320814080,TASK_BEGIN,023,-1.0482610853856784,0.8136128731460528,-1.708418040733203,1.2508640827461084,-0.21217189125836006,0.46563621844985387,2.6021196444983232,0.4358915874565401,2
301,2024-09-28 16:51:02.388573952,TASK_BEGIN,023,-1.0475817775411451,0.8230830431252033,-1.7687536019813856,1.217057577770931,-0.1971909384184196,0.47215848257624465,2.566343678683879,0.47867345589974003,2
302,2024-09-28 16:51:02.441293824,TASK_BEGIN,023,-1.0449278802243565,0.8311182930163736,-1.8093576631054475,1.1741355599139116,-0.1732672858582588,0.47626121391205534,2.5082733085106805,0.5276121548253472,2
303,2024-09-28 16:51:02.518583040,TASK_BEGIN,023,-1.0410359468942605,0.837770379934122,-1.8325296076169943,1.1236651985693222,-0.14022970735960885,0.4778698926222509,2.4278416249552577,0.5816221960905675,2
304,2024-09-28 16:51:02.591855872,TASK_BEGIN,023,-1.0364646913714441,0.8430701135950036,-1.8419954491135833,1.0678365558451626,-0.09828725681978041,0.4770164991594194,2.327002597097612,0.638677889232014,2
305,2024-09-28 16:51:03.536445952,TASK_BEGIN,023,-1.0315089927391141,0.8470198534509463,-1.8423015536847955,1.0093351109150852,-0.04802684888660354,0.4738147799612629,2.209742816099342,0.6959595413079098,2
306,2024-09-28 16:51:03.603228928,TASK_BEGIN,023,-1.0261614497118405,0.8495872600062626,-1.8380122044797116,0.951088878153314,0.009630153152633159,0.46842278220641065,2.0819554769671096,0.7501398822456041,2
307,2024-09-28 16:51:03.659246848,TASK_BEGIN,023,-1.0201209945047016,0.8506972650480644,-1.8328930704397404,0.8959532876439101,0.07349694394170017,0.4610126659901241,1.9511605395912275,0.7977200740718174,2
308,2024-09-28 16:51:03.739006976,TASK_BEGIN,023,-1.0128438441344998,0.8502299329249754,-1.8293626566263321,0.8464566144547814,0.14219910895931462,0.4517572753843583,1.8259017362663272,0.8353873168745212,2
309,2024-09-28 16:51:03.807537152,TASK_BEGIN,023,-1.0036415858085561,0.8480436891699703,-1.8283928513361254,0.8046936209165971,0.214255395612091,0.44082563726854396,1.7147561941838998,0.8603878168739163,2
310,2024-09-28 16:51:03.873678848,TASK_BEGIN,023,-0.9918173830096129,0.8440305394978891,-1.8298396698835055,0.7723468498652662,0.2881543521704107,0.42837907364650635,1.6252067216150548,0.8708584316785459,2
311,2024-09-28 16:51:03.935756800,TASK_BEGIN,023,-0.9768099460734647,0.8381838533957019,-1.8330427500390165,0.7507480529881647,0.36240833932324407,0.4145727343265173,1.562793706776167,0.866023077076019,2
312,2024-09-28 16:51:04.885799680,TASK_BEGIN,023,-0.9583214186187508,0.8306522551513282,-1.8374552259539105,0.7409224870642954,0.4355803506230567,0.3995677793256525,1.5307538279419677,0.8462094174314269,2
313,2024-09-28 16:51:04.939883008,TASK_BEGIN,023,-0.9364214710021098,0.821765364060704,-1.8430616162461453,0.7436035980374437,0.506305281224809,0.3835457765354355,1.5299987920615195,0.8127178416407678,2
314,2024-09-28 16:51:05.016941824,TASK_BEGIN,023,-0.9116122258963947,0.8120275995184595,-1.850458880640301,0.7592006110185776,0.5733239132135417,0.3667118811009117,1.5591833550156597,0.767602486952049,2
315,2024-09-28 16:51:05.089159936,TASK_BEGIN,023,-0.8848201268342144,0.8020792366573458,-1.8606680707154475,0.7877162940331707,0.635522387924925,0.34928498389078616,1.6147835044613164,0.713422459081654,2
316,2024-09-28 16:51:05.156941824,TASK_BEGIN,023,-0.857293616633071,0.7926280491638505,-1.8748615665540564,0.8286665921307164,0.6919567985330521,0.33148459200044533,1.6913022774481214,0.653005997856363,2
317,2024-09-28 16:51:05.224708864,TASK_BEGIN,023,-0.8304313559705546,0.7843652539228815,-1.8941307991566116,0.8810529825150603,0.7418503868448566,0.3135201805330793,1.7817722301368324,0.5892341704063054,2
318,2024-09-28 16:51:05.292454144,TASK_BEGIN,023,-0.805594484182672,0.7778860258079322,-1.9192506111263232,0.9433759918928718,0.7845632551979131,0.2955803193942302,1.8785815965185466,0.5248430915261666,2
319,2024-09-28 16:51:06.211224064,TASK_BEGIN,023,-0.7839466545708303,0.7736272289471775,-1.9503212905425147,1.0136387905411977,0.81954626151411,0.2778215668541795,1.9744283975140047,0.4622759144434305,2
320,2024-09-28 16:51:06.279502080,TASK_BEGIN,023,-0.76634566100529,0.7718252273351556,-1.986300169992555,1.0893073553773895,0.8463073454742303,0.26036288575017413,2.0631431178797293,0.403606440508899,2
321,2024-09-28 16:51:06.347254272,TASK_BEGIN,023,-0.7532971245113755,0.7725000009262041,-2.0246176761532353,1.1672580073008623,0.8644138294342157,0.24329294351915892,2.1402180951923326,0.3505062664914573,2
322,2024-09-28 16:51:06.412524800,TASK_BEGIN,023,-0.744967554905054,0.7754761775620492,-2.0610983950726443,1.2437985972293863,0.8735115955013579,0.2266981011200627,2.2029618746666455,0.30422442488816387,2
323,2024-09-28 16:51:06.482796800,TASK_BEGIN,023,-0.7412360907527523,0.7804379172800835,-2.0902738178578684,1.3148239888287037,0.8733197251430922,0.2107111701270203,2.2502980324499275,0.26558678936076263,2
324,2024-09-28 16:51:06.550539008,TASK_BEGIN,023,-0.7417570060385706,0.7869957673568189,-2.105979826242189,1.3760863390636995,0.8635970913144713,0.19556528742500273,2.2823787355298912,0.2350420673540366,2
325,2024-09-28 16:51:06.611524096,TASK_BEGIN,023,-0.746029312304756,0.7947460166032723,-2.1020163076169265,1.42351110770406,0.8441166260933494,0.18163211778839414,2.300201123969226,0.21276306615188262,2
326,2024-09-28 16:51:07.562247936,TASK_BEGIN,023,-0.7534916342537707,0.8033195684839931,-2.07276698635952,1.4535107223262833,0.814681108740556,0.16943171943219654,2.3052963727738076,0.19877341478467198,2
327,2024-09-28 16:51:07.618780928,TASK_BEGIN,023,-0.763635530725739,0.8124216327275499,-2.0138884998708,1.4633061308044635,0.7751971411966759,0.15960758461750382,2.299477618059516,0.19306446960180412,2
328,2024-09-28 16:51:07.697817088,TASK_BEGIN,023,-0.7760970327804932,0.8218573137526604,-1.9231211755403503,1.4512596750020887,0.7257969877520338,0.15286547260665723,2.284606212321008,0.19569192900112078,2
329,2024-09-28 16:51:07.765556224,TASK_BEGIN,023,-0.7906974458864301,0.8315401387095744,-1.801013674031092,1.417142776445176,0.6669660641993623,0.14988592790502914,2.262359086075465,0.20682785979708493,2
330,2024-09-28 16:51:07.833017088,TASK_BEGIN,023,-0.8074376034338719,0.8414881842019427,-1.6512488634907267,1.3622437966138934,0.5996292137503951,0.1512303466273688,2.2340631945460356,0.22671668634236805,2
331,2024-09-28 16:51:07.901068032,TASK_BEGIN,023,-0.8264609581219216,0.8518118962125277,-1.4803640172240562,1.289284757851349,0.5251584455787951,0.15726321156702308,2.2006797574845427,0.2555207570210349,2
332,2024-09-28 16:51:07.968529920,TASK_BEGIN,023,-0.8479910385946623,0.8626919478915677,-1.2968593813373672,1.2021626563364816,0.4452773617938272,0.1681075727420707,2.1629058498085554,0.29311859510028937,2
333,2024-09-28 16:51:08.912292096,TASK_BEGIN,023,-0.8722472155926426,0.8743461314105963,-1.1099444551407314,1.1055671188762357,0.3618870618405407,0.1836359291896471,2.121278356786035,0.33895929492377164,2
334,2024-09-28 16:51:08.976325888,TASK_BEGIN,023,-0.8993582575337687,0.8869894859807053,-0.9283650684949495,1.004578890638328,0.276886115181126,0.20348720628883996,2.0762403708756048,0.3920501546515643,2
335,2024-09-28 16:51:09.047232000,TASK_BEGIN,023,-0.9292989653864959,0.9007930737773912,-0.759714867848219,0.9043603193173146,0.19203653658886208,0.22710320233543307,2.0282374261930145,0.4510798229837579,2
336,2024-09-28 16:51:09.115286016,TASK_BEGIN,023,-0.9618550702254741,0.9158458543534447,-0.6102910421342871,0.8099599792948379,0.10887958071339258,0.2537827852035482,1.977900869245004,0.5145980246266078,2
337,2024-09-28 16:51:09.177773056,TASK_BEGIN,023,-0.9965984824435387,0.932125226453037,-0.485136953394365,0.7261301162790851,0.028687859270677966,0.2827486013228427,1.9262711804967516,0.5811532665350119,2
338,2024-09-28 16:51:09.251190016,TASK_BEGIN,023,-1.0328539205663343,0.9494809793681469,-0.3879168738896355,0.6570538107110274,-0.04754637850642572,0.31321403431770134,1.8749047485946175,0.6493552982148298,2
339,2024-09-28 16:51:09.318937088,TASK_BEGIN,023,-1.0696603582671171,0.9676327553500483,-0.3207194805949833,0.6060382782072046,-0.11907092772274015,0.34443605036071856,1.825723359789631,0.7178882421638868,2
340,2024-09-28 16:51:10.229687040,TASK_BEGIN,023,-1.105757800798162,0.9861785905863019,-0.28414998999004953,0.5753458604401075,-0.18529097486607696,0.3757474657630535,1.7806537667975788,0.7854946585243535,2
341,2024-09-28 16:51:10.292174080,TASK_BEGIN,023,-1.1396306428464975,1.0046139689345361,-0.2778262256289305,0.5662437633094395,-0.24570400494533387,0.40657595058459073,1.741232704800481,0.8509541253680546,2
342,2024-09-28 16:51:10.369935104,TASK_BEGIN,023,-1.1696082383100659,1.022362341331654,-0.3010401009893351,0.5791740217399103,-0.29990734353974524,0.4364624654376507,1.7082762237466398,0.9131104604992792,2
343,2024-09-28 16:51:10.440726016,TASK_BEGIN,023,-1.193996942538631,1.0388162149110975,-0.3532718820607841,0.6138825768501744,-0.34766215022011765,0.4650791594007794,1.6816402428151955,0.9709656555271615,2
344,2024-09-28 16:51:10.493488896,TASK_BEGIN,023,-1.2112241865378472,1.053384876432383,-0.43439932109436374,0.669438853125995,-0.3889361413567806,0.49222928980448943,1.6601384070904066,1.0237563879445088,2
345,2024-09-28 16:51:10.571556096,TASK_BEGIN,023,-1.2200019321424826,1.0655450636726493,-0.5446009679945109,0.7441909978981253,-0.4238653190914179,0.5178147564379091,1.6416553994961685,1.0709016516578627,2
346,2024-09-28 16:51:10.644060928,TASK_BEGIN,023,-1.2195226493408955,1.0748935933019177,-0.6840262541772932,0.8357335138600636,-0.452654103855002,0.5417805641328541,1.6233617599820955,1.1118254086463295,2
347,2024-09-28 16:51:11.578113024,TASK_BEGIN,023,-1.2096598059855972,1.081197383029907,-0.8523423564554342,0.94093947516971,-0.47548136849194234,0.5640628946381263,1.6019183993034831,1.1457838522367632,2
348,2024-09-28 16:51:11.640983040,TASK_BEGIN,023,-1.1910937595169875,1.084425837002356,-1.0482731043269102,1.0560749223642416,-0.4924557438900484,0.5845612154636074,1.573706719301648,1.1718150310529356,2
349,2024-09-28 16:51:11.719179008,TASK_BEGIN,023,-1.165291075023038,1.084749106590164,-1.2691998543879228,1.1769704872792506,-0.5036182585308137,0.6031341038538721,1.5352039032787788,1.1888220936859513,2
350,2024-09-28 16:51:11.781177856,TASK_BEGIN,023,-1.1343353766399549,1.082501648920615,-1.510874526651145,1.2991964747514555,-0.5089729386450487,0.6196040504342983,1.483501086558127,1.1957391753947957,2
351,2024-09-28 16:51:11.858566144,TASK_BEGIN,023,-1.1006679846545644,1.0781263248569106,-1.767334613395533,1.4182129354902013,-0.5085312537590779,0.633759878419698,1.416760829729259,1.1917418668346411,2
352,2024-09-28 16:51:11.919937024,TASK_BEGIN,023,-1.0667991862723103,1.0721141341840488,-2.0310816639003604,1.529523611740669,-0.5023575869116472,0.6453587759553505,1.3344157703406399,1.1764641030604899,2
353,2024-09-28 16:51:11.982392064,TASK_BEGIN,023,-1.035030853166242,1.06494838283987,-2.2934524604853888,1.6288818210085152,-0.4905959506606781,0.6541363506416211,1.2372180061278284,1.1501342425798446,2
354,2024-09-28 16:51:12.931931904,TASK_BEGIN,023,-1.0072337635974766,1.0570615591287635,-2.545048455685509,1.712546571783966,-0.47346166164325215,0.6598262679016638,1.1274592497813503,1.1135381718708106,2
355,2024-09-28 16:51:12.994419200,TASK_BEGIN,023,-0.9847299402576141,1.0488137237984998,-2.7761760793666235,1.7775201912429455,-0.4512012794406861,0.6621832665400182,1.0094144704646915,1.0678168174232403,2
356,2024-09-28 16:51:13.072516096,TASK_BEGIN,023,-0.968295027423879,1.0404940374143905,-2.9773825298962673,1.8217078199414443,-0.4240432373329004,0.6610062888718309,0.8896392199890918,1.014215046637077,2
357,2024-09-28 16:51:13.140347904,TASK_BEGIN,023,-0.9582389239619148,1.0323346919201961,-3.1401912255628117,1.8440119824581307,-0.39216374748281124,0.6561630511099494,0.776758233369574,0.9538999083621152,2
358,2024-09-28 16:51:13.196124928,TASK_BEGIN,023,-0.954511901091214,1.0245239412944702,-3.2579759347209962,1.8443891973346895,-0.35568069328601604,0.6476136213875138,0.6807527990391662,0.8878881449920717,2
359,2024-09-28 16:51:13.273389824,TASK_BEGIN,023,-0.9568065769608156,1.0172143046673217,-3.3267416310700577,1.8238506426954035,-0.31468057167273006,0.6354276822038399,0.6119470557104131,0.8170786081526733,2
360,2024-09-28 16:51:13.343614976,TASK_BEGIN,023,-0.9646239960429528,1.0105256142276435,-3.3456010374522474,1.7843956322206547,-0.269279492644195,0.6197944248570377,0.5798550606249383,0.7423661502102054,2
361,2024-09-28 16:51:14.273139968,TASK_BEGIN,023,-0.9772705028919394,1.0045395738929228,-3.3168704377874736,1.7289017562595002,-0.2197044716509946,0.6010265089877141,0.592127472677157,0.664753292089635,2
362,2024-09-28 16:51:14.354929920,TASK_BEGIN,023,-0.9937959529701086,0.9992870606788841,-3.2458053501632964,1.6609745328884025,-0.16637524175332793,0.5795570941019083,0.6538986846389313,0.585358744928944,2
363,2024-09-28 16:51:14.412856320,TASK_BEGIN,023,-1.0129277394079699,0.9947352784030974,-3.1400135144001826,1.5847235832642221,-0.10998605943721315,0.5559286532337744,0.7675938693805616,0.5053286972336305,2
364,2024-09-28 16:51:14.490362880,TASK_BEGIN,023,-1.0330538809589371,0.9907785299881143,-3.008592546074842,1.504452758912379,-0.05159150221148792,0.5307751980266211,0.9330184848325989,0.4257544384319065,2
365,2024-09-28 16:51:14.551386880,TASK_BEGIN,023,-1.052281624137886,0.9872335119639821,-2.861138907513277,1.424300783364614,0.007330873702484247,0.5047999244028655,1.1476291645591876,0.34765358323237766,2
366,2024-09-28 16:51:14.612929280,TASK_BEGIN,023,-1.0685685362555635,0.9838441087068069,-2.70685956022251,1.3478822523040976,0.06488947670922383,0.4787467731793531,1.4069719573078416,0.2719701438599721,2
367,2024-09-28 16:51:14.693604096,TASK_BEGIN,023,-1.079902964686956,0.980300373963698,-2.5539239407880165,1.2779627869936534,0.11889261181170566,0.45336191329988695,1.7051210913374093,0.1995490224257251,2
368,2024-09-28 16:51:15.637736960,TASK_BEGIN,023,-1.0845040674037099,0.976268667202696,-2.4090231700196676,1.2162171740326664,0.1670662575068226,0.42934561145800293,2.0348628834036306,0.13112777408341977,2
369,2024-09-28 16:51:15.698146048,TASK_BEGIN,023,-1.081006152394638,0.971427895818555,-2.2770784555139936,1.163158038911787,0.20732714828116244,0.4073060006950229,2.387574055619675,0.06741706483817778,2
370,2024-09-28 16:51:15.759735040,TASK_BEGIN,023,-1.0685901974680845,0.9655107140508562,-2.1611470246313504,1.1182974242260486,0.2380245152589083,0.3877307803587359,2.7529752263874867,0.009270644249859046,2
371,2024-09-28 16:51:15.841087232,TASK_BEGIN,023,-1.0470411354408646,0.9583443753851267,-2.0625726337325303,1.0804963201537954,0.2580882610112872,0.3709799325584569,3.118991815547449,-0.04212875128481371,2
372,2024-09-28 16:51:15.900356864,TASK_BEGIN,023,-1.0167352799303957,0.9498769334232693,-1.9812628889204142,1.048367587658293,0.26709526215530327,0.3572859211859576,3.4719011826599497,-0.08515010420061334,2
373,2024-09-28 16:51:15.976613120,TASK_BEGIN,023,-0.978576666428435,0.9401768948361044,-1.9158963294837859,1.0205992161099435,0.2652925571770939,0.34674986856478635,3.7968447644243533,-0.11770581397311537,2
374,2024-09-28 16:51:16.044425984,TASK_BEGIN,023,-0.9339017333159216,0.9294099334174342,-1.8639870195710095,0.9961245835759834,0.25356941634482927,0.3393386583034084,4.078721625021484,-0.13737459560484697,2
375,2024-09-28 16:51:16.951303936,TASK_BEGIN,023,-0.8843756180495737,0.9178108471708409,-1.8218910990988655,0.9741277028534338,0.2333482790872789,0.33489460021726863,4.303465083953309,-0.1416829652946387,2
376,2024-09-28 16:51:17.030190848,TASK_BEGIN,023,-0.8319030236409702,0.9056661887262752,-1.7849039859524898,0.953924152717309,0.2064228493924644,0.33315826316683345,4.459580458326101,-0.12854191733206924,2
377,2024-09-28 16:51:17.097986048,TASK_BEGIN,023,-0.7785537469271343,0.8933044925231883,-1.7476005231353733,0.9348072383203513,0.17482170563716168,0.33379158846061135,4.539653665128464,-0.09674366943803298,2
378,2024-09-28 16:51:17.165704192,TASK_BEGIN,023,-0.7264842003150825,0.8810817976514496,-1.7045103637179393,0.915968322634511,0.14073291483297398,0.3363886689741946,4.541504734024253,-0.046363687157154734,2
379,2024-09-28 16:51:17.229926144,TASK_BEGIN,023,-0.6778492947985921,0.8693603618027399,-1.651050537365293,0.8965607551180793,0.10644938099730734,0.34047587125793527,4.468695018676036,0.02105870514476905,2
380,2024-09-28 16:51:17.292413184,TASK_BEGIN,023,-0.6347164138402883,0.8584890414554486,-1.5844523991029138,0.8758905328335889,0.07428629120225437,0.3455148528218208,4.3301916589738365,0.10260861923733122,2
381,2024-09-28 16:51:17.354019072,TASK_BEGIN,023,-0.5989889947350574,0.8487937822831981,-1.5043897886359687,0.8536360226622735,0.046463898402076785,0.35091795876087273,4.13925143425521,0.19430969790758726,2
382,2024-09-28 16:51:18.299451136,TASK_BEGIN,023,-0.5723367400228644,0.8405827841107386,-1.4131129122444466,0.8299742041133633,0.024968692731686188,0.3560745443742076,3.9118679733854074,0.2915483338504374,2
383,2024-09-28 16:51:18.379675904,TASK_BEGIN,023,-0.5561262408331968,0.8341656709412612,-1.3150228805936648,0.8055411832529561,0.011401355249190148,0.360385757864242,3.665142063134139,0.3894875019464684,2
384,2024-09-28 16:51:18.438542080,TASK_BEGIN,023,-0.5513453479368341,0.8298768895285317,-1.2158175861127554,0.7812595771442588,0.0068246948712297,0.3633098110932395,3.4156772474088903,0.48343092392752707,2
385,2024-09-28 16:51:18.500548096,TASK_BEGIN,023,-0.5585191348228591,0.8280866850538428,-1.121533963418776,0.7581475611792988,0.011641837351426982,0.36441427843722746,3.177953996219244,0.5691684214150923,2
386,2024-09-28 16:51:18.582983936,TASK_BEGIN,023,-0.5776297408432274,0.829188401146835,-1.0378101478764319,0.7372145576692759,0.025542797780451328,0.3634211701084801,2.962846930737806,0.6432969389769131,2
387,2024-09-28 16:51:18.650708992,TASK_BEGIN,023,-0.6080637468379343,0.8335652389402349,-0.9694970997815598,0.7194716832021499,0.04754320451907232,0.36023060033119153,2.7767029931163294,0.7034509082422029,2
388,2024-09-28 16:51:18.717233920,TASK_BEGIN,023,-0.6486049426569852,0.841547922297406,-0.9205427100234692,0.7060056322096491,0.07611222597318065,0.3549195566605678,2.62128624406874,0.7483954771000446,2
389,2024-09-28 16:51:19.663983104,TASK_BEGIN,023,-0.6974794588544468,0.8533709013570501,-0.8939521099049725,0.6980230749492277,0.1093632629515708,0.34771960167774757,2.494530149984449,0.7779803512485358,2
390,2024-09-28 16:51:19.726792960,TASK_BEGIN,023,-0.752462266956616,0.8691303490444142,-0.8916619421504011,0.6967974485823918,0.14526725866713855,0.3389766657935345,2.3917813850013965,0.7929651965239778,2
391,2024-09-28 16:51:19.789277952,TASK_BEGIN,023,-0.8110577644252753,0.8887512676160517,-0.914385893851009,0.703533454534851,0.18184372890619446,0.3290998578853822,2.3071582965984376,0.7947579383930655,2
392,2024-09-28 16:51:19.866946048,TASK_BEGIN,023,-0.8707402587228241,0.9119720550989936,-0.9616720067742702,0.7192359014400872,0.21729399755101728,0.31851635062498146,2.234695382869584,0.7851479332182133,2
393,2024-09-28 16:51:19.935053312,TASK_BEGIN,023,-0.9291875548464691,0.9383429490851696,-1.032295697180818,0.7446609792386516,0.25007458982690894,0.3076452728888164,2.1691043625959634,0.7661019230815741,2
394,2024-09-28 16:51:19.995051008,TASK_BEGIN,023,-0.9844292948504656,0.9672235699702142,-1.124812669998892,0.7803541240009422,0.2789413987103681,0.296884003897326,2.106220402313141,0.7396365508618253,2
395,2024-09-28 16:51:20.068605952,TASK_BEGIN,023,-1.0348912512293784,0.9977682181127634,-1.2379348967448425,0.8267012581048138,0.3029882247766212,0.2865931566919129,2.0433126407752997,0.7077406567910949,2
396,2024-09-28 16:51:21.010375936,TASK_BEGIN,023,-1.0793747686011437,1.0289005482895255,-1.3704876012161258,0.8838902839107377,0.3216752677040039,0.27707868157631504,1.9792880816152478,0.6723098824783066,2
397,2024-09-28 16:51:21.073023232,TASK_BEGIN,023,-1.1170080747388953,1.059290853649587,-1.5209676253896918,0.9517407325013431,0.33483542962267177,0.2685778122541267,1.9146165831024096,0.6350752597324555,2
398,2024-09-28 16:51:21.135507968,TASK_BEGIN,023,-1.1471789641851184,1.087349285360264,-1.6869879405125874,1.0294853152363705,0.34265734620548133,0.2612497167399265,1.8508570213790967,0.597534467211277,2
399,2024-09-28 16:51:21.215389952,TASK_BEGIN,023,-1.1694522110932228,1.11123553291591,-1.8649406447303574,1.1156428554077302,0.3456553587955563,0.25516590588803856,1.789947217649471,0.5608956701331473,2
400,2024-09-28 16:51:21.283172096,TASK_BEGIN,023,-1.1834878209545185,1.1288773537915915,-2.0499918429448436,1.2080433807011304,0.34463468747283404,0.2503003751690188,1.73362795696591,0.5260314486200622,2
401,2024-09-28 16:51:21.337575936,TASK_BEGIN,023,-1.188980997397815,1.1379973899128653,-2.2363045881376196,1.3039724986082093,0.34063993578550955,0.2465286700912537,1.6832893750729176,0.4934428119584298,2
402,2024-09-28 16:51:21.416677120,TASK_BEGIN,023,-1.1856247110065152,1.1361554272801846,-2.417366798079516,1.40038803509806,0.33486391658270764,0.24364671372012006,1.6402210836865116,0.4632341494406705,2
403,2024-09-28 16:51:22.334233856,TASK_BEGIN,023,-1.173078023951792,1.1208126277867199,-2.5863455284004124,1.4941687190980804,0.3285117456928698,0.2414098695704187,1.605992422223399,0.43508548705816397,2
404,2024-09-28 16:51:22.396720896,TASK_BEGIN,023,-1.150935325490385,1.0894221072818935,-2.736411093734676,1.582347675368961,0.32263387315450287,0.23957933531260348,1.582702003352822,0.4082159904883196,2
405,2024-09-28 16:51:22.472919040,TASK_BEGIN,023,-1.118705915820351,1.0395466412737655,-2.8610663808347687,1.6623033516368453,0.31795147923733136,0.2379585016462013,1.5729667495392776,0.3813849582933977,2
406,2024-09-28 16:51:22.538833920,TASK_BEGIN,023,-1.0758164683438807,0.9689996470700152,-2.9545797806682477,1.731901456193213,0.31472484567931275,0.23640569085408653,1.5795502701385542,0.3530182860468615,2
407,2024-09-28 16:51:22.598270976,TASK_BEGIN,023,-1.0216618406195317,0.8760075713118162,-3.0124897271373485,1.7895641809032647,0.31273020060555384,0.23481869983150988,1.6046135115395836,0.3215071062700343,2
408,2024-09-28 16:51:22.665441792,TASK_BEGIN,023,-0.9557260077891726,0.759392702420267,-3.032024609340957,1.8342480062651179,0.3113635797619064,0.23310166987592681,1.6488137887417564,0.28562807687034,2
409,2024-09-28 16:51:22.740619008,TASK_BEGIN,023,-0.8777479972349559,0.6187619483832679,-3.0123919244070927,1.8653744581292717,0.30982730521975815,0.23113498303337995,1.710629342187076,0.24497802711797534,2
410,2024-09-28 16:51:23.686152192,TASK_BEGIN,023,-0.7878694830460287,0.4546693450816302,-2.954997376295635,1.8827905040826882,0.3073370956820467,0.22876356609566378,1.7861758363029825,0.20032185626886792,2
411,2024-09-28 16:51:23.754621952,TASK_BEGIN,023,-0.686715530009742,0.26871452289778,-2.863519913736827,1.8867701440364746,0.3032951365160561,0.22580697822384152,1.8694719699911322,0.15378019618988117,2
412,2024-09-28 16:51:23.822415104,TASK_BEGIN,023,-0.5753977584750027,0.06354582901155509,-2.7436742386870345,1.8779973097597247,0.2973918006762878,0.22208479013415558,1.952861460415671,0.10881173337070538,2
413,2024-09-28 16:51:23.883187968,TASK_BEGIN,023,-0.45545235728753614,-0.15724563709142814,-2.6026866353470086,1.857506905919857,0.2896362768939003,0.2174449503933886,2.0274170907761935,0.06996676245345343,2
414,2024-09-28 16:51:23.945673216,TASK_BEGIN,023,-0.32873609490397865,-0.38932132972778644,-2.4486923396728755,1.8266371794147154,0.280338006172674,0.21178655249808656,2.0834653185135146,0.04241497390770313,2
415,2024-09-28 16:51:24.022387968,TASK_BEGIN,023,-0.19731401195286546,-0.6278288561445793,-2.2901789404291244,1.787029612053238,0.27004760064637795,0.20507649116596985,2.1114221894694003,0.031305047976043596,2
416,2024-09-28 16:51:24.088587776,TASK_BEGIN,023,-0.06337588083212282,-0.8676273212777615,-2.1354658651734195,1.7406400176493764,0.2594604025733754,0.19735949883019738,2.102879177948151,0.04107793645486153,2
417,2024-09-28 16:51:25.036106240,TASK_BEGIN,023,0.07080174871746972,-1.1034932574430003,-1.9922001536079645,1.6897011480543425,0.2492978486102009,0.18875872211244157,2.0516183589482098,0.07487794143862772,2
418,2024-09-28 16:51:25.104680192,TASK_BEGIN,023,0.2028692919696105,-1.3303209998329952,-1.8668846456754307,1.6365956220932456,0.24018059075373926,0.17946864964059664,1.9542583574715142,0.13415781590346196,2
419,2024-09-28 16:51:25.157581056,TASK_BEGIN,023,0.33043651958958375,-1.5433250125971687,-1.7644903630663573,1.5836286382863634,0.2324980239004836,0.1697458088058743,1.8105423183292513,0.2184860814118122,2
420,2024-09-28 16:51:25.236871168,TASK_BEGIN,023,0.4511489898048802,-1.7382280097983542,-1.6882196703839525,1.5327437890633115,0.2262861656950859,0.15989965808689854,1.6235016619696123,0.3255071968908393,2
421,2024-09-28 16:51:25.297739008,TASK_BEGIN,023,0.5627961558467622,-1.9114037509999577,-1.639434249922987,1.4852630912522908,0.22115290288639558,0.1502817436908485,1.399621876625065,0.45102370077731835,2
422,2024-09-28 16:51:25.375809792,TASK_BEGIN,023,0.6634179620921307,-2.0599541914480257,-1.6176957965861425,1.4417098091631095,0.21631019319682085,0.14126770615344988,1.1489066103039887,0.5892291857833853,2
423,2024-09-28 16:51:25.443603968,TASK_BEGIN,023,0.7513913976282675,-2.18172914225626,-1.6208572011768698,1.4017323207029777,0.2107377646248102,0.13322711541992743,0.884602246557055,0.7331381887714874,2
424,2024-09-28 16:51:26.389017088,TASK_BEGIN,023,0.82550223958851,-2.2753129441792774,-1.6451635639466988,1.364135211325458,0.20342062197473698,0.12648281844439427,0.6223876265135023,0.8751889607648011,2
425,2024-09-28 16:51:26.456904704,TASK_BEGIN,023,0.8849970904661675,-2.339988539163755,-1.685372360666989,1.327032068442704,0.19356114161403504,0.1212674547053509,0.3791201938765139,1.0078923475246488,2
426,2024-09-28 16:51:26.524624896,TASK_BEGIN,023,0.9295825055401014,-2.375664549330161,-1.7349752771832978,1.2881346637694808,0.18069456725859598,0.11768565904827039,0.1715078368161635,1.1243802938636867,2
427,2024-09-28 16:51:26.592345088,TASK_BEGIN,023,0.9593474787874596,-2.382748770277099,-1.786600153263295,1.245150673188024,0.1646817262991114,0.1156903069720441,0.014993525977772976,1.2187906482883666,2
428,2024-09-28 16:51:26.659713024,TASK_BEGIN,023,0.9746279193577739,-2.3619776218417163,-1.8325810300339362,1.1961943949123655,0.14559901395038843,0.11508046197523503,-0.07710941391163917,1.2865016148439805,2
429,2024-09-28 16:51:26.727816192,TASK_BEGIN,023,0.9758540001962486,-2.3142442447569693,-1.86562657013154,1.1400965360100705,0.12358853232462114,0.11552502792414385,-0.09428569359622943,1.3242473645951705,2
430,2024-09-28 16:51:26.780913152,TASK_BEGIN,023,0.9634126614644513,-2.2404803076288573,-1.879506634206968,1.076556107482717,0.09873590684287445,0.11660990936543701,-0.029338124682923458,1.330151719028846,2
431,2024-09-28 16:51:27.726756096,TASK_BEGIN,023,0.9375462220333449,-2.1416267534076727,-1.8696642107988382,1.0061690529247755,0.07101651990535778,0.11789812550609412,0.1212283755605065,1.3037107752794659,2
432,2024-09-28 16:51:27.804596992,TASK_BEGIN,023,0.8983077973996099,-2.0186962645401874,-1.8336591264113011,0.9304295334603994,0.04031810096007956,0.11898707519894475,0.3569814868649211,1.245729341822597,2
433,2024-09-28 16:51:27.865756160,TASK_BEGIN,023,0.8455939095734348,-1.8729088968855196,-1.7713979863152578,0.8517647944436126,0.006510085204963015,0.1195529006840723,0.6734478147552772,1.1582206144405283,2
434,2024-09-28 16:51:27.927293952,TASK_BEGIN,023,0.7792595725930056,-1.705871718782883,-1.6851911389771306,0.773551180498691,-0.030480910831360095,0.11938062052621867,1.062029217179936,1.044304642611681,2
435,2024-09-28 16:51:28.008548096,TASK_BEGIN,023,0.6992975449218356,-1.5197659593939774,-1.5796910038916234,0.6999936902879037,-0.07059789213477125,0.11837867770066647,1.5100661628932175,0.9081192228334004,2
436,2024-09-28 16:51:28.066500096,TASK_BEGIN,023,0.6060504752498886,-1.3175029162011145,-1.4616782678086602,0.6358074390640416,-0.11357918441686538,0.1165769934028042,2.0013813098922495,0.7546974341910356,2
437,2024-09-28 16:51:28.144002048,TASK_BEGIN,023,0.5004216399401712,-1.102812820415382,-1.3396122329888174,0.5857319648264342,-0.15890919798599198,0.11411424422255843,2.517450520153667,0.5897474158991288,2
438,2024-09-28 16:51:29.058110720,TASK_BEGIN,023,0.38403896569467594,-0.8802318167506531,-1.2228851086263839,0.5539463946085851,-0.2058160219233331,0.1112177264704738,3.038840777226307,0.4193326324251471,2
439,2024-09-28 16:51:29.130408960,TASK_BEGIN,023,0.2593093711394372,-0.6549506872355737,-1.1207680861395735,0.5434698529334515,-0.25329781466771845,0.10816928953657852,3.5463884923231572,0.2495377953138499,2
440,2024-09-28 16:51:29.197708032,TASK_BEGIN,023,0.1293126838460929,-0.43250781078210804,-1.0411611968572823,0.5556692911521546,-0.30016728600250775,0.10525727695526461,4.0219862948466,0.08621074845846473,2
441,2024-09-28 16:51:29.261441024,TASK_BEGIN,023,-0.0024470009967542065,-0.21836777847736705,-0.9894432878360067,0.5900025178619348,-0.3451371801865597,0.10273340022713773,4.449213855819232,-0.06521586239227384,2
442,2024-09-28 16:51:29.333625856,TASK_BEGIN,023,-0.13233976069882047,-0.01748793755976619,-0.9677797965083003,0.6440593058175317,-0.3869423318133387,0.10079271324551371,4.814008461388627,-0.19988184201561154,2
443,2024-09-28 16:51:29.401387008,TASK_BEGIN,023,-0.25686451846946406,0.1660250098429443,-0.9750556181823352,0.7138668980084922,-0.42444265043051566,0.09957334818188764,5.105328386696276,-0.3136520366835718,2
444,2024-09-28 16:51:29.469165056,TASK_BEGIN,023,-0.37283140572771295,0.3291221837650204,-1.0072809769208657,0.7943476799594434,-0.456673103789835,0.09916289812367339,5.315603927516414,-0.4032177608301852,2
445,2024-09-28 16:51:30.414252032,TASK_BEGIN,023,-0.47749330359451264,0.4698892303114855,-1.05818294856748,0.8798013428824188,-0.48286586575812557,0.0996058096586515,5.440831790554707,-0.46613191591269254,2
446,2024-09-28 16:51:30.478480896,TASK_BEGIN,023,-0.5686437267443274,0.58751771773694,-1.1198592251953075,0.9643415711899029,-0.5024699591900514,0.10090864097501787,5.48035664851778,-0.5008322562308978,2
447,2024-09-28 16:51:30.549526784,TASK_BEGIN,023,-0.6446726189205769,0.6821984272515123,-1.1835513590724562,1.0422832133958388,-0.5151591424998172,0.10303853839364077,5.4364844731727455,-0.5067120356584609,2
448,2024-09-28 16:51:30.617541888,TASK_BEGIN,023,-0.7045701366514049,0.7549633996169651,-1.2405588465476172,1.1084974666657006,-0.5208244966862029,0.105918700664183,5.314031363275301,-0.48424952554707984,2
449,2024-09-28 16:51:30.685346048,TASK_BEGIN,023,-0.7478919482251969,0.8075006002062105,-1.2831822678667404,1.15874424268309,-0.5195710596619565,0.10943046428345911,5.119859781295871,-0.43514563891762875,2
450,2024-09-28 16:51:30.741064960,TASK_BEGIN,023,-0.7747166842439742,0.84196051415089,-1.3055328981075849,1.1899696239871584,-0.5117235696660118,0.11342177749259741,4.862480942022184,-0.36238119175841865,2
451,2024-09-28 16:51:30.818242304,TASK_BEGIN,023,-0.7856190437876146,0.8607734288733504,-1.3040948192471864,1.2005271770433468,-0.4978180903318835,0.11771250064978267,4.551803333676116,-0.2701338812161883,2
452,2024-09-28 16:51:31.762774016,TASK_BEGIN,023,-0.7816568362876867,0.8664951628876223,-1.2779867670703735,1.1902731609912616,-0.4785614070292094,0.12209212521328447,4.199001920504357,-0.16355095721518909,2
453,2024-09-28 16:51:31.830432000,TASK_BEGIN,023,-0.7643469950473368,0.8616890150755452,-1.22888705938887,1.1605185271717502,-0.45476864601938466,0.1263151427263684,3.816394593350946,-0.04840375588066012,2
454,2024-09-28 16:51:31.897689856,TASK_BEGIN,023,-0.735604214129073,0.8488361595554521,-1.1606218704138693,1.113862725770875,-0.42729949415663465,0.1301019894255801,3.417218913617185,0.06932546750240084,2
455,2024-09-28 16:51:31.966099200,TASK_BEGIN,023,-0.6976364381686284,0.8302581673778423,-1.078525238059749,1.0539427964101107,-0.39700185225028295,0.13315054115108663,3.01523585176952,0.18384238630914715,2
456,2024-09-28 16:51:32.033689856,TASK_BEGIN,023,-0.6528133708525286,0.8080422666580324,-0.9887210272700969,0.9851108529365938,-0.3646681439010658,0.13515974476573892,2.624117718671371,0.28985547939866146,2
457,2024-09-28 16:51:32.099022080,TASK_BEGIN,023,-0.6035296577627102,0.7839764589515852,-0.8973702448137085,0.9120340710014287,-0.33101305351915133,0.13586279107943858,2.2566383364425313,0.3828050626568829,2
458,2024-09-28 16:51:32.160589824,TASK_BEGIN,023,-0.5520786300956968,0.7595107999294483,-0.8098936914696425,0.8392264325284899,-0.2966747211225688,0.13506214892491833,1.9237763755603874,0.45904448934882897,2
459,2024-09-28 16:51:33.086522880,TASK_BEGIN,023,-0.5005494966452901,0.7357534199205169,-0.7303364776142642,0.770588804677996,-0.26223537532544516,0.13265862517508265,1.633903020377074,0.5159973470955427,2
460,2024-09-28 16:51:33.150479872,TASK_BEGIN,023,-0.4507595668148916,0.7134959466219533,-0.6611019342272627,0.7090865423099448,-0.22826242856419376,0.12867134534535063,1.3922465251397338,0.5522992650630051,2
461,2024-09-28 16:51:33.212032000,TASK_BEGIN,023,-0.40422993130457263,0.693259858567462,-0.6030907679036256,0.656635876430102,-0.19536836475764802,0.12324906077758825,1.2008282753905632,0.567905567347791,2
462,2024-09-28 16:51:33.289804032,TASK_BEGIN,023,-0.362210435549356,0.6753604748282767,-0.556073077076405,0.6141564189168023,-0.1642627999074861,0.11667383240906011,1.0589264715596147,0.5641023282223478,2
463,2024-09-28 16:51:33.357589760,TASK_BEGIN,023,-0.32574819093084145,0.6599830585686424,-0.5190908366802711,0.58171476102172,-0.1357442487020239,0.10935337920966548,0.963872089560586,0.5433625947398358,2
464,2024-09-28 16:51:33.425348864,TASK_BEGIN,023,-0.2957716434117925,0.6472567220556315,-0.49078829304118216,0.5587184745858491,-0.11059870614354103,0.10179135751283351,0.9119052753968906,0.5090405842336319,2
465,2024-09-28 16:51:33.489905152,TASK_BEGIN,023,-0.2731546665464259,0.6373114619164923,-0.46966149436023885,0.5441164910723859,-0.08944599539945326,0.09453148569145206,0.8989601854267085,0.4649487546243991,2
466,2024-09-28 16:51:34.428803840,TASK_BEGIN,023,-0.25874104853080354,0.6303106410259668,-0.4542496647382046,0.5365468172620589,-0.07262577148078429,0.08809068236193823,0.921334167999954,0.4149090746998295,2
467,2024-09-28 16:51:34.503375104,TASK_BEGIN,023,-0.253328909631151,0.6264556921743752,-0.44330718001424524,0.5344218825048755,-0.060172811932479295,0.08290206539180722,0.9760835761425569,0.3623841755560719,2
468,2024-09-28 16:51:34.564446976,TASK_BEGIN,023,-0.25762435022704216,0.6259666658887437,-0.43600388846436283,0.5360088845175146,-0.05185271479449448,0.0792745327739771,1.0608732080186443,0.31024255269470546,2
469,2024-09-28 16:51:34.626944000,TASK_BEGIN,023,-0.272170038235632,0.6290507203124526,-0.4321714244595091,0.5395642257004126,-0.04721315250114093,0.07736737862399722,1.1732368316183361,0.2606396114903918,2
470,2024-09-28 16:51:34.704153088,TASK_BEGIN,023,-0.29724549283762675,0.6358680088428499,-0.43255502734040907,0.5435219185964937,-0.04564027390889548,0.07718403477652203,1.3096396577748943,0.21498585612368323,2
471,2024-09-28 16:51:34.774435072,TASK_BEGIN,023,-0.33274912250177185,0.646497183296256,-0.4389722699932884,0.5466789883022971,-0.046422465517267274,0.07858781104257165,1.4648338543646162,0.1740111713048968,2
472,2024-09-28 16:51:34.842068736,TASK_BEGIN,023,-0.37810496673055816,0.6609059379377554,-0.4542720450068824,0.5483168592101231,-0.04881267940923892,0.08133210362713875,1.6317569622175632,0.13792015462918486,2
473,2024-09-28 16:51:35.780903168,TASK_BEGIN,023,-0.43224034729078553,0.6789382234909783,-0.4820669546213136,0.5482406779918226,-0.05208242640930307,0.08509428393094812,1.8020101250537288,0.10657233383485473,2
474,2024-09-28 16:51:35.842924032,TASK_BEGIN,023,-0.49363678928178584,0.7003244883773041,-0.526318990086006,0.5467623657179377,-0.05556593314755146,0.08950500653271277,1.9667835956106547,0.07962732733235092,2
475,2024-09-28 16:51:35.921241856,TASK_BEGIN,023,-0.5604172594047532,0.7247076336931457,-0.5909093545536626,0.5446636232629481,-0.05869096367206892,0.09416798461556704,2.11791709415285,0.05666791145297177,2
476,2024-09-28 16:51:35.988988160,TASK_BEGIN,023,-0.6304412619700379,0.7516690011357107,-0.6792920267899742,0.5431537794971444,-0.060998125124796444,0.09867354463265471,2.248766170850462,0.037337507184992735,2
477,2024-09-28 16:51:36.044713984,TASK_BEGIN,023,-0.7014101829403874,0.7807423317881356,-0.794223346081039,0.5438092373622989,-0.06214885968898036,0.10261489581374855,2.3547219648979922,0.021478754591250412,2
478,2024-09-28 16:51:36.122822912,TASK_BEGIN,023,-0.7709948595732805,0.8114131493544671,-0.9374554645325164,0.548458779449907,-0.06191252445011759,0.1056127291722483,2.433427867959058,0.009211096852244577,2
479,2024-09-28 16:51:36.184856064,TASK_BEGIN,023,-0.8369801268223097,0.8431067855069502,-1.1092625074969042,0.5589628205566245,-0.06014038311712932,0.10734992731105655,2.4848112706892946,0.0008930536635363137,2
480,2024-09-28 16:51:37.127443200,TASK_BEGIN,023,-0.897398589559852,0.8751682040496169,-1.3077614917415477,0.576864995775729,-0.05675723892019494,0.10761453499363231,2.5109679953900153,-0.003018698981933704,2
481,2024-09-28 16:51:37.189523968,TASK_BEGIN,023,-0.9506205623808304,0.9068353652160499,-1.528228624674886,0.6030009690322041,-0.0517783363456392,0.10634019727553966,2.515858955884095,-0.002142833738874931,2
482,2024-09-28 16:51:37.267148032,TASK_BEGIN,023,-0.995384245030666,0.9372088838368057,-1.76283694509879,0.6372387170526256,-0.04531658474084402,0.10362502293843162,2.504848748401009,0.0036759004158869284,2
483,2024-09-28 16:51:37.330097920,TASK_BEGIN,023,-1.0307756964745047,0.9652239403304204,-2.0011595323335305,0.6784832776113235,-0.0375470941648505,0.09971467147100564,2.4841719349653517,0.014258422110010613,2
484,2024-09-28 16:51:37.391621120,TASK_BEGIN,023,-1.0561837000727001,0.989631618635085,-2.231441320779966,0.7249471885668111,-0.028637752787590676,0.0949536770605195,2.460354563242687,0.029051192491264043,2
485,2024-09-28 16:51:37.474583040,TASK_BEGIN,023,-1.0712501922950444,1.0089936683079224,-2.442310061353153,0.7745684598283443,-0.018677847897373055,0.08972194579706431,2.43964688525423,0.04716673689816441,2
486,2024-09-28 16:51:37.531308032,TASK_BEGIN,023,-1.0758182528525584,1.021691027346732,-2.624395999043555,0.8253992539387399,-0.0076263141721509015,0.08436863447422226,2.427615715581501,0.0674667984295927,2
487,2024-09-28 16:51:38.485897984,TASK_BEGIN,023,-1.0698658474484841,1.0259446516605502,-2.771368222742878,0.8758327443805586,0.004708500738447852,0.07914822297827702,2.428922905793711,0.08865068404936839,2
488,2024-09-28 16:51:38.542295808,TASK_BEGIN,023,-1.0534196604386032,1.0198453932818254,-2.8802141163064685,0.9246566775776921,0.018639963054069283,0.07417010961453366,2.4470662319552243,0.10935885332482773,2
489,2024-09-28 16:51:38.621412096,TASK_BEGIN,023,-1.026460371426427,1.0013899973581555,-2.9509167844639737,0.9709901369581005,0.0345121569704414,0.06938026505293383,2.4838828667022423,0.128312056753157,2
490,2024-09-28 16:51:38.681608960,TASK_BEGIN,023,-0.9888402238745136,0.968525012413128,-2.9857511555789604,1.014149500325297,0.052565774788273074,0.06458072078638609,2.538966108475304,0.14447628294482276,2
491,2024-09-28 16:51:38.756957952,TASK_BEGIN,023,-0.9402360206620514,0.9192056715301528,-2.988327397008382,1.0534884082528186,0.07280853723105737,0.05947160985959133,2.6093921881421798,0.1572170722681611,2
492,2024-09-28 16:51:38.824701184,TASK_BEGIN,023,-0.8801592831222835,0.8514800500081167,-2.962518348466158,1.0882683848606733,0.09493045711117713,0.05369715941556559,2.6900103192137865,0.16639692388152688,2
493,2024-09-28 16:51:38.882072064,TASK_BEGIN,023,-0.8080309895883162,0.7636074915977628,-2.9115446070168445,1.117607808155263,0.11827618950304944,0.04689043332628116,2.774235555340994,0.17237448961090224,2
494,2024-09-28 16:51:39.811805952,TASK_BEGIN,023,-0.7233014454429699,0.6542082886804536,-2.8375282893521243,1.1405240651057145,0.14187179276371878,0.038719781011759144,2.8550921963502116,0.17589725608512546,2
495,2024-09-28 16:51:39.879147008,TASK_BEGIN,023,-0.6255808377684678,0.5224261743410263,-2.741600436825421,1.156025878690933,0.16450500368912374,0.028933805675629552,2.9262263330933638,0.17794060792396535,2
496,2024-09-28 16:51:39.947325952,TASK_BEGIN,023,-0.5147595398754403,0.3680846130852739,-2.624360795420787,1.1631952605269804,0.18485188235068797,0.01739405171264206,2.9826895881122977,0.17956780959226432,2
497,2024-09-28 16:51:40.007313920,TASK_BEGIN,023,-0.39111453015797754,0.1918282473620147,-2.4864586067642276,1.1612679101864516,0.2016308227210506,0.004087658515682915,3.0214192603207755,0.1818331994609337,2
498,2024-09-28 16:51:40.080964096,TASK_BEGIN,023,-0.2553959093187994,-0.004759323446662249,-2.3292057320063964,1.14977263064986,0.21376604547914121,-0.010878541190557617,3.04139569132876,0.18571130867261088,2
499,2024-09-28 16:51:40.142519040,TASK_BEGIN,023,-0.10888640262109636,-0.2190823853419355,-2.155135452709639,1.128734126489101,0.2205331110136058,-0.02729476419424908,3.043457907817059,0.19204680919312406,2
500,2024-09-28 16:51:40.204335872,TASK_BEGIN,023,0.04656603116223868,-0.44753520001768893,-1.9683282932535202,1.0988577238776782,0.22163295398386162,-0.04486674828087443,3.029852937015294,0.20151173820876792,2
501,2024-09-28 16:51:41.161894912,TASK_BEGIN,023,0.20855710347258427,-0.6856140316200472,-1.774403932686333,1.0616113309844657,0.21715355582295212,-0.0632296571140265,3.003772624906334,0.2145269576432875,2
502,2024-09-28 16:51:41.226895104,TASK_BEGIN,023,0.37421668846129524,-0.9281710836221323,-1.5802539579928863,1.0191887647589966,0.2074449541902881,-0.08195834412390611,2.9691239088152215,0.23113974202906568,2
503,2024-09-28 16:51:41.297331968,TASK_BEGIN,023,0.5404042612859512,-1.1698144867224813,-1.3936451699770693,0.974395636216191,0.19299431819410237,-0.10058219885388221,2.930482088530534,0.25093127901076917,2
504,2024-09-28 16:51:41.365096192,TASK_BEGIN,023,0.7039743753698241,-1.4053968685795992,-1.2227985146939035,0.9304967575340527,0.17438203351074644,-0.11861189128082283,2.8929388913622764,0.2730342065372907,2
505,2024-09-28 16:51:41.432886016,TASK_BEGIN,023,0.8620415484637304,-1.6304833661723672,-1.0760160482354313,0.891015168575437,0.15232231613803224,-0.13557477084146147,2.861705021902377,0.2962514656327671,2
506,2024-09-28 16:51:41.500529152,TASK_BEGIN,023,1.0121958305189447,-1.8417034862031205,-0.9613365341673467,0.8594497069839684,0.12771918538879326,-0.1510462803330819,2.8416504648627137,0.31919036732202993,2
507,2024-09-28 16:51:41.566674944,TASK_BEGIN,023,1.1526615364467716,-2.0369537684589285,-0.8861206000285402,0.8389313683481078,0.101674520322608,-0.1646659816878709,2.837046256222666,0.3403261708878826,2
508,2024-09-28 16:51:42.504677120,TASK_BEGIN,023,1.2824041398728279,-2.215467363993869,-0.8565209106765234,0.8319001775938673,0.07543745432677423,-0.17613542610695626,2.8515630333494224,0.3579886203069677,2
509,2024-09-28 16:51:42.568676096,TASK_BEGIN,023,1.4011816307482172,-2.3777802868052906,-0.8769234193997792,0.8398847318910898,0.05031615022066617,-0.18520371837714356,2.888349716225958,0.37036890190945954,2
510,2024-09-28 16:51:42.646492928,TASK_BEGIN,023,1.5095390321896227,-2.525621976349937,-0.9495176348970833,0.8634393769454203,0.027570481244007013,-0.19164962717841116,2.9499748156963403,0.37565279774236054,2
511,2024-09-28 16:51:42.714458112,TASK_BEGIN,023,1.608753106044577,-2.661750437928126,-1.0741112861946729,0.902262152544286,0.008290560759178507,-0.19526591716293323,3.038156921690633,0.37227584035932476,2
512,2024-09-28 16:51:42.768055808,TASK_BEGIN,023,1.700731860095021,-2.7897371193750167,-1.2481907989871506,0.9554600218963385,-0.006728345215359775,-0.19584990617221162,3.1534004021166266,0.3591977286971115,2
513,2024-09-28 16:51:42.844650752,TASK_BEGIN,023,1.7878740329311746,-2.9136943725083855,-1.4671543266578462,1.021868613108197,-0.017084537244546116,-0.19320574881926458,3.294781720992484,0.33608869228026916,2
514,2024-09-28 16:51:42.906653696,TASK_BEGIN,023,1.8728972542369557,-3.037943252392915,-1.7246462855942173,1.1003188568909614,-0.022816750161097965,-0.18716112629540532,3.4600942077002435,0.3033786318647848,2
515,2024-09-28 16:51:43.863074048,TASK_BEGIN,023,1.9586346390940843,-3.1666361502387783,-2.0129183803084,1.1897793349613943,-0.024396305579758762,-0.1775951502922487,3.6463271039648593,0.26217861558675465,2
516,2024-09-28 16:51:43.930891008,TASK_BEGIN,023,2.047794872717479,-3.303361185971131,-2.3231500858792393,1.2893642857337384,-0.022666506292612236,-0.16447276507317385,3.8502175236589764,0.21411513686508263,2
517,2024-09-28 16:51:43.995394048,TASK_BEGIN,023,2.142690077350699,-3.450756174882237,-2.645782182986877,1.3982481906332433,-0.018732719556997207,-0.1478811057113004,4.068552923159994,0.16114374568738263,2
518,2024-09-28 16:51:44.057436928,TASK_BEGIN,023,2.2449409995990894,-3.6101543293080476,-2.970996223753381,1.51553015638837,-0.013832675167621232,-0.12805833630470043,4.298060461546427,0.10541128664517457,2
519,2024-09-28 16:51:44.124552960,TASK_BEGIN,023,2.355173939773515,-3.781282289580063,-3.2892873741336515,1.6400464257822038,-0.00923035652062034,-0.10540254824614544,4.53502500738959,0.04916810362785263,2
520,2024-09-28 16:51:44.201699072,TASK_BEGIN,023,2.4727466330396823,-3.9620414825294974,-3.591857290832813,1.7701109168702482,-0.006142132070408422,-0.08045817875479586,4.774946875099649,-0.00532604099940987,2
521,2024-09-28 16:51:44.259126016,TASK_BEGIN,023,2.5955743986006765,-4.148426960518324,-3.870658605250155,1.9032323237560194,-0.0056693927454662,-0.05388846883253708,5.012394926360554,-0.055917817358376413,2
522,2024-09-28 16:51:45.183975168,TASK_BEGIN,023,2.720144359831458,-4.334660805231858,-4.118197243569617,2.0359484376783508,-0.008728041717700285,-0.026439716278438188,5.241008172204364,-0.10066549094269821,2
523,2024-09-28 16:51:45.247138816,TASK_BEGIN,023,2.841777566010006,-4.5136057341625335,-4.32733699857639,2.1639095906257566,-0.01599696656127005,0.0011020691506824897,5.453617946285394,-0.1379258623077003,2
524,2024-09-28 16:51:45.309200896,TASK_BEGIN,023,2.9551186470585846,-4.677445620355189,-4.491364495173951,2.282227866345376,-0.027911854592505357,0.027957498186154752,5.642521169559613,-0.1664393347370831,2
525,2024-09-28 16:51:45.387290112,TASK_BEGIN,023,3.0547374456654683,-4.8185044185340375,-4.604446117066615,2.385987558194946,-0.044711478106827685,0.05339495908716796,5.79989067461717,-0.1854123158423954,2
526,2024-09-28 16:51:45.449774848,TASK_BEGIN,023,3.1356986867001138,-4.930024839179279,-4.662321916388517,2.470752171311079,-0.06651261307501294,0.07676256526015887,5.918272778257291,-0.1945820568194504,2
527,2024-09-28 16:51:45.514826240,TASK_BEGIN,023,3.1940143230627105,-5.0067815067166785,-4.662915551080707,2.5329316608985097,-0.09336819743215623,0.09751378899476125,5.991101186776193,-0.19423706420650858,2
528,2024-09-28 16:51:45.590542848,TASK_BEGIN,023,3.2269515168618166,-5.045477067543957,-4.606650652890203,2.5699749072414093,-0.12527462076273188,0.11523259148126637,6.0131440573980255,-0.18514860756704019,2
529,2024-09-28 16:51:46.537076992,TASK_BEGIN,023,3.2331794153982556,-5.044906568794882,-4.4964537192981915,2.580445961666442,-0.16212415067266772,0.12965842698482366,5.980894012992462,-0.16839446792305449,2
530,2024-09-28 16:51:46.604887040,TASK_BEGIN,023,3.21274947120555,-5.005905035274127,-4.337526465801916,2.5640599583628014,-0.2036270176695387,0.14070317744077168,5.8930236987058935,-0.14513452906970287,2
531,2024-09-28 16:51:46.669886976,TASK_BEGIN,023,3.16694609213752,-4.93112880188887,-4.136974455678427,2.5216959514642454,-0.24924714672023637,0.14845351937658152,5.750909108568548,-0.1164400709347902,2
532,2024-09-28 16:51:46.740408064,TASK_BEGIN,023,3.098081945210186,-4.824737703116146,-3.903359695913045,2.455353292822333,-0.298184670597664,0.15316085043332772,5.558918468675039,-0.08322285134764261,2
533,2024-09-28 16:51:46.808176128,TASK_BEGIN,023,3.009297027216078,-4.692030622724905,-3.646260945140454,2.3680484190356244,-0.3493997031893708,0.15522205718006463,5.324152826334948,-0.04623854627364314,2
534,2024-09-28 16:51:46.875942912,TASK_BEGIN,023,2.9043571473372762,-4.539055985470933,-3.3758683309872013,2.263683192123853,-0.4016503008976296,0.15514963699969203,5.055697712280705,-0.006132837985019154,2
535,2024-09-28 16:51:46.942166016,TASK_BEGIN,023,2.7874122659334337,-4.3722021775714754,-3.102526184780071,2.1468762064299236,-0.4535269630011925,0.15352950665454457,4.76363314004997,0.03649868951901047,2
536,2024-09-28 16:51:47.880268032,TASK_BEGIN,023,2.6627098635469784,-4.197785960578209,-2.8361810003219534,2.022708255301171,-0.5034844910682232,0.15096955323389977,4.457917587757014,0.08108175523010819,2
537,2024-09-28 16:51:47.954951936,TASK_BEGIN,023,2.5343088021245865,-4.021679094939397,-2.585803167303054,1.8963579204429153,-0.5498953351594658,0.14804844316458987,4.147266297976856,0.12708612718249884,2
538,2024-09-28 16:51:48.016295936,TASK_BEGIN,023,2.4058520681228854,-3.849017343866994,-2.3588195606600513,1.7726633621639565,-0.591157899109653,0.14527688241380937,3.8383028454642796,0.17407301381986584,2
539,2024-09-28 16:51:48.090522880,TASK_BEGIN,023,2.280439761084367,-3.684019965174848,-2.160574780810334,1.655698373858915,-0.6258575699412503,0.1430766335184312,3.5352518364685546,0.22173043678240886,2
540,2024-09-28 16:51:48.158301952,TASK_BEGIN,023,2.160615686138857,-3.5299245488039297,-1.9939827347852068,1.5484642023615023,-0.6529238471723964,0.14177195341677268,3.2402586250099747,0.2698672767518198,2
541,2024-09-28 16:51:48.226094080,TASK_BEGIN,023,2.0484399172280288,-3.3890195124852833,-1.8596009924860615,1.452766746984447,-0.6717120516393413,0.1415844890430115,2.954217951201882,0.3183366049335595,2
542,2024-09-28 16:51:48.280634112,TASK_BEGIN,023,1.9455790669743989,-3.262740628003046,-1.756158117418866,1.3692856018508504,-0.6819822392773759,0.14262844473475322,2.6778253278464743,0.36688513792253696,2
543,2024-09-28 16:51:49.237775872,TASK_BEGIN,023,1.8533568403832676,-3.1517972306063458,-1.68127068997823,1.2977695394655564,-0.6838077779624089,0.14490934488743554,2.412490907876512,0.4149795034782138,2
544,2024-09-28 16:51:49.305597952,TASK_BEGIN,023,1.772771915398777,-3.0563079490448772,-1.631968416425533,1.2372588516528293,-0.6774643605253592,0.14832693421637388,2.1608118712809903,0.46169480922818124,2
545,2024-09-28 16:51:49.373355008,TASK_BEGIN,023,1.7045173558082956,-2.975936080049952,-1.6047884440966127,1.1862732430977319,-0.6633428290789082,0.15267957199008772,1.926491043359463,0.5057443736726112,2
546,2024-09-28 16:51:49.441116160,TASK_BEGIN,023,1.64899220569791,-2.9100071421164166,-1.5955620345735682,1.142983320421924,-0.6419261229599339,0.15767689553586792,1.7138613385350048,0.5456743958386928,2
547,2024-09-28 16:51:49.508025856,TASK_BEGIN,023,1.6062733782837038,-2.8575858325536867,-1.599321893385855,1.105422013680838,-0.6138367501284993,0.1629720694844844,1.5273127856462856,0.5801644112049199,2
548,2024-09-28 16:51:49.575948032,TASK_BEGIN,023,1.5760591698986082,-2.817512385490918,-1.6106488892493418,1.0717527776277307,-0.5799064617425325,0.16820881680260807,1.3708054854270826,0.6083232616669679,2
549,2024-09-28 16:51:49.643472896,TASK_BEGIN,023,1.557635389142582,-2.7884307178459107,-1.624381535425711,1.0405520596551867,-0.5412169682175678,0.1730644826899451,1.2474983074348036,0.6298686508330049,2
550,2024-09-28 16:51:50.562204160,TASK_BEGIN,023,1.5499017894399938,-2.7688418156865033,-1.6363599010931524,1.0110327171858142,-0.49909953927725503,0.1772769433110645,1.1594931586220736,0.645125756825858,2
551,2024-09-28 16:51:50.629947136,TASK_BEGIN,023,1.5514577473774556,-2.7571854059360694,-1.6438984878216962,0.9831327006909294,-0.45509878302142626,0.18065523455083252,1.1076671852574635,0.6548818446112498,2
552,2024-09-28 16:51:50.692113152,TASK_BEGIN,023,1.5607217709185053,-2.7519284559091344,-1.6458824731793846,0.9574306152787284,-0.4109001905772366,0.1830762895973066,1.0914792092983119,0.6602096065176345,2
553,2024-09-28 16:51:50.753637888,TASK_BEGIN,023,1.5760530770066608,-2.7516370856898553,-1.642569379250104,0.9349136961095916,-0.3682192983095612,0.18446875814526267,1.1086592582311148,0.662343235328152,2
554,2024-09-28 16:51:50.833942016,TASK_BEGIN,023,1.5958453021520913,-2.7550169293943743,-1.6351675146533287,0.9166705206816496,-0.3286612927530003,0.1847891780269597,1.1549074929897356,0.6626111087171067,2
555,2024-09-28 16:51:50.892878080,TASK_BEGIN,023,1.618580484691434,-2.7609198548805756,-1.625223235138389,0.9035920944307941,-0.2935772341334793,0.18400190853181142,1.223929280590121,0.6623842620771663,2
556,2024-09-28 16:51:50.969473024,TASK_BEGIN,023,1.6428573944668496,-2.7683296765637277,-1.6140146677917722,0.8961453208225365,-0.2639436643944663,0.1820723125847881,1.3080320084528945,0.6630030739146275,2
557,2024-09-28 16:51:51.908043008,TASK_BEGIN,023,1.6674109726290134,-2.7763449804528153,-1.6022565877315513,0.8942514971739927,-0.24027495953389763,0.1789731641503788,1.3991759060592563,0.6656701690614204,2
558,2024-09-28 16:51:51.970962176,TASK_BEGIN,023,1.6911271252472624,-2.7841711104275713,-1.5901979578722716,0.8972751716570411,-0.22257296223525985,0.1746979564376814,1.4901486183674495,0.671329576786073,2
559,2024-09-28 16:51:52.032563968,TASK_BEGIN,023,1.7130568358583096,-2.79112298147497,-1.5779120433768874,0.9041061770928945,-0.21032991121056782,0.16927758436855678,1.5755020071832697,0.6805685624930332,2
560,2024-09-28 16:51:52.115264000,TASK_BEGIN,023,1.7324312833850974,-2.796630620946026,-1.5655464187257266,0.9133099802558131,-0.20260360397623467,0.16279948184918264,1.6519399525781284,0.6935586899459822,2
561,2024-09-28 16:51:52.170782976,TASK_BEGIN,023,1.748663672745827,-2.8002369322874965,-1.5534513138254733,0.9233267210143153,-0.19816304391709666,0.1554217284018374,1.718057447689521,0.7100280420833581,2
562,2024-09-28 16:51:52.248503808,TASK_BEGIN,023,1.7613217591194188,-2.8015845156098567,-1.5422508561687862,0.9326922384528681,-0.19566514154357864,0.14736938065545743,1.7736778391186663,0.7292712278081465,2
563,2024-09-28 16:51:52.318587904,TASK_BEGIN,023,1.7700766726393704,-2.8003972700240825,-1.5329408937104114,0.9402418692944083,-0.19380583649747898,0.13891015908539767,1.819149677633701,0.7502339563135032,2
564,2024-09-28 16:51:53.261299968,TASK_BEGIN,023,1.7746501285358691,-2.796467566559662,-1.5270204871340491,0.9452703883402321,-0.19142581090830738,0.13032333100810617,1.8547359944533242,0.771699003057512,2
565,2024-09-28 16:51:53.329790976,TASK_BEGIN,023,1.7747825698731408,-2.7896593834555796,-1.5266056734442488,0.9476336467812547,-0.18759962390245816,0.1218786178774301,1.8800940437095828,0.7925455637976708,2
566,2024-09-28 16:51:53.397104128,TASK_BEGIN,023,1.7702401813796838,-2.7799278135992673,-1.5344284287668877,0.947760081927784,-0.18172815370772566,0.11382819817511698,1.8940046896631468,0.8119961169005558,2
567,2024-09-28 16:51:53.459590912,TASK_BEGIN,023,1.7608627365195808,-2.767341441103975,-1.553603888645468,0.9465517811855508,-0.17361493731586727,0.10640421084547651,1.8945892896219372,0.8297456997384863,2
568,2024-09-28 16:51:53.521223168,TASK_BEGIN,023,1.7466283193094565,-2.7520933450290315,-1.587170555347435,0.9452173477936265,-0.16350240959883194,0.09981937974397154,1.880022309485085,0.8459092364687923,2
569,2024-09-28 16:51:53.598517760,TASK_BEGIN,023,1.7277040033492725,-2.734500591876337,-1.6375939452302128,0.9451088074169202,-0.1520574387153885,0.09427497132058736,1.8494459076627667,0.8608052041622087,2
570,2024-09-28 16:51:53.668571904,TASK_BEGIN,023,1.7044690600746424,-2.7149992044858466,-1.7064119548385401,0.9475906979727243,-0.14029380675515538,0.08997154267269512,1.8036899734361405,0.8746717789084493,2
571,2024-09-28 16:51:54.612603136,TASK_BEGIN,023,1.6775160245318455,-2.6941330064098428,-1.7939906776745225,0.9539022249132586,-0.12942362132632257,0.08710564900316531,1.7455630934724786,0.887440372644,2
572,2024-09-28 16:51:54.680428032,TASK_BEGIN,023,1.6476415679815566,-2.6725288360500135,-1.899274322375093,0.9649667546107819,-0.12066542027721365,0.08584299700707003,1.6797773224236545,0.8986422018226201,2
573,2024-09-28 16:51:54.737667072,TASK_BEGIN,023,1.6158276061403043,-2.6508565491908396,-2.019568032215662,0.981189584460369,-0.11507775539320626,0.08628017188752721,1.6127156953413477,0.9074353332757407,2
574,2024-09-28 16:51:54.814326784,TASK_BEGIN,023,1.5831950141948463,-2.629779247837823,-2.1505166933080737,1.0023546296237869,-0.11347550915067009,0.08841635316078014,1.552098382996979,0.9127012564164038,2
575,2024-09-28 16:51:54.876814080,TASK_BEGIN,023,1.5509238055028076,-2.6099019819643496,-2.2863449698181846,1.0276714594856218,-0.11642294117032699,0.0921457956618849,1.5064182044095438,0.9131826881051689,2
576,2024-09-28 16:51:54.943756032,TASK_BEGIN,023,1.5201700529431386,-2.591728730875367,-2.420259149880187,1.055922040625514,-0.12425225883019969,0.09726730800241505,1.4840887309978303,0.907650841211309,2
577,2024-09-28 16:51:55.015834880,TASK_BEGIN,023,1.4920133728025133,-2.5756358941450035,-2.544908579677966,1.0856359004855067,-0.1370661694615607,0.10350217074003898,1.4924456406435196,0.8950741847048636,2
578,2024-09-28 16:51:55.937161984,TASK_BEGIN,023,1.4674327314223639,-2.561863387463608,-2.652926425611831,1.1152502631119274,-0.15471666874719767,0.11051470344168825,1.536795415741096,0.8747627540715278,2
579,2024-09-28 16:51:56.004966144,TASK_BEGIN,023,1.4472914889837263,-2.550518795173915,-2.7376044033958924,1.1432343790878818,-0.1767735249501571,0.11793098204167478,1.619642941160968,0.8464983811319351,2
