,Unnamed: 0,time,MARKER,pid,L_O_DSI,L_D_DSI,L_O_DSphi,L_D_DSphi,R_O_DSI,R_D_DSI,R_O_DSphi,R_D_DSphi,trial_id,dateTimestamps,floatTimestamps,timestamps,episode,actions,rewards,discounted_rewards,chosen_actions,optimal_actions,states,continuous_optimal,binary_optimal,discrete_optimal
1,1,2024-09-14 18:27:35.175240960,TASK_BEGIN,2,-0.4123046478605588,-0.0128484615333596,-4.768720545975204,0.9896491660205896,1.029103432535356,-2.1395136214957717,18.324093771880516,-17.63484294289626,2,2024-09-14 18:26:00.220457031,1726338360.2204573,2024-09-14 18:26:00.220457216,0,0,-2.6833973731108074,-36.66628166018023,[1. 0. 0. 0.],[0.44144375 0.25240943 0.18066297 0.12548385],"[  0.01839344   0.91043854   0.16050029  -0.5531228   -0.05167893
  -0.06052061   0.           0.           0.6         -0.58160657
 -10.322002  ]",1.5168416090390455,0,0
2,2,2024-09-14 18:27:35.250919168,TASK_BEGIN,2,-0.3796977664685836,-0.0299068577365926,-4.77115779470917,1.0711123737416115,1.323055671135545,-1.4581620899495948,32.57946554536662,-18.052586257125157,2,2024-09-14 18:26:00.307457031,1726338360.3074574,2024-09-14 18:26:00.307457536,0,0,-2.7067437579964917,-43.595496868481035,[1. 0. 0. 0.],[0.39234241 0.22193555 0.26267975 0.12304228],"[  0.02164753   0.88211703   0.16061437  -0.6299649   -0.06074974
  -0.06047329   0.           0.           0.6         -0.57835245
 -10.09543   ]",1.5188288645498984,0,0
3,3,2024-09-14 18:27:35.314041088,TASK_BEGIN,2,-0.3491078286344416,-0.0455878556671666,-4.768912729616061,1.1477689880707709,1.61516047471743,-0.8264017386798055,45.994386460070096,-18.405754937861182,2,2024-09-14 18:26:00.365458008,1726338360.3654583,2024-09-14 18:26:00.365458176,0,0,-2.7182966575106207,-48.13194642894783,[1. 0. 0. 0.],[0.35480292 0.20086763 0.32853736 0.11579209],"[ 0.02381825  0.8612355   0.16068953 -0.6811943  -0.06679296 -0.06044208
  0.          0.          0.6        -0.57618177 -9.928378  ]",1.520721027364627,0,0
4,4,2024-09-14 18:27:36.257075968,TASK_BEGIN,2,-0.3219543637036171,-0.0591931688143671,-4.75756125472649,1.2167682451241222,1.901408954627685,-0.2657220648778182,58.223977606406514,-18.652810001837263,2,2024-09-14 18:26:01.298492920,1726338361.2984934,2024-09-14 18:26:01.298493440,0,1,-4.9284663996865365,-100.0062435293044,[0. 1. 0. 0.],[5.32273060e-03 3.55688928e-05 9.20718337e-01 7.39233631e-02],"[ 0.04770541  0.30888832 -0.06174294 -1.4943581   0.0510179   0.45313263
  0.          0.          0.6        -0.5522946  -5.5096    ]",1.5628482235927719,0,0
5,5,2024-09-14 18:27:36.319098880,TASK_BEGIN,2,-0.2993734964055991,-0.0701568800488686,-4.734125802093323,1.2758419556724498,2.1784182945463,0.2065499307608232,68.9849529488497,-18.758202360358705,2,2024-09-14 18:26:01.356491943,1726338361.3564925,2024-09-14 18:26:01.356492544,0,1,-5.339167452266745,-108.44676348592134,[0. 1. 0. 0.],[3.65480140e-03 1.09020101e-05 9.01025736e-01 9.53085608e-02],"[ 0.04705898  0.2610135  -0.0899596  -1.5469617   0.1012586   0.5182875
  0.          0.          0.6        -0.552941   -5.1266017 ]",1.5648631895909728,0,0
6,6,2024-09-14 18:27:36.397157888,TASK_BEGIN,2,-0.2821595980842077,-0.0780647535126818,-4.697094892787321,1.3233647637338184,2.4434925501053844,0.5786582238887318,78.06849863573015,-18.694773592500603,2,2024-09-14 18:26:01.443491943,1726338361.4434922,2024-09-14 18:26:01.443492096,0,1,-5.872813675289544,-122.15834632460042,[0. 1. 0. 0.],[3.19020915e-03 2.39671947e-06 6.70168455e-01 3.26638939e-01],"[ 0.04552531  0.18617868 -0.12684155 -1.6276952   0.18785372  0.6045295
  0.          0.          0.6        -0.5544747  -4.527923  ]",1.5663726485896003,0,0
7,7,2024-09-14 18:27:36.464912128,TASK_BEGIN,2,-0.2707524792281495,-0.0826629709519805,-4.64626398199881,1.3583677851855047,2.694333300194184,0.8454951077963491,85.3463707644534,-18.4444089103322,2,2024-09-14 18:26:01.443491943,1726338361.4434922,2024-09-14 18:26:01.443492096,0,1,-5.872813675289544,-122.15834632460042,[0. 1. 0. 0.],[3.19020915e-03 2.39671947e-06 6.70168455e-01 3.26638939e-01],"[ 0.04552531  0.18617868 -0.12684155 -1.6276952   0.18785372  0.6045295
  0.          0.          0.6        -0.5544747  -4.527923  ]",1.5663726485896003,0,0
8,8,2024-09-14 18:27:36.532692992,TASK_BEGIN,2,-0.2652889574407914,-0.0838548903830616,-4.582651456117139,1.3805495633180558,2.928324839461443,1.009022572241059,90.77053113547449,-17.997489893348448,2,2024-09-14 18:26:01.443491943,1726338361.4434922,2024-09-14 18:26:01.443492096,0,1,-5.872813675289544,-122.15834632460042,[0. 1. 0. 0.],[3.19020915e-03 2.39671947e-06 6.70168455e-01 3.26638939e-01],"[ 0.04552531  0.18617868 -0.12684155 -1.6276952   0.18785372  0.6045295
  0.          0.          0.6        -0.5544747  -4.527923  ]",1.5663726485896003,0,0
9,9,2024-09-14 18:27:36.600478976,TASK_BEGIN,2,-0.2657041527878772,-0.0816854127395348,-4.5085235993040325,1.3902863306752402,3.1416920626266607,1.0778900386627497,94.36718191037606,-17.35197944804638,2,2024-09-14 18:26:01.443491943,1726338361.4434922,2024-09-14 18:26:01.443492096,0,1,-5.872813675289544,-122.15834632460042,[0. 1. 0. 0.],[3.19020915e-03 2.39671947e-06 6.70168455e-01 3.26638939e-01],"[ 0.04552531  0.18617868 -0.12684155 -1.6276952   0.18785372  0.6045295
  0.          0.          0.6        -0.5544747  -4.527923  ]",1.5663726485896003,0,0
10,10,2024-09-14 18:27:36.668248832,TASK_BEGIN,2,-0.2718371872661174,-0.076316790123354,-4.427349878278961,1.388611782785331,3.328915463051416,1.0663775141700451,96.22667612889248,-16.512700835895085,2,2024-09-14 18:26:01.443491943,1726338361.4434922,2024-09-14 18:26:01.443492096,0,1,-5.872813675289544,-122.15834632460042,[0. 1. 0. 0.],[3.19020915e-03 2.39671947e-06 6.70168455e-01 3.26638939e-01],"[ 0.04552531  0.18617868 -0.12684155 -1.6276952   0.18785372  0.6045295
  0.          0.          0.6        -0.5544747  -4.527923  ]",1.5663726485896003,0,0
11,11,2024-09-14 18:27:37.599193088,TASK_BEGIN,2,-0.2835073058290759,-0.0680013607169639,-4.343496480959356,1.3771216858412878,3.482604509034557,0.9928488244968896,96.49147499018416,-15.490873238136716,2,2024-09-14 18:26:01.882585938,1726338361.882586,2024-09-14 18:26:01.882586112,0,1,-9.275922357388149,-212.791548506855,[0. 1. 0. 0.],[1.21580924e-04 4.15916920e-09 2.26944386e-07 9.99878188e-01],"[ 0.02730489 -0.24606961 -0.30815503 -2.0868766   0.84546703  1.1275363
  0.          0.          0.6        -0.57269514 -1.0699369 ]",1.5665036529853051,1,2
12,12,2024-09-14 18:27:37.679328768,TASK_BEGIN,2,-0.3005536716496743,-0.0570565768234959,-4.2616690564328925,1.357786416801755,3.59394690738239,0.877796000566204,95.34402508594673,-14.303328064322631,2,2024-09-14 18:26:02.027583984,1726338362.0275843,2024-09-14 18:26:02.027584256,0,0,133.55376090988221,-93.09340670387482,[1. 0. 0. 0.],[6.98636986e-04 3.19502417e-09 8.65301882e-08 9.99301273e-01],"[ 0.01632214 -0.38122344 -0.58885545 -0.42608026  1.2355328   2.9035485
  0.          1.          0.6        -0.5836779   0.01129381]",1.5432220653701902,1,2
13,13,2024-09-14 18:27:37.735936000,TASK_BEGIN,2,-0.3228430075853902,-0.0438466777810825,-4.186308303986144,1.3327127564262051,3.653731359991832,0.7416516969389654,92.9960861535464,-12.971089478651288,2,2024-09-14 18:26:02.027583984,1726338362.0275843,2024-09-14 18:26:02.027584256,0,0,133.55376090988221,-93.09340670387482,[1. 0. 0. 0.],[6.98636986e-04 3.19502417e-09 8.65301882e-08 9.99301273e-01],"[ 0.01632214 -0.38122344 -0.58885545 -0.42608026  1.2355328   2.9035485
  0.          1.          0.6        -0.5836779   0.01129381]",1.5432220653701902,1,2
14,14,2024-09-14 18:27:37.812413696,TASK_BEGIN,2,-0.3502489416804615,-0.0287709830308954,-4.121096723297882,1.3039238480305624,3.653676416859885,0.6027428775369068,89.68096198423696,-11.518034621614936,2,2024-09-14 18:26:02.085582031,1726338362.0855825,2024-09-14 18:26:02.085582592,0,0,-15.329189925061428,-122.11424060793414,[1. 0. 0. 0.],[6.97375256e-01 2.38711420e-03 3.47176648e-07 3.00237283e-01],"[ 0.00892949 -0.39115727 -0.56585217 -0.47834247  1.526559    2.889982
  0.          1.          0.6        -0.59107053  0.09076445]",1.5371478687177196,1,2
15,15,2024-09-14 18:27:37.882780928,TASK_BEGIN,2,-0.3826035780741684,-0.0122548979649404,-4.068600224729559,1.2732101471309585,3.5876753633803444,0.4757370269801987,85.64903711052456,-9.97070663952912,2,2024-09-14 18:26:02.143583008,1726338362.143583,2024-09-14 18:26:02.143582976,0,0,-15.424007751074896,-160.35696614526503,[1. 0. 0. 0.],[1.71459309e-01 5.77781827e-03 6.84479306e-07 8.22762188e-01],"[ 1.1308193e-03 -4.0302986e-01 -5.4139000e-01 -5.3007239e-01
  1.8136110e+00  2.8694854e+00  0.0000000e+00  0.0000000e+00
  6.0000002e-01 -5.9886920e-01  1.8574516e-01]",1.5057398427728323,1,2
16,16,2024-09-14 18:27:37.939259904,TASK_BEGIN,2,-0.4196218496396591,0.0052583450815629,-4.030044225740044,1.2420705398530691,3.452657852873097,0.3707831788222911,81.16535666956327,-8.359768436528741,2,2024-09-14 18:26:02.260582031,1726338362.260583,2024-09-14 18:26:02.260582912,0,3,-86.25654578008859,-284.01012072050173,[0. 0. 0. 1.],[4.64478335e-01 4.23414150e-02 1.96113015e-07 4.93180054e-01],"[-0.0159684  -0.4264021  -0.5019573  -0.02733786  2.3646364   2.6043046
  0.          0.          0.6        -0.6159684   0.372723  ]",1.42694045872452,1,2
17,18,2024-09-14 18:27:38.961817088,TASK_BEGIN,2,-0.5054550760462344,0.0414608399319012,-3.992659092106031,1.1831689824731155,2.979784372479241,0.2452663066105455,71.95355766753177,-5.1037056926015065,2,2024-09-14 18:26:04.012092041,1726338364.0120928,2024-09-14 18:26:04.012092928,1,0,-0.8913223861601978,-0.5048465680171665,[1. 0. 0. 0.],[0.28737252 0.58192299 0.0483778  0.08232669],"[ 8.9886189e-03  1.0063336e+00  1.9025609e-01 -4.5637045e-02
 -2.5428532e-02 -7.2124563e-02  0.0000000e+00  0.0000000e+00
 -6.0000002e-01  6.0898864e-01 -1.0884469e+01]",1.4952504404876048,0,0
18,19,2024-09-14 18:27:39.029636096,TASK_BEGIN,2,-0.5525610923998625,0.0592532039938542,-3.9898557327572135,1.15724160668861,2.651368474523615,0.2249221200564351,67.77807608403872,-3.5550091751880344,2,2024-09-14 18:26:04.070100098,1726338364.0701003,2024-09-14 18:26:04.070100224,1,0,-1.4894238664566046,-3.1792565209465735,[1. 0. 0. 0.],[0.26973546 0.6050082  0.05868973 0.06656661],"[  0.01155941   1.00371      0.19035044  -0.09686229  -0.03263561
  -0.07208115   0.           0.          -0.6          0.6115594
 -10.863481  ]",1.4968730393086107,0,0
19,20,2024-09-14 18:27:39.097476096,TASK_BEGIN,2,-0.6009897468718082,0.0762774754384142,-3.994056792685229,1.1347092810702029,2.272096756922955,0.229151231141574,64.22342548604126,-2.12931163286386,2,2024-09-14 18:26:04.128066895,1726338364.1280677,2024-09-14 18:26:04.128067840,1,0,-1.9377942011410738,-6.769439460952357,[1. 0. 0. 0.],[0.25426625 0.6181514  0.07400925 0.0535731 ],"[  0.01413147   0.9994863    0.19044404  -0.14808881  -0.03983845
  -0.07203841   0.           0.          -0.6          0.61413145
 -10.829691  ]",1.5004391430349777,0,0
20,21,2024-09-14 18:27:39.165135104,TASK_BEGIN,2,-0.6494913742032002,0.0921580442350764,-4.002914397449215,1.116322751240746,1.8529737542223697,0.253549204399574,61.48424343214839,-0.8755707195604601,2,2024-09-14 18:26:04.215951904,1726338364.2159529,2024-09-14 18:26:04.215952896,1,0,-2.3597705711817696,-13.217142875392122,[1. 0. 0. 0.],[0.23927267 0.6176502  0.1011723  0.04190483],"[  0.0179921    0.9901508    0.19058305  -0.22493076  -0.05063472
  -0.07197524   0.           0.          -0.6          0.6179921
 -10.755007  ]",1.5072569864826568,0,0
21,22,2024-09-14 18:27:39.218930944,TASK_BEGIN,2,-0.6967732948160046,0.1065681757172155,-4.015033706645127,1.1028291869460216,1.407901951474979,0.2929367870913569,59.68980533252877,0.1663320293826854,2,2024-09-14 18:26:04.273969971,1726338364.27397,2024-09-14 18:26:04.273969920,1,0,-2.529099618447802,-17.911429328773103,[1. 0. 0. 0.],[0.23258987 0.62119507 0.1103785  0.03583657],"[  0.02056758   0.9819268    0.1906747   -0.27616033  -0.05782707
  -0.07193425   0.           0.          -0.6          0.62056756
 -10.689215  ]",1.5119968606775769,0,0
22,23,2024-09-14 18:27:39.296155904,TASK_BEGIN,2,-0.7415665033353067,0.1192426676507518,-4.030165352153845,1.0949249723074084,0.9537315196200428,0.3415973906322785,58.89414682053505,0.9697889438610506,2,2024-09-14 18:26:04.331968994,1726338364.3319695,2024-09-14 18:26:04.331969536,1,0,-2.6445048722601143,-22.765705987956082,[1. 0. 0. 0.],[0.22643934 0.62037249 0.1225572  0.03063097],"[  0.02314433   0.9721025    0.19076549  -0.32739106  -0.06501544
  -0.07189427   0.           0.          -0.6          0.6231443
 -10.6106205 ]",1.515158704115512,0,0
23,24,2024-09-14 18:27:39.368612096,TASK_BEGIN,2,-0.782698216588858,0.1299926292249574,-4.049115571190743,1.0931710341864698,0.5098384317001081,0.3935826391348414,59.0738143048422,1.5246697339137896,2,2024-09-14 18:26:04.418984863,1726338364.4189851,2024-09-14 18:26:04.418985216,1,0,-2.7564421761193785,-30.178718869155393,[1. 0. 0. 0.],[0.21823188 0.61446069 0.14277424 0.02453318],"[  0.02701203   0.95436585   0.19089998  -0.4042395   -0.07579063
  -0.07183555   0.           0.          -0.6          0.627012
 -10.468727  ]",1.5172917191254145,0,0
24,25,2024-09-14 18:27:40.278542848,TASK_BEGIN,2,-0.8191378023763298,0.1387146004444919,-4.073483431312002,1.0979048254650583,0.0974621256283265,0.4431114416466729,60.1334439567136,1.8382187987326388,2,2024-09-14 18:26:05.334897949,1726338365.3348987,2024-09-14 18:26:05.334898688,1,1,-0.36054328350074116,-79.58994511779163,[0. 1. 0. 0.],[0.0403155  0.00255567 0.59422458 0.36290425],"[ 5.7995796e-02  5.6107962e-01 -3.4769289e-02 -1.1833316e+00
 -5.8515859e-03  4.5440894e-01  0.0000000e+00  0.0000000e+00
 -6.0000002e-01  6.5799582e-01 -7.3224368e+00]",1.5539841611571878,0,0
25,26,2024-09-14 18:27:40.340912128,TASK_BEGIN,2,-0.8500054297996352,0.1453897294575566,-4.105256149155821,1.109159394170015,-0.2609651769287456,0.48499205057523,61.91881738661708,1.9326572683212664,2,2024-09-14 18:26:05.392961914,1726338365.3929622,2024-09-14 18:26:05.392962304,1,1,-5.215614892655177,-87.08800585884184,[0. 1. 0. 0.],[2.19362223e-02 5.36686862e-04 5.85780154e-01 3.91746937e-01],"[ 0.05772742  0.52290547 -0.06166025 -1.234881    0.04448221  0.51628435
  0.          0.         -0.6         0.6577274  -7.0170436 ]",1.559442908314599,0,0
26,27,2024-09-14 18:27:40.422411008,TASK_BEGIN,2,-0.8745801542501599,0.1500766759870548,-4.146355130124627,1.1265965701404963,-0.5426013296891438,0.5150584465849478,64.235363935873,1.840253415550117,2,2024-09-14 18:26:05.450927979,1726338365.4509282,2024-09-14 18:26:05.450928128,1,1,-5.596009151750033,-96.4254299918725,[0. 1. 0. 0.],[1.07045461e-02 1.01305983e-04 6.45121492e-01 3.44072656e-01],"[ 0.05714003  0.4831226  -0.08917294 -1.2881415   0.10116898  0.57989204
  0.          0.         -0.6         0.65714    -6.6987805 ]",1.5616342207943859,0,0
27,28,2024-09-14 18:27:40.490205952,TASK_BEGIN,2,-0.8923405756283609,0.1529030073066595,-4.1983260306622165,1.1494859896809029,-0.7253754058134326,0.5306041289239414,66.86899937487416,1.5975823780191325,2,2024-09-14 18:26:05.537927002,1726338365.5379276,2024-09-14 18:26:05.537927680,1,1,-6.105488893433526,-111.370720650877,[0. 1. 0. 0.],[3.42958920e-03 5.34401704e-06 7.12191950e-01 2.84373116e-01],"[ 0.05568027  0.42040837 -0.12930012 -1.3692157   0.19772415  0.67340404
  0.          0.         -0.6         0.6556803  -6.197067  ]",1.5617278478414,0,0
28,29,2024-09-14 18:27:40.556049152,TASK_BEGIN,2,-0.90302444715432,0.1540561990966128,-4.262250298651769,1.176755482966814,-0.7896185592954098,0.5306521408368864,69.6063537066237,1.2405347610425452,2,2024-09-14 18:26:05.595926025,1726338365.5959265,2024-09-14 18:26:05.595926528,1,1,-6.67175324059634,-122.00923012742872,[0. 1. 0. 0.],[2.37194208e-03 1.17164878e-06 5.12673837e-01 4.84953049e-01],"[ 0.05432836  0.37657726 -0.15634468 -1.4248549   0.26959392  0.7379352
  0.          0.         -0.6         0.65432835 -5.846418  ]",1.5632297071990207,0,0
29,30,2024-09-14 18:27:40.617604096,TASK_BEGIN,2,-0.9066699157293224,0.1537724779717873,-4.338807577365716,1.2071025106791478,-0.7198555256583556,0.5159092586448456,72.2520808117128,0.8010668900517885,2,2024-09-14 18:26:05.595926025,1726338365.5959265,2024-09-14 18:26:05.595926528,1,1,-6.67175324059634,-122.00923012742872,[0. 1. 0. 0.],[2.37194208e-03 1.17164878e-06 5.12673837e-01 4.84953049e-01],"[ 0.05432836  0.37657726 -0.15634468 -1.4248549   0.26959392  0.7379352
  0.          0.         -0.6         0.65432835 -5.846418  ]",1.5632297071990207,0,0
30,31,2024-09-14 18:27:40.693469952,TASK_BEGIN,2,-0.9036245441737352,0.1523208566646095,-4.428417198489094,1.239131418387382,-0.5063992033743361,0.4884775084059268,74.642108668945,0.3057762037289056,2,2024-09-14 18:26:05.595926025,1726338365.5959265,2024-09-14 18:26:05.595926528,1,1,-6.67175324059634,-122.00923012742872,[0. 1. 0. 0.],[2.37194208e-03 1.17164878e-06 5.12673837e-01 4.84953049e-01],"[ 0.05432836  0.37657726 -0.15634468 -1.4248549   0.26959392  0.7379352
  0.          0.         -0.6         0.65432835 -5.846418  ]",1.5632297071990207,0,0
31,32,2024-09-14 18:27:41.636812032,TASK_BEGIN,2,-0.8945401081738632,0.1499826828274414,-4.531368886876842,1.271474040545273,-0.1465288849473742,0.4515249022486689,76.65240844689671,-0.2243561198773847,2,2024-09-14 18:26:06.678628906,1726338366.6786294,2024-09-14 18:26:06.678629376,1,3,-69.7083929459014,-84.52722640772123,[0. 0. 0. 1.],[1.16218589e-08 9.25681081e-10 9.99999987e-01 6.01446906e-12],"[ 0.04033589 -0.59071106 -0.03895477 -0.71209025  0.42798316 -3.0564976
  1.          1.         -0.6         0.6403359   1.8918885 ]",1.5686766872452653,1,2
32,33,2024-09-14 18:27:41.692830976,TASK_BEGIN,2,-0.8803714307855796,0.1470331182928453,-4.6477914478976805,1.3028609047395532,0.35485683675552,0.4090258991092638,78.20246299933565,-0.7738170004752538,2,2024-09-14 18:26:06.678628906,1726338366.6786294,2024-09-14 18:26:06.678629376,1,3,-69.7083929459014,-84.52722640772123,[0. 0. 0. 1.],[1.16218589e-08 9.25681081e-10 9.99999987e-01 6.01446906e-12],"[ 0.04033589 -0.59071106 -0.03895477 -0.71209025  0.42798316 -3.0564976
  1.          1.         -0.6         0.6403359   1.8918885 ]",1.5686766872452653,1,2
33,34,2024-09-14 18:27:41.772408832,TASK_BEGIN,2,-0.8623764868434015,0.1437331235664146,-4.777373365321943,1.332139401014987,0.9851699267052448,0.3655507565306033,79.2534290710694,-1.3326552558826994,2,2024-09-14 18:26:06.678628906,1726338366.6786294,2024-09-14 18:26:06.678629376,1,3,-69.7083929459014,-84.52722640772123,[0. 0. 0. 1.],[1.16218589e-08 9.25681081e-10 9.99999987e-01 6.01446906e-12],"[ 0.04033589 -0.59071106 -0.03895477 -0.71209025  0.42798316 -3.0564976
  1.          1.         -0.6         0.6403359   1.8918885 ]",1.5686766872452653,1,2
34,35,2024-09-14 18:27:41.835931904,TASK_BEGIN,2,-0.8421008572562664,0.1403331998094525,-4.918930941498632,1.358264122470947,1.7246010011075867,0.3260375515731013,79.80287076992107,-1.8969722082431948,2,2024-09-14 18:26:06.678628906,1726338366.6786294,2024-09-14 18:26:06.678629376,1,3,-69.7083929459014,-84.52722640772123,[0. 0. 0. 1.],[1.16218589e-08 9.25681081e-10 9.99999987e-01 6.01446906e-12],"[ 0.04033589 -0.59071106 -0.03895477 -0.71209025  0.42798316 -3.0564976
  1.          1.         -0.6         0.6403359   1.8918885 ]",1.5686766872452653,1,2
35,36,2024-09-14 18:27:41.908045824,TASK_BEGIN,2,-0.8213260632485138,0.1370795883892227,-5.070049314202363,1.3802921607350624,2.5470264780450886,0.2955024469798146,79.87748419032498,-2.4688720535715425,2,2024-09-14 18:26:06.678628906,1726338366.6786294,2024-09-14 18:26:06.678629376,1,3,-69.7083929459014,-84.52722640772123,[0. 0. 0. 1.],[1.16218589e-08 9.25681081e-10 9.99999987e-01 6.01446906e-12],"[ 0.04033589 -0.59071106 -0.03895477 -0.71209025  0.42798316 -3.0564976
  1.          1.         -0.6         0.6403359   1.8918885 ]",1.5686766872452653,1,2
36,37,2024-09-14 18:27:41.970712832,TASK_BEGIN,2,-0.8019666085192964,0.1342123753829525,-5.226982051897633,1.3974041644136783,3.4213663808547667,0.2787251711959606,79.52377650075451,-3.0547469194596744,2,2024-09-14 18:26:06.678628906,1726338366.6786294,2024-09-14 18:26:06.678629376,1,3,-69.7083929459014,-84.52722640772123,[0. 0. 0. 1.],[1.16218589e-08 9.25681081e-10 9.99999987e-01 6.01446906e-12],"[ 0.04033589 -0.59071106 -0.03895477 -0.71209025  0.42798316 -3.0564976
  1.          1.         -0.6         0.6403359   1.8918885 ]",1.5686766872452653,1,2
37,38,2024-09-14 18:27:42.032715008,TASK_BEGIN,2,-0.7859200761887101,0.1319541537810607,-5.384834790552206,1.4089535657511565,4.313386868382382,0.2800483055253737,78.79794320627441,-3.6623030351929424,2,2024-09-14 18:26:06.678628906,1726338366.6786294,2024-09-14 18:26:06.678629376,1,3,-69.7083929459014,-84.52722640772123,[0. 0. 0. 1.],[1.16218589e-08 9.25681081e-10 9.99999987e-01 6.01446906e-12],"[ 0.04033589 -0.59071106 -0.03895477 -0.71209025  0.42798316 -3.0564976
  1.          1.         -0.6         0.6403359   1.8918885 ]",1.5686766872452653,1,2
38,43,2024-09-14 18:27:43.258002944,TASK_BEGIN,2,-0.8010262512584503,0.1347755750011628,-5.990324677381923,1.3807476110788115,7.895699083021279,0.6684922641880322,71.69766458928989,-7.181619200484653,2,2024-09-14 18:26:08.291066895,1726338368.2910678,2024-09-14 18:26:08.291067904,2,0,-0.6916740030055877,-0.6916740030055877,[1. 0. 0. 0.],[0.344692   0.42864733 0.09577193 0.13088873],"[ 2.5780995e-03  1.0011737e+00  1.9078854e-01 -6.8582423e-02
 -7.4218959e-03 -7.2531000e-02  0.0000000e+00  0.0000000e+00
  2.0000000e-01 -1.9742189e-01 -1.0416444e+01]",1.4898172423926939,0,0
39,44,2024-09-14 18:27:43.325778944,TASK_BEGIN,2,-0.8256892083041268,0.1384425166396222,-6.042823166011142,1.3622962841604338,8.280905270377726,0.826743525568817,70.03830377387592,-7.98044727009881,2,2024-09-14 18:26:08.380697021,1726338368.3806973,2024-09-14 18:26:08.380697344,2,0,-1.7359193057452842,-5.172851292714137,[1. 0. 0. 0.],[0.37345793 0.39290188 0.11018486 0.12345533],"[ 6.4452491e-03  9.9556029e-01  1.9093254e-01 -1.4541039e-01
 -1.8291419e-02 -7.2461620e-02  0.0000000e+00  0.0000000e+00
  2.0000000e-01 -1.9355474e-01 -1.0371536e+01]",1.4911486698666656,0,0
40,45,2024-09-14 18:27:43.379744000,TASK_BEGIN,2,-0.8561970900109758,0.1430372189993864,-6.067550810832486,1.3423015328409391,8.544209947038034,1.0032550712088482,68.44716961552868,-8.79171560053645,2,2024-09-14 18:26:08.409697021,1726338368.4096978,2024-09-14 18:26:08.409697792,2,0,-1.9089802445703015,-7.030103024357297,[1. 0. 0. 0.],[0.3844191  0.38086048 0.1154993  0.11922112],"[ 7.7350140e-03  9.9288929e-01  1.9098032e-01 -1.7102209e-01
 -2.1912308e-02 -7.2439440e-02  0.0000000e+00  0.0000000e+00
  2.0000000e-01 -1.9226499e-01 -1.0350168e+01]",1.4916099047113396,0,0
41,46,2024-09-14 18:27:44.312086272,TASK_BEGIN,2,-0.8912100866243022,0.1484670524015322,-6.064698610089809,1.3220122078615515,8.6990396377774,1.189573953886862,66.97693200611411,-9.596871731207235,2,2024-09-14 18:26:09.345802002,1726338369.3458023,2024-09-14 18:26:09.345802240,2,3,-4.962338209483969,-90.12546214490297,[0. 0. 0. 1.],[0.05343234 0.36833069 0.57661219 0.00162478],"[ 0.05290564  0.69447637  0.32456708 -1.008626   -0.21571007 -0.38457328
  0.          0.          0.2        -0.14709435 -7.962865  ]",1.5613073765325867,0,0
42,47,2024-09-14 18:27:44.375464960,TASK_BEGIN,2,-0.9291323406926691,0.1546247700362395,-6.035003358688776,1.302475395968215,8.765758180383008,1.3752612584093598,65.6774518449111,-10.375230395039749,2,2024-09-14 18:26:09.375771973,1726338369.375773,2024-09-14 18:26:09.375772928,2,3,-5.100934920486745,-94.32514244394069,[0. 0. 0. 1.],[0.04080286 0.4643528  0.49397676 0.00086757],"[ 0.05505188  0.67834663  0.3388762  -1.0368068  -0.23666425 -0.41908425
  0.          0.          0.2        -0.14494811 -7.833827  ]",1.562269308717701,0,0
43,48,2024-09-14 18:27:44.437952768,TASK_BEGIN,2,-0.9681920482530848,0.1613876328561412,-5.979657426630921,1.284502162997207,8.769516697127868,1.548512495314698,64.59674359782507,-11.105605450761754,2,2024-09-14 18:26:09.375771973,1726338369.375773,2024-09-14 18:26:09.375772928,2,3,-5.100934920486745,-94.32514244394069,[0. 0. 0. 1.],[0.04080286 0.4643528  0.49397676 0.00086757],"[ 0.05505188  0.67834663  0.3388762  -1.0368068  -0.23666425 -0.41908425
  0.          0.          0.2        -0.14494811 -7.833827  ]",1.562269308717701,0,0
44,49,2024-09-14 18:27:44.500560128,TASK_BEGIN,2,-1.0065540322576831,0.1686205406642421,-5.900502636566427,1.268700594140742,8.737586826858369,1.6972287031271964,63.77691301721232,-11.765766754868288,2,2024-09-14 18:26:09.375771973,1726338369.375773,2024-09-14 18:26:09.375772928,2,3,-5.100934920486745,-94.32514244394069,[0. 0. 0. 1.],[0.04080286 0.4643528  0.49397676 0.00086757],"[ 0.05505188  0.67834663  0.3388762  -1.0368068  -0.23666425 -0.41908425
  0.          0.          0.2        -0.14494811 -7.833827  ]",1.562269308717701,0,0
45,50,2024-09-14 18:27:44.579491072,TASK_BEGIN,2,-1.042460241530457,0.1761831976253348,-5.80028323015966,1.255537318675628,8.696353341832419,1.810412787991431,63.247582887487326,-12.331138089205764,2,2024-09-14 18:26:09.375771973,1726338369.375773,2024-09-14 18:26:09.375772928,2,3,-5.100934920486745,-94.32514244394069,[0. 0. 0. 1.],[0.04080286 0.4643528  0.49397676 0.00086757],"[ 0.05505188  0.67834663  0.3388762  -1.0368068  -0.23666425 -0.41908425
  0.          0.          0.2        -0.14494811 -7.833827  ]",1.562269308717701,0,0
46,51,2024-09-14 18:27:44.639405056,TASK_BEGIN,2,-1.0743730436579757,0.1839375134789912,-5.682713821365192,1.2453905888592056,8.668414747347502,1.879524852420736,63.020127423466384,-12.774272479493463,2,2024-09-14 18:26:09.375771973,1726338369.375773,2024-09-14 18:26:09.375772928,2,3,-5.100934920486745,-94.32514244394069,[0. 0. 0. 1.],[0.04080286 0.4643528  0.49397676 0.00086757],"[ 0.05505188  0.67834663  0.3388762  -1.0368068  -0.23666425 -0.41908425
  0.          0.          0.2        -0.14494811 -7.833827  ]",1.562269308717701,0,0
47,52,2024-09-14 18:27:44.716087808,TASK_BEGIN,2,-1.101090330330845,0.191752283105137,-5.552297952106385,1.2385672283944575,8.670299116577937,1.899452586242452,63.08380215417205,-13.06527023273518,2,2024-09-14 18:26:09.753806152,1726338369.7538064,2024-09-14 18:26:09.753806336,2,3,-5.430457270671704,-139.30819162298093,[0. 0. 0. 1.],[2.83036784e-03 7.99278622e-01 1.97888922e-01 2.08764007e-06],"[ 0.08326721  0.4324417   0.3632493  -1.3801326  -0.5144022  -0.4874544
  0.          0.          0.2        -0.11673279 -5.8665876 ]",1.5645354360544623,0,0
48,53,2024-09-14 18:27:45.662158848,TASK_BEGIN,2,-1.1218092962255033,0.1995039623767633,-5.413985632053635,1.235270358873152,8.711077375525354,1.8689846601487408,63.4040622454079,-13.173278968727272,2,2024-09-14 18:26:10.548458984,1726338370.5484598,2024-09-14 18:26:10.548459776,2,0,-1.8192054747873954,-256.6094720336181,[1. 0. 0. 0.],[4.27967457e-08 2.39838904e-10 9.99954958e-01 4.49992550e-05],"[ 0.17170842 -0.28573823  0.6993824   0.14374046 -2.0964026  -1.5286535
  1.          0.          0.2        -0.02829158 -0.12114802]",1.56844056590007,1,1
49,54,2024-09-14 18:27:45.729865984,TASK_BEGIN,2,-1.1361388414425777,0.2070742483049294,-5.272799982010074,1.235545201675703,8.791894362062935,1.790900738166587,63.92336028957327,-13.069735593956237,2,2024-09-14 18:26:10.548458984,1726338370.5484598,2024-09-14 18:26:10.548459776,2,0,-1.8192054747873954,-256.6094720336181,[1. 0. 0. 0.],[4.27967457e-08 2.39838904e-10 9.99954958e-01 4.49992550e-05],"[ 0.17170842 -0.28573823  0.6993824   0.14374046 -2.0964026  -1.5286535
  1.          0.          0.2        -0.02829158 -0.12114802]",1.56844056590007,1,1
50,55,2024-09-14 18:27:45.797714944,TASK_BEGIN,2,-1.1440812963181872,0.2143476707414463,-5.133546048237925,1.2392561627089964,8.906457730216125,1.671791667017583,64.56469489661201,-12.73308628339516,2,2024-09-14 18:26:10.548458984,1726338370.5484598,2024-09-14 18:26:10.548459776,2,0,-1.8192054747873954,-256.6094720336181,[1. 0. 0. 0.],[4.27967457e-08 2.39838904e-10 9.99954958e-01 4.49992550e-05],"[ 0.17170842 -0.28573823  0.6993824   0.14374046 -2.0964026  -1.5286535
  1.          0.          0.2        -0.02829158 -0.12114802]",1.56844056590007,1,1
51,56,2024-09-14 18:27:45.864386048,TASK_BEGIN,2,-1.1460038452529286,0.2212131433577581,-5.000649955054638,1.2461152802013993,9.042666381033426,1.521540617026689,65.23904539519245,-12.15352182815886,2,2024-09-14 18:26:10.548458984,1726338370.5484598,2024-09-14 18:26:10.548459776,2,0,-1.8192054747873954,-256.6094720336181,[1. 0. 0. 0.],[4.27967457e-08 2.39838904e-10 9.99954958e-01 4.49992550e-05],"[ 0.17170842 -0.28573823  0.6993824   0.14374046 -2.0964026  -1.5286535
  1.          0.          0.2        -0.02829158 -0.12114802]",1.56844056590007,1,1
52,57,2024-09-14 18:27:45.926027008,TASK_BEGIN,2,-1.1426066787461822,0.2275710747156955,-4.878078260848196,1.2557336437885405,9.185334879586277,1.352364820956257,65.85674156686473,-11.336330101923066,2,2024-09-14 18:26:10.548458984,1726338370.5484598,2024-09-14 18:26:10.548459776,2,0,-1.8192054747873954,-256.6094720336181,[1. 0. 0. 0.],[4.27967457e-08 2.39838904e-10 9.99954958e-01 4.49992550e-05],"[ 0.17170842 -0.28573823  0.6993824   0.14374046 -2.0964026  -1.5286535
  1.          0.          0.2        -0.02829158 -0.12114802]",1.56844056590007,1,1
53,58,2024-09-14 18:27:45.987586048,TASK_BEGIN,2,-1.134879284322175,0.2333436775491197,-4.76925352386228,1.2676606920591684,9.319366482081852,1.177551743633304,66.33917232431412,-10.303239786929486,2,2024-09-14 18:26:10.548458984,1726338370.5484598,2024-09-14 18:26:10.548459776,2,0,-1.8192054747873954,-256.6094720336181,[1. 0. 0. 0.],[4.27967457e-08 2.39838904e-10 9.99954958e-01 4.49992550e-05],"[ 0.17170842 -0.28573823  0.6993824   0.14374046 -2.0964026  -1.5286535
  1.          0.          0.2        -0.02829158 -0.12114802]",1.56844056590007,1,1
54,59,2024-09-14 18:27:46.065287168,TASK_BEGIN,2,-1.1240338518018895,0.2384839552198693,-4.676938558069302,1.2813974162850792,9.432396369044849,1.0102066365926203,66.62638432223977,-9.09173145222468,2,2024-09-14 18:26:10.548458984,1726338370.5484598,2024-09-14 18:26:10.548459776,2,0,-1.8192054747873954,-256.6094720336181,[1. 0. 0. 0.],[4.27967457e-08 2.39838904e-10 9.99954958e-01 4.49992550e-05],"[ 0.17170842 -0.28573823  0.6993824   0.14374046 -2.0964026  -1.5286535
  1.          0.          0.2        -0.02829158 -0.12114802]",1.56844056590007,1,1
55,62,2024-09-14 18:27:47.145981952,TASK_BEGIN,2,-1.086528623034669,0.250179422879558,-4.514060702525139,1.327462807411043,9.583889471001651,0.6625284711536152,66.04038147808595,-4.945075810355878,2,2024-09-14 18:26:12.186405029,1726338372.1864054,2024-09-14 18:26:12.186405376,3,0,-1.0816381221582816,-1.5701816469380516,[1. 0. 0. 0.],[0.42620523 0.20410505 0.06405519 0.30563452],"[-3.3496220e-03  1.0008075e+00 -1.6544455e-01 -7.0606440e-02
  9.7062653e-03  6.2863350e-02  0.0000000e+00  0.0000000e+00
 -4.0000001e-01  3.9665037e-01 -1.0465646e+01]",1.4904178138555004,0,0
56,63,2024-09-14 18:27:47.215558144,TASK_BEGIN,2,-1.0769259265417273,0.2530465309294656,-4.498093072361853,1.3420733939488148,9.568405133428788,0.6236607582461674,65.3829450093372,-3.618676989292723,2,2024-09-14 18:26:12.244370850,1726338372.2443717,2024-09-14 18:26:12.244371712,3,0,-1.6458385309276196,-4.561240920432912,[1. 0. 0. 0.],[0.42554451 0.19935438 0.07173247 0.30336864],"[-5.58495522e-03  9.97401476e-01 -1.65527582e-01 -1.21837795e-01
  1.59880184e-02  6.28259480e-02  0.00000000e+00  0.00000000e+00
 -4.00000006e-01  3.94415051e-01 -1.04383974e+01]",1.4927586275245734,0,0
57,64,2024-09-14 18:27:47.268179968,TASK_BEGIN,2,-1.0707673186672453,0.2556018591209849,-4.499159505187358,1.3550699651224904,9.522597158113914,0.6293784691505585,64.56239404005558,-2.4418662496947543,2,2024-09-14 18:26:12.302367920,1726338372.3023684,2024-09-14 18:26:12.302368512,3,0,-2.0181051385051063,-8.32297245416763,[1. 0. 0. 0.],[0.42755583 0.18133573 0.07844865 0.31265979],"[-7.8215599e-03  9.9239540e-01 -1.6561037e-01 -1.7305933e-01
  2.2265891e-02  6.2787384e-02  0.0000000e+00  0.0000000e+00
 -4.0000001e-01  3.9217845e-01 -1.0398349e+01]",1.4941402543915232,0,0
58,65,2024-09-14 18:27:47.345312000,TASK_BEGIN,2,-1.06893631920373,0.258018962770463,-4.514613325246328,1.365793811721544,9.44884062610213,0.6788038218800556,63.65051979752601,-1.4826180775819218,2,2024-09-14 18:26:12.360397949,1726338372.360398,2024-09-14 18:26:12.360398080,3,0,-2.2532786601728247,-12.53830812612764,[1. 0. 0. 0.],[0.42255376 0.16571827 0.08203461 0.32969336],"[-1.00592775e-02  9.85789061e-01 -1.65692583e-01 -2.24281922e-01
  2.85399500e-02  6.27493709e-02  0.00000000e+00  0.00000000e+00
 -4.00000006e-01  3.89940709e-01 -1.03454981e+01]",1.4948828731552388,0,0
59,66,2024-09-14 18:27:47.418920960,TASK_BEGIN,2,-1.072024815595892,0.2604801425458611,-4.540812538587066,1.3737296071315428,9.349809972372956,0.7680059835292591,62.73297836047024,-0.797275149192369,2,2024-09-14 18:26:12.360397949,1726338372.360398,2024-09-14 18:26:12.360398080,3,0,-2.2532786601728247,-12.53830812612764,[1. 0. 0. 0.],[0.42255376 0.16571827 0.08203461 0.32969336],"[-1.00592775e-02  9.85789061e-01 -1.65692583e-01 -2.24281922e-01
  2.85399500e-02  6.27493709e-02  0.00000000e+00  0.00000000e+00
 -4.00000006e-01  3.89940709e-01 -1.03454981e+01]",1.4948828731552388,0,0
60,67,2024-09-14 18:27:48.346426880,TASK_BEGIN,2,-1.080270855960861,0.2631457398524732,-4.573184438312,1.378551534753706,9.228824880568974,0.8902869306376547,61.90162943858993,-0.4253869481848605,2,2024-09-14 18:26:13.379033203,1726338373.3790336,2024-09-14 18:26:13.379033600,3,0,-3.720659907938,-107.2849890844746,[1. 0. 0. 0.],[3.70708725e-02 2.77040441e-04 1.62983873e-01 7.99668214e-01],"[-0.05870398  0.60897636 -0.25296843 -1.1305968   0.3260844   0.26484188
  0.          0.         -0.4         0.34129602 -7.330996  ]",1.5477898858066532,0,0
61,68,2024-09-14 18:27:48.423628288,TASK_BEGIN,2,-1.0935029323084735,0.2661243439061784,-4.6064989376881815,1.3801414811050492,9.09022148759442,1.0367607633733698,61.24677592669705,-0.3867236361210694,2,2024-09-14 18:26:13.379033203,1726338373.3790336,2024-09-14 18:26:13.379033600,3,0,-3.720659907938,-107.2849890844746,[1. 0. 0. 0.],[3.70708725e-02 2.77040441e-04 1.62983873e-01 7.99668214e-01],"[-0.05870398  0.60897636 -0.25296843 -1.1305968   0.3260844   0.26484188
  0.          0.         -0.4         0.34129602 -7.330996  ]",1.5477898858066532,0,0
62,69,2024-09-14 18:27:48.486200320,TASK_BEGIN,2,-1.111127811332994,0.2694521031147597,-4.635296561757405,1.3785812970919682,8.939574624096544,1.19721658985906,60.8509390131393,-0.6811152776671306,2,2024-09-14 18:26:13.379033203,1726338373.3790336,2024-09-14 18:26:13.379033600,3,0,-3.720659907938,-107.2849890844746,[1. 0. 0. 0.],[3.70708725e-02 2.77040441e-04 1.62983873e-01 7.99668214e-01],"[-0.05870398  0.60897636 -0.25296843 -1.1305968   0.3260844   0.26484188
  0.          0.         -0.4         0.34129602 -7.330996  ]",1.5477898858066532,0,0
63,70,2024-09-14 18:27:48.565399808,TASK_BEGIN,2,-1.1321901700062205,0.2730860657103192,-4.654361682677713,1.3741296772017493,8.783528962261096,1.3611991989899883,60.78283158894141,-1.2903542191268969,2,2024-09-14 18:26:13.379033203,1726338373.3790336,2024-09-14 18:26:13.379033600,3,0,-3.720659907938,-107.2849890844746,[1. 0. 0. 0.],[3.70708725e-02 2.77040441e-04 1.62983873e-01 7.99668214e-01],"[-0.05870398  0.60897636 -0.25296843 -1.1305968   0.3260844   0.26484188
  0.          0.         -0.4         0.34129602 -7.330996  ]",1.5477898858066532,0,0
64,71,2024-09-14 18:27:48.633205760,TASK_BEGIN,2,-1.1554806390652204,0.2769118689252162,-4.659155305306011,1.3671882207881203,8.62901639952055,1.5191477279388776,61.0895943124143,-2.1806970068033564,2,2024-09-14 18:26:13.671504882,1726338373.6715055,2024-09-14 18:26:13.671505408,3,3,-1.6498130438236933,-118.22139940405337,[0. 0. 0. 1.],[2.26376597e-02 7.84431034e-04 9.45747592e-01 3.08303176e-02],"[-0.07048114  0.41361046 -0.10979911 -1.3511478   0.35850006 -0.09689872
  0.          0.         -0.4         0.32951885 -5.768069  ]",1.5482991193775604,0,0
65,72,2024-09-14 18:27:48.685767936,TASK_BEGIN,2,-1.1796404415547046,0.2807625512917399,-4.646170349379658,1.3582604300309864,8.48210895491759,1.6632550856979782,61.78874671346475,-3.305390760739117,2,2024-09-14 18:26:13.730822021,1726338373.7308226,2024-09-14 18:26:13.730822656,3,3,-1.1536208740330187,-118.34986304254875,[0. 0. 0. 1.],[8.63358777e-03 4.59536516e-04 9.86205851e-01 4.70102473e-03],"[-0.07181867  0.3702798  -0.07753143 -1.394812    0.34273085 -0.17775318
  0.          0.         -0.4         0.32818133 -5.4214234 ]",1.5587093750527274,0,0
66,73,2024-09-14 18:27:48.763977984,TASK_BEGIN,2,-1.2032406428713929,0.2844441129215241,-4.613222480222428,1.3479110991217598,8.347197342447231,1.7876868368031258,62.86355962759687,-4.607659173010166,2,2024-09-14 18:26:13.790987061,1726338373.790987,2024-09-14 18:26:13.790987008,3,3,-1.0449880250738863,-118.10130029542805,[0. 0. 0. 1.],[5.64051743e-03 4.71910482e-04 9.92960750e-01 9.26822292e-04],"[-0.0728155   0.32550633 -0.05001896 -1.4407678   0.31966513 -0.24495228
  0.          0.         -0.4         0.3271845  -5.0632358 ]",1.5605684947508238,0,0
67,74,2024-09-14 18:27:49.706052096,TASK_BEGIN,2,-1.2248493043214177,0.2877627090401985,-4.55968714702651,1.336720441241301,8.226947102539244,1.88815997727062,64.26419303867928,-6.024470384810539,2,2024-09-14 18:26:14.675467041,1726338374.6754677,2024-09-14 18:26:14.675467776,3,0,-8.122730590944286,-171.57903561549145,[1. 0. 0. 0.],[2.07899835e-06 1.85711475e-07 9.99997635e-01 1.00183444e-07],"[-0.0602591 -0.5239383  0.3285989 -2.088227  -0.6561977 -1.9822918
  0.         1.        -0.4        0.3397409  1.7323213]",1.568511467383178,1,2
68,75,2024-09-14 18:27:49.768214016,TASK_BEGIN,2,-1.2431030523051685,0.2905485061301189,-4.486620600221533,1.325217875243426,8.122820212300944,1.9613262098073192,65.9140854427928,-7.490644781817587,2,2024-09-14 18:26:14.675467041,1726338374.6754677,2024-09-14 18:26:14.675467776,3,0,-8.122730590944286,-171.57903561549145,[1. 0. 0. 0.],[2.07899835e-06 1.85711475e-07 9.99997635e-01 1.00183444e-07],"[-0.0602591 -0.5239383  0.3285989 -2.088227  -0.6561977 -1.9822918
  0.         1.        -0.4        0.3397409  1.7323213]",1.568511467383178,1,2
69,76,2024-09-14 18:27:49.846926080,TASK_BEGIN,2,-1.2567881586029768,0.292673472297301,-4.396660525255213,1.313806472985664,8.035602872104732,2.0044239336196945,67.7184300680545,-8.942256914189521,2,2024-09-14 18:26:14.675467041,1726338374.6754677,2024-09-14 18:26:14.675467776,3,0,-8.122730590944286,-171.57903561549145,[1. 0. 0. 0.],[2.07899835e-06 1.85711475e-07 9.99997635e-01 1.00183444e-07],"[-0.0602591 -0.5239383  0.3285989 -2.088227  -0.6561977 -1.9822918
  0.         1.        -0.4        0.3397409  1.7323213]",1.568511467383178,1,2
70,77,2024-09-14 18:27:49.914679040,TASK_BEGIN,2,-1.2649213790804696,0.2940621024965631,-4.29365391367339,1.302714720855014,7.965647150187025,2.0153131130902966,69.57068607678742,-10.318384132544349,2,2024-09-14 18:26:14.675467041,1726338374.6754677,2024-09-14 18:26:14.675467776,3,0,-8.122730590944286,-171.57903561549145,[1. 0. 0. 0.],[2.07899835e-06 1.85711475e-07 9.99997635e-01 1.00183444e-07],"[-0.0602591 -0.5239383  0.3285989 -2.088227  -0.6561977 -1.9822918
  0.         1.        -0.4        0.3397409  1.7323213]",1.568511467383178,1,2
71,78,2024-09-14 18:27:49.968687104,TASK_BEGIN,2,-1.2668100313295536,0.2946938907312454,-4.182088234857647,1.291999236980213,7.912963063200685,1.9927774205001736,71.35597126022523,-11.56143276017487,2,2024-09-14 18:26:14.675467041,1726338374.6754677,2024-09-14 18:26:14.675467776,3,0,-8.122730590944286,-171.57903561549145,[1. 0. 0. 0.],[2.07899835e-06 1.85711475e-07 9.99997635e-01 1.00183444e-07],"[-0.0602591 -0.5239383  0.3285989 -2.088227  -0.6561977 -1.9822918
  0.         1.        -0.4        0.3397409  1.7323213]",1.568511467383178,1,2
72,79,2024-09-14 18:27:50.050309888,TASK_BEGIN,2,-1.2620868806998464,0.2945976705546915,-4.066541594968406,1.2815954572991572,7.877308480967343,1.936989038419532,72.954134919044,-12.61762479432824,2,2024-09-14 18:26:14.675467041,1726338374.6754677,2024-09-14 18:26:14.675467776,3,0,-8.122730590944286,-171.57903561549145,[1. 0. 0. 0.],[2.07899835e-06 1.85711475e-07 9.99997635e-01 1.00183444e-07],"[-0.0602591 -0.5239383  0.3285989 -2.088227  -0.6561977 -1.9822918
  0.         1.        -0.4        0.3397409  1.7323213]",1.568511467383178,1,2
73,80,2024-09-14 18:27:50.107897088,TASK_BEGIN,2,-1.2507413952917643,0.2938417996800674,-3.9513445702294425,1.271394659000603,7.858202947130796,1.849984587984742,74.24473588673679,-13.43889405004822,2,2024-09-14 18:26:14.675467041,1726338374.6754677,2024-09-14 18:26:14.675467776,3,0,-8.122730590944286,-171.57903561549145,[1. 0. 0. 0.],[2.07899835e-06 1.85711475e-07 9.99997635e-01 1.00183444e-07],"[-0.0602591 -0.5239383  0.3285989 -2.088227  -0.6561977 -1.9822918
  0.         1.        -0.4        0.3397409  1.7323213]",1.568511467383178,1,2
74,86,2024-09-14 18:27:51.374950912,TASK_BEGIN,2,-1.0890268715502929,0.28239694097905,-3.4511915904054016,1.214874870149769,8.018584993097486,0.9884879191484722,70.42904699624476,-12.067223752019116,2,2024-09-14 18:26:16.408725098,1726338376.4087255,2024-09-14 18:26:16.408725504,4,0,1.2620744218648596,2.9254951224413004,[1. 0. 0. 0.],[0.40232367 0.26328023 0.11646857 0.21792753],"[ 5.8356923e-04  1.0043955e+00  2.8737629e-02  5.9551513e-03
 -1.6043473e-03 -1.0917003e-02  0.0000000e+00  0.0000000e+00
 -2.0000000e-01  2.0058356e-01 -1.2530701e+01]",1.490577108677822,0,0
75,87,2024-09-14 18:27:51.434401024,TASK_BEGIN,2,-1.0585568520251611,0.2806900494336526,-3.4186061495387845,1.2073601070826274,8.073408687835485,0.8470057519889713,67.56934121781703,-10.846519358328605,2,2024-09-14 18:26:16.468708008,1726338376.4687088,2024-09-14 18:26:16.468708864,4,0,-1.9485364564719134,0.3087696108222091,[1. 0. 0. 0.],[0.40570976 0.25004018 0.12120893 0.22304113],"[ 9.7179413e-04  1.0033808e+00  2.8752083e-02 -4.5270219e-02
 -2.6951151e-03 -1.0909339e-02  0.0000000e+00  0.0000000e+00
 -2.0000000e-01  2.0097180e-01 -1.2522583e+01]",1.4954662857469652,0,0
76,88,2024-09-14 18:27:52.385960192,TASK_BEGIN,2,-1.0302761542878818,0.2793336276063027,-3.4018699747082173,1.200530705633393,8.12991308498658,0.7173355010279032,64.18020607777474,-9.441931643212053,2,2024-09-14 18:26:17.427575195,1726338377.4275756,2024-09-14 18:26:17.427575552,4,0,-2.6269265202027867,-73.84578106777361,[1. 0. 0. 0.],[0.09758057 0.05554546 0.75773254 0.08914144],"[ 7.3780217e-03  7.5460649e-01  2.8801555e-02 -8.9453590e-01
 -2.1628857e-02 -1.0855178e-02  0.0000000e+00  0.0000000e+00
 -2.0000000e-01  2.0737801e-01 -1.0532389e+01]",1.51461474657112,0,0
77,89,2024-09-14 18:27:52.447639808,TASK_BEGIN,2,-1.0047061055864317,0.278322856318454,-3.39937982016243,1.1941502961654489,8.185116428026177,0.60101811614322,60.36684368030557,-7.916041617037684,2,2024-09-14 18:26:17.485478027,1726338377.4854782,2024-09-14 18:26:17.485478144,4,0,-2.6270831208509406,-77.60407179693071,[1. 0. 0. 0.],[0.07315923 0.04321004 0.80900579 0.07462494],"[ 7.7671208e-03  7.2545254e-01  2.8801547e-02 -9.4573617e-01
 -2.2714404e-02 -1.0855125e-02  0.0000000e+00  0.0000000e+00
 -2.0000000e-01  2.0776711e-01 -1.0299157e+01]",1.515367840532651,0,0
78,90,2024-09-14 18:27:52.509234944,TASK_BEGIN,2,-0.981975637839394,0.2775812503298763,-3.4085665790601496,1.1878442477309592,8.236420606468105,0.4989831361544855,56.25720743277653,-6.338550381934751,2,2024-09-14 18:26:17.543557861,1726338377.5435588,2024-09-14 18:26:17.543558912,4,0,-2.6272161308768034,-81.28784606788258,[1. 0. 0. 0.],[0.07964443 0.04118994 0.79659963 0.08256601],"[ 8.1561403e-03  6.9469869e-01  2.8801540e-02 -9.9693644e-01
 -2.3799932e-02 -1.0855114e-02  0.0000000e+00  0.0000000e+00
 -2.0000000e-01  2.0815614e-01 -1.0053126e+01]",1.5162017744935619,0,0
79,91,2024-09-14 18:27:52.585959936,TASK_BEGIN,2,-0.9619262341882866,0.2769778787437386,-3.426202875725636,1.1811558424741542,8.282471585223005,0.4119523189771508,51.99426835663576,-4.782642120684744,2,2024-09-14 18:26:17.630542969,1726338377.6305435,2024-09-14 18:26:17.630543360,4,0,-2.6273903808430816,-86.67696609678443,[1. 0. 0. 0.],[0.06664872 0.02665746 0.82462063 0.08207319],"[ 8.73978902e-03  6.45567894e-01  2.88015287e-02 -1.07373679e+00
 -2.54282057e-02 -1.08551085e-02  0.00000000e+00  0.00000000e+00
 -2.00000003e-01  2.08739787e-01 -9.66007996e+00]",1.5185118962228086,0,0
80,92,2024-09-14 18:27:52.648446976,TASK_BEGIN,2,-0.9442431810152976,0.276354257982715,-3.448753129312177,1.1736038010597163,8.323870703257102,0.3408004867010243,47.7258336455194,-3.319510773869372,2,2024-09-14 18:26:17.688543945,1726338377.6885448,2024-09-14 18:26:17.688544768,4,0,-2.6274893792603677,-90.18075367949584,[1. 0. 0. 0.],[0.04629996 0.01746229 0.87213782 0.06409993],"[ 9.1288881e-03  6.1081409e-01  2.8801521e-02 -1.1249371e+00
 -2.6513780e-02 -1.0855082e-02  0.0000000e+00  0.0000000e+00
 -2.0000000e-01  2.0912889e-01 -9.3820496e+00]",1.520359679266204,0,0
81,93,2024-09-14 18:27:52.724898304,TASK_BEGIN,2,-0.9285436088749484,0.2755469971293821,-3.4726576103454745,1.1647330314235431,8.363436298182416,0.2867409290242054,43.59554268525836,-2.0121102825041604,2,2024-09-14 18:26:17.775515136,1726338377.775515,2024-09-14 18:26:17.775515136,4,0,-2.627617767748177,-95.30645419627177,[1. 0. 0. 0.],[0.02843722 0.00996733 0.91728949 0.04430596],"[ 0.00971246  0.5556834   0.02880151 -1.2017374  -0.02814214 -0.01085516
  0.          0.         -0.2         0.20971246 -8.941004  ]",1.525676165586831,0,0
82,94,2024-09-14 18:27:52.792572928,TASK_BEGIN,2,-0.9144116782963748,0.274402447495956,-3.494641814408669,1.1541705239745126,8.405960649450543,0.2511693504239207,39.73722614069891,-0.9104464466501953,2,2024-09-14 18:26:17.833481934,1726338377.8334825,2024-09-14 18:26:17.833482496,4,0,-2.627690720731181,-98.63891895266755,[1. 0. 0. 0.],[0.02672518 0.00857309 0.92245067 0.04225106],"[ 0.01010156  0.5169295   0.0288015  -1.2529377  -0.02922768 -0.01085522
  0.          0.         -0.2         0.21010156 -8.630973  ]",1.5298357380415397,0,0
83,95,2024-09-14 18:27:53.736640000,TASK_BEGIN,2,-0.9014301624979156,0.2727921872908914,-3.512194025570615,1.1416969585911534,8.457620726645999,0.2351391050882068,36.27141749020811,-0.0496128594419112,2,2024-09-14 18:26:18.765593994,1726338378.7655947,2024-09-14 18:26:18.765594624,4,0,-3.364298793134651,-157.45224655429095,[1. 0. 0. 0.],[3.79017948e-05 1.27554009e-07 9.99526473e-01 4.35497319e-04],"[ 0.00368452 -0.3193518  -0.0469028  -2.0701337   0.20570666  0.1639866
  0.          0.         -0.2         0.20368452 -1.9407225 ]",1.5686870391997965,1,1
84,96,2024-09-14 18:27:53.794089984,TASK_BEGIN,2,-0.8892434576151882,0.270636472200625,-3.524162134381016,1.1273236073698931,8.525287956714656,0.2386484204142657,33.30157942363294,0.5504068776014668,2,2024-09-14 18:26:18.765593994,1726338378.7655947,2024-09-14 18:26:18.765594624,4,0,-3.364298793134651,-157.45224655429095,[1. 0. 0. 0.],[3.79017948e-05 1.27554009e-07 9.99526473e-01 4.35497319e-04],"[ 0.00368452 -0.3193518  -0.0469028  -2.0701337   0.20570666  0.1639866
  0.          0.         -0.2         0.20368452 -1.9407225 ]",1.5686870391997965,1,1
85,97,2024-09-14 18:27:53.872092160,TASK_BEGIN,2,-0.8776274197016262,0.2679300773475954,-3.53118380850524,1.1113343168409326,8.615875845261945,0.2600499477427867,30.90937659835405,0.8844519620555116,2,2024-09-14 18:26:18.765593994,1726338378.7655947,2024-09-14 18:26:18.765594624,4,0,-3.364298793134651,-157.45224655429095,[1. 0. 0. 0.],[3.79017948e-05 1.27554009e-07 9.99526473e-01 4.35497319e-04],"[ 0.00368452 -0.3193518  -0.0469028  -2.0701337   0.20570666  0.1639866
  0.          0.         -0.2         0.20368452 -1.9407225 ]",1.5686870391997965,1,1
86,98,2024-09-14 18:27:53.939949824,TASK_BEGIN,2,-0.8665161605659846,0.2647581531689406,-3.5356280871965926,1.0942451777808264,8.735677499917985,0.2958714084229809,29.149884246169417,0.9617100236981536,2,2024-09-14 18:26:18.765593994,1726338378.7655947,2024-09-14 18:26:18.765594624,4,0,-3.364298793134651,-157.45224655429095,[1. 0. 0. 0.],[3.79017948e-05 1.27554009e-07 9.99526473e-01 4.35497319e-04],"[ 0.00368452 -0.3193518  -0.0469028  -2.0701337   0.20570666  0.1639866
  0.          0.         -0.2         0.20368452 -1.9407225 ]",1.5686870391997965,1,1
87,99,2024-09-14 18:27:53.996162048,TASK_BEGIN,2,-0.8559731803386256,0.2612962343691283,-3.540979963353787,1.076682804558052,8.889651190995403,0.341156725365702,28.047459212245908,0.8050323076178625,2,2024-09-14 18:26:18.765593994,1726338378.7655947,2024-09-14 18:26:18.765594624,4,0,-3.364298793134651,-157.45224655429095,[1. 0. 0. 0.],[3.79017948e-05 1.27554009e-07 9.99526473e-01 4.35497319e-04],"[ 0.00368452 -0.3193518  -0.0469028  -2.0701337   0.20570666  0.1639866
  0.          0.         -0.2         0.20368452 -1.9407225 ]",1.5686870391997965,1,1
88,100,2024-09-14 18:27:54.073820160,TASK_BEGIN,2,-0.8461418036771883,0.257799470878003,-3.5509496937278326,1.059247360598199,9.080823959810544,0.3902070201243113,27.59299337763495,0.4498470645407798,2,2024-09-14 18:26:18.765593994,1726338378.7655947,2024-09-14 18:26:18.765594624,4,0,-3.364298793134651,-157.45224655429095,[1. 0. 0. 0.],[3.79017948e-05 1.27554009e-07 9.99526473e-01 4.35497319e-04],"[ 0.00368452 -0.3193518  -0.0469028  -2.0701337   0.20570666  0.1639866
  0.          0.         -0.2         0.20368452 -1.9407225 ]",1.5686870391997965,1,1
89,101,2024-09-14 18:27:54.135864064,TASK_BEGIN,2,-0.8372064474659767,0.2545892492975927,-3.568740991509846,1.0424348488916857,9.310051661059608,0.4374686846376275,27.74382729642976,-0.0578498458740062,2,2024-09-14 18:26:18.765593994,1726338378.7655947,2024-09-14 18:26:18.765594624,4,0,-3.364298793134651,-157.45224655429095,[1. 0. 0. 0.],[3.79017948e-05 1.27554009e-07 9.99526473e-01 4.35497319e-04],"[ 0.00368452 -0.3193518  -0.0469028  -2.0701337   0.20570666  0.1639866
  0.          0.         -0.2         0.20368452 -1.9407225 ]",1.5686870391997965,1,1
90,109,2024-09-14 18:27:56.410525952,TASK_BEGIN,2,-0.8084150105343787,0.2868919510054691,-4.1365888408563904,0.9866934122019788,11.911141410416004,0.4614474055033539,40.55795587593616,-3.895388043339392,2,2024-09-14 18:26:21.284998047,1726338381.284999,2024-09-14 18:26:21.284998912,5,0,-2.944775313559788,-50.12004335928085,[1. 0. 0. 0.],[0.3549646  0.18019224 0.27326353 0.19157964],"[ 5.0182343e-03  9.0087652e-01  3.0358512e-02 -5.6866777e-01
 -1.5050758e-02 -3.1760670e-02  0.0000000e+00  0.0000000e+00
  0.0000000e+00  5.0182343e-03 -9.9748430e+00]",1.496366645054859,0,0
91,110,2024-09-14 18:27:56.478306048,TASK_BEGIN,2,-0.80892070745541,0.3030355208848531,-4.2543539396511605,0.9991609467592418,12.15965333061841,0.4288631875200706,42.62752314637251,-3.980197673329923,2,2024-09-14 18:26:21.284998047,1726338381.284999,2024-09-14 18:26:21.284998912,5,0,-2.944775313559788,-50.12004335928085,[1. 0. 0. 0.],[0.3549646  0.18019224 0.27326353 0.19157964],"[ 5.0182343e-03  9.0087652e-01  3.0358512e-02 -5.6866777e-01
 -1.5050758e-02 -3.1760670e-02  0.0000000e+00  0.0000000e+00
  0.0000000e+00  5.0182343e-03 -9.9748430e+00]",1.496366645054859,0,0
92,111,2024-09-14 18:27:56.546068736,TASK_BEGIN,2,-0.8097163249231993,0.3220194636303831,-4.375817671473912,1.0176080596991082,12.336923420836875,0.396270914879762,44.69389419280378,-3.989935818787136,2,2024-09-14 18:26:21.576000000,1726338381.576,2024-09-14 18:26:21.576000000,5,1,-2.143155228683307,-68.68377503599487,[0. 1. 0. 0.],[0.13493087 0.0333729  0.59817028 0.23352595],"[ 6.0199103e-03  7.8971374e-01 -3.1772509e-02 -8.2644922e-01
  9.4364851e-04  1.3307360e-01  0.0000000e+00  0.0000000e+00
  0.0000000e+00  6.0199103e-03 -9.0855408e+00]",1.5147846888820635,0,0
93,112,2024-09-14 18:27:56.613285888,TASK_BEGIN,2,-0.8105681825326796,0.3433937651059323,-4.496600622775334,1.041538854685928,12.429945722413756,0.3657375257355593,46.72989693139291,-3.949458682910168,2,2024-09-14 18:26:21.662999023,1726338381.6629994,2024-09-14 18:26:21.662999296,5,1,-3.9404576036222725,-77.5310311283251,[0. 1. 0. 0.],[0.13223835 0.01310016 0.35888564 0.49577585],"[ 5.0130687e-03  7.4859786e-01 -7.8662522e-02 -9.0339285e-01
  3.1815547e-02  2.4117005e-01  0.0000000e+00  0.0000000e+00
  0.0000000e+00  5.0130687e-03 -8.7566137e+00]",1.5386621041114856,0,0
94,113,2024-09-14 18:27:56.675303936,TASK_BEGIN,2,-0.811274719521324,0.3664763866250823,-4.611291948480295,1.0697831684727814,12.43117889798015,0.3385204186581682,48.706192196921656,-3.889861866280097,2,2024-09-14 18:26:21.722000000,1726338381.722,2024-09-14 18:26:21.721999872,5,1,-4.231654662086919,-84.29156362351968,[0. 1. 0. 0.],[0.09066945 0.00497842 0.23173755 0.67261458],"[ 3.9065680e-03  7.1915615e-01 -1.0738243e-01 -9.5587480e-01
  6.1090972e-02  3.0749127e-01  0.0000000e+00  0.0000000e+00
  0.0000000e+00  3.9065680e-03 -8.5210800e+00]",1.54828689878092,0,0
95,114,2024-09-14 18:27:56.749388800,TASK_BEGIN,2,-0.8117255866457572,0.3903435203378783,-4.713867095445835,1.1005368392059884,12.339128178515896,0.3152858032398279,50.59815506370632,-3.847963496655834,2,2024-09-14 18:26:21.779999023,1726338381.7799995,2024-09-14 18:26:21.779999488,5,1,-4.657530031797828,-91.71924352126416,[0. 1. 0. 0.],[0.05047471 0.00160771 0.14074569 0.80717189],"[ 2.4262269e-03  6.8810344e-01 -1.4125432e-01 -1.0080953e+00
  9.7815476e-02  3.8560572e-01  0.0000000e+00  0.0000000e+00
  0.0000000e+00  2.4262269e-03 -8.2726583e+00]",1.5567967295316791,0,0
96,115,2024-09-14 18:27:56.815296000,TASK_BEGIN,2,-0.811968601361484,0.413826860856033,-4.798397787358045,1.1315340119274369,12.157859805959738,0.2966201736362882,52.39326534079597,-3.8643554407429375,2,2024-09-14 18:26:21.870999023,1726338381.870999,2024-09-14 18:26:21.870999040,5,1,-5.238844841397432,-103.87513582731741,[0. 1. 0. 0.],[2.08924237e-02 2.34799257e-04 9.25961605e-02 8.86276617e-01],"[-3.8425127e-04  6.3848877e-01 -1.8071841e-01 -1.0881637e+00
  1.6468227e-01  4.7744879e-01  0.0000000e+00  0.0000000e+00
  0.0000000e+00 -3.8425127e-04 -7.8757415e+00]",1.563725058828399,0,0
97,116,2024-09-14 18:27:57.747283968,TASK_BEGIN,2,-0.8122717719620305,0.4355223192230976,-4.859901433281688,1.1603083386236024,11.895899641153788,0.2834966723554564,54.09442397511262,-3.97920082548414,2,2024-09-14 18:26:22.396033936,1726338382.396034,2024-09-14 18:26:22.396034048,5,0,-4.657682454781337,-170.96755259547766,[1. 0. 0. 0.],[4.52646188e-03 1.14988907e-06 2.03527004e-02 9.75119688e-01],"[-0.02056352  0.26622486 -0.15783113 -1.5361056   0.6232638   0.4014434
  0.          0.          0.         -0.02056352 -4.89763   ]",1.5673131363447554,1,2
98,117,2024-09-14 18:27:57.824048128,TASK_BEGIN,2,-0.8131744554766659,0.4538120462727568,-4.895085213857923,1.1844698673705012,11.564954773018323,0.2774015757014094,55.71718081102671,-4.226540161517404,2,2024-09-14 18:26:22.396033936,1726338382.396034,2024-09-14 18:26:22.396034048,5,0,-4.657682454781337,-170.96755259547766,[1. 0. 0. 0.],[4.52646188e-03 1.14988907e-06 2.03527004e-02 9.75119688e-01],"[-0.02056352  0.26622486 -0.15783113 -1.5361056   0.6232638   0.4014434
  0.          0.          0.         -0.02056352 -4.89763   ]",1.5673131363447554,1,2
99,118,2024-09-14 18:27:57.886049024,TASK_BEGIN,2,-0.8155299107822586,0.4669013844858998,-4.902790435119984,1.2019387458010715,11.178740036859413,0.2801023462083671,57.28191350442875,-4.628959764757511,2,2024-09-14 18:26:22.396033936,1726338382.396034,2024-09-14 18:26:22.396034048,5,0,-4.657682454781337,-170.96755259547766,[1. 0. 0. 0.],[4.52646188e-03 1.14988907e-06 2.03527004e-02 9.75119688e-01],"[-0.02056352  0.26622486 -0.15783113 -1.5361056   0.6232638   0.4014434
  0.          0.          0.         -0.02056352 -4.89763   ]",1.5673131363447554,1,2
100,119,2024-09-14 18:27:57.963791104,TASK_BEGIN,2,-0.8205355883802471,0.4728735532604962,-4.884099825991877,1.2111171599784414,10.75216379816506,0.2931799930522171,58.80307706484562,-5.193704769416338,2,2024-09-14 18:26:22.396033936,1726338382.396034,2024-09-14 18:26:22.396034048,5,0,-4.657682454781337,-170.96755259547766,[1. 0. 0. 0.],[4.52646188e-03 1.14988907e-06 2.03527004e-02 9.75119688e-01],"[-0.02056352  0.26622486 -0.15783113 -1.5361056   0.6232638   0.4014434
  0.          0.          0.         -0.02056352 -4.89763   ]",1.5673131363447554,1,2
101,120,2024-09-14 18:27:58.031831040,TASK_BEGIN,2,-0.8297380007200575,0.4697642047066074,-4.842170148344697,1.2110007501242446,10.300956986931494,0.3174486153697043,60.27878832515834,-5.910262906661697,2,2024-09-14 18:26:22.396033936,1726338382.396034,2024-09-14 18:26:22.396034048,5,0,-4.657682454781337,-170.96755259547766,[1. 0. 0. 0.],[4.52646188e-03 1.14988907e-06 2.03527004e-02 9.75119688e-01],"[-0.02056352  0.26622486 -0.15783113 -1.5361056   0.6232638   0.4014434
  0.          0.          0.         -0.02056352 -4.89763   ]",1.5673131363447554,1,2
102,121,2024-09-14 18:27:58.099543296,TASK_BEGIN,2,-0.8450013213119445,0.4556552364608619,-4.781840246400209,1.2012206123478986,9.841390376182586,0.3525005416513817,61.685339562184296,-6.749585112616522,2,2024-09-14 18:26:22.396033936,1726338382.396034,2024-09-14 18:26:22.396034048,5,0,-4.657682454781337,-170.96755259547766,[1. 0. 0. 0.],[4.52646188e-03 1.14988907e-06 2.03527004e-02 9.75119688e-01],"[-0.02056352  0.26622486 -0.15783113 -1.5361056   0.6232638   0.4014434
  0.          0.          0.         -0.02056352 -4.89763   ]",1.5673131363447554,1,2
103,122,2024-09-14 18:27:58.167447040,TASK_BEGIN,2,-0.8684335991941396,0.4287844934778428,-4.709051078869441,1.182013897804389,9.389608763804151,0.3966890915777831,62.97940112186421,-7.665535108987227,2,2024-09-14 18:26:22.425000000,1726338382.4250007,2024-09-14 18:26:22.425000704,5,0,-4.657996438778525,-173.91587350830142,[1. 0. 0. 0.],[3.79596656e-03 9.95754596e-07 1.47082472e-02 9.81494790e-01],"[-0.02149439  0.24200094 -0.15769915 -1.5618297   0.6433346   0.40141582
  0.          0.          0.         -0.02149439 -4.703839  ]",1.5671183989429425,1,2
104,130,2024-09-14 18:28:00.460733952,TASK_BEGIN,2,-1.560575292737447,-0.3039482851759097,-4.270283148402278,0.8573604615475797,7.376846979025742,0.7834579701338954,64.27810982202882,-10.74319161426648,2,2024-09-14 18:26:25.232317871,1726338385.2323186,2024-09-14 18:26:25.232318720,6,0,-2.7837920359135353,-42.12647831969024,[1. 0. 0. 0.],[0.34263856 0.08143348 0.15957287 0.41635509],"[ -0.01550412   0.912266    -0.12109368  -0.53589135   0.04365999
   0.04562298   0.           0.           0.2         -0.21550412
 -10.107984  ]",1.509435955142489,0,0
105,131,2024-09-14 18:28:00.528567040,TASK_BEGIN,2,-1.7133228993059162,-0.437466718898112,-4.267584742050021,0.8267592856235761,7.3858078974470915,0.8034248347761836,63.16656393402351,-10.061465749135444,2,2024-09-14 18:26:25.583323975,1726338385.583324,2024-09-14 18:26:25.583323904,6,3,-4.379598736538236,-67.74486516284755,[0. 0. 0. 1.],[0.14916092 0.27277108 0.5628029  0.01526509],"[-0.01868876  0.7803452   0.05056432 -0.84524256 -0.06074965 -0.34897825
  0.          0.          0.2        -0.21868876 -9.052617  ]",1.529084885467991,0,0
106,132,2024-09-14 18:28:00.595948032,TASK_BEGIN,2,-1.8729276470845384,-0.5678989329836668,-4.2773802153646345,0.8059069996734791,7.447172636632155,0.8111395432281744,61.838440520956446,-9.16788659329045,2,2024-09-14 18:26:25.642337158,1726338385.6423373,2024-09-14 18:26:25.642337280,6,3,-4.766498947084893,-75.74278027239924,[0. 0. 0. 1.],[0.08434414 0.24485422 0.66566912 0.00513252],"[-0.01809231  0.7527485   0.07862283 -0.89765257 -0.10057691 -0.41376585
  0.          0.          0.2        -0.2180923  -8.831843  ]",1.5417293483115322,0,0
107,133,2024-09-14 18:28:00.657947904,TASK_BEGIN,2,-2.034076625202664,-0.6901703223600337,-4.298112278220998,0.7963803810189678,7.558137157886541,0.8053880376225303,60.32931329973914,-8.110482740827536,2,2024-09-14 18:26:25.700291016,1726338385.7002914,2024-09-14 18:26:25.700291328,6,3,-5.15616568147585,-84.38071826523037,[0. 0. 0. 1.],[0.04655991 0.20276769 0.74868061 0.0019918 ],"[-0.01719896  0.7235024   0.1034076  -0.9521007  -0.14638028 -0.47195274
  0.          0.          0.2        -0.21719895 -8.597875  ]",1.554001896588758,0,0
108,134,2024-09-14 18:28:00.731823104,TASK_BEGIN,2,-2.190759986741337,-0.7995124094924928,-4.327459559518348,0.7991202690891194,7.717223636672497,0.7855606009295104,58.68029870617192,-6.943578489626231,2,2024-09-14 18:26:25.759290039,1726338385.7592907,2024-09-14 18:26:25.759290624,6,3,-5.518923923010201,-93.55023117594118,[0. 0. 0. 1.],[1.26995703e-02 1.81443844e-01 8.05628797e-01 2.27788802e-04],"[-0.01597333  0.69261324  0.13278022 -1.0062386  -0.19884434 -0.5405855
  0.          0.          0.2        -0.21597333 -8.350761  ]",1.5613946201893627,0,0
109,135,2024-09-14 18:28:00.799721984,TASK_BEGIN,2,-2.336767624020405,-0.8918688942004076,-4.362762514703816,0.8143861692835579,7.924288168441757,0.7519833071701854,56.93959143584815,-5.72414204073468,2,2024-09-14 18:26:25.818286865,1726338385.8182876,2024-09-14 18:26:25.818287616,6,3,-6.032941655563642,-103.36200848380818,[0. 0. 0. 1.],[4.75128833e-03 2.43689024e-01 7.51531876e-01 2.78116372e-05],"[-0.01444022  0.66005373  0.1604138  -1.0624245  -0.25756615 -0.60703975
  0.          0.          0.2        -0.21444021 -8.090285  ]",1.5627959419768296,0,0
110,136,2024-09-14 18:28:00.857321984,TASK_BEGIN,2,-2.466274828204462,-0.9641753232516738,-4.40158028846241,0.8418174114193175,8.179745068620598,0.7061142242438502,55.16469461607905,-4.509470489109348,2,2024-09-14 18:26:25.818286865,1726338385.8182876,2024-09-14 18:26:25.818287616,6,3,-6.032941655563642,-103.36200848380818,[0. 0. 0. 1.],[4.75128833e-03 2.43689024e-01 7.51531876e-01 2.78116372e-05],"[-0.01444022  0.66005373  0.1604138  -1.0624245  -0.25756615 -0.60703975
  0.          0.          0.2        -0.21444021 -8.090285  ]",1.5627959419768296,0,0
111,137,2024-09-14 18:28:01.785979904,TASK_BEGIN,2,-2.5743478780374893,-1.0144910817496482,-4.442075633297947,0.8805486562461685,8.483110953902239,0.6505369066880412,53.42631087583929,-3.3564486587676363,2,2024-09-14 18:26:26.784286865,1726338386.7842877,2024-09-14 18:26:26.784287744,6,0,-2.1543015442687192,-162.147967107345,[1. 0. 0. 0.],[5.02604167e-04 3.76154651e-04 9.99110869e-01 1.03725697e-05],"[-0.01363564 -0.08179688 -0.07905303 -1.8092173  -0.584189    0.08823952
  0.          0.          0.2        -0.21363564 -2.1554809 ]",1.5669529844819645,0,0
112,138,2024-09-14 18:28:01.854234880,TASK_BEGIN,2,-2.6572648110172032,-1.0420165783157136,-4.483100011126757,0.9293348778157956,8.831478766092806,0.5888113163981589,51.81088226171939,-2.3212721089198087,2,2024-09-14 18:26:26.784286865,1726338386.7842877,2024-09-14 18:26:26.784287744,6,0,-2.1543015442687192,-162.147967107345,[1. 0. 0. 0.],[5.02604167e-04 3.76154651e-04 9.99110869e-01 1.03725697e-05],"[-0.01363564 -0.08179688 -0.07905303 -1.8092173  -0.584189    0.08823952
  0.          0.          0.2        -0.21363564 -2.1554809 ]",1.5669529844819645,0,0
113,139,2024-09-14 18:28:01.916166912,TASK_BEGIN,2,-2.712666041620363,-1.0470320504168231,-4.524024101282638,0.9866626776303158,9.218620063445544,0.5252562852787469,50.41769414069902,-1.4579517330238547,2,2024-09-14 18:26:26.960375000,1726338386.9603758,2024-09-14 18:26:26.960375808,6,0,-2.1549172756116377,-165.26817867475543,[1. 0. 0. 0.],[5.60806392e-05 1.52218602e-05 9.99922968e-01 5.72919466e-06],"[-0.01670504 -0.2600307  -0.07908917 -1.9628541  -0.5577175   0.08823761
  0.          0.          0.2        -0.21670504 -0.7296104 ]",1.5673988210015455,0,0
114,140,2024-09-14 18:28:01.977742848,TASK_BEGIN,2,-2.7395938665340838,-1.0307817177355685,-4.564437015983386,1.0508204944239083,9.63504052543888,0.4646732663731396,49.35122256902517,-0.8150595660135534,2,2024-09-14 18:26:26.989401123,1726338386.9894013,2024-09-14 18:26:26.989401344,6,0,7.844988495214352,-155.77050839279352,[1. 0. 0. 0.],[4.44451883e-05 9.00970033e-06 9.99940609e-01 5.93642705e-06],"[-0.01721636 -0.29113585 -0.07909505 -1.9884604  -0.5533057   0.08823734
  1.          0.          0.2        -0.21721636 -0.4807691 ]",1.568668849004267,1,2
115,141,2024-09-14 18:28:02.055428864,TASK_BEGIN,2,-2.7384542812737847,-0.9953230231359316,-4.603864552839159,1.119909876647007,10.068758915326285,0.4120138652819519,48.71302646596282,-0.4317428389189082,2,2024-09-14 18:26:26.989401123,1726338386.9894013,2024-09-14 18:26:26.989401344,6,0,7.844988495214352,-155.77050839279352,[1. 0. 0. 0.],[4.44451883e-05 9.00970033e-06 9.99940609e-01 5.93642705e-06],"[-0.01721636 -0.29113585 -0.07909505 -1.9884604  -0.5533057   0.08823734
  1.          0.          0.2        -0.21721636 -0.4807691 ]",1.568668849004267,1,2
116,142,2024-09-14 18:28:02.125441792,TASK_BEGIN,2,-2.710909369638434,-0.943359277934331,-4.64163429105832,1.1918233527467046,10.506144658171262,0.3720915722111517,48.595389701957714,-0.3344691237912721,2,2024-09-14 18:26:26.989401123,1726338386.9894013,2024-09-14 18:26:26.989401344,6,0,7.844988495214352,-155.77050839279352,[1. 0. 0. 0.],[4.44451883e-05 9.00970033e-06 9.99940609e-01 5.93642705e-06],"[-0.01721636 -0.29113585 -0.07909505 -1.9884604  -0.5533057   0.08823734
  1.          0.          0.2        -0.21721636 -0.4807691 ]",1.568668849004267,1,2
117,143,2024-09-14 18:28:02.179533824,TASK_BEGIN,2,-2.659711078249896,-0.8780663982775041,-4.676949406169216,1.2642443836223964,10.932264837002174,0.3494758804538959,49.07500266967109,-0.5351404544846925,2,2024-09-14 18:26:26.989401123,1726338386.9894013,2024-09-14 18:26:26.989401344,6,0,7.844988495214352,-155.77050839279352,[1. 0. 0. 0.],[4.44451883e-05 9.00970033e-06 9.99940609e-01 5.93642705e-06],"[-0.01721636 -0.29113585 -0.07909505 -1.9884604  -0.5533057   0.08823734
  1.          0.          0.2        -0.21721636 -0.4807691 ]",1.568668849004267,1,2
118,151,2024-09-14 18:28:04.487187968,TASK_BEGIN,2,-1.8995283860146404,-0.2724646931028518,-4.825356677720435,1.594044483020445,12.109635729515755,1.1856697106131635,71.07748509410128,-9.272025550818176,2,2024-09-14 18:26:29.334681885,1726338389.3346827,2024-09-14 18:26:29.334682624,7,1,-4.2414424414011,-57.40234298541949,[0. 1. 0. 0.],[0.1560632  0.01916207 0.2636136  0.56116113],"[ -0.02290813   0.8713697   -0.20475383  -0.64745927   0.0812877
   0.21018307   0.           0.           0.          -0.02290813
 -10.2769985 ]",1.5473521091433156,0,0
119,152,2024-09-14 18:28:04.540940032,TASK_BEGIN,2,-1.8203355551020657,-0.2225728180240735,-4.822951968880327,1.5848096129559794,11.838003383518403,1.4200001304359071,73.88309154046021,-10.300752661816452,2,2024-09-14 18:26:29.334681885,1726338389.3346827,2024-09-14 18:26:29.334682624,7,1,-4.2414424414011,-57.40234298541949,[0. 1. 0. 0.],[0.1560632  0.01916207 0.2636136  0.56116113],"[ -0.02290813   0.8713697   -0.20475383  -0.64745927   0.0812877
   0.21018307   0.           0.           0.          -0.02290813
 -10.2769985 ]",1.5473521091433156,0,0
120,153,2024-09-14 18:28:04.622899968,TASK_BEGIN,2,-1.7535510838996464,-0.1813890594298848,-4.813972105618886,1.5650025180613292,11.477006829550891,1.67075647309699,76.07431203076628,-11.08743083797922,2,2024-09-14 18:26:29.334681885,1726338389.3346827,2024-09-14 18:26:29.334682624,7,1,-4.2414424414011,-57.40234298541949,[0. 1. 0. 0.],[0.1560632  0.01916207 0.2636136  0.56116113],"[ -0.02290813   0.8713697   -0.20475383  -0.64745927   0.0812877
   0.21018307   0.           0.           0.          -0.02290813
 -10.2769985 ]",1.5473521091433156,0,0
121,154,2024-09-14 18:28:04.680460032,TASK_BEGIN,2,-1.6998225234488145,-0.1482220841868941,-4.797877050219023,1.5362419403441998,11.039542492108795,1.9318361355726412,77.55473300327789,-11.601732087044445,2,2024-09-14 18:26:29.334681885,1726338389.3346827,2024-09-14 18:26:29.334682624,7,1,-4.2414424414011,-57.40234298541949,[0. 1. 0. 0.],[0.1560632  0.01916207 0.2636136  0.56116113],"[ -0.02290813   0.8713697   -0.20475383  -0.64745927   0.0812877
   0.21018307   0.           0.           0.          -0.02290813
 -10.2769985 ]",1.5473521091433156,0,0
122,155,2024-09-14 18:28:04.758075904,TASK_BEGIN,2,-1.6588970487334311,-0.1219961782667653,-4.774414798614746,1.500440977461912,10.541239225227155,2.1971347209791565,78.28815159860964,-11.834839048634954,2,2024-09-14 18:26:29.798099121,1726338389.7980995,2024-09-14 18:26:29.798099456,7,0,-3.698358886776532,-103.77577834840524,[1. 0. 0. 0.],[0.05870558 0.00110275 0.07589883 0.86429284],"[-0.04392998  0.6543596  -0.20420659 -1.0620064   0.24936436  0.21006581
  0.          0.          0.         -0.04392998 -8.540917  ]",1.547911857199923,0,0
123,156,2024-09-14 18:28:04.823820032,TASK_BEGIN,2,-1.629690095154024,-0.1013847783813347,-4.74357127276498,1.459667930001499,9.999344157036548,2.4607526921981218,78.29492141768904,-11.796427439603857,2,2024-09-14 18:26:29.856101074,1726338389.856102,2024-09-14 18:26:29.856101888,7,0,-3.7025362223375566,-109.07668291533022,[1. 0. 0. 0.],[5.17809778e-02 6.82014532e-04 5.88180633e-02 8.88718944e-01],"[-0.04656013  0.6200515  -0.20417544 -1.1132874   0.27037033  0.21005793
  0.          0.          0.         -0.04656013 -8.266453  ]",1.5517325135836102,0,0
124,157,2024-09-14 18:28:04.881871104,TASK_BEGIN,2,-1.610455603524214,-0.0849449477419213,-4.705505913108381,1.4160355447058472,9.432013361168512,2.717111246240281,77.64611535842802,-11.51141748277954,2,2024-09-14 18:26:29.856101074,1726338389.856102,2024-09-14 18:26:29.856101888,7,0,-3.7025362223375566,-109.07668291533022,[1. 0. 0. 0.],[5.17809778e-02 6.82014532e-04 5.88180633e-02 8.88718944e-01],"[-0.04656013  0.6200515  -0.20417544 -1.1132874   0.27037033  0.21005793
  0.          0.          0.         -0.04656013 -8.266453  ]",1.5517325135836102,0,0
125,158,2024-09-14 18:28:05.805936128,TASK_BEGIN,2,-1.5990410331602298,-0.0712448906452258,-4.6606228247134505,1.3716288125660812,8.85770014232493,2.961093732139068,76.4546871363717,-11.017253848560628,2,2024-09-14 18:26:30.856338135,1726338390.8563387,2024-09-14 18:26:30.856338688,7,0,-4.155356909052756,-175.43354835042854,[1. 0. 0. 0.],[1.66768613e-03 4.39471650e-06 2.19985793e-01 7.78342126e-01],"[-0.08423384 -0.20544946 -0.23410858 -1.9953296   0.48141992  0.29141498
  0.          0.          0.         -0.08423384 -1.662445  ]",1.5672725110976982,0,0
126,159,2024-09-14 18:28:05.868002048,TASK_BEGIN,2,-1.593189846530224,-0.058974285534261,-4.609738987186197,1.3284448322977127,8.29423937773627,3.188331492443665,74.86163327055435,-10.360228046213358,2,2024-09-14 18:26:30.914339111,1726338390.9143395,2024-09-14 18:26:30.914339584,7,0,-4.156157462237502,-180.21278031561422,[1. 0. 0. 0.],[1.58261507e-03 3.61881054e-06 1.21132537e-01 8.77281229e-01],"[-0.08722425 -0.2687971  -0.23399632 -2.046672    0.5105599   0.2913939
  0.          0.          0.         -0.08722425 -1.1556638 ]",1.5676513993678778,1,1
127,160,2024-09-14 18:28:05.947417856,TASK_BEGIN,2,-1.59082592007004,-0.047026004503327,-4.554200066226915,1.2883128814594875,7.757705605928021,3.3955696128886714,73.01845940408127,-9.589981237871273,2,2024-09-14 18:26:30.914339111,1726338390.9143395,2024-09-14 18:26:30.914339584,7,0,-4.156157462237502,-180.21278031561422,[1. 0. 0. 0.],[1.58261507e-03 3.61881054e-06 1.21132537e-01 8.77281229e-01],"[-0.08722425 -0.2687971  -0.23399632 -2.046672    0.5105599   0.2913939
  0.          0.          0.         -0.08722425 -1.1556638 ]",1.5676513993678778,1,1
128,161,2024-09-14 18:28:06.007785984,TASK_BEGIN,2,-1.5902493179409478,-0.0345452233001605,-4.495889225457261,1.2527957167550547,7.261728264332059,3.580886341991248,71.07066631767943,-8.7538388542293,2,2024-09-14 18:26:30.914339111,1726338390.9143395,2024-09-14 18:26:30.914339584,7,0,-4.156157462237502,-180.21278031561422,[1. 0. 0. 0.],[1.58261507e-03 3.61881054e-06 1.21132537e-01 8.77281229e-01],"[-0.08722425 -0.2687971  -0.23399632 -2.046672    0.5105599   0.2913939
  0.          0.          0.         -0.08722425 -1.1556638 ]",1.5676513993678778,1,1
129,162,2024-09-14 18:28:06.082993920,TASK_BEGIN,2,-1.590216729307153,-0.0209508859855871,-4.437157232562826,1.223097613685016,6.817894552563858,3.743618249212105,69.14608552832539,-7.893093786223905,2,2024-09-14 18:26:30.914339111,1726338390.9143395,2024-09-14 18:26:30.914339584,7,0,-4.156157462237502,-180.21278031561422,[1. 0. 0. 0.],[1.58261507e-03 3.61881054e-06 1.21132537e-01 8.77281229e-01],"[-0.08722425 -0.2687971  -0.23399632 -2.046672    0.5105599   0.2913939
  0.          0.          0.         -0.08722425 -1.1556638 ]",1.5676513993678778,1,1
130,163,2024-09-14 18:28:06.150672128,TASK_BEGIN,2,-1.5899330702879453,-0.0059349940912284,-4.380691480041195,1.200005905868264,6.436976437186503,3.884049338179616,67.34852048031766,-7.041615811955131,2,2024-09-14 18:26:30.914339111,1726338390.9143395,2024-09-14 18:26:30.914339584,7,0,-4.156157462237502,-180.21278031561422,[1. 0. 0. 0.],[1.58261507e-03 3.61881054e-06 1.21132537e-01 8.77281229e-01],"[-0.08722425 -0.2687971  -0.23399632 -2.046672    0.5105599   0.2913939
  0.          0.          0.         -0.08722425 -1.1556638 ]",1.5676513993678778,1,1
131,164,2024-09-14 18:28:06.218563072,TASK_BEGIN,2,-1.588990401104502,0.0105591382977944,-4.329365424330171,1.183890283336178,6.129877319579479,4.00303453319731,65.75542520617152,-6.226099445642648,2,2024-09-14 18:26:30.914339111,1726338390.9143395,2024-09-14 18:26:30.914339584,7,0,-4.156157462237502,-180.21278031561422,[1. 0. 0. 0.],[1.58261507e-03 3.61881054e-06 1.21132537e-01 8.77281229e-01],"[-0.08722425 -0.2687971  -0.23399632 -2.046672    0.5105599   0.2913939
  0.          0.          0.         -0.08722425 -1.1556638 ]",1.5676513993678778,1,1
132,172,2024-09-14 18:28:08.511483904,TASK_BEGIN,2,-1.5593876015798576,0.1591959368250622,-4.429159256307607,1.2815904521875603,7.024060042413348,4.348125025886801,61.92094945981408,-2.416404836499523,2,2024-09-14 18:26:33.517051025,1726338393.5170517,2024-09-14 18:26:33.517051648,8,1,-3.8670467785197733,-67.83859707627808,[0. 1. 0. 0.],[0.09220046 0.00849179 0.3735782  0.52572955],"[ 0.01345531  0.74511886 -0.04499246 -0.91628915  0.02582162  0.26252815
  0.          0.          0.          0.01345531 -9.759955  ]",1.5377355532865575,0,0
133,173,2024-09-14 18:28:08.579433728,TASK_BEGIN,2,-1.5518417602149586,0.1742799760642336,-4.526401877943976,1.3153339187374666,7.493289828365744,4.341212996376998,61.98930145941701,-2.241601268569728,2,2024-09-14 18:26:33.517051025,1726338393.5170517,2024-09-14 18:26:33.517051648,8,1,-3.8670467785197733,-67.83859707627808,[0. 1. 0. 0.],[0.09220046 0.00849179 0.3735782  0.52572955],"[ 0.01345531  0.74511886 -0.04499246 -0.91628915  0.02582162  0.26252815
  0.          0.          0.          0.01345531 -9.759955  ]",1.5377355532865575,0,0
134,174,2024-09-14 18:28:08.644350976,TASK_BEGIN,2,-1.5424117220368443,0.1876134423335574,-4.638459854685024,1.3512708809144591,8.001845065974916,4.329319014846294,61.97473918055885,-2.105898840675252,2,2024-09-14 18:26:33.517051025,1726338393.5170517,2024-09-14 18:26:33.517051648,8,1,-3.8670467785197733,-67.83859707627808,[0. 1. 0. 0.],[0.09220046 0.00849179 0.3735782  0.52572955],"[ 0.01345531  0.74511886 -0.04499246 -0.91628915  0.02582162  0.26252815
  0.          0.          0.          0.01345531 -9.759955  ]",1.5377355532865575,0,0
135,175,2024-09-14 18:28:08.706891008,TASK_BEGIN,2,-1.5306496773446832,0.1990191891905788,-4.761470972733699,1.388224844788713,8.535593876102276,4.313839397056647,61.81902840057697,-2.005542307304577,2,2024-09-14 18:26:33.517051025,1726338393.5170517,2024-09-14 18:26:33.517051648,8,1,-3.8670467785197733,-67.83859707627808,[0. 1. 0. 0.],[0.09220046 0.00849179 0.3735782  0.52572955],"[ 0.01345531  0.74511886 -0.04499246 -0.91628915  0.02582162  0.26252815
  0.          0.          0.          0.01345531 -9.759955  ]",1.5377355532865575,0,0
136,176,2024-09-14 18:28:08.782650880,TASK_BEGIN,2,-1.5161058920388175,0.208364013925382,-4.891177535636524,1.4249270874490163,9.081076757939034,4.296109881947762,61.46727371166333,-1.9385918835496083,2,2024-09-14 18:26:33.517051025,1726338393.5170517,2024-09-14 18:26:33.517051648,8,1,-3.8670467785197733,-67.83859707627808,[0. 1. 0. 0.],[0.09220046 0.00849179 0.3735782  0.52572955],"[ 0.01345531  0.74511886 -0.04499246 -0.91628915  0.02582162  0.26252815
  0.          0.          0.          0.01345531 -9.759955  ]",1.5377355532865575,0,0
137,177,2024-09-14 18:28:08.846151168,TASK_BEGIN,2,-1.498400891485964,0.2155694820467997,-5.023214041741063,1.4600804647825298,9.625359361046655,4.277664495705981,60.86915577804821,-1.9044696968677517,2,2024-09-14 18:26:33.517051025,1726338393.5170517,2024-09-14 18:26:33.517051648,8,1,-3.8670467785197733,-67.83859707627808,[0. 1. 0. 0.],[0.09220046 0.00849179 0.3735782  0.52572955],"[ 0.01345531  0.74511886 -0.04499246 -0.91628915  0.02582162  0.26252815
  0.          0.          0.          0.01345531 -9.759955  ]",1.5377355532865575,0,0
138,178,2024-09-14 18:28:08.908154112,TASK_BEGIN,2,-1.4773259614541778,0.2206287625998986,-5.153349404553082,1.49243702589422,10.15605716833413,4.260320079956284,59.980961900340255,-1.9029343016812064,2,2024-09-14 18:26:33.964164062,1726338393.9641643,2024-09-14 18:26:33.964164352,8,1,-3.1140959895049694,-103.32668282755469,[0. 1. 0. 0.],[0.05310404 0.00436517 0.76309583 0.17943496],"[ 0.01523177  0.48363268  0.02980762 -1.2926323   0.13207015  0.08756579
  0.          0.          0.          0.01523177 -7.6680665 ]",1.5388364345943488,0,0
139,179,2024-09-14 18:28:09.853372160,TASK_BEGIN,2,-1.4529452778759036,0.2236237770387156,-5.277746285494823,1.5208925552821593,10.661796687694263,4.246041363489407,58.76777785432526,-1.9326689966907808,2,2024-09-14 18:26:34.812131836,1726338394.8121328,2024-09-14 18:26:34.812132864,8,0,-3.351594165963334,-68.3041229948922,[1. 0. 0. 0.],[0.06971373 0.00082682 0.22812606 0.70133339],"[-0.01029587  0.01733673 -0.2818486  -0.89665765  0.33135304  0.14447
  0.          0.          0.         -0.01029587 -3.9376986 ]",1.556459377956557,0,0
140,180,2024-09-14 18:28:09.929372160,TASK_BEGIN,2,-1.4256678445273263,0.2247342893477735,-5.393272064561404,1.5446035645600635,11.132969426777615,4.236706687807079,57.20599561922853,-1.9898334345932505,2,2024-09-14 18:26:34.812131836,1726338394.8121328,2024-09-14 18:26:34.812132864,8,0,-3.351594165963334,-68.3041229948922,[1. 0. 0. 0.],[0.06971373 0.00082682 0.22812606 0.70133339],"[-0.01029587  0.01733673 -0.2818486  -0.89665765  0.33135304  0.14447
  0.          0.          0.         -0.01029587 -3.9376986 ]",1.556459377956557,0,0
141,181,2024-09-14 18:28:09.992121856,TASK_BEGIN,2,-1.396259483976645,0.2242319567887562,-5.497788359818431,1.563111903646813,11.562475222105736,4.233872077094089,55.28566127084434,-2.0667150656465245,2,2024-09-14 18:26:35.047028076,1726338395.0470288,2024-09-14 18:26:35.047028736,8,2,-2.0120549703614925,-60.76601760961675,[0. 0. 1. 0.],[3.22143115e-02 4.63275501e-04 1.78923262e-01 7.88399151e-01],"[-0.03689575 -0.06310385 -0.68027    -0.43243253  0.38794503  0.13567322
  0.          0.          0.         -0.03689575 -3.294174  ]",1.5628293910519648,0,0
142,182,2024-09-14 18:28:10.064873984,TASK_BEGIN,2,-1.3657812867343848,0.2224578487956156,-5.590228490516493,1.576427806808162,11.946267235572485,4.238555454424408,53.01151233450007,-2.1509544082213354,2,2024-09-14 18:26:35.108180908,1726338395.1081817,2024-09-14 18:26:35.108181760,8,2,-3.246570661212405,-65.87165081964761,[0. 0. 1. 0.],[2.70673408e-02 3.24559424e-04 8.31141590e-02 8.89493941e-01],"[-0.04737592 -0.07305098 -0.79487246 -0.2690808   0.40182152  0.14204445
  0.          0.          0.         -0.04737592 -3.214597  ]",1.5647875710016002,0,0
143,183,2024-09-14 18:28:10.130432000,TASK_BEGIN,2,-1.3354659772432829,0.2197894984422796,-5.670305370525769,1.58501880321568,12.283676808740775,4.251066411984493,50.40269608386076,-2.226069937632777,2,2024-09-14 18:26:35.138489014,1726338395.138489,2024-09-14 18:26:35.138489088,8,2,-5.918101824359286,-71.13103613581042,[0. 0. 1. 0.],[2.45032858e-02 2.43057128e-04 2.32084503e-02 9.52045207e-01],"[-0.05328345 -0.07608664 -0.8601434  -0.19697495  0.40886804  0.14093061
  0.          0.          0.         -0.05328345 -3.1903117 ]",1.565034512357958,0,0
144,184,2024-09-14 18:28:10.200431872,TASK_BEGIN,2,-1.3065617910673462,0.2166082544120426,-5.737928658636733,1.5896976578424746,12.577560349708133,4.270943877922223,47.49262454939221,-2.273293660577198,2,2024-09-14 18:26:35.228059082,1726338395.2280588,2024-09-14 18:26:35.228058880,8,2,-11.169565417433677,-89.63703266634464,[0. 0. 1. 0.],[1.19636951e-02 6.67685170e-05 1.55411587e-03 9.86415421e-01],"[-0.073282   -0.07865649 -1.0392323   0.0105926   0.43081787  0.14407556
  0.          0.          0.         -0.073282   -3.1697528 ]",1.5650778787719923,0,0
145,185,2024-09-14 18:28:10.268126976,TASK_BEGIN,2,-1.2801749119357266,0.2132756986926587,-5.792631208430267,1.5914553845062525,12.834194853869697,4.297065859311667,44.330140466601065,-2.2740181121272016,2,2024-09-14 18:26:35.315062012,1726338395.3150628,2024-09-14 18:26:35.315062784,8,2,-7.543272235769467,-105.64671753660517,[0. 0. 1. 0.],[2.90681233e-03 8.30384849e-06 3.14494286e-04 9.96770390e-01],"[-0.09647012 -0.072896   -1.1577471   0.18666722  0.45386747  0.1644738
  0.          0.          0.         -0.09647012 -3.2158368 ]",1.5651602927796893,0,0
146,186,2024-09-14 18:28:11.211656960,TASK_BEGIN,2,-1.2571348562930575,0.210120618551088,-5.833298167979243,1.5912993826839288,13.062677195422047,4.327911173439239,40.98167040728656,-2.2125243597696134,2,2024-09-14 18:26:35.579062012,1726338395.5790627,2024-09-14 18:26:35.579062784,8,2,-5.80409562329952,-185.6365267061831,[0. 0. 1. 0.],[3.76295416e-05 2.39215841e-08 3.75701225e-07 9.99961971e-01],"[-1.9214773e-01  1.6840696e-03 -1.7564430e+00  7.5403839e-01
  5.2402371e-01  1.7283083e-01  0.0000000e+00  0.0000000e+00
  0.0000000e+00 -1.9214773e-01 -3.8124774e+00]",1.5678075436732613,0,0
147,187,2024-09-14 18:28:11.277188096,TASK_BEGIN,2,-1.237903026398728,0.2074306472784151,-5.858295536587115,1.5901304501450653,13.27376180652907,4.361810971977422,37.532242101428686,-2.078773043835545,2,2024-09-14 18:26:35.579062012,1726338395.5790627,2024-09-14 18:26:35.579062784,8,2,-5.80409562329952,-185.6365267061831,[0. 0. 1. 0.],[3.76295416e-05 2.39215841e-08 3.75701225e-07 9.99961971e-01],"[-1.9214773e-01  1.6840696e-03 -1.7564430e+00  7.5403839e-01
  5.2402371e-01  1.7283083e-01  0.0000000e+00  0.0000000e+00
  0.0000000e+00 -1.9214773e-01 -3.8124774e+00]",1.5678075436732613,0,0
148,188,2024-09-14 18:28:11.335149824,TASK_BEGIN,2,-1.222537244444563,0.2054410180580331,-5.865901604063107,1.5886657584754205,13.478523907510445,4.397017562535871,34.081869867602165,-1.869970629388736,2,2024-09-14 18:26:35.609057861,1726338395.6090584,2024-09-14 18:26:35.609058304,8,0,-1.078106745575269,-184.85826818469653,[1. 0. 0. 0.],[2.89629789e-05 1.49326898e-08 2.65813437e-07 9.99970756e-01],"[-0.20426941  0.01313162 -1.7564219   0.72841406  0.53266513  0.17282864
  0.          0.          0.         -0.20426941 -3.9040577 ]",1.5648276016345912,0,0
149,189,2024-09-14 18:28:11.411928064,TASK_BEGIN,2,-1.2107134529819277,0.2043190709160521,-5.854832815796548,1.587404414989492,13.687305387645411,4.431610846329374,30.735352531539583,-1.5894844386038198,2,2024-09-14 18:26:35.696060791,1726338395.696061,2024-09-14 18:26:35.696060928,8,0,-1.1677568477408045,-182.7470984659147,[1. 0. 0. 0.],[2.40186032e-05 1.30083030e-08 1.47517651e-07 9.99975821e-01],"[-0.24063595  0.04507744 -1.7563567   0.65154177  0.55858886  0.17282203
  0.          0.          0.         -0.24063595 -4.1596246 ]",1.5577806558474607,0,0
150,190,2024-09-14 18:28:11.473556224,TASK_BEGIN,2,-1.201798566859869,0.2041514365605836,-5.82459265356164,1.586618342054953,13.909040363769972,4.46342208054185,27.588429239916323,-1.2437018932606556,2,2024-09-14 18:26:35.754093994,1726338395.7540944,2024-09-14 18:26:35.754094336,8,0,-1.2297438259046203,-181.52673686658892,[1. 0. 0. 0.],[2.19893589e-05 1.14862941e-08 9.73057416e-08 9.99977902e-01],"[-0.26488152  0.06437755 -1.7563118   0.60029405  0.5758708   0.17281774
  0.          0.          0.         -0.26488152 -4.3140254 ]",1.550762171134313,0,0
151,191,2024-09-14 18:28:11.550618880,TASK_BEGIN,2,-1.194958858186698,0.2049415924506495,-5.775484677559303,1.5863526312637726,14.150779176041834,4.490125060094763,24.71633883847681,-0.8391672481164311,2,2024-09-14 18:26:36.602058838,1726338396.6020598,2024-09-14 18:26:36.602059776,8,1,-1.4123045524656368,-120.28431781842313,[0. 1. 0. 0.],[2.12767101e-03 1.51524921e-05 4.04243184e-04 9.97452933e-01],"[-0.5956713   0.18666816 -1.6396617  -0.07469814  0.27521056 -0.20645206
  0.          0.          0.         -0.5956713  -5.2923503 ]",1.5378386880064718,0,0
152,192,2024-09-14 18:28:11.618370048,TASK_BEGIN,2,-1.189278308414967,0.2066182015412819,-5.708445334487794,1.5864514032947057,14.417174288086118,4.509548808046821,22.16874145424514,-0.3817192137648486,2,2024-09-14 18:26:36.660059814,1726338396.6600606,2024-09-14 18:26:36.660060672,8,1,-1.8998453417475025,-121.22775994897255,[0. 1. 0. 0.],[2.75426747e-03 1.40691247e-05 4.72740767e-04 9.96758923e-01],"[-0.61883885  0.1829524  -1.6628759  -0.13070141  0.25871694 -0.14943191
  0.          0.          0.         -0.61883885 -5.2626243 ]",1.5607223042596263,0,0
153,193,2024-09-14 18:28:12.532434944,TASK_BEGIN,2,-1.1838721359527653,0.2090494749676196,-5.625000040433228,1.5866336738530114,14.70983178910465,4.520162691652634,19.9712356235686,0.1223988669042564,2,2024-09-14 18:26:36.926059082,1726338396.9260595,2024-09-14 18:26:36.926059520,8,1,-4.298900351932227,-139.28899030622668,[0. 1. 0. 0.],[3.78450203e-03 1.12344619e-06 1.54651785e-04 9.96059723e-01],"[-0.7273607   0.14496636 -1.7997389  -0.38178128  0.27317557  0.17789903
  0.          0.          0.         -0.7273607  -4.958736  ]",1.568721331557319,1,2
154,194,2024-09-14 18:28:12.594923008,TASK_BEGIN,2,-1.1779982245541474,0.2120601880011596,-5.527437279293805,1.5866040795143386,15.026784521602318,4.521539006359901,18.13156257307992,0.6645802905989093,2,2024-09-14 18:26:36.926059082,1726338396.9260595,2024-09-14 18:26:36.926059520,8,1,-4.298900351932227,-139.28899030622668,[0. 1. 0. 0.],[3.78450203e-03 1.12344619e-06 1.54651785e-04 9.96059723e-01],"[-0.7273607   0.14496636 -1.7997389  -0.38178128  0.27317557  0.17789903
  0.          0.          0.         -0.7273607  -4.958736  ]",1.568721331557319,1,2
155,195,2024-09-14 18:28:12.656461056,TASK_BEGIN,2,-1.1711576307993958,0.2154492241144664,-5.419030464363043,1.5861462893996554,15.36258414696917,4.514538698832,16.647750946574646,1.23215380621529,2,2024-09-14 18:26:36.926059082,1726338396.9260595,2024-09-14 18:26:36.926059520,8,1,-4.298900351932227,-139.28899030622668,[0. 1. 0. 0.],[3.78450203e-03 1.12344619e-06 1.54651785e-04 9.96059723e-01],"[-0.7273607   0.14496636 -1.7997389  -0.38178128  0.27317557  0.17789903
  0.          0.          0.         -0.7273607  -4.958736  ]",1.568721331557319,1,2
156,196,2024-09-14 18:28:12.739614976,TASK_BEGIN,2,-1.1631560718305978,0.2190048180599751,-5.304077471128455,1.5851529012824872,15.709246071255343,4.501105524457674,15.515850132318436,1.807253294822569,2,2024-09-14 18:26:37.015062012,1726338397.0150626,2024-09-14 18:26:37.015062528,8,0,-2.7456496164412556,-143.20766773036283,[1. 0. 0. 0.],[4.72888754e-03 1.37952551e-06 5.17841871e-05 9.95217949e-01],"[-0.7645954   0.12478197 -1.7997018  -0.45866734  0.2998596   0.17789131
  0.          0.          0.         -0.7645954  -4.7972608 ]",1.568698461349809,1,2
157,197,2024-09-14 18:28:12.795460864,TASK_BEGIN,2,-1.1541190450058063,0.2225177817079472,-5.187624157537123,1.5835836009794784,16.057702337474755,4.483756128148206,14.735776165047318,2.3660342746675784,2,2024-09-14 18:26:37.572057129,1726338397.572058,2024-09-14 18:26:37.572057856,8,0,-0.21465155240912281,-118.67422165542774,[1. 0. 0. 0.],[1.29057620e-02 1.57748212e-05 9.20216740e-01 6.68617233e-02],"[-0.9856472  -0.07996196 -1.549737   -0.8985471   0.15383697 -0.43152443
  0.          0.          0.         -0.9856472  -3.1593091 ]",1.5653621935744089,1,2
158,198,2024-09-14 18:28:12.873194752,TASK_BEGIN,2,-1.1444817866688002,0.2257962882424165,-5.074876552066742,1.5813852571837552,16.399162332024982,4.464938757683822,14.314025337749705,2.8785847504714748,2,2024-09-14 18:26:37.572057129,1726338397.572058,2024-09-14 18:26:37.572057856,8,0,-0.21465155240912281,-118.67422165542774,[1. 0. 0. 0.],[1.29057620e-02 1.57748212e-05 9.20216740e-01 6.68617233e-02],"[-0.9856472  -0.07996196 -1.549737   -0.8985471   0.15383697 -0.43152443
  0.          0.          0.         -0.9856472  -3.1593091 ]",1.5653621935744089,1,2
159,199,2024-09-14 18:28:12.942998784,TASK_BEGIN,2,-1.134955061446888,0.2286818225763994,-4.970465222622473,1.5784348232270666,16.726100596714495,4.446387086635934,14.262702057038943,3.3106530064002864,2,2024-09-14 18:26:37.572057129,1726338397.572058,2024-09-14 18:26:37.572057856,8,0,-0.21465155240912281,-118.67422165542774,[1. 0. 0. 0.],[1.29057620e-02 1.57748212e-05 9.20216740e-01 6.68617233e-02],"[-0.9856472  -0.07996196 -1.549737   -0.8985471   0.15383697 -0.43152443
  0.          0.          0.         -0.9856472  -3.1593091 ]",1.5653621935744089,1,2
160,205,2024-09-14 18:28:14.225265152,TASK_BEGIN,2,-1.127938477678878,0.2347850428747198,-4.64155365909775,1.5430147100824907,18.239233791697416,4.26614957951196,22.047651004204784,2.777868568075264,2,2024-09-14 18:26:39.274128906,1726338399.2741299,2024-09-14 18:26:39.274129920,9,0,-1.2718954859499547,-1.9638570462173637,[1. 0. 0. 0.],[0.34091508 0.38642678 0.13138033 0.14127781],"[ 3.8137436e-03  1.0006769e+00  1.8822040e-01 -7.3391780e-02
 -1.0893751e-02 -7.1512893e-02  0.0000000e+00  0.0000000e+00
  0.0000000e+00  3.8137436e-03 -1.2041703e+01]",1.5009656343453242,0,0
161,206,2024-09-14 18:28:14.284772096,TASK_BEGIN,2,-1.1393528730127145,0.2341431090606359,-4.648207489477134,1.5373849966912596,18.430934270025897,4.190693688296838,24.446934456844755,2.132072099012201,2,2024-09-14 18:26:39.334126953,1726338399.3341277,2024-09-14 18:26:39.334127616,9,0,-1.7945718356144198,-5.257666626715331,[1. 0. 0. 0.],[0.35317055 0.36151679 0.13470199 0.15061067],"[ 6.35687495e-03  9.97184157e-01  1.88314855e-01 -1.24625094e-01
 -1.80395711e-02 -7.14680403e-02  0.00000000e+00  0.00000000e+00
  0.00000000e+00  6.35687495e-03 -1.20137615e+01]",1.5023819872982096,0,0
162,207,2024-09-14 18:28:15.223491840,TASK_BEGIN,2,-1.1534503621419274,0.2330414044182957,-4.6768708732508655,1.533429941222119,18.609896374361227,4.091578208903024,26.951993347248138,1.377699625324175,2,2024-09-14 18:26:40.267093018,1726338400.2670932,2024-09-14 18:26:40.267093248,9,0,-2.9927585805041304,-81.44257455005004,[1. 0. 0. 0.],[0.08274579 0.12706099 0.77002657 0.02016665],"[ 0.04713122  0.72279704  0.18864077 -0.94844    -0.13292122 -0.07107709
  0.          0.          0.          0.04713122 -9.818665  ]",1.5268648444669661,0,0
163,208,2024-09-14 18:28:15.300241920,TASK_BEGIN,2,-1.168984133566258,0.2313567250373607,-4.728080583599133,1.5315252553166956,18.77321737259464,3.966367472779179,29.43685430158136,0.5491119243289511,2,2024-09-14 18:26:40.354131104,1726338400.3541315,2024-09-14 18:26:40.354131456,9,0,-2.999943564024136,-87.92707742615993,[1. 0. 0. 0.],[0.05347886 0.07664702 0.85381784 0.01605628],"[ 0.05095426  0.6759608   0.18863793 -1.0252541  -0.14358273 -0.0710767
  0.          0.          0.          0.05095426 -9.4439745 ]",1.5301624647570606,0,0
164,209,2024-09-14 18:28:15.361430016,TASK_BEGIN,2,-1.1844068416903049,0.2288797704087331,-4.80030602122762,1.5317341022769375,18.91524202524964,3.813725916696991,31.76743406532125,-0.316612118533389,2,2024-09-14 18:26:40.412092041,1726338400.4120927,2024-09-14 18:26:40.412092672,9,0,-3.003908957091298,-92.15322335338155,[1. 0. 0. 0.],[0.0556097  0.07027258 0.85689248 0.01722524],"[ 0.05350288  0.64273727  0.18863592 -1.0764635  -0.15069038 -0.07107646
  0.          0.          0.          0.05350288 -9.178186  ]",1.53168817779815,0,0
165,210,2024-09-14 18:28:15.439087872,TASK_BEGIN,2,-1.197991792794966,0.2253249561634016,-4.889460452460336,1.533737217424781,19.028235498078157,3.6332632890461536,33.81456745408618,-1.1826721451119346,2,2024-09-14 18:26:40.470125000,1726338400.470126,2024-09-14 18:26:40.470125824,9,0,-3.007380100016576,-96.3024162757153,[1. 0. 0. 0.],[0.05315133 0.06170179 0.86709669 0.01805019],"[ 0.05605165  0.6079142   0.18863378 -1.1276729  -0.15779798 -0.07107622
  0.          0.          0.          0.05605165 -8.899602  ]",1.532187492423379,0,0
166,211,2024-09-14 18:28:15.507590144,TASK_BEGIN,2,-1.2080018763417857,0.2203578639056481,-4.988900129826365,1.5368189947120094,19.103221396477178,3.425355945688528,35.47114540352548,-2.016338981153795,2,2024-09-14 18:26:40.557094971,1726338400.5570958,2024-09-14 18:26:40.557095680,9,0,-3.0117829688477116,-102.38329988929544,[1. 0. 0. 0.],[0.04321275 0.0469163  0.89195725 0.0179137 ],"[ 0.05987493  0.5526805   0.18863037 -1.204487   -0.16845933 -0.07107566
  0.          0.          0.          0.05987493 -8.457732  ]",1.5340686394226126,0,0
167,212,2024-09-14 18:28:15.575475200,TASK_BEGIN,2,-1.212889321018138,0.2136382502409488,-5.089906577594534,1.5399465931601757,19.13078926966289,3.1910384723564604,36.668944163996144,-2.792389608827625,2,2024-09-14 18:26:40.615096191,1726338400.6150966,2024-09-14 18:26:40.615096576,9,0,-3.014291680684636,-106.34311216733711,[1. 0. 0. 0.],[0.03504023 0.03558443 0.91269318 0.01668216],"[ 0.06242394  0.51385844  0.18862797 -1.2556964  -0.1755669  -0.07107534
  0.          0.          0.          0.06242394 -8.147156  ]",1.5365845796840285,0,0
168,213,2024-09-14 18:28:15.643180032,TASK_BEGIN,2,-1.2114674917175317,0.2048714634198933,-5.182528970286971,1.5419287528520975,19.101809201487857,2.9319621556530917,37.390212761951744,-3.494909738279456,2,2024-09-14 18:26:40.644126953,1726338400.644128,2024-09-14 18:26:40.644128000,9,0,-3.015422566929999,-108.29510361259373,[1. 0. 0. 0.],[0.03194517 0.03119278 0.92070116 0.01616089],"[ 0.06369837  0.4938476   0.18862674 -1.2813011  -0.17912067 -0.07107577
  0.          0.          0.          0.06369837 -7.9870696 ]",1.5377067030097606,0,0
169,214,2024-09-14 18:28:16.573989888,TASK_BEGIN,2,-1.2029975098750605,0.1938561683387575,-5.256549007994224,1.5415893744908422,19.00802996591724,2.650415020325048,37.67087222970065,-4.116974216097384,2,2024-09-14 18:26:41.404128906,1726338401.404129,2024-09-14 18:26:41.404129024,9,2,-4.320671491238374,-98.39184576757184,[0. 0. 1. 0.],[0.17141657 0.81329043 0.00105739 0.01423561],"[ 0.16767605  0.3666607   0.9191062   0.5834895  -0.282017   -0.12019347
  0.          0.          0.          0.16767605 -6.9695745 ]",1.5599424773107542,0,0
170,215,2024-09-14 18:28:16.654799104,TASK_BEGIN,2,-1.187184103983793,0.1805193299086257,-5.302319632313443,1.537892788480445,18.842535240192323,2.3494065304857727,37.5944460268566,-4.658846431568636,2,2024-09-14 18:26:41.404128906,1726338401.404129,2024-09-14 18:26:41.404129024,9,2,-4.320671491238374,-98.39184576757184,[0. 0. 1. 0.],[0.17141657 0.81329043 0.00105739 0.01423561],"[ 0.16767605  0.3666607   0.9191062   0.5834895  -0.282017   -0.12019347
  0.          0.          0.          0.16767605 -6.9695745 ]",1.5599424773107542,0,0
171,216,2024-09-14 18:28:16.712792064,TASK_BEGIN,2,-1.164124439461417,0.1649389001386047,-5.311395115256005,1.5300098737530732,18.600097684736717,2.032761499360672,37.2786435673373,-5.125989598453804,2,2024-09-14 18:26:41.404128906,1726338401.404129,2024-09-14 18:26:41.404129024,9,2,-4.320671491238374,-98.39184576757184,[0. 0. 1. 0.],[0.17141657 0.81329043 0.00105739 0.01423561],"[ 0.16767605  0.3666607   0.9191062   0.5834895  -0.282017   -0.12019347
  0.          0.          0.          0.16767605 -6.9695745 ]",1.5599424773107542,0,0
172,217,2024-09-14 18:28:16.791094016,TASK_BEGIN,2,-1.134260985779758,0.1473581153598608,-5.277049252026691,1.5173604141181474,18.27758512737832,1.7051427494076212,36.85823347816677,-5.527652442828772,2,2024-09-14 18:26:41.404128906,1726338401.404129,2024-09-14 18:26:41.404129024,9,2,-4.320671491238374,-98.39184576757184,[0. 0. 1. 0.],[0.17141657 0.81329043 0.00105739 0.01423561],"[ 0.16767605  0.3666607   0.9191062   0.5834895  -0.282017   -0.12019347
  0.          0.          0.          0.16767605 -6.9695745 ]",1.5599424773107542,0,0
173,218,2024-09-14 18:28:16.858262016,TASK_BEGIN,2,-1.0983538735789613,0.128188685399217,-5.1948253956527815,1.499666146565099,17.874598419951695,1.3719807707718117,36.46727983059289,-5.87545075001198,2,2024-09-14 18:26:41.404128906,1726338401.404129,2024-09-14 18:26:41.404129024,9,2,-4.320671491238374,-98.39184576757184,[0. 0. 1. 0.],[0.17141657 0.81329043 0.00105739 0.01423561],"[ 0.16767605  0.3666607   0.9191062   0.5834895  -0.282017   -0.12019347
  0.          0.          0.          0.16767605 -6.9695745 ]",1.5599424773107542,0,0
174,219,2024-09-14 18:28:16.926074880,TASK_BEGIN,2,-1.0574484681895897,0.1079941463803452,-5.063171123554732,1.4770160672806791,17.394297002566933,1.0393684323093666,36.22265146493735,-6.180895150219008,2,2024-09-14 18:26:41.404128906,1726338401.404129,2024-09-14 18:26:41.404129024,9,2,-4.320671491238374,-98.39184576757184,[0. 0. 1. 0.],[0.17141657 0.81329043 0.00105739 0.01423561],"[ 0.16767605  0.3666607   0.9191062   0.5834895  -0.282017   -0.12019347
  0.          0.          0.          0.16767605 -6.9695745 ]",1.5599424773107542,0,0
175,220,2024-09-14 18:28:16.993858048,TASK_BEGIN,2,-1.0128089675281031,0.0874469969654956,-4.88401180926083,1.4499133571616467,16.843998762351344,0.7140042198201719,36.21064952118225,-6.452032201526654,2,2024-09-14 18:26:41.404128906,1726338401.404129,2024-09-14 18:26:41.404129024,9,2,-4.320671491238374,-98.39184576757184,[0. 0. 1. 0.],[0.17141657 0.81329043 0.00105739 0.01423561],"[ 0.16767605  0.3666607   0.9191062   0.5834895  -0.282017   -0.12019347
  0.          0.          0.          0.16767605 -6.9695745 ]",1.5599424773107542,0,0
176,221,2024-09-14 18:28:17.907916032,TASK_BEGIN,2,-0.9658137840786948,0.0672614923886375,-4.662975670983228,1.4192643725105845,16.2351386428995,0.4031854540361909,36.47891316915423,-6.690695176152221,2,2024-09-14 18:26:42.891285889,1726338402.8912866,2024-09-14 18:26:42.891286528,9,1,-8.439646623088416,-110.37138974448715,[0. 1. 0. 0.],[8.98881768e-04 1.91495241e-06 1.83112886e-03 9.97268074e-01],"[ 0.42808247  0.32222474  0.4083143  -0.7367851   0.71841204  1.1460196
  0.          0.          0.          0.42808247 -6.6140866 ]",1.5649395290935313,0,0
177,222,2024-09-14 18:28:17.979995904,TASK_BEGIN,2,-0.9178410615379826,0.048113950417091,-4.4090504090143705,1.3862858453286873,15.582659811808776,0.1147523575639977,37.034814660845775,-6.891820376569121,2,2024-09-14 18:26:43.036334961,1726338403.036336,2024-09-14 18:26:43.036335872,9,1,-9.805968540335934,-150.2243103170812,[0. 1. 0. 0.],[5.83747832e-04 1.90417951e-07 5.87483798e-05 9.99357313e-01],"[ 0.4434913   0.26052308  0.36982128 -0.9034154   1.0301739   1.320637
  0.          0.          0.          0.4434913  -6.1204734 ]",1.565625882746491,0,0
178,223,2024-09-14 18:28:18.046521088,TASK_BEGIN,2,-0.8701871541876119,0.0305678192862649,-4.133645654079323,1.3523298193806763,14.90410029440571,-0.1430779948662102,37.84993118044302,-7.045373709016013,2,2024-09-14 18:26:43.094334961,1726338403.094335,2024-09-14 18:26:43.094334976,9,1,-10.240461199182059,-167.59019333602214,[0. 1. 0. 0.],[8.80331955e-04 3.27623357e-07 2.12842841e-05 9.99098056e-01],"[ 0.44916645  0.23250651  0.3597909  -0.97257966  1.1680578   1.3948743
  0.          0.          0.          0.44916645 -5.896341  ]",1.5667514419247046,0,0
179,224,2024-09-14 18:28:18.115494912,TASK_BEGIN,2,-0.8240355801835564,0.015016983592335,-3.8492266560708415,1.3186555597147858,14.21815945933081,-0.3619484766515579,38.8696967720527,-7.140411743141353,2,2024-09-14 18:26:43.123348877,1726338403.1233494,2024-09-14 18:26:43.123349504,9,1,-10.639963048661238,-176.55425445132315,[0. 1. 0. 0.],[1.39340621e-03 5.30586102e-07 1.64933986e-05 9.98589570e-01],"[ 0.45192084  0.21777701  0.3579827  -1.0073078   1.2395712   1.4302752
  0.          0.          0.          0.45192084 -5.778505  ]",1.5668313710844992,0,0
180,225,2024-09-14 18:28:18.183361024,TASK_BEGIN,2,-0.7804548212868244,0.0016536593394718,-3.5678275106089776,1.2862099930232758,13.542299320104716,-0.5336344294077842,40.02716443333105,-7.170022827658128,2,2024-09-14 18:26:43.123348877,1726338403.1233494,2024-09-14 18:26:43.123349504,9,1,-10.639963048661238,-176.55425445132315,[0. 1. 0. 0.],[1.39340621e-03 5.30586102e-07 1.64933986e-05 9.98589570e-01],"[ 0.45192084  0.21777701  0.3579827  -1.0073078   1.2395712   1.4302752
  0.          0.          0.          0.45192084 -5.778505  ]",1.5668313710844992,0,0
181,226,2024-09-14 18:28:18.247264000,TASK_BEGIN,2,-0.7403974270188088,-0.0095368020838552,-3.2998200077720576,1.2554871689134746,12.889607144922088,-0.6503526420143341,41.25865859963098,-7.135896005223934,2,2024-09-14 18:26:43.123348877,1726338403.1233494,2024-09-14 18:26:43.123349504,9,1,-10.639963048661238,-176.55425445132315,[0. 1. 0. 0.],[1.39340621e-03 5.30586102e-07 1.64933986e-05 9.98589570e-01],"[ 0.45192084  0.21777701  0.3579827  -1.0073078   1.2395712   1.4302752
  0.          0.          0.          0.45192084 -5.778505  ]",1.5668313710844992,0,0
182,227,2024-09-14 18:28:18.309335040,TASK_BEGIN,2,-0.7046968252454139,-0.0187542935315376,-3.053245673826122,1.2265134181762771,12.266076230899714,-0.7051301078992493,42.51794867241247,-7.05163750775914,2,2024-09-14 18:26:43.123348877,1726338403.1233494,2024-09-14 18:26:43.123349504,9,1,-10.639963048661238,-176.55425445132315,[0. 1. 0. 0.],[1.39340621e-03 5.30586102e-07 1.64933986e-05 9.98589570e-01],"[ 0.45192084  0.21777701  0.3579827  -1.0073078   1.2395712   1.4302752
  0.          0.          0.          0.45192084 -5.778505  ]",1.5668313710844992,0,0
183,228,2024-09-14 18:28:19.261161216,TASK_BEGIN,2,-0.6740710397452186,-0.0263390465692507,-2.8337524310589277,1.1989542503137445,11.669715029976915,-0.6923590517496505,43.78501160682032,-6.943758256623,2,2024-09-14 18:26:43.802156982,1726338403.8021576,2024-09-14 18:26:43.802157568,9,2,-21.031450401027588,-427.0250328747326,[0. 0. 1. 0.],[1.48072846e-01 1.51889973e-04 4.72929892e-06 8.51770535e-01],"[ 0.40383926 -0.3088025  -1.2688286  -2.3906488   2.742185    1.2619598
  0.          0.          0.          0.40383926 -1.5658689 ]",1.5382192301460589,0,0
184,229,2024-09-14 18:28:19.329915136,TASK_BEGIN,2,-0.6491316112354926,-0.0327116937974049,-2.644888743372188,1.1722814852909538,11.092134498323247,-0.6086628847576862,45.06579424626528,-6.849180344248938,2,2024-09-14 18:26:43.802156982,1726338403.8021576,2024-09-14 18:26:43.802157568,9,2,-21.031450401027588,-427.0250328747326,[0. 0. 1. 0.],[1.48072846e-01 1.51889973e-04 4.72929892e-06 8.51770535e-01],"[ 0.40383926 -0.3088025  -1.2688286  -2.3906488   2.742185    1.2619598
  0.          0.          0.          0.40383926 -1.5658689 ]",1.5382192301460589,0,0
185,230,2024-09-14 18:28:19.384548096,TASK_BEGIN,2,-0.630383835781754,-0.0383107134342324,-2.488466199485792,1.145923424595631,10.521977594021616,-0.4539082734244681,46.38158800000532,-6.809122448187709,2,2024-09-14 18:26:43.802156982,1726338403.8021576,2024-09-14 18:26:43.802157568,9,2,-21.031450401027588,-427.0250328747326,[0. 0. 1. 0.],[1.48072846e-01 1.51889973e-04 4.72929892e-06 8.51770535e-01],"[ 0.40383926 -0.3088025  -1.2688286  -2.3906488   2.742185    1.2619598
  0.          0.          0.          0.40383926 -1.5658689 ]",1.5382192301460589,0,0
186,231,2024-09-14 18:28:19.462224896,TASK_BEGIN,2,-0.6182080717208998,-0.0435394970670772,-2.3648206215653227,1.1193580764301665,9.94879493651769,-0.2319645243109511,47.75066729929414,-6.860655492421369,2,2024-09-14 18:26:43.802156982,1726338403.8021576,2024-09-14 18:26:43.802157568,9,2,-21.031450401027588,-427.0250328747326,[0. 0. 1. 0.],[1.48072846e-01 1.51889973e-04 4.72929892e-06 8.51770535e-01],"[ 0.40383926 -0.3088025  -1.2688286  -2.3906488   2.742185    1.2619598
  0.          0.          0.          0.40383926 -1.5658689 ]",1.5382192301460589,0,0
187,232,2024-09-14 18:28:19.533165056,TASK_BEGIN,2,-0.6128305747671803,-0.0487289177164419,-2.272898556006404,1.092152366147599,9.366211023165366,0.0490550609406855,49.16937623121488,-7.028389898833179,2,2024-09-14 18:26:43.802156982,1726338403.8021576,2024-09-14 18:26:43.802157568,9,2,-21.031450401027588,-427.0250328747326,[0. 0. 1. 0.],[1.48072846e-01 1.51889973e-04 4.72929892e-06 8.51770535e-01],"[ 0.40383926 -0.3088025  -1.2688286  -2.3906488   2.742185    1.2619598
  0.          0.          0.          0.40383926 -1.5658689 ]",1.5382192301460589,0,0
188,233,2024-09-14 18:28:19.600482816,TASK_BEGIN,2,-0.6143056773188573,-0.0541126496142857,-2.210219561653376,1.0639745090521362,8.773903395491272,0.3770823478870665,50.60118249127924,-7.319290439487744,2,2024-09-14 18:26:43.986385986,1726338403.986386,2024-09-14 18:26:43.986386176,9,2,-12.200552932069332,-500.1010830120962,[0. 0. 1. 0.],[4.64491285e-02 2.68497540e-05 1.87906290e-07 9.53523834e-01],"[ 0.3411552  -0.5716678  -1.4483527  -3.0583181   3.1180542   1.2441673
  0.          0.          0.          0.3411552   0.53705364]",1.538050976514051,0,0
189,234,2024-09-14 18:28:19.668670976,TASK_BEGIN,2,-0.6225124592707877,-0.0598097340345811,-2.1728832163019938,1.0346150433159755,8.178362056067265,0.736843987237486,51.97724540700112,-7.72235984050192,2,2024-09-14 18:26:43.986385986,1726338403.986386,2024-09-14 18:26:43.986386176,9,2,-12.200552932069332,-500.1010830120962,[0. 0. 1. 0.],[4.64491285e-02 2.68497540e-05 1.87906290e-07 9.53523834e-01],"[ 0.3411552  -0.5716678  -1.4483527  -3.0583181   3.1180542   1.2441673
  0.          0.          0.          0.3411552   0.53705364]",1.538050976514051,0,0
190,235,2024-09-14 18:28:20.602669056,TASK_BEGIN,2,-0.6371385191901972,-0.065814148932962,-2.155769770724399,1.0040323554743291,7.59244227392334,1.1110063390316247,53.20502447716439,-8.21217566038443,2,2024-09-14 18:26:45.627375977,1726338405.6273768,2024-09-14 18:26:45.627376896,10,0,0.32622824457416755,0.32622824457416755,[1. 0. 0. 0.],[0.44386753 0.26407253 0.02615171 0.26590824],"[-2.0685196e-03  1.0038841e+00 -1.5327047e-01  1.8125994e-02
  6.0877358e-03  5.8276050e-02  0.0000000e+00  0.0000000e+00
 -6.0000002e-01  5.9793150e-01 -1.0232415e+01]",1.4794236444794553,0,0
191,236,2024-09-14 18:28:20.679958016,TASK_BEGIN,2,-0.6576326840109291,-0.0719948075711425,-2.152953614147777,0.972395258864237,7.033674186400097,1.4815917073238605,54.17936211231632,-8.753689652036423,2,2024-09-14 18:26:45.721400879,1726338405.7214017,2024-09-14 18:26:45.721401600,10,0,-0.9534743529541743,-1.318371418176112,[1. 0. 0. 0.],[0.43563697 0.25792723 0.03692113 0.26951466],"[-5.1752725e-03  1.0023355e+00 -1.5338638e-01 -5.8678519e-02
  1.4820563e-02  5.8218259e-02  0.0000000e+00  0.0000000e+00
 -6.0000002e-01  5.9482473e-01 -1.0220027e+01]",1.4834220198894021,0,0
192,237,2024-09-14 18:28:20.737052928,TASK_BEGIN,2,-0.6831465387688755,-0.0781051543742842,-2.1582291581396227,0.9400756982419052,6.521575545390009,1.8314510181507937,54.793173715564016,-9.306612792283213,2,2024-09-14 18:26:45.779413086,1726338405.7794135,2024-09-14 18:26:45.779413504,10,0,-1.5881778085627758,-4.167962219053564,[1. 0. 0. 0.],[0.43182804 0.24201745 0.04127531 0.2848792 ],"[-7.24776601e-03  9.99302983e-01 -1.53463095e-01 -1.09899215e-01
  2.06380282e-02  5.81826568e-02  0.00000000e+00  0.00000000e+00
 -6.00000024e-01  5.92752218e-01 -1.01957664e+01]",1.4864927327307602,0,0
193,238,2024-09-14 18:28:20.815345920,TASK_BEGIN,2,-0.7124993394934046,-0.0837971077887641,-2.1656494705286704,0.9075842175635408,6.074696166626971,2.145530790269938,54.94771441106105,-9.829177215978376,2,2024-09-14 18:26:45.866367188,1726338405.8663673,2024-09-14 18:26:45.866367232,10,0,-2.1389703071085364,-9.943478313563688,[1. 0. 0. 0.],[0.44009675 0.21071977 0.0491666  0.30001689],"[ -0.01035865   0.9917537   -0.15357721  -0.18673208   0.02935765
   0.05813      0.           0.          -0.6          0.58964133
 -10.135372  ]",1.491014529247407,0,0
194,239,2024-09-14 18:28:20.883123968,TASK_BEGIN,2,-0.744191305007495,-0.0886366213774029,-2.170057081644544,0.8754921573087785,5.708195057825511,2.41172044391079,54.56259447640716,-10.281124872380431,2,2024-09-14 18:26:45.924364990,1726338405.9243653,2024-09-14 18:26:45.924365312,10,0,-2.334709305320388,-14.306449858028278,[1. 0. 0. 0.],[0.42791    0.19882363 0.05493569 0.31833069],"[ -0.01243393   0.9847206   -0.1536526   -0.23795523   0.03516642
   0.05809568   0.           0.          -0.6          0.5875661
 -10.079107  ]",1.493077399777087,0,0
195,240,2024-09-14 18:28:20.937540096,TASK_BEGIN,2,-0.7764781577703254,-0.0921234719442202,-2.16755089256526,0.8443768289731022,5.432311435489858,2.6212588944024824,53.5843795310747,-10.62551281367124,2,2024-09-14 18:26:45.982365967,1726338405.9823663,2024-09-14 18:26:45.982366208,10,0,-2.4573936521432103,-18.857988274706614,[1. 0. 0. 0.],[0.40931763 0.19621452 0.07098454 0.32348331],"[ -0.01451039   0.9760871   -0.15372738  -0.2891795    0.04097182
   0.0580622    0.           0.          -0.6          0.58548963
 -10.010039  ]",1.4947955615143311,0,0
196,241,2024-09-14 18:28:21.016974848,TASK_BEGIN,2,-0.807504024786125,-0.0937194203132631,-2.1557324179470068,0.814784426294266,5.251685782141517,2.768868687068672,51.99317319346321,-10.829985038563722,2,2024-09-14 18:26:46.070364014,1726338406.0703645,2024-09-14 18:26:46.070364416,10,0,-2.567137496337267,-25.828799208174694,[1. 0. 0. 0.],[0.36357669 0.19269236 0.1263717  0.31735926],"[-0.017627    0.9601362  -0.15383838 -0.36601794  0.04967388  0.05801359
  0.          0.         -0.6         0.582373   -9.882432  ]",1.4977293887934933,0,0
197,242,2024-09-14 18:28:21.962885888,TASK_BEGIN,2,-0.8354693295460304,-0.0928880007204883,-2.1336513136765936,0.787194522581385,5.165417434337402,2.852755546704006,49.807904538496615,-10.86878459787306,2,2024-09-14 18:26:47.004365967,1726338407.0043664,2024-09-14 18:26:47.004366336,10,3,-0.8791486670091138,-91.79786142218451,[0. 0. 0. 1.],[0.02689987 0.01029452 0.95815807 0.00464754],"[-0.05412054  0.568535   -0.00904894 -1.1543642   0.19206508 -0.30009416
  0.          0.         -0.6         0.5458795  -6.7496223 ]",1.564921323716876,0,0
198,243,2024-09-14 18:28:22.019589888,TASK_BEGIN,2,-0.8587953750322559,-0.0891515679869462,-2.101571941247333,0.7619846159670456,5.167761411753948,2.874484615326704,47.08917535856348,-10.72514526945046,2,2024-09-14 18:26:47.062365967,1726338407.0623662,2024-09-14 18:26:47.062366208,10,3,-0.5651362718550479,-91.25283244495016,[0. 0. 0. 1.],[1.20586740e-02 7.39531622e-03 9.79639001e-01 9.07009051e-04],"[-0.05430619  0.53124964  0.01841584 -1.201989    0.15714945 -0.3650849
  0.          0.         -0.6         0.5456938  -6.4513397 ]",1.5654455778824417,0,0
199,244,2024-09-14 18:28:22.097779968,TASK_BEGIN,2,-0.8762577441417612,-0.0821704415701979,-2.060739170871548,0.7394057546027845,5.24920730066812,2.838736876560693,43.93677477992749,-10.392324114448128,2,2024-09-14 18:26:47.062365967,1726338407.0623662,2024-09-14 18:26:47.062366208,10,3,-0.5651362718550479,-91.25283244495016,[0. 0. 0. 1.],[1.20586740e-02 7.39531622e-03 9.79639001e-01 9.07009051e-04],"[-0.05430619  0.53124964  0.01841584 -1.201989    0.15714945 -0.3650849
  0.          0.         -0.6         0.5456938  -6.4513397 ]",1.5654455778824417,0,0
200,245,2024-09-14 18:28:22.166163200,TASK_BEGIN,2,-0.8870869900797465,-0.0718342762217704,-2.0131997445063523,0.7195872387964817,5.397487105009072,2.7529799001353648,40.48189589818367,-9.872796071212017,2,2024-09-14 18:26:47.062365967,1726338407.0623662,2024-09-14 18:26:47.062366208,10,3,-0.5651362718550479,-91.25283244495016,[0. 0. 0. 1.],[1.20586740e-02 7.39531622e-03 9.79639001e-01 9.07009051e-04],"[-0.05430619  0.53124964  0.01841584 -1.201989    0.15714945 -0.3650849
  0.          0.         -0.6         0.5456938  -6.4513397 ]",1.5654455778824417,0,0
201,246,2024-09-14 18:28:22.220979968,TASK_BEGIN,2,-0.8910330989766083,-0.0583393773445033,-1.9616446317336864,0.7025833019745329,5.598215643811989,2.6270359207835723,36.87729462995189,-9.176850055370084,2,2024-09-14 18:26:47.062365967,1726338407.0623662,2024-09-14 18:26:47.062366208,10,3,-0.5651362718550479,-91.25283244495016,[0. 0. 0. 1.],[1.20586740e-02 7.39531622e-03 9.79639001e-01 9.07009051e-04],"[-0.05430619  0.53124964  0.01841584 -1.201989    0.15714945 -0.3650849
  0.          0.         -0.6         0.5456938  -6.4513397 ]",1.5654455778824417,0,0
202,247,2024-09-14 18:28:22.301793280,TASK_BEGIN,2,-0.8883754968302658,-0.0422268002172694,-1.909266608531483,0.6884531597572654,5.835341732552663,2.472486192960703,33.287831019249104,-8.321737616769951,2,2024-09-14 18:26:47.062365967,1726338407.0623662,2024-09-14 18:26:47.062366208,10,3,-0.5651362718550479,-91.25283244495016,[0. 0. 0. 1.],[1.20586740e-02 7.39531622e-03 9.79639001e-01 9.07009051e-04],"[-0.05430619  0.53124964  0.01841584 -1.201989    0.15714945 -0.3650849
  0.          0.         -0.6         0.5456938  -6.4513397 ]",1.5654455778824417,0,0
203,248,2024-09-14 18:28:22.358820864,TASK_BEGIN,2,-0.8798822981264409,-0.0243699556511296,-1.85965276669194,0.6773393566713142,6.091840542290779,2.301911076399327,29.882084870241545,-7.331744789190897,2,2024-09-14 18:26:47.062365967,1726338407.0623662,2024-09-14 18:26:47.062366208,10,3,-0.5651362718550479,-91.25283244495016,[0. 0. 0. 1.],[1.20586740e-02 7.39531622e-03 9.79639001e-01 9.07009051e-04],"[-0.05430619  0.53124964  0.01841584 -1.201989    0.15714945 -0.3650849
  0.          0.         -0.6         0.5456938  -6.4513397 ]",1.5654455778824417,0,0
204,249,2024-09-14 18:28:23.271977728,TASK_BEGIN,2,-0.8667462771607182,-0.005914648140765,-1.8166870298928883,0.6694996495535673,6.350890196916418,2.128068687679295,26.82504995098883,-6.2389754596516775,2,2024-09-14 18:26:47.969363037,1726338407.9693637,2024-09-14 18:26:47.969363712,10,1,-4.792273043454495,-124.3358787043729,[0. 1. 0. 0.],[3.93617520e-05 3.92292003e-07 9.98901452e-01 1.05879416e-03],"[-0.07776642 -0.24582672 -0.32015148 -1.9809779   0.02486249  0.4168741
  0.          0.         -0.6         0.5222336  -0.2347288 ]",1.5681069366351965,1,2
205,250,2024-09-14 18:28:23.354108160,TASK_BEGIN,2,-0.8505045008176726,0.0118137644373126,-1.7844427719086258,0.6652757904454053,6.59738349607755,1.9631573402643323,24.271258419115824,-5.083832571209942,2,2024-09-14 18:26:47.969363037,1726338407.9693637,2024-09-14 18:26:47.969363712,10,1,-4.792273043454495,-124.3358787043729,[0. 1. 0. 0.],[3.93617520e-05 3.92292003e-07 9.98901452e-01 1.05879416e-03],"[-0.07776642 -0.24582672 -0.32015148 -1.9809779   0.02486249  0.4168741
  0.          0.         -0.6         0.5222336  -0.2347288 ]",1.5681069366351965,1,2
206,251,2024-09-14 18:28:23.410252288,TASK_BEGIN,2,-0.832926707190586,0.0274162321789428,-1.7671387151841154,0.6650294652768604,6.819324551817267,1.8182367621658448,22.358034539473515,-3.914007827538598,2,2024-09-14 18:26:47.969363037,1726338407.9693637,2024-09-14 18:26:47.969363712,10,1,-4.792273043454495,-124.3358787043729,[0. 1. 0. 0.],[3.93617520e-05 3.92292003e-07 9.98901452e-01 1.05879416e-03],"[-0.07776642 -0.24582672 -0.32015148 -1.9809779   0.02486249  0.4168741
  0.          0.         -0.6         0.5222336  -0.2347288 ]",1.5681069366351965,1,2
207,252,2024-09-14 18:28:23.487480064,TASK_BEGIN,2,-0.8158805556769362,0.0395246158019571,-1.769186211530035,0.6690846396370003,7.008727513407137,1.702756312947667,21.19948568591912,-2.781751012920008,2,2024-09-14 18:26:47.969363037,1726338407.9693637,2024-09-14 18:26:47.969363712,10,1,-4.792273043454495,-124.3358787043729,[0. 1. 0. 0.],[3.93617520e-05 3.92292003e-07 9.98901452e-01 1.05879416e-03],"[-0.07776642 -0.24582672 -0.32015148 -1.9809779   0.02486249  0.4168741
  0.          0.         -0.6         0.5222336  -0.2347288 ]",1.5681069366351965,1,2
208,253,2024-09-14 18:28:23.557418240,TASK_BEGIN,2,-0.8012118546394208,0.0469007553242101,-1.7951201294171064,0.677681104830348,7.161940284025385,1.624133392633056,20.880696283415837,-1.7398858737664022,2,2024-09-14 18:26:47.969363037,1726338407.9693637,2024-09-14 18:26:47.969363712,10,1,-4.792273043454495,-124.3358787043729,[0. 1. 0. 0.],[3.93617520e-05 3.92292003e-07 9.98901452e-01 1.05879416e-03],"[-0.07776642 -0.24582672 -0.32015148 -1.9809779   0.02486249  0.4168741
  0.          0.         -0.6         0.5222336  -0.2347288 ]",1.5681069366351965,1,2
209,254,2024-09-14 18:28:23.625167104,TASK_BEGIN,2,-0.7906541210552565,0.0485287760464935,-1.8491782743550904,0.690924296795478,7.279457344036503,1.5874572188406542,21.450307314713783,-0.8369513262002914,2,2024-09-14 18:26:47.969363037,1726338407.9693637,2024-09-14 18:26:47.969363712,10,1,-4.792273043454495,-124.3358787043729,[0. 1. 0. 0.],[3.93617520e-05 3.92292003e-07 9.98901452e-01 1.05879416e-03],"[-0.07776642 -0.24582672 -0.32015148 -1.9809779   0.02486249  0.4168741
  0.          0.         -0.6         0.5222336  -0.2347288 ]",1.5681069366351965,1,2
210,255,2024-09-14 18:28:23.692918016,TASK_BEGIN,2,-0.7857320136149284,0.0436939592626608,-1.934623099552845,0.7087328587101303,7.365275122882911,1.5954424557520472,22.91159766546662,-0.1119212267980183,2,2024-09-14 18:26:47.969363037,1726338407.9693637,2024-09-14 18:26:47.969363712,10,1,-4.792273043454495,-124.3358787043729,[0. 1. 0. 0.],[3.93617520e-05 3.92292003e-07 9.98901452e-01 1.05879416e-03],"[-0.07776642 -0.24582672 -0.32015148 -1.9809779   0.02486249  0.4168741
  0.          0.         -0.6         0.5222336  -0.2347288 ]",1.5681069366351965,1,2
211,257,2024-09-14 18:28:24.703577088,TASK_BEGIN,2,-0.7970746740395555,0.0135984979920906,-2.204432919371281,0.7565815567792394,7.469179955607855,1.7458107972573704,28.25336473548085,0.7244424277728283,2,2024-09-14 18:26:49.753559082,1726338409.753559,2024-09-14 18:26:49.753559040,11,0,0.3943775178637452,1.0851820073086769,[1. 0. 0. 0.],[0.34588502 0.45690014 0.04970492 0.14750992],"[ 2.7233760e-03  1.0053658e+00  1.3437757e-01  2.6645195e-02
 -7.7575240e-03 -5.1055402e-02  0.0000000e+00  0.0000000e+00
 -6.0000002e-01  6.0272336e-01 -1.1589091e+01]",1.4927069782283493,0,0
212,258,2024-09-14 18:28:24.769433088,TASK_BEGIN,2,-0.8142323950168556,-0.0111840114323352,-2.3862422873292872,0.7852884135431505,7.503303738797717,1.884296983887571,31.866917296850986,0.8419050975462407,2,2024-09-14 18:26:49.811559814,1726338409.81156,2024-09-14 18:26:49.811559936,11,0,-0.5453626415391568,0.457206330634637,[1. 0. 0. 0.],[0.33809616 0.47520863 0.05345378 0.13324143],"[ 4.5390925e-03  1.0049984e+00  1.3444507e-01 -2.4584033e-02
 -1.2859249e-02 -5.1023286e-02  0.0000000e+00  0.0000000e+00
 -6.0000002e-01  6.0453910e-01 -1.1586152e+01]",1.4936279424518137,0,0
213,259,2024-09-14 18:28:24.839265024,TASK_BEGIN,2,-0.8386989386021088,-0.0414430678639219,-2.594307271390375,0.8158965998014249,7.535892426018684,2.0603923368490737,35.851379930493394,0.7924750576869074,2,2024-09-14 18:26:49.869606934,1726338409.8696077,2024-09-14 18:26:49.869607680,11,0,-1.405487332331333,-1.9534186806089775,[1. 0. 0. 0.],[0.32314451 0.49840404 0.0648889  0.11356255],"[ 6.3557625e-03  1.0030310e+00  1.3451231e-01 -7.5803474e-02
 -1.7957820e-02 -5.0992012e-02  0.0000000e+00  0.0000000e+00
 -6.0000002e-01  6.0635579e-01 -1.1570413e+01]",1.4956872548024205,0,0
214,260,2024-09-14 18:28:24.906960896,TASK_BEGIN,2,-0.8694756288798842,-0.0758971647046025,-2.8225673156536213,0.8471526132286016,7.57351149771476,2.269514021391612,39.97603774975925,0.6171728413894533,2,2024-09-14 18:26:49.956619141,1726338409.9566193,2024-09-14 18:26:49.956619264,11,0,-2.164919159082288,-7.710738572828162,[1. 0. 0. 0.],[0.30452804 0.51513864 0.09048654 0.08984678],"[ 9.08263493e-03  9.97079372e-01  1.34612337e-01 -1.52634427e-01
