,Unnamed: 0,time,MARKER,pid,L_O_DSI,L_D_DSI,L_O_DSphi,L_D_DSphi,R_O_DSI,R_D_DSI,R_O_DSphi,R_D_DSphi,trial_id,dateTimestamps,floatTimestamps,timestamps,episode,actions,rewards,discounted_rewards,chosen_actions,optimal_actions,states,continuous_optimal,binary_optimal,discrete_optimal
1,1,2024-09-14 19:46:47.983422208,TASK_BEGIN,3,-0.031674227659578,-0.0004740987614932,-2.034124242192657,0.2403164965472775,0.0470420477038003,0.4124387713160496,-1.866441995064786,-0.223328968619152,1,2024-09-14 19:45:25.514375000,1726343125.514376,2024-09-14 19:45:25.514375936,0,1.0,0.1,2.1432185919278113,[0. 1.],[0.44057832 0.55942168],"[ 0.66666667  0.2734375   0.46875     1.          0.          1.
  1.          0.          1.          0.32617188 -0.8         0.5       ]",0.8359758928366036,0,0
2,2,2024-09-14 19:46:48.051201792,TASK_BEGIN,3,0.0611184618531813,-0.0186215528491799,-1.9087011725204184,0.2061363012016616,0.2485110440932461,0.3563169388684274,-1.425509432404914,-0.1366682925600386,1,2024-09-14 19:45:25.514375000,1726343125.514376,2024-09-14 19:45:25.514375936,0,1.0,0.1,2.1432185919278113,[0. 1.],[0.44057832 0.55942168],"[ 0.66666667  0.2734375   0.46875     1.          0.          1.
  1.          0.          1.          0.32617188 -0.8         0.5       ]",0.8359758928366036,0,0
3,3,2024-09-14 19:46:48.105452032,TASK_BEGIN,3,0.148466875587522,-0.0358878277670955,-1.801722587254161,0.1771804392050732,0.4404840673922909,0.3031870993982512,-1.010225430682757,-0.054602602747115,1,2024-09-14 19:45:25.514375000,1726343125.514376,2024-09-14 19:45:25.514375936,0,1.0,0.1,2.1432185919278113,[0. 1.],[0.44057832 0.55942168],"[ 0.66666667  0.2734375   0.46875     1.          0.          1.
  1.          0.          1.          0.32617188 -0.8         0.5       ]",0.8359758928366036,0,0
4,4,2024-09-14 19:46:48.186674176,TASK_BEGIN,3,0.2282423761310965,-0.0518914819657125,-1.7180424239463512,0.1550769987728214,0.6185887315553481,0.254421057968117,-0.6306619896308744,0.021134759344007,1,2024-09-14 19:45:25.514375000,1726343125.514376,2024-09-14 19:45:25.514375936,0,1.0,0.1,2.1432185919278113,[0. 1.],[0.44057832 0.55942168],"[ 0.66666667  0.2734375   0.46875     1.          0.          1.
  1.          0.          1.          0.32617188 -0.8         0.5       ]",0.8359758928366036,0,0
5,5,2024-09-14 19:46:48.245094912,TASK_BEGIN,3,0.298808839527388,-0.0662887965097913,-1.6599021945637422,0.1408390013086556,0.7792942176400106,0.2111010504464989,-0.2941323279669232,0.0890542774148818,1,2024-09-14 19:45:25.514375000,1726343125.514376,2024-09-14 19:45:25.514375936,0,1.0,0.1,2.1432185919278113,[0. 1.],[0.44057832 0.55942168],"[ 0.66666667  0.2734375   0.46875     1.          0.          1.
  1.          0.          1.          0.32617188 -0.8         0.5       ]",0.8359758928366036,0,0
6,6,2024-09-14 19:46:48.322262016,TASK_BEGIN,3,0.3590005041341316,-0.0787625907270428,-1.626844294844488,0.1347829451082406,0.919999589737249,0.1739846827218996,-0.0051675408121778,0.1479430866145104,1,2024-09-14 19:45:25.514375000,1726343125.514376,2024-09-14 19:45:25.514375936,0,1.0,0.1,2.1432185919278113,[0. 1.],[0.44057832 0.55942168],"[ 0.66666667  0.2734375   0.46875     1.          0.          1.
  1.          0.          1.          0.32617188 -0.8         0.5       ]",0.8359758928366036,0,0
7,7,2024-09-14 19:46:48.389957888,TASK_BEGIN,3,0.4080951469705169,-0.0890197391107538,-1.6160150556823012,0.1365098637128268,1.0390451723959124,0.1435020541422206,0.2342337614457827,0.1969013087573578,1,2024-09-14 19:45:25.514375000,1726343125.514376,2024-09-14 19:45:25.514375936,0,1.0,0.1,2.1432185919278113,[0. 1.],[0.44057832 0.55942168],"[ 0.66666667  0.2734375   0.46875     1.          0.          1.
  1.          0.          1.          0.32617188 -0.8         0.5       ]",0.8359758928366036,0,0
8,8,2024-09-14 19:46:49.332516864,TASK_BEGIN,3,0.4458181884303752,-0.0968044273786158,-1.622742843585976,0.1449636064580397,1.1356773200252128,0.1197750773350287,0.4244200468086287,0.2353492436714266,1,2024-09-14 19:45:26.670304932,1726343126.670305,2024-09-14 19:45:26.670305024,0,1.0,0.1,3.764746051088,[0. 1.],[9.99820999e-01 1.79001165e-04],"[ 0.34722222  0.2734375   0.46875     0.84722222  0.3125      0.5078125
  1.          0.          1.          0.3359375  -0.8         0.5       ]",1.0091544166095787,1,2
9,9,2024-09-14 19:46:49.400364032,TASK_BEGIN,3,0.472364794355478,-0.1019221784073766,-1.6412430836157013,0.1585665338276751,1.2099730358955658,0.1026506040470425,0.5679939220065897,0.2629895692046611,1,2024-09-14 19:45:26.670304932,1726343126.670305,2024-09-14 19:45:26.670305024,0,1.0,0.1,3.764746051088,[0. 1.],[9.99820999e-01 1.79001165e-04],"[ 0.34722222  0.2734375   0.46875     0.84722222  0.3125      0.5078125
  1.          0.          1.          0.3359375  -0.8         0.5       ]",1.0091544166095787,1,2
10,10,2024-09-14 19:46:49.468199936,TASK_BEGIN,3,0.4883989488846354,-0.1042643232994638,-1.665374084945686,0.1754153892202891,1.262727202682338,0.0917411333993165,0.6695658574118474,0.279748307344976,1,2024-09-14 19:45:26.670304932,1726343126.670305,2024-09-14 19:45:26.670305024,0,1.0,0.1,3.764746051088,[0. 1.],[9.99820999e-01 1.79001165e-04],"[ 0.34722222  0.2734375   0.46875     0.84722222  0.3125      0.5078125
  1.          0.          1.          0.3359375  -0.8         0.5       ]",1.0091544166095787,1,2
11,11,2024-09-14 19:46:49.535941888,TASK_BEGIN,3,0.4949916971519432,-0.1038236438236148,-1.6894066189024974,0.1935168840534771,1.2953270365662986,0.086468668942496,0.7352186150320295,0.2857308182064848,1,2024-09-14 19:45:26.670304932,1726343126.670305,2024-09-14 19:45:26.670305024,0,1.0,0.1,3.764746051088,[0. 1.],[9.99820999e-01 1.79001165e-04],"[ 0.34722222  0.2734375   0.46875     0.84722222  0.3125      0.5078125
  1.          0.          1.          0.3359375  -0.8         0.5       ]",1.0091544166095787,1,2
12,12,2024-09-14 19:46:49.603701248,TASK_BEGIN,3,0.4934971058660296,-0.1006970441669734,-1.7086834997173748,0.2110264102267675,1.3096375611425797,0.0861121713626717,0.7717816639267772,0.281219965011335,1,2024-09-14 19:45:26.670304932,1726343126.670305,2024-09-14 19:45:26.670305024,0,1.0,0.1,3.764746051088,[0. 1.],[9.99820999e-01 1.79001165e-04],"[ 0.34722222  0.2734375   0.46875     0.84722222  0.3125      0.5078125
  1.          0.          1.          0.3359375  -0.8         0.5       ]",1.0091544166095787,1,2
13,13,2024-09-14 19:46:49.671511040,TASK_BEGIN,3,0.4854091894207508,-0.0950790016018297,-1.719977293613475,0.2264297058669877,1.3078908165831562,0.0898625292649153,0.7860843630300074,0.2667273105711557,1,2024-09-14 19:45:26.670304932,1726343126.670305,2024-09-14 19:45:26.670305024,0,1.0,0.1,3.764746051088,[0. 1.],[9.99820999e-01 1.79001165e-04],"[ 0.34722222  0.2734375   0.46875     0.84722222  0.3125      0.5078125
  1.          0.          1.          0.3359375  -0.8         0.5       ]",1.0091544166095787,1,2
14,14,2024-09-14 19:46:49.730595840,TASK_BEGIN,3,0.4722457599131617,-0.0872518261658912,-1.7214673201180075,0.2386267056772202,1.2925489186386112,0.0968859986945279,0.7843126812705105,0.2430865924458969,1,2024-09-14 19:45:26.720303955,1726343126.7203045,2024-09-14 19:45:26.720304384,0,1.0,0.1,3.8270985905771204,[0. 1.],[9.99989036e-01 1.09643994e-05],"[ 0.33333333  0.2734375   0.46875     0.83333333  0.3125      0.5078125
  1.          0.          1.          0.3203125  -0.8         0.5       ]",0.9917153416769189,1,2
15,17,2024-09-14 19:46:50.804822016,TASK_BEGIN,3,0.4161619916024142,-0.0543157404754819,-1.66279469001451,0.2505406462756138,1.1891151912023223,0.1302065146901884,0.7263876101320419,0.1321389552456663,1,2024-09-14 19:45:28.528239990,1726343128.5282404,2024-09-14 19:45:28.528240384,1,0.0,0.1,0.1,[1. 0.],[0.39553769 0.60446231],"[ 0.98611111  0.29296875  0.48828125  1.          0.          1.
  1.          0.          1.          0.4609375  -0.8         0.46666667]",0.8168868079201113,0,0
16,18,2024-09-14 19:46:50.881556992,TASK_BEGIN,3,0.3955904518350474,-0.0415919769069936,-1.6226082750845037,0.2456927836181853,1.1422639096996063,0.1435438926468585,0.6976396535372511,0.0888276651832555,1,2024-09-14 19:45:28.528239990,1726343128.5282404,2024-09-14 19:45:28.528240384,1,0.0,0.1,0.1,[1. 0.],[0.39553769 0.60446231],"[ 0.98611111  0.29296875  0.48828125  1.          0.          1.
  1.          0.          1.          0.4609375  -0.8         0.46666667]",0.8168868079201113,0,0
17,19,2024-09-14 19:46:50.954326016,TASK_BEGIN,3,0.3751691338111259,-0.0286566307013812,-1.5726073384226806,0.2365078118360813,1.091750831664714,0.1574058954879001,0.6659609065687656,0.0464392336976255,1,2024-09-14 19:45:28.528239990,1726343128.5282404,2024-09-14 19:45:28.528240384,1,0.0,0.1,0.1,[1. 0.],[0.39553769 0.60446231],"[ 0.98611111  0.29296875  0.48828125  1.          0.          1.
  1.          0.          1.          0.4609375  -0.8         0.46666667]",0.8168868079201113,0,0
18,20,2024-09-14 19:46:51.021820928,TASK_BEGIN,3,0.3550323655449908,-0.0158168915699232,-1.5135063958138208,0.2232615373311399,1.0386366787259569,0.171599938007098,0.6319913106341768,0.0074187467488229,1,2024-09-14 19:45:28.528239990,1726343128.5282404,2024-09-14 19:45:28.528240384,1,0.0,0.1,0.1,[1. 0.],[0.39553769 0.60446231],"[ 0.98611111  0.29296875  0.48828125  1.          0.          1.
  1.          0.          1.          0.4609375  -0.8         0.46666667]",0.8168868079201113,0,0
19,21,2024-09-14 19:46:51.084306944,TASK_BEGIN,3,0.335011767318647,-0.0032890687673419,-1.446574078603025,0.2064713525683317,0.9837555915236004,0.1859966863541438,0.5964339517852142,-0.0259973954761643,1,2024-09-14 19:45:28.528239990,1726343128.5282404,2024-09-14 19:45:28.528240384,1,0.0,0.1,0.1,[1. 0.],[0.39553769 0.60446231],"[ 0.98611111  0.29296875  0.48828125  1.          0.          1.
  1.          0.          1.          0.4609375  -0.8         0.46666667]",0.8168868079201113,0,0
20,22,2024-09-14 19:46:52.002820096,TASK_BEGIN,3,0.3147150634394411,0.0088061506392218,-1.3737433559683114,0.1869682046235588,0.9277574015339712,0.2004995284985434,0.5600612753094594,-0.0519024496970323,1,2024-09-14 19:45:29.593821045,1726343129.593822,2024-09-14 19:45:29.593821952,1,1.0,0.1,1.9836941046095409,[0. 1.],[0.41236237 0.58763763],"[ 0.69444444  0.29296875  0.48828125  1.          0.          1.
  1.          0.          1.          0.3984375  -0.8         0.5       ]",0.8243423463507253,0,0
21,23,2024-09-14 19:46:52.073857280,TASK_BEGIN,3,0.2936043388433407,0.020432907925648,-1.2976789109076845,0.1659382096524284,0.8711370292861605,0.2150220674030547,0.5237214217331235,-0.0688373104288386,1,2024-09-14 19:45:29.593821045,1726343129.593822,2024-09-14 19:45:29.593821952,1,1.0,0.1,1.9836941046095409,[0. 1.],[0.41236237 0.58763763],"[ 0.69444444  0.29296875  0.48828125  1.          0.          1.
  1.          0.          1.          0.3984375  -0.8         0.5       ]",0.8243423463507253,0,0
22,24,2024-09-14 19:46:52.143196928,TASK_BEGIN,3,0.2710588874571236,0.0316211102280365,-1.221753273593703,0.1449063594612324,0.8142747667862813,0.2294712509548708,0.4884357488984689,-0.0758950859067461,1,2024-09-14 19:45:29.593821045,1726343129.593822,2024-09-14 19:45:29.593821952,1,1.0,0.1,1.9836941046095409,[0. 1.],[0.41236237 0.58763763],"[ 0.69444444  0.29296875  0.48828125  1.          0.          1.
  1.          0.          1.          0.3984375  -0.8         0.5       ]",0.8243423463507253,0,0
23,25,2024-09-14 19:46:52.203933184,TASK_BEGIN,3,0.2464287957715302,0.0424474908824409,-1.1498312320768684,0.1256489353428795,0.7575096424606762,0.2437313326883988,0.455604610403809,-0.0728014178802978,1,2024-09-14 19:45:29.593821045,1726343129.593822,2024-09-14 19:45:29.593821952,1,1.0,0.1,1.9836941046095409,[0. 1.],[0.41236237 0.58763763],"[ 0.69444444  0.29296875  0.48828125  1.          0.          1.
  1.          0.          1.          0.3984375  -0.8         0.5       ]",0.8243423463507253,0,0
24,26,2024-09-14 19:46:52.278701056,TASK_BEGIN,3,0.2191035596207042,0.0530188608595093,-1.0858472694332717,0.110039827205605,0.7012303226613377,0.2576503355447697,0.427294113464835,-0.0599717483932576,1,2024-09-14 19:45:29.593821045,1726343129.593822,2024-09-14 19:45:29.593821952,1,1.0,0.1,1.9836941046095409,[0. 1.],[0.41236237 0.58763763],"[ 0.69444444  0.29296875  0.48828125  1.          0.          1.
  1.          0.          1.          0.3984375  -0.8         0.5       ]",0.8243423463507253,0,0
25,27,2024-09-14 19:46:52.343190016,TASK_BEGIN,3,0.1886115052899991,0.0634541353220487,-1.0332805710964297,0.0998478184835292,0.6459462196891365,0.2710350951403079,0.4064993835720047,-0.0385345675933146,1,2024-09-14 19:45:29.593821045,1726343129.593822,2024-09-14 19:45:29.593821952,1,1.0,0.1,1.9836941046095409,[0. 1.],[0.41236237 0.58763763],"[ 0.69444444  0.29296875  0.48828125  1.          0.          1.
  1.          0.          1.          0.3984375  -0.8         0.5       ]",0.8243423463507253,0,0
26,28,2024-09-14 19:46:52.414187008,TASK_BEGIN,3,0.1547275422122642,0.0738628404292139,-0.9947055054418256,0.0965201822647454,0.5923172932651678,0.2836566272569507,0.3972313396789299,-0.0102917535071601,1,2024-09-14 19:45:29.593821045,1726343129.593822,2024-09-14 19:45:29.593821952,1,1.0,0.1,1.9836941046095409,[0. 1.],[0.41236237 0.58763763],"[ 0.69444444  0.29296875  0.48828125  1.          0.          1.
  1.          0.          1.          0.3984375  -0.8         0.5       ]",0.8243423463507253,0,0
27,29,2024-09-14 19:46:53.345952000,TASK_BEGIN,3,0.117548496320569,0.0843215446251087,-0.9715742206503432,0.1010082745842894,0.5411400897465085,0.2952618703463489,0.4043163713045512,0.022402969564889,1,2024-09-14 19:45:30.712811035,1726343130.7128117,2024-09-14 19:45:30.712811776,1,1.0,0.1,3.573883979152818,[0. 1.],[0.7974912 0.2025088],"[ 0.38888889  0.29296875  0.48828125  0.88888889  0.29296875  0.48828125
  1.          0.          1.          0.38867188 -0.8         0.5       ]",0.9547602130032559,0,0
28,30,2024-09-14 19:46:53.425552896,TASK_BEGIN,3,0.0775187997762135,0.0948512706111151,-0.9642533204923062,0.1136699152382741,0.4932957165958908,0.3055870388912205,0.4328923812808365,0.0568403931194768,1,2024-09-14 19:45:30.712811035,1726343130.7128117,2024-09-14 19:45:30.712811776,1,1.0,0.1,3.573883979152818,[0. 1.],[0.7974912 0.2025088],"[ 0.38888889  0.29296875  0.48828125  0.88888889  0.29296875  0.48828125
  1.          0.          1.          0.38867188 -0.8         0.5       ]",0.9547602130032559,0,0
29,31,2024-09-14 19:46:53.486061056,TASK_BEGIN,3,0.0354171163497237,0.1053989170675592,-0.9722132160356628,0.1342400554044049,0.4496705538604761,0.3143711593670113,0.487690491029898,0.0901980771249751,1,2024-09-14 19:45:30.712811035,1726343130.7128117,2024-09-14 19:45:30.712811776,1,1.0,0.1,3.573883979152818,[0. 1.],[0.7974912 0.2025088],"[ 0.38888889  0.29296875  0.48828125  0.88888889  0.29296875  0.48828125
  1.          0.          1.          0.38867188 -0.8         0.5       ]",0.9547602130032559,0,0
30,32,2024-09-14 19:46:53.561194752,TASK_BEGIN,3,-0.0076813309499828,0.1158266103402582,-0.9942839151593776,0.1618627586372921,0.4110622052278523,0.3213722111035815,0.5722707193890513,0.1197874248934039,1,2024-09-14 19:45:30.712811035,1726343130.7128117,2024-09-14 19:45:30.712811776,1,1.0,0.1,3.573883979152818,[0. 1.],[0.7974912 0.2025088],"[ 0.38888889  0.29296875  0.48828125  0.88888889  0.29296875  0.48828125
  1.          0.          1.          0.38867188 -0.8         0.5       ]",0.9547602130032559,0,0
31,33,2024-09-14 19:46:53.628875008,TASK_BEGIN,3,-0.0504674211850468,0.1259157776379777,-1.0289458842270394,0.1951950141602513,0.3780887109133459,0.3263871694707607,0.6883675403043571,0.1432756992532048,1,2024-09-14 19:45:30.712811035,1726343130.7128117,2024-09-14 19:45:30.712811776,1,1.0,0.1,3.573883979152818,[0. 1.],[0.7974912 0.2025088],"[ 0.38888889  0.29296875  0.48828125  0.88888889  0.29296875  0.48828125
  1.          0.          1.          0.38867188 -0.8         0.5       ]",0.9547602130032559,0,0
32,34,2024-09-14 19:46:53.686820096,TASK_BEGIN,3,-0.0914969791701299,0.1353913560075863,-1.0745914353668222,0.2325649894903766,0.3511284737936097,0.3292710607690875,0.8354200033670456,0.1588814486918017,1,2024-09-14 19:45:30.712811035,1726343130.7128117,2024-09-14 19:45:30.712811776,1,1.0,0.1,3.573883979152818,[0. 1.],[0.7974912 0.2025088],"[ 0.38888889  0.29296875  0.48828125  0.88888889  0.29296875  0.48828125
  1.          0.          1.          0.38867188 -0.8         0.5       ]",0.9547602130032559,0,0
33,35,2024-09-14 19:46:53.764398080,TASK_BEGIN,3,-0.1293158100808742,0.1439598846808777,-1.1296575228356551,0.2721362433977788,0.3303105649905234,0.3299476129970068,1.0103396519508396,0.1655399159691906,1,2024-09-14 19:45:31.475781982,1726343131.4757829,2024-09-14 19:45:31.475782912,1,1.0,0.1,4.473165228376147,[0. 1.],[0.9968033 0.0031967],"[ 0.18055556  0.29296875  0.48828125  0.68055556  0.29296875  0.48828125
  1.          0.          1.          0.359375   -0.8         0.5       ]",0.9902042907484399,1,2
34,36,2024-09-14 19:46:54.707791104,TASK_BEGIN,3,-0.162574491778545,0.1513451131541315,-1.1925990565702642,0.3120468077100144,0.3155507337244058,0.3284101135487932,1.207618300781794,0.1629999458182798,1,2024-09-14 19:45:31.781783203,1726343131.7817836,2024-09-14 19:45:31.781783552,1,0.0,-1.0,4.561131182496932,[1. 0.],[0.47711893 0.52288107],"[ 0.09722222  0.29296875  0.48828125  0.59722222  0.29296875  0.48828125
  1.          0.          1.          0.28515625 -0.4         0.36666667]",0.6354429124865353,1,2
35,37,2024-09-14 19:46:54.764699904,TASK_BEGIN,3,-0.1901089175016882,0.1573100374649461,-1.2617774691668402,0.3505239138232912,0.3066133347251708,0.3247183397391968,1.419821826553708,0.1518125897441146,1,2024-09-14 19:45:31.781783203,1726343131.7817836,2024-09-14 19:45:31.781783552,1,0.0,-1.0,4.561131182496932,[1. 0.],[0.47711893 0.52288107],"[ 0.09722222  0.29296875  0.48828125  0.59722222  0.29296875  0.48828125
  1.          0.          1.          0.28515625 -0.4         0.36666667]",0.6354429124865353,1,2
36,43,2024-09-14 19:46:56.019988992,TASK_BEGIN,3,-0.1971412388890965,0.1554915604931454,-1.7099600972005389,0.4874044198234682,0.3579657807811732,0.2677836327251343,2.5192053353346537,-0.005940569187852,1,2024-09-14 19:45:33.337107910,1726343133.3371089,2024-09-14 19:45:33.337108736,2,0.0,0.1,0.1,[1. 0.],[0.39553769 0.60446231],"[ 0.98611111  0.29296875  0.48828125  1.          0.          1.
  1.          0.          1.          0.4609375  -0.8         0.46666667]",0.8168868079201113,0,0
37,44,2024-09-14 19:46:56.100747008,TASK_BEGIN,3,-0.1689685258565701,0.1483314519118194,-1.781478308673907,0.4928802646298398,0.3820098623713046,0.2549101442462073,2.6032408458950766,-0.0309408191600107,1,2024-09-14 19:45:33.337107910,1726343133.3371089,2024-09-14 19:45:33.337108736,2,0.0,0.1,0.1,[1. 0.],[0.39553769 0.60446231],"[ 0.98611111  0.29296875  0.48828125  1.          0.          1.
  1.          0.          1.          0.4609375  -0.8         0.46666667]",0.8168868079201113,0,0
38,45,2024-09-14 19:46:56.158718976,TASK_BEGIN,3,-0.1323222742265214,0.1391973269312555,-1.8544748727821316,0.4956108836112473,0.4102683977819674,0.2417241773964399,2.647034566864624,-0.0523835842273379,1,2024-09-14 19:45:33.337107910,1726343133.3371089,2024-09-14 19:45:33.337108736,2,0.0,0.1,0.1,[1. 0.],[0.39553769 0.60446231],"[ 0.98611111  0.29296875  0.48828125  1.          0.          1.
  1.          0.          1.          0.4609375  -0.8         0.46666667]",0.8168868079201113,0,0
39,46,2024-09-14 19:46:56.235437056,TASK_BEGIN,3,-0.0876357969023824,0.1281434012785318,-1.9319640134168967,0.4970557183653454,0.4427586167367889,0.2283578167444328,2.650680351706108,-0.0699712820204724,1,2024-09-14 19:45:33.337107910,1726343133.3371089,2024-09-14 19:45:33.337108736,2,0.0,0.1,0.1,[1. 0.],[0.39553769 0.60446231],"[ 0.98611111  0.29296875  0.48828125  1.          0.          1.
  1.          0.          1.          0.4609375  -0.8         0.46666667]",0.8168868079201113,0,0
40,47,2024-09-14 19:46:56.303969024,TASK_BEGIN,3,-0.0356914848120136,0.1152619745389317,-2.017409434344682,0.4986144461270592,0.4795028130286524,0.2148695894602092,2.616470339444948,-0.0838418499377358,1,2024-09-14 19:45:33.337107910,1726343133.3371089,2024-09-14 19:45:33.337108736,2,0.0,0.1,0.1,[1. 0.],[0.39553769 0.60446231],"[ 0.98611111  0.29296875  0.48828125  1.          0.          1.
  1.          0.          1.          0.4609375  -0.8         0.46666667]",0.8168868079201113,0,0
41,48,2024-09-14 19:46:56.358126080,TASK_BEGIN,3,0.0223419179514886,0.1006919608941352,-2.1139158184176807,0.5014027794852614,0.5205072706118435,0.2012554411023761,2.5482869121847584,-0.0944532229535332,1,2024-09-14 19:45:33.337107910,1726343133.3371089,2024-09-14 19:45:33.337108736,2,0.0,0.1,0.1,[1. 0.],[0.39553769 0.60446231],"[ 0.98611111  0.29296875  0.48828125  1.          0.          1.
  1.          0.          1.          0.4609375  -0.8         0.46666667]",0.8168868079201113,0,0
42,49,2024-09-14 19:46:56.435292928,TASK_BEGIN,3,0.0849081344447431,0.084627079673615,-2.223231269328622,0.5060608582604418,0.5657301028924965,0.1874671774371908,2.4506158130596187,-0.1023607219275874,1,2024-09-14 19:45:33.941977051,1726343133.9419777,2024-09-14 19:45:33.941977856,2,1.0,0.1,1.22478977001032,[0. 1.],[0.6002712 0.3997288],"[ 0.81944444  0.29296875  0.48828125  1.          0.          1.
  1.          0.          1.          0.40234375 -0.8         0.5       ]",0.8130841078785445,0,0
43,50,2024-09-14 19:46:57.382349056,TASK_BEGIN,3,0.1501135109203887,0.0673211112097402,-2.344980278567807,0.5126632347083745,0.615019338560362,0.173436172117169,2.327682859423553,-0.107977816607229,1,2024-09-14 19:45:35.112564941,1726343135.112565,2024-09-14 19:45:35.112564992,2,0.0,0.1,3.035867819504264,[1. 0.],[0.32968207 0.67031793],"[ 0.5         0.29296875  0.48828125  1.          0.29296875  0.48828125
  1.          0.          1.          0.51757812  1.         -0.23333333]",0.8752627479901933,0,0
44,51,2024-09-14 19:46:57.435280896,TASK_BEGIN,3,0.2158411679132353,0.0490871049320242,-2.47642892353661,0.5207657397709008,0.6680294856254798,0.1591015054074092,2.183250239968947,-0.1114516451148723,1,2024-09-14 19:45:35.163563965,1726343135.1635647,2024-09-14 19:45:35.163564800,2,0.0,0.1,3.1055091413092217,[1. 0.],[0.16087507 0.83912493],"[ 0.48611111  0.29296875  0.48828125  0.98611111  0.29296875  0.48828125
  1.          0.          1.          0.53710938  1.         -0.26666667]",0.891573152012438,0,0
45,52,2024-09-14 19:46:57.512901120,TASK_BEGIN,3,0.2799118577583744,0.0302898797494199,-2.6127352073453087,0.5295525782946472,0.7241534017753248,0.1444383281232967,2.021138277893223,-0.1127228402025848,1,2024-09-14 19:45:35.265566162,1726343135.2655668,2024-09-14 19:45:35.265566720,2,0.0,0.1,3.2427095093971685,[1. 0.],[0.11178659 0.88821341],"[ 0.45833333  0.29296875  0.48828125  0.95833333  0.29296875  0.48828125
  1.          0.          1.          0.57617188  1.         -0.33333333]",0.9227740105721642,0,0
46,53,2024-09-14 19:46:57.574934016,TASK_BEGIN,3,0.3402503186310784,0.0113357281917931,-2.747478505203458,0.5380124868297209,0.7824979589563261,0.1294816583340114,1.8460065418080236,-0.1117213158023658,1,2024-09-14 19:45:35.265566162,1726343135.2655668,2024-09-14 19:45:35.265566720,2,0.0,0.1,3.2427095093971685,[1. 0.],[0.11178659 0.88821341],"[ 0.45833333  0.29296875  0.48828125  0.95833333  0.29296875  0.48828125
  1.          0.          1.          0.57617188  1.         -0.33333333]",0.9227740105721642,0,0
47,54,2024-09-14 19:46:57.653527040,TASK_BEGIN,3,0.3950292262684441,-0.0073379576138228,-2.8733350900844385,0.54509913209751,0.8418954737799242,0.1143455846432678,1.6638540859167217,-0.1085811935671075,1,2024-09-14 19:45:35.265566162,1726343135.2655668,2024-09-14 19:45:35.265566720,2,0.0,0.1,3.2427095093971685,[1. 0.],[0.11178659 0.88821341],"[ 0.45833333  0.29296875  0.48828125  0.95833333  0.29296875  0.48828125
  1.          0.          1.          0.57617188  1.         -0.33333333]",0.9227740105721642,0,0
48,55,2024-09-14 19:46:57.721316096,TASK_BEGIN,3,0.4427893008171985,-0.0252769009293525,-2.9828100908612085,0.5498541538199953,0.9009334584914684,0.0992373420133902,1.482030228038879,-0.1037867534669815,1,2024-09-14 19:45:35.265566162,1726343135.2655668,2024-09-14 19:45:35.265566720,2,0.0,0.1,3.2427095093971685,[1. 0.],[0.11178659 0.88821341],"[ 0.45833333  0.29296875  0.48828125  0.95833333  0.29296875  0.48828125
  1.          0.          1.          0.57617188  1.         -0.33333333]",0.9227740105721642,0,0
49,56,2024-09-14 19:46:57.789094912,TASK_BEGIN,3,0.4825313285756362,-0.0420314300407873,-3.068927798431548,0.5514747362069251,0.9580148926637986,0.0844592726437535,1.3088572470822166,-0.0982336742797199,1,2024-09-14 19:45:35.265566162,1726343135.2655668,2024-09-14 19:45:35.265566720,2,0.0,0.1,3.2427095093971685,[1. 0.],[0.11178659 0.88821341],"[ 0.45833333  0.29296875  0.48828125  0.95833333  0.29296875  0.48828125
  1.          0.          1.          0.57617188  1.         -0.33333333]",0.9227740105721642,0,0
50,57,2024-09-14 19:46:58.723854080,TASK_BEGIN,3,0.5137590976471449,-0.0571815000190582,-3.1258261307529502,0.5493341497561762,1.011468373963292,0.0703923333939855,1.1530575549127309,-0.0932283069432179,1,2024-09-14 19:45:35.772561035,1726343135.7725616,2024-09-14 19:45:35.772561664,2,0.0,0.1,3.8888276046713495,[1. 0.],[0.00777343 0.99222657],"[ 0.31944444  0.29296875  0.48828125  0.81944444  0.29296875  0.48828125
  1.          0.          1.          0.47460938 -0.1         0.26666667]",0.9849049238798102,1,2
51,58,2024-09-14 19:46:58.785458944,TASK_BEGIN,3,0.536465170778612,-0.0703602828086548,-3.1492536529284454,0.5429957904933412,1.059689332583005,0.0574634482936014,1.023136308134695,-0.0904357870603248,1,2024-09-14 19:45:35.772561035,1726343135.7725616,2024-09-14 19:45:35.772561664,2,0.0,0.1,3.8888276046713495,[1. 0.],[0.00777343 0.99222657],"[ 0.31944444  0.29296875  0.48828125  0.81944444  0.29296875  0.48828125
  1.          0.          1.          0.47460938 -0.1         0.26666667]",0.9849049238798102,1,2
52,59,2024-09-14 19:46:58.863187968,TASK_BEGIN,3,0.5510777678373301,-0.0812765339157037,-3.136984198891717,0.5322477368647076,1.101266074849935,0.0461054517328769,0.9267699008149572,-0.091757843066589,1,2024-09-14 19:45:35.823565918,1726343135.8235667,2024-09-14 19:45:35.823566592,2,1.0,-1.0,2.849939328624636,[0. 1.],[0.00325455 0.99674545],"[ 0.30555556  0.29296875  0.48828125  0.80555556  0.29296875  0.48828125
  1.          0.          1.          0.45898438 -0.8         0.5       ]",0.765496398912591,1,2
53,64,2024-09-14 19:47:00.082500096,TASK_BEGIN,3,0.5391392914318863,-0.0994829159288717,-2.6280309964427717,0.4230814557800159,1.180677418291882,0.0245713834128479,1.082260824673774,-0.2104106507734133,1,2024-09-14 19:45:37.381225098,1726343137.381225,2024-09-14 19:45:37.381225216,3,0.0,0.1,0.1,[1. 0.],[0.36525545 0.63474455],"[ 0.98611111  0.33203125  0.52734375  1.          0.          1.
  1.          0.          1.          0.4609375  -0.8         0.46666667]",0.8201936313985847,0,0
54,65,2024-09-14 19:47:00.150320128,TASK_BEGIN,3,0.5292305001993484,-0.0970860915831818,-2.479988198646583,0.3947736370728882,1.16945333858749,0.0285688327603488,1.2319405021979906,-0.2570304857886394,1,2024-09-14 19:45:37.381225098,1726343137.381225,2024-09-14 19:45:37.381225216,3,0.0,0.1,0.1,[1. 0.],[0.36525545 0.63474455],"[ 0.98611111  0.33203125  0.52734375  1.          0.          1.
  1.          0.          1.          0.4609375  -0.8         0.46666667]",0.8201936313985847,0,0
55,66,2024-09-14 19:47:00.211663104,TASK_BEGIN,3,0.5198629988372288,-0.0935649960650655,-2.333565545401341,0.3659949629918022,1.1501911218052183,0.0352994807003586,1.4076507228227066,-0.3077379766011811,1,2024-09-14 19:45:37.381225098,1726343137.381225,2024-09-14 19:45:37.381225216,3,0.0,0.1,0.1,[1. 0.],[0.36525545 0.63474455],"[ 0.98611111  0.33203125  0.52734375  1.          0.          1.
  1.          0.          1.          0.4609375  -0.8         0.46666667]",0.8201936313985847,0,0
56,67,2024-09-14 19:47:00.285864960,TASK_BEGIN,3,0.5118990878153579,-0.0894036392701098,-2.1953031907312424,0.3375470770335261,1.123996999714582,0.0445043043255807,1.6014943848532894,-0.3600270129010945,1,2024-09-14 19:45:37.381225098,1726343137.381225,2024-09-14 19:45:37.381225216,3,0.0,0.1,0.1,[1. 0.],[0.36525545 0.63474455],"[ 0.98611111  0.33203125  0.52734375  1.          0.          1.
  1.          0.          1.          0.4609375  -0.8         0.46666667]",0.8201936313985847,0,0
57,68,2024-09-14 19:47:00.353679872,TASK_BEGIN,3,0.5058097902367923,-0.0850672796072799,-2.0713641425646987,0.3104849381442645,1.092296664346157,0.0557879877600889,1.8059685843466056,-0.4113556388535621,1,2024-09-14 19:45:37.381225098,1726343137.381225,2024-09-14 19:45:37.381225216,3,0.0,0.1,0.1,[1. 0.],[0.36525545 0.63474455],"[ 0.98611111  0.33203125  0.52734375  1.          0.          1.
  1.          0.          1.          0.4609375  -0.8         0.46666667]",0.8201936313985847,0,0
58,69,2024-09-14 19:47:00.415385088,TASK_BEGIN,3,0.5016542350850349,-0.0809651842998947,-1.9675846996702528,0.2861621054773003,1.056748138415505,0.0686327997459123,2.0145040550101427,-0.4593387584059278,1,2024-09-14 19:45:37.381225098,1726343137.381225,2024-09-14 19:45:37.381225216,3,0.0,0.1,0.1,[1. 0.],[0.36525545 0.63474455],"[ 0.98611111  0.33203125  0.52734375  1.          0.          1.
  1.          0.          1.          0.4609375  -0.8         0.46666667]",0.8201936313985847,0,0
59,70,2024-09-14 19:47:00.473818112,TASK_BEGIN,3,0.4991240539587652,-0.0774234003549989,-1.889150664939316,0.2661333708864574,1.0191006598414738,0.0824324383489911,2.221832195514784,-0.5018947810499271,1,2024-09-14 19:45:38.038245850,1726343138.0382466,2024-09-14 19:45:38.038246656,3,1.0,0.1,1.312541872310217,[0. 1.],[0.69219027 0.30780973],"[ 0.80555556  0.33203125  0.52734375  1.          0.          1.
  1.          0.          1.          0.41015625 -0.8         0.5       ]",0.8132293047117625,0,0
60,71,2024-09-14 19:47:01.429310976,TASK_BEGIN,3,0.4976325573956366,-0.0746669172622947,-1.8399618086398373,0.251949198485113,0.9810342750884232,0.0965428590150617,2.42411211603034,-0.537352048071314,1,2024-09-14 19:45:38.395246094,1726343138.3952465,2024-09-14 19:45:38.395246592,3,0.0,0.1,1.902721317787415,[1. 0.],[0.72954499 0.27045501],"[ 0.70833333  0.33203125  0.52734375  1.          0.          1.
  1.          0.          1.          0.3125     -0.5         0.4       ]",0.724273455973335,0,0
61,72,2024-09-14 19:47:01.499993088,TASK_BEGIN,3,0.4964296713922219,-0.0728113808872715,-1.821948281003424,0.2449058848154878,0.9440333385658124,0.1103386462197089,2.618733247294574,-0.5645162565877074,1,2024-09-14 19:45:38.497245117,1726343138.4972456,2024-09-14 19:45:38.497245440,3,0.0,0.1,2.0638571635634455,[1. 0.],[0.91424243 0.08575757],"[ 0.68055556  0.33203125  0.52734375  1.          0.          1.
  1.          0.          1.          0.29882812 -0.3         0.33333333]",0.6723582549674109,0,0
62,73,2024-09-14 19:47:01.552475136,TASK_BEGIN,3,0.494720542327428,-0.0718659759543511,-1.8346415955025384,0.2458248544011389,0.9093226057981166,0.1232636103479932,2.803817095776122,-0.5826975185965673,1,2024-09-14 19:45:39.260584961,1726343139.260585,2024-09-14 19:45:39.260584960,3,0.0,0.1,3.17445404989613,[1. 0.],[0.99687254 0.00312746],"[ 0.47222222  0.33203125  0.52734375  0.97222222  0.33203125  0.52734375
  1.          0.          1.          0.43945312  1.         -0.16666667]",0.7094239337798982,0,0
63,74,2024-09-14 19:47:01.629681920,TASK_BEGIN,3,0.4917610040826248,-0.0717470035790331,-1.8752359607109896,0.2549351009009525,0.8778517829224187,0.1348711076523129,2.977530028477909,-0.5916750346587216,1,2024-09-14 19:45:39.361547852,1726343139.361549,2024-09-14 19:45:39.361548800,3,1.0,0.1,3.310282414303197,[0. 1.],[0.4822329 0.5177671],"[ 0.44444444  0.33203125  0.52734375  0.94444444  0.33203125  0.52734375
  1.          0.          1.          0.44335938 -0.8         0.5       ]",0.8836850758500626,0,0
64,75,2024-09-14 19:47:01.703292928,TASK_BEGIN,3,0.4869170628660194,-0.0722990985545669,-1.9391881181961133,0.2718993971381345,0.8502930974446371,0.1448529289013778,3.137367564176017,-0.5915747279128512,1,2024-09-14 19:45:39.412548096,1726343139.412548,2024-09-14 19:45:39.412548096,3,1.0,0.1,3.377179590160165,[0. 1.],[0.64770421 0.35229579],"[ 0.43055556  0.33203125  0.52734375  0.93055556  0.33203125  0.52734375
  1.          0.          1.          0.42773438 -0.8         0.5       ]",0.9462973786336182,0,0
65,76,2024-09-14 19:47:01.771060992,TASK_BEGIN,3,0.4796857259803954,-0.0733176658063889,-2.0211425420069453,0.2959529611107111,0.8270256805561146,0.1530549406020679,3.279617395620529,-0.5826861893656495,1,2024-09-14 19:45:39.513547852,1726343139.5135489,2024-09-14 19:45:39.513548800,3,1.0,0.1,3.5089737163159778,[0. 1.],[9.99019716e-01 9.80284222e-04],"[ 0.40277778  0.33203125  0.52734375  0.90277778  0.33203125  0.52734375
  1.          0.          1.          0.39648438 -0.8         0.5       ]",1.0133271686173102,1,2
66,77,2024-09-14 19:47:01.838839040,TASK_BEGIN,3,0.4696764278231483,-0.0745648056433264,-2.115842840075783,0.3260719087442175,0.8081031403395957,0.1594794772059264,3.39923109272997,-0.565307324554552,1,2024-09-14 19:45:39.513547852,1726343139.5135489,2024-09-14 19:45:39.513548800,3,1.0,0.1,3.5089737163159778,[0. 1.],[9.99019716e-01 9.80284222e-04],"[ 0.40277778  0.33203125  0.52734375  0.90277778  0.33203125  0.52734375
  1.          0.          1.          0.39648438 -0.8         0.5       ]",1.0133271686173102,1,2
67,78,2024-09-14 19:47:02.757529088,TASK_BEGIN,3,0.4565743927532938,-0.0757784121666168,-2.2187706577642325,0.3611051944757865,0.7932214516840216,0.1642772752937464,3.490226110305624,-0.5396997028569085,1,2024-09-14 19:45:40.427984863,1726343140.4279854,2024-09-14 19:45:40.427985408,3,0.0,1.0,5.4831492403314614,[1. 0.],[0.61475544 0.38524456],"[ 0.15277778  0.33203125  0.52734375  0.65277778  0.33203125  0.52734375
  1.          0.          1.          0.44921875  1.         -0.1       ]",0.9737889217605271,1,2
68,79,2024-09-14 19:47:02.810258944,TASK_BEGIN,3,0.4401302266794391,-0.0766829271650828,-2.3264066393852523,0.3998494077150988,0.7817147361901255,0.1677302517293153,3.546483407343085,-0.5061548654918745,1,2024-09-14 19:45:40.427984863,1726343140.4279854,2024-09-14 19:45:40.427985408,3,0.0,1.0,5.4831492403314614,[1. 0.],[0.61475544 0.38524456],"[ 0.15277778  0.33203125  0.52734375  0.65277778  0.33203125  0.52734375
  1.          0.          1.          0.44921875  1.         -0.1       ]",0.9737889217605271,1,2
69,80,2024-09-14 19:47:02.893183232,TASK_BEGIN,3,0.4201985958435494,-0.077007166489316,-2.436144176564933,0.4410693384061288,0.7726007989242358,0.1702231512655357,3.562619268825838,-0.4650952051295078,1,2024-09-14 19:45:40.581031006,1726343140.5810316,2024-09-14 19:45:40.581031680,3,1.0,0.1,5.617304224744376,[0. 1.],[0.96763692 0.03236308],"[ 0.11111111  0.33203125  0.52734375  0.61111111  0.33203125  0.52734375
  1.          0.          1.          0.40234375 -0.8         0.5       ]",0.9766283012376092,1,2
70,81,2024-09-14 19:47:02.949105920,TASK_BEGIN,3,0.3968055622155996,-0.0765053080970152,-2.545977327334492,0.4834805649175947,0.7646802040198889,0.1722026824497698,3.534679497058102,-0.4171390807125232,1,2024-09-14 19:45:40.581031006,1726343140.5810316,2024-09-14 19:45:40.581031680,3,1.0,0.1,5.617304224744376,[0. 1.],[0.96763692 0.03236308],"[ 0.11111111  0.33203125  0.52734375  0.61111111  0.33203125  0.52734375
  1.          0.          1.          0.40234375 -0.8         0.5       ]",0.9766283012376092,1,2
71,82,2024-09-14 19:47:03.028595968,TASK_BEGIN,3,0.3702142257511893,-0.0749759917749767,-2.654119953365435,0.5257340569575129,0.756673983727985,0.1741280487621224,3.4606204284689266,-0.3631232174139802,1,2024-09-14 19:45:40.581031006,1726343140.5810316,2024-09-14 19:45:40.581031680,3,1.0,0.1,5.617304224744376,[0. 1.],[0.96763692 0.03236308],"[ 0.11111111  0.33203125  0.52734375  0.61111111  0.33203125  0.52734375
  1.          0.          1.          0.40234375 -0.8         0.5       ]",0.9766283012376092,1,2
72,83,2024-09-14 19:47:03.087923200,TASK_BEGIN,3,0.3409714275484695,-0.0722794994301428,-2.758716017747451,0.56644889163632,0.7473702128472283,0.1764233353722051,3.340634902493528,-0.3041047506549463,1,2024-09-14 19:45:40.581031006,1726343140.5810316,2024-09-14 19:45:40.581031680,3,1.0,0.1,5.617304224744376,[0. 1.],[0.96763692 0.03236308],"[ 0.11111111  0.33203125  0.52734375  0.61111111  0.33203125  0.52734375
  1.          0.          1.          0.40234375 -0.8         0.5       ]",0.9766283012376092,1,2
73,84,2024-09-14 19:47:03.164181760,TASK_BEGIN,3,0.3099198587390648,-0.0683526756380511,-2.8577415560455885,0.6043056778754322,0.7357440052565907,0.1794434811108856,3.1772865657069325,-0.2413372719560043,1,2024-09-14 19:45:40.581031006,1726343140.5810316,2024-09-14 19:45:40.581031680,3,1.0,0.1,5.617304224744376,[0. 1.],[0.96763692 0.03236308],"[ 0.11111111  0.33203125  0.52734375  0.61111111  0.33203125  0.52734375
  1.          0.          1.          0.40234375 -0.8         0.5       ]",0.9766283012376092,1,2
74,85,2024-09-14 19:47:04.102172160,TASK_BEGIN,3,0.278164179753238,-0.0632172588884188,-2.9490556235168164,0.6381676260965816,0.7210325536798619,0.1834576637531496,2.9753741951953936,-0.1762078526728307,1,2024-09-14 19:45:41.498020020,1726343141.498021,2024-09-14 19:45:41.498020864,3,1.0,0.1,6.342580063300015,[0. 1.],[0.87066236 0.12933764],"[-0.13888889  0.33203125  0.52734375  0.36111111  0.33203125  0.52734375
  0.86111111  0.234375    0.4296875   0.38671875 -0.8         0.5       ]",0.9541020276325514,1,2
75,86,2024-09-14 19:47:04.174654976,TASK_BEGIN,3,0.246996583552452,-0.0569786690351228,-3.0304449137216936,0.6671739769785231,0.7027693999046257,0.188644824074281,2.7415790017436192,-0.1101574446607515,1,2024-09-14 19:45:41.498020020,1726343141.498021,2024-09-14 19:45:41.498020864,3,1.0,0.1,6.342580063300015,[0. 1.],[0.87066236 0.12933764],"[-0.13888889  0.33203125  0.52734375  0.36111111  0.33203125  0.52734375
  0.86111111  0.234375    0.4296875   0.38671875 -0.8         0.5       ]",0.9541020276325514,1,2
76,87,2024-09-14 19:47:04.240920832,TASK_BEGIN,3,0.2177901172276322,-0.0498156644069123,-3.099569911031114,0.6907723370362996,0.6807831623874828,0.1950954189187232,2.4840383350913924,-0.0446141635455694,1,2024-09-14 19:45:41.498020020,1726343141.498021,2024-09-14 19:45:41.498020864,3,1.0,0.1,6.342580063300015,[0. 1.],[0.87066236 0.12933764],"[-0.13888889  0.33203125  0.52734375  0.36111111  0.33203125  0.52734375
  0.86111111  0.234375    0.4296875   0.38671875 -0.8         0.5       ]",0.9541020276325514,1,2
77,88,2024-09-14 19:47:04.310255104,TASK_BEGIN,3,0.1918576766883986,-0.0419603939917244,-3.1539036329078955,0.7087065447225758,0.6551682488661402,0.2028180337486528,2.2118935611996235,0.0190594363193788,1,2024-09-14 19:45:41.498020020,1726343141.498021,2024-09-14 19:45:41.498020864,3,1.0,0.1,6.342580063300015,[0. 1.],[0.87066236 0.12933764],"[-0.13888889  0.33203125  0.52734375  0.36111111  0.33203125  0.52734375
  0.86111111  0.234375    0.4296875   0.38671875 -0.8         0.5       ]",0.9541020276325514,1,2
78,89,2024-09-14 19:47:04.378046976,TASK_BEGIN,3,0.1702860220268936,-0.0336690795749629,-3.190805722739321,0.7209890368909057,0.6262499033008555,0.2117515907780186,1.9347397023732689,0.0796114925013165,1,2024-09-14 19:45:41.498020020,1726343141.498021,2024-09-14 19:45:41.498020864,3,1.0,0.1,6.342580063300015,[0. 1.],[0.87066236 0.12933764],"[-0.13888889  0.33203125  0.52734375  0.36111111  0.33203125  0.52734375
  0.86111111  0.234375    0.4296875   0.38671875 -0.8         0.5       ]",0.9541020276325514,1,2
79,90,2024-09-14 19:47:04.445854976,TASK_BEGIN,3,0.1537823003009986,-0.025188185096077,-3.2077164386650225,0.7278483494041407,0.5945566659798056,0.2217822205981371,1.6619857702259215,0.1359256112827664,1,2024-09-14 19:45:41.498020020,1726343141.498021,2024-09-14 19:45:41.498020864,3,1.0,0.1,6.342580063300015,[0. 1.],[0.87066236 0.12933764],"[-0.13888889  0.33203125  0.52734375  0.36111111  0.33203125  0.52734375
  0.86111111  0.234375    0.4296875   0.38671875 -0.8         0.5       ]",0.9541020276325514,1,2
80,91,2024-09-14 19:47:04.503617792,TASK_BEGIN,3,0.1425716855722977,-0.0167220734524905,-3.2023281057912394,0.7296312782302127,0.5607852780343805,0.2327610782907151,1.402332057921356,0.1870036248103523,1,2024-09-14 19:45:41.498020020,1726343141.498021,2024-09-14 19:45:41.498020864,3,1.0,0.1,6.342580063300015,[0. 1.],[0.87066236 0.12933764],"[-0.13888889  0.33203125  0.52734375  0.36111111  0.33203125  0.52734375
  0.86111111  0.234375    0.4296875   0.38671875 -0.8         0.5       ]",0.9541020276325514,1,2
81,93,2024-09-14 19:47:05.524736768,TASK_BEGIN,3,0.1343651394074951,-0.0002899082959529,-3.1172144454541004,0.7192262778632975,0.4902766812087554,0.2568752855619264,0.95256857170651,0.2696816351239918,1,2024-09-14 19:45:43.256027100,1726343143.256028,2024-09-14 19:45:43.256027904,4,0.0,0.1,0.1,[1. 0.],[0.43968908 0.56031092],"[ 0.98611111  0.25390625  0.44921875  1.          0.          1.
  1.          0.          1.          0.4609375  -0.8         0.46666667]",0.8158654728285952,0,0
82,94,2024-09-14 19:47:05.588077056,TASK_BEGIN,3,0.1354072054879363,0.0076638076322656,-3.0351009714403627,0.7073748332216958,0.4552219653284788,0.2696422299300532,0.7755097684141447,0.2993293070584107,1,2024-09-14 19:45:43.256027100,1726343143.256028,2024-09-14 19:45:43.256027904,4,0.0,0.1,0.1,[1. 0.],[0.43968908 0.56031092],"[ 0.98611111  0.25390625  0.44921875  1.          0.          1.
  1.          0.          1.          0.4609375  -0.8         0.46666667]",0.8158654728285952,0,0
83,95,2024-09-14 19:47:05.660344064,TASK_BEGIN,3,0.1380463286245284,0.0155624586393542,-2.9265615562725817,0.6911475647263216,0.4213689665522313,0.2826234595367212,0.6377139836253949,0.3198338176701923,1,2024-09-14 19:45:43.256027100,1726343143.256028,2024-09-14 19:45:43.256027904,4,0.0,0.1,0.1,[1. 0.],[0.43968908 0.56031092],"[ 0.98611111  0.25390625  0.44921875  1.          0.          1.
  1.          0.          1.          0.4609375  -0.8         0.46666667]",0.8158654728285952,0,0
84,96,2024-09-14 19:47:05.726924800,TASK_BEGIN,3,0.1407212946752581,0.0235561091482213,-2.793331404403775,0.670599765871686,0.3894402255485952,0.2956133405153156,0.5434381554297567,0.3302837494483374,1,2024-09-14 19:45:43.256027100,1726343143.256028,2024-09-14 19:45:43.256027904,4,0.0,0.1,0.1,[1. 0.],[0.43968908 0.56031092],"[ 0.98611111  0.25390625  0.44921875  1.          0.          1.
  1.          0.          1.          0.4609375  -0.8         0.46666667]",0.8158654728285952,0,0
85,97,2024-09-14 19:47:05.788861952,TASK_BEGIN,3,0.1418864563754746,0.0318072470495363,-2.638790373467524,0.6459158635347932,0.3600673704759798,0.3083965927411137,0.4954310266653987,0.33005113379785,1,2024-09-14 19:45:43.256027100,1726343143.256028,2024-09-14 19:45:43.256027904,4,0.0,0.1,0.1,[1. 0.],[0.43968908 0.56031092],"[ 0.98611111  0.25390625  0.44921875  1.          0.          1.
  1.          0.          1.          0.4609375  -0.8         0.46666667]",0.8158654728285952,0,0
86,98,2024-09-14 19:47:05.850864128,TASK_BEGIN,3,0.1401596682045621,0.0404601878528098,-2.4675899543203736,0.6174299096542122,0.3337860271678967,0.3207441625709806,0.4944075307266366,0.3189939239734981,1,2024-09-14 19:45:43.256027100,1726343143.256028,2024-09-14 19:45:43.256027904,4,0.0,0.1,0.1,[1. 0.],[0.43968908 0.56031092],"[ 0.98611111  0.25390625  0.44921875  1.          0.          1.
  1.          0.          1.          0.4609375  -0.8         0.46666667]",0.8158654728285952,0,0
87,99,2024-09-14 19:47:06.807610112,TASK_BEGIN,3,0.1344763483540137,0.0496103122292029,-2.2848770074084523,0.5855695394982686,0.3110509419961635,0.3324057214945395,0.5384994790164306,0.2976208715278454,1,2024-09-14 19:45:44.526629883,1726343144.5266302,2024-09-14 19:45:44.526630144,4,1.0,0.1,2.299568541948448,[0. 1.],[0.53234726 0.46765274],"[ 0.63888889  0.25390625  0.44921875  1.          0.          1.
  1.          0.          1.          0.30273438 -0.8         0.5       ]",0.8489981797188015,0,0
88,100,2024-09-14 19:47:06.875454720,TASK_BEGIN,3,0.1242143966770172,0.0592779926941575,-2.095557530256552,0.5507990476135591,0.2922441935044584,0.3431100646777821,0.6228748684765846,0.2671374363170414,1,2024-09-14 19:45:44.577697021,1726343144.5776978,2024-09-14 19:45:44.577697792,4,1.0,0.1,2.3765728565289637,[0. 1.],[0.59316288 0.40683712],"[ 0.625       0.25390625  0.44921875  1.          0.          1.
  1.          0.          1.          0.28710938 -0.8         0.5       ]",0.8642112074668142,0,0
89,101,2024-09-14 19:47:06.933958912,TASK_BEGIN,3,0.1092586231488352,0.0693929543932758,-1.9039620752348103,0.5136285661756342,0.2776599906782399,0.3525810679510763,0.739760111339149,0.2293357353302512,1,2024-09-14 19:45:44.577697021,1726343144.5776978,2024-09-14 19:45:44.577697792,4,1.0,0.1,2.3765728565289637,[0. 1.],[0.59316288 0.40683712],"[ 0.625       0.25390625  0.44921875  1.          0.          1.
  1.          0.          1.          0.28710938 -0.8         0.5       ]",0.8642112074668142,0,0
90,102,2024-09-14 19:47:06.996193792,TASK_BEGIN,3,0.0899970629809349,0.0797913917196061,-1.7138756741301902,0.474669584563238,0.2674816595983798,0.3605614384100508,0.8789375328693254,0.1863784020359293,1,2024-09-14 19:45:44.577697021,1726343144.5776978,2024-09-14 19:45:44.577697792,4,1.0,0.1,2.3765728565289637,[0. 1.],[0.59316288 0.40683712],"[ 0.625       0.25390625  0.44921875  1.          0.          1.
  1.          0.          1.          0.28710938 -0.8         0.5       ]",0.8642112074668142,0,0
91,103,2024-09-14 19:47:07.077399040,TASK_BEGIN,3,0.0672635641815314,0.0902259901684149,-1.5286485675445327,0.4346670930643231,0.2617791880938803,0.366830352835931,1.028617694089288,0.140562163099039,1,2024-09-14 19:45:44.577697021,1726343144.5776978,2024-09-14 19:45:44.577697792,4,1.0,0.1,2.3765728565289637,[0. 1.],[0.59316288 0.40683712],"[ 0.625       0.25390625  0.44921875  1.          0.          1.
  1.          0.          1.          0.28710938 -0.8         0.5       ]",0.8642112074668142,0,0
92,104,2024-09-14 19:47:07.134801152,TASK_BEGIN,3,0.0422529523802467,0.1003853993905569,-1.351217994217078,0.3944782509409842,0.2605453931352087,0.3712091733404549,1.1765343285990488,0.0941159730241285,1,2024-09-14 19:45:44.577697021,1726343144.5776978,2024-09-14 19:45:44.577697792,4,1.0,0.1,2.3765728565289637,[0. 1.],[0.59316288 0.40683712],"[ 0.625       0.25390625  0.44921875  1.          0.          1.
  1.          0.          1.          0.28710938 -0.8         0.5       ]",0.8642112074668142,0,0
93,105,2024-09-14 19:47:07.212006144,TASK_BEGIN,3,0.0164194025305243,0.1099164639154868,-1.1841074476986715,0.3550239827050649,0.2637599864769724,0.3735591754194747,1.3111296334935565,0.0490438852224151,1,2024-09-14 19:45:44.577697021,1726343144.5776978,2024-09-14 19:45:44.577697792,4,1.0,0.1,2.3765728565289637,[0. 1.],[0.59316288 0.40683712],"[ 0.625       0.25390625  0.44921875  1.          0.          1.
  1.          0.          1.          0.28710938 -0.8         0.5       ]",0.8642112074668142,0,0
94,106,2024-09-14 19:47:08.132579072,TASK_BEGIN,3,-0.0086563620985328,0.1184470530354348,-1.0295122271661643,0.3172429637920002,0.27143993120887,0.3737792226455126,1.4226897432811574,0.0070006468046164,1,2024-09-14 19:45:45.688806152,1726343145.6888063,2024-09-14 19:45:45.688806400,4,0.0,0.1,3.8888276046713495,[1. 0.],[3.07529558e-04 9.99692470e-01],"[ 0.31944444  0.25390625  0.44921875  0.81944444  0.25390625  0.44921875
  1.          0.          1.          0.41796875  1.         -0.23333333]",1.0064918955957334,0,0
95,107,2024-09-14 19:47:08.189282048,TASK_BEGIN,3,-0.0314261940878967,0.1256123341637168,-0.8894376193021345,0.2820520141179758,0.2836391007054761,0.3718098583301165,1.5042608803089594,-0.0308088852299588,1,2024-09-14 19:45:45.688806152,1726343145.6888063,2024-09-14 19:45:45.688806400,4,0.0,0.1,3.8888276046713495,[1. 0.],[3.07529558e-04 9.99692470e-01],"[ 0.31944444  0.25390625  0.44921875  0.81944444  0.25390625  0.44921875
  1.          0.          1.          0.41796875  1.         -0.23333333]",1.0064918955957334,0,0
96,108,2024-09-14 19:47:08.268176128,TASK_BEGIN,3,-0.050513372999218,0.1310829793241487,-0.7657652987202417,0.2503040384474268,0.3004014487194038,0.3676442699339689,1.5522216885258846,-0.0636963165233047,1,2024-09-14 19:45:45.688806152,1726343145.6888063,2024-09-14 19:45:45.688806400,4,0.0,0.1,3.8888276046713495,[1. 0.],[3.07529558e-04 9.99692470e-01],"[ 0.31944444  0.25390625  0.44921875  0.81944444  0.25390625  0.44921875
  1.          0.          1.          0.41796875  1.         -0.23333333]",1.0064918955957334,0,0
97,109,2024-09-14 19:47:08.327575808,TASK_BEGIN,3,-0.064793498179785,0.1345882465263632,-0.6601879922087459,0.2227374151591407,0.3217000228000665,0.3613409990566202,1.566470968310894,-0.0914981128048679,1,2024-09-14 19:45:45.688806152,1726343145.6888063,2024-09-14 19:45:45.688806400,4,0.0,0.1,3.8888276046713495,[1. 0.],[3.07529558e-04 9.99692470e-01],"[ 0.31944444  0.25390625  0.44921875  0.81944444  0.25390625  0.44921875
  1.          0.          1.          0.41796875  1.         -0.23333333]",1.0064918955957334,0,0
98,110,2024-09-14 19:47:08.389105920,TASK_BEGIN,3,-0.0734258033418801,0.1359293267006882,-0.5740720654738221,0.1999243358206826,0.3473892867332981,0.3530323739621467,1.5502366355952868,-0.1145136582285075,1,2024-09-14 19:45:45.688806152,1726343145.6888063,2024-09-14 19:45:45.688806400,4,0.0,0.1,3.8888276046713495,[1. 0.],[3.07529558e-04 9.99692470e-01],"[ 0.31944444  0.25390625  0.44921875  0.81944444  0.25390625  0.44921875
  1.          0.          1.          0.41796875  1.         -0.23333333]",1.0064918955957334,0,0
99,111,2024-09-14 19:47:08.466763008,TASK_BEGIN,3,-0.0758623244282713,0.1349847279646021,-0.5083431709148196,0.1822297387887898,0.3771851523950299,0.3429248322780377,1.5095221775929972,-0.1333801720096399,1,2024-09-14 19:45:45.688806152,1726343145.6888063,2024-09-14 19:45:45.688806400,4,0.0,0.1,3.8888276046713495,[1. 0.],[3.07529558e-04 9.99692470e-01],"[ 0.31944444  0.25390625  0.44921875  0.81944444  0.25390625  0.44921875
  1.          0.          1.          0.41796875  1.         -0.23333333]",1.0064918955957334,0,0
100,112,2024-09-14 19:47:08.529545216,TASK_BEGIN,3,-0.0718501168302884,0.1317127100037847,-0.4634241992830932,0.1697794730748202,0.4106737500483275,0.3312908797943559,1.4521950413117872,-0.148896496335135,1,2024-09-14 19:45:45.688806152,1726343145.6888063,2024-09-14 19:45:45.688806400,4,0.0,0.1,3.8888276046713495,[1. 0.],[3.07529558e-04 9.99692470e-01],"[ 0.31944444  0.25390625  0.44921875  0.81944444  0.25390625  0.44921875
  1.          0.          1.          0.41796875  1.         -0.23333333]",1.0064918955957334,0,0
101,113,2024-09-14 19:47:09.468287232,TASK_BEGIN,3,-0.0614269355935332,0.1261536152038826,-0.4391952308121186,0.162436842312543,0.4473338731882733,0.3184550696651577,1.3868003433082752,-0.1618210976783534,1,2024-09-14 19:45:46.653732910,1726343146.653734,2024-09-14 19:45:46.653733888,4,0.0,-1.0,4.689999925245589,[1. 0.],[7.21709604e-04 9.99278290e-01],"[ 0.05555556  0.25390625  0.44921875  0.55555556  0.25390625  0.44921875
  1.          0.          1.          0.41992188  0.9        -0.06666667]",1.0243479207513846,1,2
102,114,2024-09-14 19:47:09.549942784,TASK_BEGIN,3,-0.0449019996218343,0.1184306034896189,-0.4349653869217492,0.1598018761023132,0.4865505089082572,0.3047766318307592,1.3213740045036166,-0.17269357631733,1,2024-09-14 19:45:46.653732910,1726343146.653734,2024-09-14 19:45:46.653733888,4,0.0,-1.0,4.689999925245589,[1. 0.],[7.21709604e-04 9.99278290e-01],"[ 0.05555556  0.25390625  0.44921875  0.55555556  0.25390625  0.44921875
  1.          0.          1.          0.41992188  0.9        -0.06666667]",1.0243479207513846,1,2
103,115,2024-09-14 19:47:09.606556928,TASK_BEGIN,3,-0.0228145645670374,0.1087462548747389,-0.4495338939290366,0.1612479256506861,0.5276057456510842,0.2906319895798414,1.2625624795472972,-0.1817218488885198,1,2024-09-14 19:45:46.653732910,1726343146.653734,2024-09-14 19:45:46.653733888,4,0.0,-1.0,4.689999925245589,[1. 0.],[7.21709604e-04 9.99278290e-01],"[ 0.05555556  0.25390625  0.44921875  0.55555556  0.25390625  0.44921875
  1.          0.          1.          0.41992188  0.9        -0.06666667]",1.0243479207513846,1,2
104,116,2024-09-14 19:47:09.684665088,TASK_BEGIN,3,0.0041226571820494,0.0973750846236725,-0.4814567846333965,0.1659930834905585,0.5696565671927761,0.2764010780347551,1.2151516539019196,-0.1887441389237947,1,2024-09-14 19:45:46.653732910,1726343146.653734,2024-09-14 19:45:46.653733888,4,0.0,-1.0,4.689999925245589,[1. 0.],[7.21709604e-04 9.99278290e-01],"[ 0.05555556  0.25390625  0.44921875  0.55555556  0.25390625  0.44921875
  1.          0.          1.          0.41992188  0.9        -0.06666667]",1.0243479207513846,1,2
105,120,2024-09-14 19:47:10.828183808,TASK_BEGIN,3,0.1419210312291459,0.0424695093669518,-0.7658747196922135,0.2015837079825983,0.7270680540364096,0.2259199691476162,1.1725339583017729,-0.1848788816623233,1,2024-09-14 19:45:48.206080811,1726343148.2060816,2024-09-14 19:45:48.206081536,5,0.0,0.1,0.1,[1. 0.],[0.28791326 0.71208674],"[ 0.98611111  0.1953125   0.390625    1.          0.          1.
  1.          0.          1.          0.4609375  -0.8         0.46666667]",0.8206534700082135,0,0
106,121,2024-09-14 19:47:10.900005120,TASK_BEGIN,3,0.1783112115360826,0.028514502174302,-0.8765549167101317,0.2115046134546539,0.7583175904529061,0.2165438606164909,1.1968128464228458,-0.1731330090033416,1,2024-09-14 19:45:48.206080811,1726343148.2060816,2024-09-14 19:45:48.206081536,5,0.0,0.1,0.1,[1. 0.],[0.28791326 0.71208674],"[ 0.98611111  0.1953125   0.390625    1.          0.          1.
  1.          0.          1.          0.4609375  -0.8         0.46666667]",0.8206534700082135,0,0
107,122,2024-09-14 19:47:10.967232000,TASK_BEGIN,3,0.2130723828299327,0.0152619289540327,-1.0039593083757472,0.2213971262179332,0.7845244644784066,0.2089526783209418,1.2326037305413031,-0.1568967915473133,1,2024-09-14 19:45:48.206080811,1726343148.2060816,2024-09-14 19:45:48.206081536,5,0.0,0.1,0.1,[1. 0.],[0.28791326 0.71208674],"[ 0.98611111  0.1953125   0.390625    1.          0.          1.
  1.          0.          1.          0.4609375  -0.8         0.46666667]",0.8206534700082135,0,0
108,123,2024-09-14 19:47:11.035635968,TASK_BEGIN,3,0.2452119361617827,0.0029763872567702,-1.1476890123251202,0.2315086136333991,0.8051971112193619,0.2032439661054203,1.2782487986992963,-0.1366859476216196,1,2024-09-14 19:45:48.206080811,1726343148.2060816,2024-09-14 19:45:48.206081536,5,0.0,0.1,0.1,[1. 0.],[0.28791326 0.71208674],"[ 0.98611111  0.1953125   0.390625    1.          0.          1.
  1.          0.          1.          0.4609375  -0.8         0.46666667]",0.8206534700082135,0,0
109,124,2024-09-14 19:47:11.103449856,TASK_BEGIN,3,0.2740792010343981,-0.0081963903536451,-1.306082034119498,0.2422192513456419,0.8201676579343988,0.1994005994482282,1.331940517422881,-0.1133183177321095,1,2024-09-14 19:45:48.206080811,1726343148.2060816,2024-09-14 19:45:48.206081536,5,0.0,0.1,0.1,[1. 0.],[0.28791326 0.71208674],"[ 0.98611111  0.1953125   0.390625    1.          0.          1.
  1.          0.          1.          0.4609375  -0.8         0.46666667]",0.8206534700082135,0,0
110,125,2024-09-14 19:47:11.168502272,TASK_BEGIN,3,0.2994372630987966,-0.0182234985771371,-1.4758797220009627,0.2538732795612911,0.8295854018786174,0.1972897782049905,1.3919723522354062,-0.0878940767630322,1,2024-09-14 19:45:48.206080811,1726343148.2060816,2024-09-14 19:45:48.206081536,5,0.0,0.1,0.1,[1. 0.],[0.28791326 0.71208674],"[ 0.98611111  0.1953125   0.390625    1.          0.          1.
  1.          0.          1.          0.4609375  -0.8         0.46666667]",0.8206534700082135,0,0
111,126,2024-09-14 19:47:11.238993920,TASK_BEGIN,3,0.3214430087902639,-0.0271545001636176,-1.6520449257039511,0.2666111376029086,0.8338547361534475,0.1966798451211038,1.4570784787926732,-0.0617896128371152,1,2024-09-14 19:45:48.206080811,1726343148.2060816,2024-09-14 19:45:48.206081536,5,0.0,0.1,0.1,[1. 0.],[0.28791326 0.71208674],"[ 0.98611111  0.1953125   0.390625    1.          0.          1.
  1.          0.          1.          0.4609375  -0.8         0.46666667]",0.8206534700082135,0,0
112,127,2024-09-14 19:47:12.180650752,TASK_BEGIN,3,0.3405600802800725,-0.0350831613772726,-1.8278649915777148,0.2802562889872282,0.8335415829962461,0.1972701487761135,1.5266870920109168,-0.0366318870247144,1,2024-09-14 19:45:49.932933105,1726343149.932933,2024-09-14 19:45:49.932933120,5,1.0,0.1,2.965523050004307,[0. 1.],[0.95461785 0.04538215],"[ 0.51388889  0.1953125   0.390625    1.          0.          1.
  1.          0.          1.          0.28515625 -0.8         0.5       ]",0.8862382071448778,0,0
113,128,2024-09-14 19:47:12.241704960,TASK_BEGIN,3,0.3574450373225345,-0.0421180503251842,-1.9954874926006327,0.2942938020652945,0.8292830920983832,0.1987261237558876,1.600955360925148,-0.0142146402914617,1,2024-09-14 19:45:49.984229004,1726343149.9842298,2024-09-14 19:45:49.984229888,5,1.0,0.1,3.035867819504264,[0. 1.],[0.84888732 0.15111268],"[ 0.5         0.1953125   0.390625    1.          0.234375    0.4296875
  1.          0.          1.          0.26953125 -0.8         0.5       ]",0.9495362516765079,0,0
114,129,2024-09-14 19:47:12.318416896,TASK_BEGIN,3,0.3728338484630439,-0.0483686411522228,-2.14679369377809,0.3079354489260585,0.8217199104546002,0.2007134226284253,1.6805794963845164,0.0036514255916011,1,2024-09-14 19:45:50.032789062,1726343150.0327897,2024-09-14 19:45:50.032789760,5,1.0,0.1,3.1055091413092217,[0. 1.],[0.76740468 0.23259532],"[ 0.48611111  0.1953125   0.390625    0.98611111  0.234375    0.4296875
  1.          0.          1.          0.25390625 -0.8         0.5       ]",0.9760949180111128,0,0
115,130,2024-09-14 19:47:12.386260992,TASK_BEGIN,3,0.3874424801253304,-0.0539437925015261,-2.2742952091984634,0.3202348218028393,0.8114579030285566,0.2029265677212805,1.7664841818918435,0.0153174727661962,1,2024-09-14 19:45:50.032789062,1726343150.0327897,2024-09-14 19:45:50.032789760,5,1.0,0.1,3.1055091413092217,[0. 1.],[0.76740468 0.23259532],"[ 0.48611111  0.1953125   0.390625    0.98611111  0.234375    0.4296875
  1.          0.          1.          0.25390625 -0.8         0.5       ]",0.9760949180111128,0,0
116,131,2024-09-14 19:47:12.442100224,TASK_BEGIN,3,0.4018885078377984,-0.0589551550509237,-2.371799759605994,0.3302238227917858,0.7990610519217236,0.2051085576616363,1.8594957653312727,0.0194617432509563,1,2024-09-14 19:45:50.032789062,1726343150.0327897,2024-09-14 19:45:50.032789760,5,1.0,0.1,3.1055091413092217,[0. 1.],[0.76740468 0.23259532],"[ 0.48611111  0.1953125   0.390625    0.98611111  0.234375    0.4296875
  1.          0.          1.          0.25390625 -0.8         0.5       ]",0.9760949180111128,0,0
117,132,2024-09-14 19:47:12.521596928,TASK_BEGIN,3,0.4166394001423237,-0.0635187392276847,-2.434782082948141,0.3370522923174553,0.7850656794772485,0.2070602519559655,1.9600255075988209,0.0152247385222878,1,2024-09-14 19:45:50.032789062,1726343150.0327897,2024-09-14 19:45:50.032789760,5,1.0,0.1,3.1055091413092217,[0. 1.],[0.76740468 0.23259532],"[ 0.48611111  0.1953125   0.390625    0.98611111  0.234375    0.4296875
  1.          0.          1.          0.25390625 -0.8         0.5       ]",0.9760949180111128,0,0
118,133,2024-09-14 19:47:12.589724160,TASK_BEGIN,3,0.4319950506514956,-0.0677516651366328,-2.460501688775085,0.3400967858597948,0.7700007465076156,0.2086407858683232,2.067777345884772,0.0023015297179559,1,2024-09-14 19:45:50.032789062,1726343150.0327897,2024-09-14 19:45:50.032789760,5,1.0,0.1,3.1055091413092217,[0. 1.],[0.76740468 0.23259532],"[ 0.48611111  0.1953125   0.390625    0.98611111  0.234375    0.4296875
  1.          0.          1.          0.25390625 -0.8         0.5       ]",0.9760949180111128,0,0
119,134,2024-09-14 19:47:13.495516160,TASK_BEGIN,3,0.4481077893497752,-0.0717658842263155,-2.4479644929993785,0.3390073469818462,0.754410403730459,0.2097622120032848,2.1815636126457774,-0.0190319244147722,1,2024-09-14 19:45:51.145114014,1726343151.1451144,2024-09-14 19:45:51.145114368,5,0.0,-1.0,3.3731652283761475,[1. 0.],[5.35264357e-05 9.99946474e-01],"[ 0.18055556  0.1953125   0.390625    0.68055556  0.234375    0.4296875
  1.          0.          1.          0.34960938  1.         -0.2       ]",1.0289435075055704,1,2
120,135,2024-09-14 19:47:13.575723008,TASK_BEGIN,3,0.4650288316339024,-0.0756621737093879,-2.3978741311210685,0.3337013469079422,0.73888072837334,0.2103825143244934,2.299283321964081,-0.047958025129803,1,2024-09-14 19:45:51.145114014,1726343151.1451144,2024-09-14 19:45:51.145114368,5,0.0,-1.0,3.3731652283761475,[1. 0.],[5.35264357e-05 9.99946474e-01],"[ 0.18055556  0.1953125   0.390625    0.68055556  0.234375    0.4296875
  1.          0.          1.          0.34960938  1.         -0.2       ]",1.0289435075055704,1,2
121,136,2024-09-14 19:47:13.635694080,TASK_BEGIN,3,0.4827540127564078,-0.0795247614066757,-2.312656090640635,0.3243368786923264,0.7240583643014967,0.2104987084413926,2.417964048930567,-0.0831835128324773,1,2024-09-14 19:45:51.145114014,1726343151.1451144,2024-09-14 19:45:51.145114368,5,0.0,-1.0,3.3731652283761475,[1. 0.],[5.35264357e-05 9.99946474e-01],"[ 0.18055556  0.1953125   0.390625    0.68055556  0.234375    0.4296875
  1.          0.          1.          0.34960938  1.         -0.2       ]",1.0289435075055704,1,2
122,137,2024-09-14 19:47:13.701214976,TASK_BEGIN,3,0.501237903857046,-0.0834145281307393,-2.19647942758904,0.3112881059575383,0.7106374753962983,0.2101394217256877,2.5337427421775898,-0.1229975479446974,1,2024-09-14 19:45:51.145114014,1726343151.1451144,2024-09-14 19:45:51.145114368,5,0.0,-1.0,3.3731652283761475,[1. 0.],[5.35264357e-05 9.99946474e-01],"[ 0.18055556  0.1953125   0.390625    0.68055556  0.234375    0.4296875
  1.          0.          1.          0.34960938  1.         -0.2       ]",1.0289435075055704,1,2
123,138,2024-09-14 19:47:13.773377024,TASK_BEGIN,3,0.5203667172755424,-0.0873606506572203,-2.055118279546452,0.2951273882904605,0.6993026218745284,0.2093586828238352,2.6418543807253854,-0.1653351453098062,1,2024-09-14 19:45:51.145114014,1726343151.1451144,2024-09-14 19:45:51.145114368,5,0.0,-1.0,3.3731652283761475,[1. 0.],[5.35264357e-05 9.99946474e-01],"[ 0.18055556  0.1953125   0.390625    0.68055556  0.234375    0.4296875
  1.          0.          1.          0.34960938  1.         -0.2       ]",1.0289435075055704,1,2
124,139,2024-09-14 19:47:13.846885120,TASK_BEGIN,3,0.5399178819058718,-0.0913553406001709,-1.8955676820173344,0.276598316539174,0.6906389370754242,0.2082337701218785,2.7368204920020456,-0.2078886702021042,1,2024-09-14 19:45:51.145114014,1726343151.1451144,2024-09-14 19:45:51.145114368,5,0.0,-1.0,3.3731652283761475,[1. 0.],[5.35264357e-05 9.99946474e-01],"[ 0.18055556  0.1953125   0.390625    0.68055556  0.234375    0.4296875
  1.          0.          1.          0.34960938  1.         -0.2       ]",1.0289435075055704,1,2
125,140,2024-09-14 19:47:13.912181760,TASK_BEGIN,3,0.5595494200569222,-0.095357606000469,-1.7254975747698822,0.2565596326062993,0.6850385625325589,0.2068649727366482,2.8128896760003896,-0.2482793494649418,1,2024-09-14 19:45:51.145114014,1726343151.1451144,2024-09-14 19:45:51.145114368,5,0.0,-1.0,3.3731652283761475,[1. 0.],[5.35264357e-05 9.99946474e-01],"[ 0.18055556  0.1953125   0.390625    0.68055556  0.234375    0.4296875
  1.          0.          1.          0.34960938  1.         -0.2       ]",1.0289435075055704,1,2
126,143,2024-09-14 19:47:14.993654016,TASK_BEGIN,3,0.6145617234924566,-0.1067413155656057,-1.2288908745158074,0.1961189435543114,0.6865527577722322,0.2025063412386907,2.878549361234593,-0.3357179247862398,1,2024-09-14 19:45:52.697371094,1726343152.6973712,2024-09-14 19:45:52.697371136,6,0.0,0.1,0.1,[1. 0.],[0.43968908 0.56031092],"[ 0.98611111  0.25390625  0.44921875  1.          0.          1.
  1.          0.          1.          0.4609375  -0.8         0.46666667]",0.8158654728285952,0,0
127,144,2024-09-14 19:47:15.061413120,TASK_BEGIN,3,0.6301810508867194,-0.1100752303179681,-1.0910218381878245,0.1784114361737719,0.6918577167929609,0.2013465312161018,2.8365172415123987,-0.3488623869944192,1,2024-09-14 19:45:52.697371094,1726343152.6973712,2024-09-14 19:45:52.697371136,6,0.0,0.1,0.1,[1. 0.],[0.43968908 0.56031092],"[ 0.98611111  0.25390625  0.44921875  1.          0.          1.
  1.          0.          1.          0.4609375  -0.8         0.46666667]",0.8158654728285952,0,0
128,145,2024-09-14 19:47:15.129230080,TASK_BEGIN,3,0.6438491021166024,-0.1130524807337809,-0.9763649976531736,0.1629152678769384,0.6984449213151379,0.2004614708540686,2.762025226959709,-0.3530422409905778,1,2024-09-14 19:45:52.697371094,1726343152.6973712,2024-09-14 19:45:52.697371136,6,0.0,0.1,0.1,[1. 0.],[0.43968908 0.56031092],"[ 0.98611111  0.25390625  0.44921875  1.          0.          1.
  1.          0.          1.          0.4609375  -0.8         0.46666667]",0.8158654728285952,0,0
129,146,2024-09-14 19:47:15.197007872,TASK_BEGIN,3,0.6553174728852444,-0.1156128128934975,-0.8888756677674868,0.1500628647775121,0.7054996107542586,0.1998816643293685,2.657298181493993,-0.3485639093590348,1,2024-09-14 19:45:52.697371094,1726343152.6973712,2024-09-14 19:45:52.697371136,6,0.0,0.1,0.1,[1. 0.],[0.43968908 0.56031092],"[ 0.98611111  0.25390625  0.44921875  1.          0.          1.
  1.          0.          1.          0.4609375  -0.8         0.46666667]",0.8158654728285952,0,0
130,147,2024-09-14 19:47:15.261782016,TASK_BEGIN,3,0.6644285821922475,-0.1177228314996627,-0.8312887871173227,0.1402092053142887,0.7121891078799644,0.1996129341883574,2.5258492676835487,-0.336255739102445,1,2024-09-14 19:45:52.697371094,1726343152.6973712,2024-09-14 19:45:52.697371136,6,0.0,0.1,0.1,[1. 0.],[0.43968908 0.56031092],"[ 0.98611111  0.25390625  0.44921875  1.          0.          1.
  1.          0.          1.          0.4609375  -0.8         0.46666667]",0.8158654728285952,0,0
131,148,2024-09-14 19:47:16.195422976,TASK_BEGIN,3,0.6711151555201685,-0.1193847746848442,-0.8050236798328285,0.1336478800339581,0.7177026767048771,0.1996449040536345,2.3720512425045626,-0.3173413671229832,1,2024-09-14 19:45:53.599405029,1726343153.599405,2024-09-14 19:45:53.599405056,6,1.0,0.1,1.7383137616441329,[0. 1.],[0.37770474 0.62229526],"[ 0.73611111  0.25390625  0.44921875  1.          0.          1.
  1.          0.          1.          0.35742188 -0.8         0.5       ]",0.8188857816647335,0,0
132,149,2024-09-14 19:47:16.275912960,TASK_BEGIN,3,0.675390842501046,-0.1206366632402689,-0.8101025987121986,0.1306080137616206,0.7212795189707953,0.1999585480892807,2.20076202261328,-0.2932709583368873,1,2024-09-14 19:45:53.599405029,1726343153.599405,2024-09-14 19:45:53.599405056,6,1.0,0.1,1.7383137616441329,[0. 1.],[0.37770474 0.62229526],"[ 0.73611111  0.25390625  0.44921875  1.          0.          1.
  1.          0.          1.          0.35742188 -0.8         0.5       ]",0.8188857816647335,0,0
133,150,2024-09-14 19:47:16.333787904,TASK_BEGIN,3,0.6773494145503781,-0.1215436517304536,-0.8451742841900087,0.1312225798365779,0.7222283261718386,0.2005295584576223,2.017289381650773,-0.2655921692168997,1,2024-09-14 19:45:53.599405029,1726343153.599405,2024-09-14 19:45:53.599405056,6,1.0,0.1,1.7383137616441329,[0. 1.],[0.37770474 0.62229526],"[ 0.73611111  0.25390625  0.44921875  1.          0.          1.
  1.          0.          1.          0.35742188 -0.8         0.5       ]",0.8188857816647335,0,0
134,151,2024-09-14 19:47:16.410507008,TASK_BEGIN,3,0.6771644512912033,-0.1221815922255699,-0.9076287607779342,0.1354732307888685,0.7199445327454518,0.201328283213852,1.8277552357613875,-0.2359167940302078,1,2024-09-14 19:45:53.599405029,1726343153.599405,2024-09-14 19:45:53.599405056,6,1.0,0.1,1.7383137616441329,[0. 1.],[0.37770474 0.62229526],"[ 0.73611111  0.25390625  0.44921875  1.          0.          1.
  1.          0.          1.          0.35742188 -0.8         0.5       ]",0.8188857816647335,0,0
135,152,2024-09-14 19:47:16.472763904,TASK_BEGIN,3,0.6750587024518974,-0.1226144742092814,-0.9937173079008438,0.1431420303525849,0.7139281087853686,0.2023220562357498,1.639529393886437,-0.2059476874569105,1,2024-09-14 19:45:53.599405029,1726343153.599405,2024-09-14 19:45:53.599405056,6,1.0,0.1,1.7383137616441329,[0. 1.],[0.37770474 0.62229526],"[ 0.73611111  0.25390625  0.44921875  1.          0.          1.
  1.          0.          1.          0.35742188 -0.8         0.5       ]",0.8188857816647335,0,0
136,153,2024-09-14 19:47:16.534347264,TASK_BEGIN,3,0.6712399740132489,-0.1228726385007298,-1.0986271141816035,0.153797691363961,0.7037967999390646,0.203483048053429,1.461329643282092,-0.1774899133044135,1,2024-09-14 19:45:53.599405029,1726343153.599405,2024-09-14 19:45:53.599405056,6,1.0,0.1,1.7383137616441329,[0. 1.],[0.37770474 0.62229526],"[ 0.73611111  0.25390625  0.44921875  1.          0.          1.
  1.          0.          1.          0.35742188 -0.8         0.5       ]",0.8188857816647335,0,0
137,154,2024-09-14 19:47:16.614822144,TASK_BEGIN,3,0.6658439423606389,-0.1229414797717224,-1.216552767646145,0.1668183138302379,0.6892900990953309,0.2047986512083646,1.3028606022110305,-0.1524048729847555,1,2024-09-14 19:45:54.358072998,1726343154.358073,2024-09-14 19:45:54.358073088,6,1.0,0.1,2.894467727277078,[0. 1.],[0.91253958 0.08746042],"[ 0.52777778  0.25390625  0.44921875  1.          0.          1.
  1.          0.          1.          0.30078125 -0.8         0.5       ]",0.9027165220891089,0,0
138,155,2024-09-14 19:47:17.558162944,TASK_BEGIN,3,0.6589229215439866,-0.1227637515666236,-1.3408767051299697,0.1814398868347898,0.6702729193986287,0.2062796712813675,1.174121520542163,-0.1325149353371664,1,2024-09-14 19:45:55.271245850,1726343155.2712464,2024-09-14 19:45:55.271246336,6,0.0,0.1,4.070335535985006,[1. 0.],[9.99999991e-01 9.01129580e-09],"[ 0.27777778  0.25390625  0.44921875  0.77777778  0.1953125   0.390625
  1.          0.          1.          0.31835938  0.9        -0.06666667]",0.605483618509643,0,0
139,156,2024-09-14 19:47:17.625906944,TASK_BEGIN,3,0.6504836818508734,-0.1222505610128619,-1.4645102753790515,0.1968088533056754,0.6467551822809448,0.2079617740195356,1.0845233295011707,-0.1194816269593583,1,2024-09-14 19:45:55.372248047,1726343155.3722484,2024-09-14 19:45:55.372248320,6,1.0,0.1,4.1883358588189035,[0. 1.],[0.88999132 0.11000868],"[ 0.25        0.25390625  0.44921875  0.75        0.1953125   0.390625
  1.          0.          1.          0.32226562 -0.8         0.5       ]",1.0003871369963337,1,2
140,157,2024-09-14 19:47:17.685004800,TASK_BEGIN,3,0.6405546284304049,-0.1212959082812368,-1.5803199637128202,0.2120039360160573,0.6189285768562427,0.2098965803999771,1.0418620561301737,-0.1146706640509952,1,2024-09-14 19:45:55.372248047,1726343155.3722484,2024-09-14 19:45:55.372248320,6,1.0,0.1,4.1883358588189035,[0. 1.],[0.88999132 0.11000868],"[ 0.25        0.25390625  0.44921875  0.75        0.1953125   0.390625
  1.          0.          1.          0.32226562 -0.8         0.5       ]",1.0003871369963337,1,2
141,158,2024-09-14 19:47:17.761353984,TASK_BEGIN,3,0.6292563214337962,-0.1197927832350025,-1.6815709188079715,0.2260221366871866,0.5872049033924304,0.2121343776557549,1.0512563650590698,-0.1190172039665264,1,2024-09-14 19:45:55.372248047,1726343155.3722484,2024-09-14 19:45:55.372248320,6,1.0,0.1,4.1883358588189035,[0. 1.],[0.88999132 0.11000868],"[ 0.25        0.25390625  0.44921875  0.75        0.1953125   0.390625
  1.          0.          1.          0.32226562 -0.8         0.5       ]",1.0003871369963337,1,2
142,159,2024-09-14 19:47:17.829164032,TASK_BEGIN,3,0.6168454254558052,-0.117648896955413,-1.762409253335229,0.2377828818010338,0.5522461351460286,0.2147059716296254,1.1143316605879647,-0.1329140097061145,1,2024-09-14 19:45:55.372248047,1726343155.3722484,2024-09-14 19:45:55.372248320,6,1.0,0.1,4.1883358588189035,[0. 1.],[0.88999132 0.11000868],"[ 0.25        0.25390625  0.44921875  0.75        0.1953125   0.390625
  1.          0.          1.          0.32226562 -0.8         0.5       ]",1.0003871369963337,1,2
143,160,2024-09-14 19:47:17.884541952,TASK_BEGIN,3,0.6037111243147124,-0.1147993283333469,-1.8183715881455085,0.2462055228312322,0.5149871843264321,0.2176088693536119,1.2289599701097604,-0.1561419208565856,1,2024-09-14 19:45:55.372248047,1726343155.3722484,2024-09-14 19:45:55.372248320,6,1.0,0.1,4.1883358588189035,[0. 1.],[0.88999132 0.11000868],"[ 0.25        0.25390625  0.44921875  0.75        0.1953125   0.390625
  1.          0.          1.          0.32226562 -0.8         0.5       ]",1.0003871369963337,1,2
144,161,2024-09-14 19:47:17.961318144,TASK_BEGIN,3,0.5903233285256192,-0.1112137533860691,-1.8468217414915304,0.2503508982923411,0.476640216988637,0.2207975771483278,1.3896448361867515,-0.1878522897438945,1,2024-09-14 19:45:55.372248047,1726343155.3722484,2024-09-14 19:45:55.372248320,6,1.0,0.1,4.1883358588189035,[0. 1.],[0.88999132 0.11000868],"[ 0.25        0.25390625  0.44921875  0.75        0.1953125   0.390625
  1.          0.          1.          0.32226562 -0.8         0.5       ]",1.0003871369963337,1,2
145,169,2024-09-14 19:47:20.223752960,TASK_BEGIN,3,0.5111283274717815,-0.0644002562445187,-1.4197628547744277,0.1639766035666628,0.3016772348945159,0.2397338911765289,3.2146993634617,-0.5150617084478255,1,2024-09-14 19:45:57.781244873,1726343157.7812452,2024-09-14 19:45:57.781245184,7,1.0,0.1,1.22478977001032,[0. 1.],[0.60851546 0.39148454],"[ 0.81944444  0.2734375   0.46875     1.          0.          1.
  1.          0.          1.          0.40234375 -0.8         0.5       ]",0.8135330178122733,0,0
146,170,2024-09-14 19:47:20.285744896,TASK_BEGIN,3,0.5068360556273389,-0.0588456835065074,-1.3638619075084475,0.1601918338364832,0.3115638659362513,0.2392956368940022,3.367085136399288,-0.5344837354870124,1,2024-09-14 19:45:57.781244873,1726343157.7812452,2024-09-14 19:45:57.781245184,7,1.0,0.1,1.22478977001032,[0. 1.],[0.60851546 0.39148454],"[ 0.81944444  0.2734375   0.46875     1.          0.          1.
  1.          0.          1.          0.40234375 -0.8         0.5       ]",0.8135330178122733,0,0
147,171,2024-09-14 19:47:20.362966016,TASK_BEGIN,3,0.5044179536916412,-0.0541365286172492,-1.319654927614404,0.1632762590793391,0.3295903179004004,0.2381210015715717,3.473565874049984,-0.5442935510436088,1,2024-09-14 19:45:57.781244873,1726343157.7812452,2024-09-14 19:45:57.781245184,7,1.0,0.1,1.22478977001032,[0. 1.],[0.60851546 0.39148454],"[ 0.81944444  0.2734375   0.46875     1.          0.          1.
  1.          0.          1.          0.40234375 -0.8         0.5       ]",0.8135330178122733,0,0
148,172,2024-09-14 19:47:20.425530112,TASK_BEGIN,3,0.5041328766760238,-0.0504653412978375,-1.2880320141965167,0.1738025843987136,0.3552444573336467,0.236315094018637,3.5270538950062718,-0.5439251395038667,1,2024-09-14 19:45:57.781244873,1726343157.7812452,2024-09-14 19:45:57.781245184,7,1.0,0.1,1.22478977001032,[0. 1.],[0.60851546 0.39148454],"[ 0.81944444  0.2734375   0.46875     1.          0.          1.
  1.          0.          1.          0.40234375 -0.8         0.5       ]",0.8135330178122733,0,0
149,173,2024-09-14 19:47:20.487899904,TASK_BEGIN,3,0.50618924006224,-0.0479753493078562,-1.269281986144766,0.1917726352005942,0.3876551152740623,0.2340450853940782,3.522063972453867,-0.5331368988903994,1,2024-09-14 19:45:57.781244873,1726343157.7812452,2024-09-14 19:45:57.781245184,7,1.0,0.1,1.22478977001032,[0. 1.],[0.60851546 0.39148454],"[ 0.81944444  0.2734375   0.46875     1.          0.          1.
  1.          0.          1.          0.40234375 -0.8         0.5       ]",0.8135330178122733,0,0
150,174,2024-09-14 19:47:20.565627136,TASK_BEGIN,3,0.5107044722657189,-0.0467588295341797,-1.2629356037369928,0.2165940080862756,0.4256098002264258,0.2315403986841495,3.455076017261569,-0.5119769122427044,1,2024-09-14 19:45:57.781244873,1726343157.7812452,2024-09-14 19:45:57.781245184,7,1.0,0.1,1.22478977001032,[0. 1.],[0.60851546 0.39148454],"[ 0.81944444  0.2734375   0.46875     1.          0.          1.
  1.          0.          1.          0.40234375 -0.8         0.5       ]",0.8135330178122733,0,0
151,175,2024-09-14 19:47:20.638537728,TASK_BEGIN,3,0.5176543976221101,-0.0468576645661981,-1.2674354498429288,0.2470694828139558,0.4675932921549184,0.2290843413395893,3.324842427059753,-0.4808032546521911,1,2024-09-14 19:45:57.781244873,1726343157.7812452,2024-09-14 19:45:57.781245184,7,1.0,0.1,1.22478977001032,[0. 1.],[0.60851546 0.39148454],"[ 0.81944444  0.2734375   0.46875     1.          0.          1.
  1.          0.          1.          0.40234375 -0.8         0.5       ]",0.8135330178122733,0,0
152,176,2024-09-14 19:47:21.581746176,TASK_BEGIN,3,0.5268197217637438,-0.0482633617459066,-1.2798894289248297,0.2814471190511489,0.5118379625083751,0.22699730059199,3.132785483755562,-0.4403667174542275,1,2024-09-14 19:45:58.587246826,1726343158.5872476,2024-09-14 19:45:58.587247616,7,0.0,0.1,2.5282790566840374,[1. 0.],[0.73118756 0.26881244],"[ 0.59722222  0.2734375   0.46875     1.          0.          1.
  1.          0.          1.          0.30664062 -0.7         0.46666667]",0.7296261596316584,0,0
153,177,2024-09-14 19:47:21.649563904,TASK_BEGIN,3,0.5377451647781268,-0.0509144962836318,-1.2961053324219471,0.3175613186894275,0.5563952442040713,0.225613513183251,2.883362222179632,-0.3918811968575126,1,2024-09-14 19:45:59.397919922,1726343159.397921,2024-09-14 19:45:59.397921024,7,1.0,0.1,3.63814513936129,[0. 1.],[9.99999485e-01 5.15400489e-07],"[ 0.375       0.2734375   0.46875     0.875       0.33203125  0.52734375
  1.          0.          1.          0.3203125  -0.8         0.5       ]",0.9953958085671258,1,2
154,178,2024-09-14 19:47:21.712311040,TASK_BEGIN,3,0.5497274973148992,-0.0546924537788426,-1.3109545160364378,0.3530431371702493,0.5992398338573023,0.2252525702448976,2.5841811723266934,-0.3369974872348419,1,2024-09-14 19:45:59.397919922,1726343159.397921,2024-09-14 19:45:59.397921024,7,1.0,0.1,3.63814513936129,[0. 1.],[9.99999485e-01 5.15400489e-07],"[ 0.375       0.2734375   0.46875     0.875       0.33203125  0.52734375
  1.          0.          1.          0.3203125  -0.8         0.5       ]",0.9953958085671258,1,2
155,179,2024-09-14 19:47:21.785157888,TASK_BEGIN,3,0.5618378056341439,-0.0594178322487581,-1.319007992702483,0.3855470364139677,0.638397248419718,0.2261881630794096,2.245866561854149,-0.2776810240290287,1,2024-09-14 19:45:59.397919922,1726343159.397921,2024-09-14 19:45:59.397921024,7,1.0,0.1,3.63814513936129,[0. 1.],[9.99999485e-01 5.15400489e-07],"[ 0.375       0.2734375   0.46875     0.875       0.33203125  0.52734375
  1.          0.          1.          0.3203125  -0.8         0.5       ]",0.9953958085671258,1,2
156,180,2024-09-14 19:47:21.850568192,TASK_BEGIN,3,0.5729820805836985,-0.0648506792257802,-1.31532047644409,0.412943870643514,0.6720696531874278,0.2286204775049712,1.8818532493844875,-0.216078408184675,1,2024-09-14 19:45:59.397919922,1726343159.397921,2024-09-14 19:45:59.397921024,7,1.0,0.1,3.63814513936129,[0. 1.],[9.99999485e-01 5.15400489e-07],"[ 0.375       0.2734375   0.46875     0.875       0.33203125  0.52734375
  1.          0.          1.          0.3203125  -0.8         0.5       ]",0.9953958085671258,1,2
157,181,2024-09-14 19:47:21.911728128,TASK_BEGIN,3,0.5820193356061684,-0.0707011972756205,-1.2962030903625363,0.4334620434218302,0.6987419572522042,0.232657601627981,1.5081432421181755,-0.1544330942993327,1,2024-09-14 19:45:59.397919922,1726343159.397921,2024-09-14 19:45:59.397921024,7,1.0,0.1,3.63814513936129,[0. 1.],[9.99999485e-01 5.15400489e-07],"[ 0.375       0.2734375   0.46875     0.875       0.33203125  0.52734375
  1.          0.          1.          0.3203125  -0.8         0.5       ]",0.9953958085671258,1,2
158,182,2024-09-14 19:47:21.988529920,TASK_BEGIN,3,0.5879360105698217,-0.0766559400144871,-1.2598447684033462,0.4458001187326895,0.7172643428292955,0.2383050039590739,1.1427917532285328,-0.0950184537149403,1,2024-09-14 19:45:59.397919922,1726343159.397921,2024-09-14 19:45:59.397921024,7,1.0,0.1,3.63814513936129,[0. 1.],[9.99999485e-01 5.15400489e-07],"[ 0.375       0.2734375   0.46875     0.875       0.33203125  0.52734375
  1.          0.          1.          0.3203125  -0.8         0.5       ]",0.9953958085671258,1,2
159,190,2024-09-14 19:47:24.257201920,TASK_BEGIN,3,0.5144142678570794,-0.1040503490868147,-0.6856951472896192,0.2787625521887827,0.596455929908195,0.3056735752788946,0.4645969019722362,0.0950304615828813,1,2024-09-14 19:46:01.255386963,1726343161.255387,2024-09-14 19:46:01.255387136,8,0.0,0.1,0.199,[1. 0.],[0.38529696 0.61470304],"[ 0.97222222  0.33203125  0.52734375  1.          0.          1.
  1.          0.          1.          0.44726562 -0.7         0.43333333]",0.8143799602070331,0,0
160,191,2024-09-14 19:47:24.325886976,TASK_BEGIN,3,0.4994112415715948,-0.1041851236626282,-0.6357436934239712,0.2434922653650391,0.5706059556375468,0.309019390266579,0.7653550765508855,0.0716591364836709,1,2024-09-14 19:46:01.866836182,1726343161.866836,2024-09-14 19:46:01.866835968,8,1.0,0.1,1.312541872310217,[0. 1.],[0.69219027 0.30780973],"[ 0.80555556  0.33203125  0.52734375  1.          0.          1.
  1.          0.          1.          0.41015625 -0.8         0.5       ]",0.8132293047117625,0,0
161,192,2024-09-14 19:47:24.393677056,TASK_BEGIN,3,0.4852294998416279,-0.1036390958577307,-0.5972043098435834,0.2099912797253175,0.5496259702366055,0.3095078895018441,1.128947004576774,0.0391802935492319,1,2024-09-14 19:46:01.866836182,1726343161.866836,2024-09-14 19:46:01.866835968,8,1.0,0.1,1.312541872310217,[0. 1.],[0.69219027 0.30780973],"[ 0.80555556  0.33203125  0.52734375  1.          0.          1.
  1.          0.          1.          0.41015625 -0.8         0.5       ]",0.8132293047117625,0,0
162,193,2024-09-14 19:47:24.454985984,TASK_BEGIN,3,0.4720028579442474,-0.102399179276235,-0.5703590834871238,0.1795421163992434,0.5351764154738282,0.3069408161080045,1.53466163675539,-0.0006308171269396,1,2024-09-14 19:46:01.866836182,1726343161.866836,2024-09-14 19:46:01.866835968,8,1.0,0.1,1.312541872310217,[0. 1.],[0.69219027 0.30780973],"[ 0.80555556  0.33203125  0.52734375  1.          0.          1.
  1.          0.          1.          0.41015625 -0.8         0.5       ]",0.8132293047117625,0,0
163,194,2024-09-14 19:47:24.529154048,TASK_BEGIN,3,0.459711671909461,-0.100440338008197,-0.555511486768124,0.1533134298692901,0.5282955652580413,0.3013266460989735,1.959281443428104,-0.0456272380879949,1,2024-09-14 19:46:01.866836182,1726343161.866836,2024-09-14 19:46:01.866835968,8,1.0,0.1,1.312541872310217,[0. 1.],[0.69219027 0.30780973],"[ 0.80555556  0.33203125  0.52734375  1.          0.          1.
  1.          0.          1.          0.41015625 -0.8         0.5       ]",0.8132293047117625,0,0
164,195,2024-09-14 19:47:24.593970944,TASK_BEGIN,3,0.4482711612056891,-0.0977380848416485,-0.5529920678048454,0.1323412157755478,0.5293137657337248,0.2928879023080286,2.3788192460076503,-0.0934167755023588,1,2024-09-14 19:46:01.866836182,1726343161.866836,2024-09-14 19:46:01.866835968,8,1.0,0.1,1.312541872310217,[0. 1.],[0.69219027 0.30780973],"[ 0.80555556  0.33203125  0.52734375  1.          0.          1.
  1.          0.          1.          0.41015625 -0.8         0.5       ]",0.8132293047117625,0,0
165,196,2024-09-14 19:47:24.656457984,TASK_BEGIN,3,0.4376038831837984,-0.0942769834102195,-0.5631235285874563,0.117518080249996,0.5378287273540721,0.2820540568680165,2.770079257650558,-0.1414685378199793,1,2024-09-14 19:46:01.866836182,1726343161.866836,2024-09-14 19:46:01.866835968,8,1.0,0.1,1.312541872310217,[0. 1.],[0.69219027 0.30780973],"[ 0.80555556  0.33203125  0.52734375  1.          0.          1.
  1.          0.          1.          0.41015625 -0.8         0.5       ]",0.8132293047117625,0,0
166,197,2024-09-14 19:47:25.596709888,TASK_BEGIN,3,0.4276682265362786,-0.0900508296632683,-0.5861648623961853,0.1095835001940808,0.5527401987958972,0.2694396184385154,3.1119258764973683,-0.1872022501062616,1,2024-09-14 19:46:03.235291992,1726343163.235292,2024-09-14 19:46:03.235291904,8,1.0,0.1,3.377179590160165,[0. 1.],[0.66713793 0.33286207],"[ 0.43055556  0.33203125  0.52734375  0.93055556  0.29296875  0.48828125
  1.          0.          1.          0.42773438 -0.8         0.5       ]",0.9439184483917081,0,0
167,198,2024-09-14 19:47:25.674851840,TASK_BEGIN,3,0.4184556172435967,-0.0850598295645023,-0.6221755203573431,0.1090857730640263,0.5723625047653322,0.2558024034390526,3.386283045327397,-0.2280821350208065,1,2024-09-14 19:46:03.235291992,1726343163.235292,2024-09-14 19:46:03.235291904,8,1.0,0.1,3.377179590160165,[0. 1.],[0.66713793 0.33286207],"[ 0.43055556  0.33203125  0.52734375  0.93055556  0.29296875  0.48828125
  1.          0.          1.          0.42773438 -0.8         0.5       ]",0.9439184483917081,0,0
168,199,2024-09-14 19:47:25.743217152,TASK_BEGIN,3,0.4099766756162314,-0.0793116369639779,-0.6707854313825413,0.1162943702587897,0.5946137102994119,0.241982468347983,3.578981426011957,-0.2617334049462348,1,2024-09-14 19:46:03.235291992,1726343163.235292,2024-09-14 19:46:03.235291904,8,1.0,0.1,3.377179590160165,[0. 1.],[0.66713793 0.33286207],"[ 0.43055556  0.33203125  0.52734375  0.93055556  0.29296875  0.48828125
  1.          0.          1.          0.42773438 -0.8         0.5       ]",0.9439184483917081,0,0
169,200,2024-09-14 19:47:25.810944000,TASK_BEGIN,3,0.4022356802835671,-0.0728246594473661,-0.7309479025252965,0.131081108275701,0.6172388149030144,0.2288335055837081,3.680515065325009,-0.2860747817640999,1,2024-09-14 19:46:03.235291992,1726343163.235292,2024-09-14 19:46:03.235291904,8,1.0,0.1,3.377179590160165,[0. 1.],[0.66713793 0.33286207],"[ 0.43055556  0.33203125  0.52734375  0.93055556  0.29296875  0.48828125
  1.          0.          1.          0.42773438 -0.8         0.5       ]",0.9439184483917081,0,0
170,201,2024-09-14 19:47:25.878017792,TASK_BEGIN,3,0.3951948287936582,-0.0656279075737493,-0.8007519609148436,0.1528104028564168,0.6380318496037879,0.2171581257755745,3.6866340308308327,-0.299447214510641,1,2024-09-14 19:46:03.235291992,1726343163.235292,2024-09-14 19:46:03.235291904,8,1.0,0.1,3.377179590160165,[0. 1.],[0.66713793 0.33286207],"[ 0.43055556  0.33203125  0.52734375  0.93055556  0.29296875  0.48828125
  1.          0.          1.          0.42773438 -0.8         0.5       ]",0.9439184483917081,0,0
171,202,2024-09-14 19:47:25.946525952,TASK_BEGIN,3,0.388743682473065,-0.057755531531156,-0.8773060665163627,0.1802762605733688,0.6550537650034767,0.2076494167509238,3.598664682429121,-0.3007334626129113,1,2024-09-14 19:46:03.235291992,1726343163.235292,2024-09-14 19:46:03.235291904,8,1.0,0.1,3.377179590160165,[0. 1.],[0.66713793 0.33286207],"[ 0.43055556  0.33203125  0.52734375  0.93055556  0.29296875  0.48828125
  1.          0.          1.          0.42773438 -0.8         0.5       ]",0.9439184483917081,0,0
172,203,2024-09-14 19:47:26.014308096,TASK_BEGIN,3,0.3826817406055085,-0.0492370149944149,-0.9567625672709454,0.2117315479199395,0.6668318656460237,0.2008404927376837,3.4234861113982427,-0.2894706895819325,1,2024-09-14 19:46:03.235291992,1726343163.235292,2024-09-14 19:46:03.235291904,8,1.0,0.1,3.377179590160165,[0. 1.],[0.66713793 0.33286207],"[ 0.43055556  0.33203125  0.52734375  0.93055556  0.29296875  0.48828125
  1.          0.          1.          0.42773438 -0.8         0.5       ]",0.9439184483917081,0,0
173,204,2024-09-14 19:47:26.952529664,TASK_BEGIN,3,0.3767120753636273,-0.0400857940251173,-1.0346230891355317,0.2450403614887271,0.6724978498772505,0.1970691230482622,3.173038617464602,-0.265931775502568,1,2024-09-14 19:46:04.088571045,1726343164.0885715,2024-09-14 19:46:04.088571648,8,0.0,0.1,4.417338614521361,[1. 0.],[0.08707696 0.91292304],"[ 0.19444444  0.33203125  0.52734375  0.69444444  0.29296875  0.48828125
  1.          0.          1.          0.4609375   0.9        -0.06666667]",1.0114421662448836,0,0
174,205,2024-09-14 19:47:27.021478912,TASK_BEGIN,3,0.3704518302579384,-0.0302934123012014,-1.1063343510104562,0.277922522077356,0.6718306982810561,0.1964632187560256,2.863254148491094,-0.2311378831430742,1,2024-09-14 19:46:04.088571045,1726343164.0885715,2024-09-14 19:46:04.088571648,8,0.0,0.1,4.417338614521361,[1. 0.],[0.08707696 0.91292304],"[ 0.19444444  0.33203125  0.52734375  0.69444444  0.29296875  0.48828125
  1.          0.          1.          0.4609375   0.9        -0.06666667]",1.0114421662448836,0,0
175,206,2024-09-14 19:47:27.093261056,TASK_BEGIN,3,0.3634657203054136,-0.0198352748376911,-1.168026092229271,0.3082207124734085,0.6652037134464157,0.1989471811487407,2.512563372298175,-0.1868020847339465,1,2024-09-14 19:46:04.088571045,1726343164.0885715,2024-09-14 19:46:04.088571648,8,0.0,0.1,4.417338614521361,[1. 0.],[0.08707696 0.91292304],"[ 0.19444444  0.33203125  0.52734375  0.69444444  0.29296875  0.48828125
  1.          0.          1.          0.4609375   0.9        -0.06666667]",1.0114421662448836,0,0
176,207,2024-09-14 19:47:27.160993280,TASK_BEGIN,3,0.3553134935461371,-0.0086858060465207,-1.2172141086050396,0.3341358638037309,0.6534549690488838,0.2042668119438963,2.140344804715769,-0.1352339543841012,1,2024-09-14 19:46:04.292573975,1726343164.2925746,2024-09-14 19:46:04.292574720,8,1.0,0.1,5.5283177479281465,[0. 1.],[0.98571457 0.01428543],"[ 0.13888889  0.33203125  0.52734375  0.63888889  0.29296875  0.48828125
  1.          0.          1.          0.3984375  -0.8         0.5       ]",0.9797444500711586,0,0
177,208,2024-09-14 19:47:27.216395008,TASK_BEGIN,3,0.3456004717333255,0.0031630585132216,-1.2532742502757568,0.354397092692151,0.6377081257375469,0.2120292090005855,1.7656079197760064,-0.0792159195909096,1,2024-09-14 19:46:04.292573975,1726343164.2925746,2024-09-14 19:46:04.292574720,8,1.0,0.1,5.5283177479281465,[0. 1.],[0.98571457 0.01428543],"[ 0.13888889  0.33203125  0.52734375  0.63888889  0.29296875  0.48828125
  1.          0.          1.          0.3984375  -0.8         0.5       ]",0.9797444500711586,0,0
178,209,2024-09-14 19:47:27.296489984,TASK_BEGIN,3,0.3340278247134748,0.015684154170369,-1.2775267192114514,0.3683444099430147,0.6191779069305762,0.2217508105229378,1.4060558328379604,-0.021840264057406,1,2024-09-14 19:46:04.292573975,1726343164.2925746,2024-09-14 19:46:04.292574720,8,1.0,0.1,5.5283177479281465,[0. 1.],[0.98571457 0.01428543],"[ 0.13888889  0.33203125  0.52734375  0.63888889  0.29296875  0.48828125
  1.          0.          1.          0.3984375  -0.8         0.5       ]",0.9797444500711586,0,0
179,210,2024-09-14 19:47:27.364214784,TASK_BEGIN,3,0.3204373928175665,0.0288021118977478,-1.2929373866273757,0.3759211586338618,0.59899747781569,0.2329054251748961,1.077549352064504,0.0336896956172549,1,2024-09-14 19:46:05.106115967,1726343165.1061168,2024-09-14 19:46:05.106116864,8,0.0,0.1,6.1925513966063805,[1. 0.],[0.82118671 0.17881329],"[-0.08333333  0.33203125  0.52734375  0.41666667  0.29296875  0.48828125
  0.91666667  0.33203125  0.52734375  0.4140625   0.8        -0.03333333]",0.7498629626120943,0,0
180,211,2024-09-14 19:47:28.299670784,TASK_BEGIN,3,0.3048481201696185,0.0423893958767206,-1.3035917677869553,0.3776016189008166,0.5781004166616809,0.244965389635675,0.7938464894678258,0.0842650726007554,1,2024-09-14 19:46:05.360774902,1726343165.3607752,2024-09-14 19:46:05.360775168,8,1.0,0.1,6.379154262667014,[0. 1.],[0.02029823 0.97970177],"[-0.15277778  0.33203125  0.52734375  0.34722222  0.29296875  0.48828125
  0.84722222  0.33203125  0.52734375  0.40429688 -0.8         0.5       ]",0.9009398332549166,0,0
181,212,2024-09-14 19:47:28.375643136,TASK_BEGIN,3,0.2874851669976614,0.0562727348875627,-1.3141211589798163,0.3743010281586977,0.5571767059635611,0.2574301982981113,0.5664229717104416,0.1270625616984483,1,2024-09-14 19:46:05.360774902,1726343165.3607752,2024-09-14 19:46:05.360775168,8,1.0,0.1,6.379154262667014,[0. 1.],[0.02029823 0.97970177],"[-0.15277778  0.33203125  0.52734375  0.34722222  0.29296875  0.48828125
  0.84722222  0.33203125  0.52734375  0.40429688 -0.8         0.5       ]",0.9009398332549166,0,0
182,213,2024-09-14 19:47:28.438034944,TASK_BEGIN,3,0.2687890025032707,0.0702481554121128,-1.3291885958826504,0.3672925947803342,0.5366955802820675,0.2698405535001966,0.4042055483739937,0.1597377727766128,1,2024-09-14 19:46:06.175724121,1726343166.1757247,2024-09-14 19:46:06.175724800,8,0.0,0.1,7.799092759012068,[1. 0.],[0.4836084 0.5163916],"[ 0.125       0.29296875  0.48828125  0.625       0.33203125  0.52734375
  1.          0.          1.          0.41992188  0.8        -0.03333333]",0.9732141646451369,0,0
183,214,2024-09-14 19:47:28.500075264,TASK_BEGIN,3,0.2493842989612485,0.0841003898897384,-1.3529941956990352,0.3580994104225489,0.5169602635507605,0.2817833469053925,0.3130941830978322,0.1806460910243469,1,2024-09-14 19:46:06.226727051,1726343166.2267272,2024-09-14 19:46:06.226727168,8,0.0,0.1,7.821101831421947,[1. 0.],[0.04520763 0.95479237],"[ 0.11111111  0.29296875  0.48828125  0.61111111  0.33203125  0.52734375
  1.          0.          1.          0.4375      0.9        -0.06666667]",1.0120179078078462,1,2
184,215,2024-09-14 19:47:28.577302016,TASK_BEGIN,3,0.2300175466285858,0.0976187550197607,-1.3886440084239056,0.3483180360467751,0.4981567914604077,0.2928970901860347,0.2953016871819781,0.1890670635761147,1,2024-09-14 19:46:06.226727051,1726343166.2267272,2024-09-14 19:46:06.226727168,8,0.0,0.1,7.821101831421947,[1. 0.],[0.04520763 0.95479237],"[ 0.11111111  0.29296875  0.48828125  0.61111111  0.33203125  0.52734375
  1.          0.          1.          0.4375      0.9        -0.06666667]",1.0120179078078462,1,2
185,216,2024-09-14 19:47:28.646779904,TASK_BEGIN,3,0.2115035515201964,0.1106004813901476,-1.4373346606243012,0.3393881118879133,0.4803825037092333,0.3028821643953895,0.3488151261657968,0.1853450271603137,1,2024-09-14 19:46:06.226727051,1726343166.2267272,2024-09-14 19:46:06.226727168,8,0.0,0.1,7.821101831421947,[1. 0.],[0.04520763 0.95479237],"[ 0.11111111  0.29296875  0.48828125  0.61111111  0.33203125  0.52734375
  1.          0.          1.          0.4375      0.9        -0.06666667]",1.0120179078078462,1,2
186,217,2024-09-14 19:47:28.708593920,TASK_BEGIN,3,0.1947022582669951,0.1228401659660636,-1.4976081823143708,0.332375660786286,0.4636648620571266,0.3115124006999936,0.4673773715080924,0.1708570387386505,1,2024-09-14 19:46:06.226727051,1726343166.2267272,2024-09-14 19:46:06.226727168,8,0.0,0.1,7.821101831421947,[1. 0.],[0.04520763 0.95479237],"[ 0.11111111  0.29296875  0.48828125  0.61111111  0.33203125  0.52734375
  1.          0.          1.          0.4375      0.9        -0.06666667]",1.0120179078078462,1,2
187,218,2024-09-14 19:47:29.632898304,TASK_BEGIN,3,0.1804971681617069,0.1341168629280473,-1.5650925299242726,0.3278400330990889,0.4479920064562512,0.318641743938361,0.6411044087415645,0.1478006577530469,1,2024-09-14 19:46:07.348726074,1726343167.348726,2024-09-14 19:46:07.348726016,8,0.0,0.1,8.253328576577221,[1. 0.],[0.28407766 0.71592234],"[ 0.30555556  0.33203125  0.52734375  0.88055556  0.2734375   0.46875
  1.          0.          1.          0.46289062  1.         -0.13333333]",0.9793371217775455,1,2
188,219,2024-09-14 19:47:29.700716032,TASK_BEGIN,3,0.1697308007108089,0.1441948359861401,-1.6329689635323377,0.325829732494945,0.4333657820095275,0.3242015873149219,0.8575009437458264,0.118878374098659,1,2024-09-14 19:46:07.348726074,1726343167.348726,2024-09-14 19:46:07.348726016,8,0.0,0.1,8.253328576577221,[1. 0.],[0.28407766 0.71592234],"[ 0.30555556  0.33203125  0.52734375  0.88055556  0.2734375   0.46875
  1.          0.          1.          0.46289062  1.         -0.13333333]",0.9793371217775455,1,2
189,220,2024-09-14 19:47:29.765319168,TASK_BEGIN,3,0.1630906920983849,0.1528438101004005,-1.6930910299667077,0.3260147188108966,0.4198606966366947,0.3281880762508283,1.1025968054491582,0.0869602575270092,1,2024-09-14 19:46:07.501724121,1726343167.5017245,2024-09-14 19:46:07.501724416,8,1.0,0.1,8.3052064645243,[0. 1.],[0.95949708 0.04050292],"[ 0.26388889  0.33203125  0.52734375  0.83888889  0.2734375   0.46875
  1.          0.          1.          0.41601562 -0.8         0.5       ]",1.004755869858041,1,2
190,221,2024-09-14 19:47:29.836214016,TASK_BEGIN,3,0.1609872747930555,0.1598701360123323,-1.7374283185002513,0.3279004009239089,0.4076642956606988,0.3306429274770938,1.3621069694484516,0.0547659296005626,1,2024-09-14 19:46:07.501724121,1726343167.5017245,2024-09-14 19:46:07.501724416,8,1.0,0.1,8.3052064645243,[0. 1.],[0.95949708 0.04050292],"[ 0.26388889  0.33203125  0.52734375  0.83888889  0.2734375   0.46875
  1.          0.          1.          0.41601562 -0.8         0.5       ]",1.004755869858041,1,2
191,222,2024-09-14 19:47:29.903722240,TASK_BEGIN,3,0.1634788891911553,0.1651437792668443,-1.759396608919394,0.3310145836707999,0.3971033916423557,0.3316331952790842,1.6225931996002214,0.0245913184061184,1,2024-09-14 19:46:07.501724121,1726343167.5017245,2024-09-14 19:46:07.501724416,8,1.0,0.1,8.3052064645243,[0. 1.],[0.95949708 0.04050292],"[ 0.26388889  0.33203125  0.52734375  0.83888889  0.2734375   0.46875
  1.          0.          1.          0.41601562 -0.8         0.5       ]",1.004755869858041,1,2
192,223,2024-09-14 19:47:29.965737984,TASK_BEGIN,3,0.1702729169902433,0.1686095322585733,-1.754736704907984,0.3349808266755058,0.3886752933912832,0.3312341577335079,1.8725307866335248,-0.0018898925137051,1,2024-09-14 19:46:07.501724121,1726343167.5017245,2024-09-14 19:46:07.501724416,8,1.0,0.1,8.3052064645243,[0. 1.],[0.95949708 0.04050292],"[ 0.26388889  0.33203125  0.52734375  0.83888889  0.2734375   0.46875
  1.          0.          1.          0.41601562 -0.8         0.5       ]",1.004755869858041,1,2
193,224,2024-09-14 19:47:30.027770880,TASK_BEGIN,3,0.1807881719353312,0.1702814151853284,-1.7218528757882798,0.3394858224813116,0.3830672644661423,0.3295184896935061,2.1030955201084485,-0.0237244363701552,1,2024-09-14 19:46:07.501724121,1726343167.5017245,2024-09-14 19:46:07.501724416,8,1.0,0.1,8.3052064645243,[0. 1.],[0.95949708 0.04050292],"[ 0.26388889  0.33203125  0.52734375  0.83888889  0.2734375   0.46875
  1.          0.          1.          0.41601562 -0.8         0.5       ]",1.004755869858041,1,2
194,225,2024-09-14 19:47:30.980596992,TASK_BEGIN,3,0.1942424052830124,0.1702283004872537,-1.661723916905865,0.3442196832925626,0.3811191853627557,0.3265535784382271,2.308441329182427,-0.0406644546439579,1,2024-09-14 19:46:08.266727051,1726343168.2667277,2024-09-14 19:46:08.266727680,8,1.0,0.1,9.381237473538363,[0. 1.],[9.99806704e-01 1.93296096e-04],"[ 0.05555556  0.33203125  0.52734375  0.63055556  0.2734375   0.46875
  1.          0.          1.          0.38671875 -0.8         0.5       ]",0.9920313259514467,1,2
195,226,2024-09-14 19:47:31.050766080,TASK_BEGIN,3,0.2097482435015746,0.16855743279828,-1.577539753424407,0.3488479193712392,0.3837194544634371,0.3224040274321201,2.485333651301513,-0.0530479850287033,1,2024-09-14 19:46:08.266727051,1726343168.2667277,2024-09-14 19:46:08.266727680,8,1.0,0.1,9.381237473538363,[0. 1.],[9.99806704e-01 1.93296096e-04],"[ 0.05555556  0.33203125  0.52734375  0.63055556  0.2734375   0.46875
  1.          0.          1.          0.38671875 -0.8         0.5       ]",0.9920313259514467,1,2
196,227,2024-09-14 19:47:31.103641088,TASK_BEGIN,3,0.2264169032699702,0.1653973336149862,-1.4741575118116972,0.3530085546601098,0.3916767310808596,0.3171330628213422,2.6322891516827296,-0.0616109712533494,1,2024-09-14 19:46:08.266727051,1726343168.2667277,2024-09-14 19:46:08.266727680,8,1.0,0.1,9.381237473538363,[0. 1.],[9.99806704e-01 1.93296096e-04],"[ 0.05555556  0.33203125  0.52734375  0.63055556  0.2734375   0.46875
  1.          0.          1.          0.38671875 -0.8         0.5       ]",0.9920313259514467,1,2
197,228,2024-09-14 19:47:31.181235200,TASK_BEGIN,3,0.2434466267002397,0.160883500321686,-1.3574665945179398,0.3563064551099584,0.405613308298356,0.3108009125182057,2.7486265287896003,-0.0672793494870676,1,2024-09-14 19:46:08.266727051,1726343168.2667277,2024-09-14 19:46:08.266727680,8,1.0,0.1,9.381237473538363,[0. 1.],[9.99806704e-01 1.93296096e-04],"[ 0.05555556  0.33203125  0.52734375  0.63055556  0.2734375   0.46875
  1.          0.          1.          0.38671875 -0.8         0.5       ]",0.9920313259514467,1,2
198,229,2024-09-14 19:47:31.254021888,TASK_BEGIN,3,0.2601631684064441,0.15515228630653,-1.23376842507592,0.3583006307457963,0.4258882815347362,0.3034647534172508,2.833822287085539,-0.0709839170207153,1,2024-09-14 19:46:08.266727051,1726343168.2667277,2024-09-14 19:46:08.266727680,8,1.0,0.1,9.381237473538363,[0. 1.],[9.99806704e-01 1.93296096e-04],"[ 0.05555556  0.33203125  0.52734375  0.63055556  0.2734375   0.46875
  1.          0.          1.          0.38671875 -0.8         0.5       ]",0.9920313259514467,1,2
199,230,2024-09-14 19:47:31.319602176,TASK_BEGIN,3,0.2760190614477343,0.1483413460188899,-1.1092025572396549,0.3584946636288609,0.4525290567897232,0.2951852619843236,2.887348745807666,-0.0735302991790876,1,2024-09-14 19:46:08.317760010,1726343168.3177605,2024-09-14 19:46:08.317760512,8,1.0,0.1,9.387425098802979,[0. 1.],[9.99798766e-01 2.01233904e-04],"[ 0.04166667  0.33203125  0.52734375  0.61666667  0.2734375   0.46875
  1.          0.          1.          0.37109375 -0.8         0.5       ]",0.9782720786924815,1,2
200,231,2024-09-14 19:47:31.382592000,TASK_BEGIN,3,0.2905873697962403,0.1405894562430016,-0.989218341176764,0.3563411198425996,0.4851574540840819,0.2860404525066782,2.9089460196413723,-0.0755373165536631,1,2024-09-14 19:46:08.368726074,1726343168.3687265,2024-09-14 19:46:08.368726528,8,1.0,0.1,9.393550847814948,[0. 1.],[0.99866172 0.00133828],"[ 0.02777778  0.33203125  0.52734375  0.60277778  0.2734375   0.46875
  1.          0.          1.          0.35546875 -0.8         0.5       ]",0.943491082070081,1,2
201,232,2024-09-14 19:47:32.326977024,TASK_BEGIN,3,0.3035675605956842,0.1320330895801686,-0.8781642402531659,0.3512679275945015,0.5229348512191958,0.2761430008277644,2.8991390764389418,-0.077431841995067,1,2024-09-14 19:46:09.385574219,1726343169.385574,2024-09-14 19:46:09.385574144,8,0.0,0.1,9.503981031127877,[1. 0.],[0.00315583 0.99684417],"[ 0.325       0.2734375   0.46875     0.825       0.21484375  0.41015625
  1.          0.          1.          0.41210938  1.         -0.13333333]",0.9973305268118926,1,2
202,233,2024-09-14 19:47:32.400239104,TASK_BEGIN,3,0.3147948502081011,0.122802851989257,-0.7790628432575256,0.342721783237336,0.5645738262396359,0.2656540471689365,2.8597320796192007,-0.0794740476157578,1,2024-09-14 19:46:09.385574219,1726343169.385574,2024-09-14 19:46:09.385574144,8,0.0,0.1,9.503981031127877,[1. 0.],[0.00315583 0.99684417],"[ 0.325       0.2734375   0.46875     0.825       0.21484375  0.41015625
  1.          0.          1.          0.41210938  1.         -0.13333333]",0.9973305268118926,1,2
203,234,2024-09-14 19:47:32.468040960,TASK_BEGIN,3,0.3242330790110124,0.1130233455895641,-0.6935450685814997,0.3302185602808953,0.608436253234698,0.254786759109898,2.794004708217109,-0.0817823367283326,1,2024-09-14 19:46:09.487608887,1726343169.4876096,2024-09-14 19:46:09.487609600,8,1.0,0.1,9.51385180860843,[0. 1.],[0.66454456 0.33545544],"[ 0.29722222  0.2734375   0.46875     0.79722222  0.21484375  0.41015625
  1.          0.          1.          0.38085938 -0.8         0.5       ]",0.890696856232932,1,2
204,235,2024-09-14 19:47:32.528332032,TASK_BEGIN,3,0.3319363678371545,0.1028174404332497,-0.6219013671493311,0.3134057696042417,0.6526898731915417,0.2437979855961864,2.706473935494212,-0.0843314102753519,1,2024-09-14 19:46:09.487608887,1726343169.4876096,2024-09-14 19:46:09.487609600,8,1.0,0.1,9.51385180860843,[0. 1.],[0.66454456 0.33545544],"[ 0.29722222  0.2734375   0.46875     0.79722222  0.21484375  0.41015625
  1.          0.          1.          0.38085938 -0.8         0.5       ]",0.890696856232932,1,2
205,236,2024-09-14 19:47:32.590363904,TASK_BEGIN,3,0.3379928743434021,0.092311672331425,-0.563246839014757,0.2921477887475385,0.6954776771324027,0.232971292585967,2.6022928265526177,-0.0869140147327249,1,2024-09-14 19:46:10.302705078,1726343170.302706,2024-09-14 19:46:10.302705920,8,0.0,0.1,10.441956389445922,[1. 0.],[0.42520521 0.57479479],"[ 0.075       0.2734375   0.46875     0.575       0.21484375  0.41015625
  1.          0.          1.          0.39648438  0.8        -0.03333333]",0.9566399775250808,1,2
206,237,2024-09-14 19:47:32.668999936,TASK_BEGIN,3,0.3424895269473568,0.081637147999825,-0.5157306355767707,0.266611463483025,0.7350706590386467,0.222595699705222,2.48646559117791,-0.0890794724721084,1,2024-09-14 19:46:10.302705078,1726343170.302706,2024-09-14 19:46:10.302705920,8,0.0,0.1,10.441956389445922,[1. 0.],[0.42520521 0.57479479],"[ 0.075       0.2734375   0.46875     0.575       0.21484375  0.41015625
  1.          0.          1.          0.39648438  0.8        -0.03333333]",0.9566399775250808,1,2
207,238,2024-09-14 19:47:32.739063040,TASK_BEGIN,3,0.3455265164571651,0.0709236937557165,-0.4766583704867421,0.2372925971963286,0.7699918828111441,0.2129446904451849,2.363115180404712,-0.0900902734869137,1,2024-09-14 19:46:10.302705078,1726343170.302706,2024-09-14 19:46:10.302705920,8,0.0,0.1,10.441956389445922,[1. 0.],[0.42520521 0.57479479],"[ 0.075       0.2734375   0.46875     0.575       0.21484375  0.41015625
  1.          0.          1.          0.39648438  0.8        -0.03333333]",0.9566399775250808,1,2
208,239,2024-09-14 19:47:33.667521024,TASK_BEGIN,3,0.3472762442476592,0.0602899686256703,-0.442559768750231,0.2049510255685881,0.7991018900685299,0.2042600409798505,2.235085360555443,-0.0889526092101479,1,2024-09-14 19:46:11.271670166,1726343171.2716703,2024-09-14 19:46:11.271670272,8,1.0,0.1,10.365130502063872,[0. 1.],[0.99217984 0.00782016],"[ 0.31111111  0.21484375  0.41015625  0.81111111  0.21484375  0.41015625
  1.          0.          1.          0.27734375 -0.8         0.5       ]",0.9959921722490446,1,2
209,240,2024-09-14 19:47:33.745142016,TASK_BEGIN,3,0.3480515597876907,0.0498336547292235,-0.4093942733915066,0.1704906728449811,0.8216419892884007,0.1967401454505821,2.1040167816161457,-0.084541586289645,1,2024-09-14 19:46:11.271670166,1726343171.2716703,2024-09-14 19:46:11.271670272,8,1.0,0.1,10.365130502063872,[0. 1.],[0.99217984 0.00782016],"[ 0.31111111  0.21484375  0.41015625  0.81111111  0.21484375  0.41015625
  1.          0.          1.          0.27734375 -0.8         0.5       ]",0.9959921722490446,1,2
210,241,2024-09-14 19:47:33.806322944,TASK_BEGIN,3,0.3483389455390963,0.0396249790755885,-0.3729525814547669,0.1348452134600982,0.837247646141595,0.1905274772669086,1.9707295943582672,-0.0757782124904656,1,2024-09-14 19:46:11.271670166,1726343171.2716703,2024-09-14 19:46:11.271670272,8,1.0,0.1,10.365130502063872,[0. 1.],[0.99217984 0.00782016],"[ 0.31111111  0.21484375  0.41015625  0.81111111  0.21484375  0.41015625
  1.          0.          1.          0.27734375 -0.8         0.5       ]",0.9959921722490446,1,2
211,242,2024-09-14 19:47:33.885127936,TASK_BEGIN,3,0.3487721822624901,0.0297062570537713,-0.3293482710161543,0.0989096830828599,0.8459456465017573,0.1856927381313647,1.835594327118793,-0.0617858913545264,1,2024-09-14 19:46:11.271670166,1726343171.2716703,2024-09-14 19:46:11.271670272,8,1.0,0.1,10.365130502063872,[0. 1.],[0.99217984 0.00782016],"[ 0.31111111  0.21484375  0.41015625  0.81111111  0.21484375  0.41015625
  1.          0.          1.          0.27734375 -0.8         0.5       ]",0.9959921722490446,1,2
212,243,2024-09-14 19:47:33.953636864,TASK_BEGIN,3,0.3500546756214936,0.0200988606991103,-0.2755469209837778,0.0635383892260125,0.8481455668371046,0.1822183289770463,1.698736802263335,-0.0419827809399281,1,2024-09-14 19:46:11.271670166,1726343171.2716703,2024-09-14 19:46:11.271670272,8,1.0,0.1,10.365130502063872,[0. 1.],[0.99217984 0.00782016],"[ 0.31111111  0.21484375  0.41015625  0.81111111  0.21484375  0.41015625
  1.          0.          1.          0.27734375 -0.8         0.5       ]",0.9959921722490446,1,2
213,244,2024-09-14 19:47:34.021362176,TASK_BEGIN,3,0.352858025248537,0.0108154645006294,-0.2098975809835162,0.0295957230875448,0.844636800917345,0.1799861412199302,1.5601557204988892,-0.0161123503348471,1,2024-09-14 19:46:11.271670166,1726343171.2716703,2024-09-14 19:46:11.271670272,8,1.0,0.1,10.365130502063872,[0. 1.],[0.99217984 0.00782016],"[ 0.31111111  0.21484375  0.41015625  0.81111111  0.21484375  0.41015625
  1.          0.          1.          0.27734375 -0.8         0.5       ]",0.9959921722490446,1,2
214,245,2024-09-14 19:47:34.084028160,TASK_BEGIN,3,0.3577289270767204,0.0018712034607494,-0.132504808845942,-0.0019991715219778,0.836577776521938,0.1787789099849037,1.4198755036077948,0.0157602704314765,1,2024-09-14 19:46:11.271670166,1726343171.2716703,2024-09-14 19:46:11.271670272,8,1.0,0.1,10.365130502063872,[0. 1.],[0.99217984 0.00782016],"[ 0.31111111  0.21484375  0.41015625  0.81111111  0.21484375  0.41015625
  1.          0.          1.          0.27734375 -0.8         0.5       ]",0.9959921722490446,1,2
215,246,2024-09-14 19:47:35.028274944,TASK_BEGIN,3,0.365033856539076,-0.0067132352725381,-0.04527049774191,-0.0302925708664501,0.82543882215746,0.1783036487247318,1.2782045102865127,0.0532423525006468,1,2024-09-14 19:46:12.291670166,1726343172.2916706,2024-09-14 19:46:12.291670528,8,0.0,-1.0,10.02911299575152,[1. 0.],[0.10188821 0.89811179],"[ 0.03333333  0.21484375  0.41015625  0.53333333  0.21484375  0.41015625
  1.          0.          1.          0.36914062  1.         -0.16666667]",1.0118778806754878,1,2
216,247,2024-09-14 19:47:35.091161088,TASK_BEGIN,3,0.3749554222576487,-0.0149177568556629,0.0484272984705153,-0.0543916441728401,0.8128833945880479,0.1782330843159645,1.136087692898447,0.0955662365305742,1,2024-09-14 19:46:12.291670166,1726343172.2916706,2024-09-14 19:46:12.291670528,8,0.0,-1.0,10.02911299575152,[1. 0.],[0.10188821 0.89811179],"[ 0.03333333  0.21484375  0.41015625  0.53333333  0.21484375  0.41015625
  1.          0.          1.          0.36914062  1.         -0.16666667]",1.0118778806754878,1,2
217,248,2024-09-14 19:47:35.153384960,TASK_BEGIN,3,0.3875227701948444,-0.0227308335405921,0.1443437034226652,-0.073607412979828,0.8006043474554607,0.1782520384416266,0.9953719718380508,0.1415375354393728,1,2024-09-14 19:46:12.291670166,1726343172.2916706,2024-09-14 19:46:12.291670528,8,0.0,-1.0,10.02911299575152,[1. 0.],[0.10188821 0.89811179],"[ 0.03333333  0.21484375  0.41015625  0.53333333  0.21484375  0.41015625
  1.          0.          1.          0.36914062  1.         -0.16666667]",1.0118778806754878,1,2
218,249,2024-09-14 19:47:35.232983040,TASK_BEGIN,3,0.4026386959826315,-0.0301506138739134,0.2380945821604508,-0.0875961229813705,0.7901353008107743,0.1780987322908529,0.8587611262251093,0.1895585305540851,1,2024-09-14 19:46:12.291670166,1726343172.2916706,2024-09-14 19:46:12.291670528,8,0.0,-1.0,10.02911299575152,[1. 0.],[0.10188821 0.89811179],"[ 0.03333333  0.21484375  0.41015625  0.53333333  0.21484375  0.41015625
  1.          0.          1.          0.36914062  1.         -0.16666667]",1.0118778806754878,1,2
219,250,2024-09-14 19:47:35.292877824,TASK_BEGIN,3,0.4200846168253891,-0.0371791146195506,0.3257859172738006,-0.0964379697077487,0.7826693175988106,0.1775921543859122,0.7294969288767705,0.2377482108945315,1,2024-09-14 19:46:12.291670166,1726343172.2916706,2024-09-14 19:46:12.291670528,8,0.0,-1.0,10.02911299575152,[1. 0.],[0.10188821 0.89811179],"[ 0.03333333  0.21484375  0.41015625  0.53333333  0.21484375  0.41015625
  1.          0.          1.          0.36914062  1.         -0.16666667]",1.0118778806754878,1,2
220,253,2024-09-14 19:47:36.343765248,TASK_BEGIN,3,0.4822515164982508,-0.0558761103306564,0.5290030417886802,-0.0985447660708668,0.7830131770274228,0.1733274698784732,0.4202718524327477,0.3636506449220311,1,2024-09-14 19:46:13.844894775,1726343173.844896,2024-09-14 19:46:13.844896000,9,0.0,0.1,0.1,[1. 0.],[0.36525545 0.63474455],"[ 0.98611111  0.33203125  0.52734375  1.          0.          1.
  1.          0.          1.          0.4609375  -0.8         0.46666667]",0.8201936313985847,0,0
221,254,2024-09-14 19:47:36.421459968,TASK_BEGIN,3,0.5042165895413683,-0.0612557981652666,0.5751901712635434,-0.0944595276960998,0.7898323502807563,0.1710690910147992,0.3546449533775267,0.3935105417985105,1,2024-09-14 19:46:13.844894775,1726343173.844896,2024-09-14 19:46:13.844896000,9,0.0,0.1,0.1,[1. 0.],[0.36525545 0.63474455],"[ 0.98611111  0.33203125  0.52734375  1.          0.          1.
  1.          0.          1.          0.4609375  -0.8         0.46666667]",0.8201936313985847,0,0
222,255,2024-09-14 19:47:36.492446720,TASK_BEGIN,3,0.5255279530184018,-0.0661521271707854,0.6124473119052976,-0.0898050654520976,0.7985454361195887,0.1685422108951819,0.3130157734233253,0.415023564828147,1,2024-09-14 19:46:13.844894775,1726343173.844896,2024-09-14 19:46:13.844896000,9,0.0,0.1,0.1,[1. 0.],[0.36525545 0.63474455],"[ 0.98611111  0.33203125  0.52734375  1.          0.          1.
  1.          0.          1.          0.4609375  -0.8         0.46666667]",0.8201936313985847,0,0
223,256,2024-09-14 19:47:36.545100800,TASK_BEGIN,3,0.5453381092005767,-0.0705112032027054,0.6425456181965906,-0.0854764060293497,0.8078815205351603,0.1658981466807571,0.2980816624928231,0.4272959691682707,1,2024-09-14 19:46:13.844894775,1726343173.844896,2024-09-14 19:46:13.844896000,9,0.0,0.1,0.1,[1. 0.],[0.36525545 0.63474455],"[ 0.98611111  0.33203125  0.52734375  1.          0.          1.
  1.          0.          1.          0.4609375  -0.8         0.46666667]",0.8201936313985847,0,0
224,257,2024-09-14 19:47:36.621773056,TASK_BEGIN,3,0.5628114181101846,-0.0742669283583863,0.6668688126764755,-0.0820803405530543,0.8164782984710901,0.1633218372906104,0.3117820950390666,0.429804727969957,1,2024-09-14 19:46:13.844894775,1726343173.844896,2024-09-14 19:46:13.844896000,9,0.0,0.1,0.1,[1. 0.],[0.36525545 0.63474455],"[ 0.98611111  0.33203125  0.52734375  1.          0.          1.
  1.          0.          1.          0.4609375  -0.8         0.46666667]",0.8201936313985847,0,0
225,258,2024-09-14 19:47:36.683360000,TASK_BEGIN,3,0.5771903134426272,-0.0773457629463442,0.6860091925080102,-0.0798934469253032,0.8230013742034484,0.1610202611272017,0.3548420889184695,0.4224383229311151,1,2024-09-14 19:46:13.844894775,1726343173.844896,2024-09-14 19:46:13.844896000,9,0.0,0.1,0.1,[1. 0.],[0.36525545 0.63474455],"[ 0.98611111  0.33203125  0.52734375  1.          0.          1.
  1.          0.          1.          0.4609375  -0.8         0.46666667]",0.8201936313985847,0,0
226,259,2024-09-14 19:47:36.760543232,TASK_BEGIN,3,0.5878492274101046,-0.0796726674896882,0.6997287945473744,-0.0788902576404526,0.8262554232054785,0.1592074010851569,0.4264810293668959,0.405517813086093,1,2024-09-14 19:46:13.844894775,1726343173.844896,2024-09-14 19:46:13.844896000,9,0.0,0.1,0.1,[1. 0.],[0.36525545 0.63474455],"[ 0.98611111  0.33203125  0.52734375  1.          0.          1.
  1.          0.          1.          0.4609375  -0.8         0.46666667]",0.8201936313985847,0,0
227,260,2024-09-14 19:47:37.706854912,TASK_BEGIN,3,0.5943129413833923,-0.0811732610054719,0.7072368393926701,-0.0788253659512863,0.8252825589874944,0.1580860488427184,0.5244215077396459,0.3797885766425642,1,2024-09-14 19:46:15.368825928,1726343175.3688264,2024-09-14 19:46:15.368826368,9,1.0,0.1,2.6769663034560254,[0. 1.],[0.55036052 0.44963948],"[ 0.56944444  0.33203125  0.52734375  1.          0.          1.
  1.          0.          1.          0.43164062 -0.8         0.5       ]",0.8424388945994707,0,0
228,261,2024-09-14 19:47:37.774700032,TASK_BEGIN,3,0.5962554566353795,-0.0817715185001256,0.707581898321951,-0.079329858459941,0.8194338025911327,0.1578269078981994,0.6451452049708073,0.3463853624348653,1,2024-09-14 19:46:15.368825928,1726343175.3688264,2024-09-14 19:46:15.368826368,9,1.0,0.1,2.6769663034560254,[0. 1.],[0.55036052 0.44963948],"[ 0.56944444  0.33203125  0.52734375  1.          0.          1.
  1.          0.          1.          0.43164062 -0.8         0.5       ]",0.8424388945994707,0,0
229,262,2024-09-14 19:47:37.840662784,TASK_BEGIN,3,0.5935103231098012,-0.0813867884736615,0.6999603999401564,-0.0799861576522196,0.8084008541064877,0.1585500368807887,0.7842722114257124,0.3067680290085087,1,2024-09-14 19:46:15.368825928,1726343175.3688264,2024-09-14 19:46:15.368826368,9,1.0,0.1,2.6769663034560254,[0. 1.],[0.55036052 0.44963948],"[ 0.56944444  0.33203125  0.52734375  1.          0.          1.
  1.          0.          1.          0.43164062 -0.8         0.5       ]",0.8424388945994707,0,0
230,263,2024-09-14 19:47:37.902704128,TASK_BEGIN,3,0.5861028913289122,-0.0799337702558811,0.6838751236755041,-0.0803681471940771,0.7922104754722444,0.1603163441241548,0.936961194809314,0.2626236931791145,1,2024-09-14 19:46:15.368825928,1726343175.3688264,2024-09-14 19:46:15.368826368,9,1.0,0.1,2.6769663034560254,[0. 1.],[0.55036052 0.44963948],"[ 0.56944444  0.33203125  0.52734375  1.          0.          1.
  1.          0.          1.          0.43164062 -0.8         0.5       ]",0.8424388945994707,0,0
231,264,2024-09-14 19:47:37.969325824,TASK_BEGIN,3,0.5742883591532084,-0.0773272217823583,0.6592181531973288,-0.0800488211106961,0.7711918573489045,0.1631319097131988,1.0982299801460689,0.2157402312132851,1,2024-09-14 19:46:15.368825928,1726343175.3688264,2024-09-14 19:46:15.368826368,9,1.0,0.1,2.6769663034560254,[0. 1.],[0.55036052 0.44963948],"[ 0.56944444  0.33203125  0.52734375  1.          0.          1.
  1.          0.          1.          0.43164062 -0.8         0.5       ]",0.8424388945994707,0,0
232,265,2024-09-14 19:47:38.045923072,TASK_BEGIN,3,0.5585661246316576,-0.0734911574345778,0.626364133171807,-0.0785821309581294,0.7459209981698534,0.1669619880394419,1.2631044200741697,0.1678692564437635,1,2024-09-14 19:46:15.368825928,1726343175.3688264,2024-09-14 19:46:15.368826368,9,1.0,0.1,2.6769663034560254,[0. 1.],[0.55036052 0.44963948],"[ 0.56944444  0.33203125  0.52734375  1.          0.          1.
  1.          0.          1.          0.43164062 -0.8         0.5       ]",0.8424388945994707,0,0
233,266,2024-09-14 19:47:38.103544064,TASK_BEGIN,3,0.5396543035371357,-0.0683709252829633,0.5862323018349027,-0.0754774659137804,0.7171491973180488,0.1717493755201934,1.426605402378011,0.1206076206367822,1,2024-09-14 19:46:15.368825928,1726343175.3688264,2024-09-14 19:46:15.368826368,9,1.0,0.1,2.6769663034560254,[0. 1.],[0.55036052 0.44963948],"[ 0.56944444  0.33203125  0.52734375  1.          0.          1.
  1.          0.          1.          0.43164062 -0.8         0.5       ]",0.8424388945994707,0,0
234,267,2024-09-14 19:47:39.056904960,TASK_BEGIN,3,0.5184347040572498,-0.0619461940498238,0.5401841361045464,-0.0701947885743264,0.6857353922813224,0.1774297476560493,1.5837214271077722,0.0753243798790182,1,2024-09-14 19:46:16.287023926,1726343176.287024,2024-09-14 19:46:16.287024128,9,0.0,0.1,3.8888276046713495,[1. 0.],[3.15819367e-04 9.99684181e-01],"[ 0.31944444  0.33203125  0.52734375  0.81944444  0.29296875  0.48828125
  1.          0.          1.          0.484375    1.         -0.1       ]",1.0072274954523617,0,0
