,Unnamed: 0,time,MARKER,pid,L_O_DSI,L_D_DSI,L_O_DSphi,L_D_DSphi,R_O_DSI,R_D_DSI,R_O_DSphi,R_D_DSphi,trial_id,dateTimestamps,floatTimestamps,timestamps,episode,actions,rewards,discounted_rewards,chosen_actions,optimal_actions,states,continuous_optimal,binary_optimal,discrete_optimal
1,1,2024-09-16 17:22:38.734721024,TASK_BEGIN,5,-0.4075641156256754,0.027877179352528,-0.6812515862397737,0.4137440215091382,-0.2484146618979932,0.0458135302860192,2.2822009081393566,-0.5924769800958686,3,2024-09-16 17:21:11.830923096,1726507271.830923,2024-09-16 17:21:11.830923008,0,0,-2.642756445022769,-38.13784645368068,[1. 0. 0. 0.],[0.45574491 0.13819496 0.09067819 0.31538195],"[-4.4009686e-03  9.3368518e-01 -3.8425498e-02 -4.6550864e-01
  1.2461516e-02  1.4495751e-02  0.0000000e+00  0.0000000e+00
  4.0000001e-01 -4.0440097e-01 -1.0282539e+01]",1.5140577004553197,0,0
2,2,2024-09-16 17:22:39.690990848,TASK_BEGIN,5,-0.5227483590595287,0.039980512494985,-0.4215197322165908,0.4718398760840352,-0.150968753154928,0.0153330776909565,3.501217381786723,-0.9541196298160448,3,2024-09-16 17:21:12.793543213,1726507272.793543,2024-09-16 17:21:12.793543168,0,3,-5.8377616436208175,-131.0135947546958,[0. 0. 0. 1.],[9.94605065e-04 9.90622660e-02 8.99941461e-01 1.66824828e-06],"[ 4.5592785e-03  4.6739876e-01  2.2113618e-01 -1.3303328e+00
 -3.1403309e-01 -5.9157091e-01  0.0000000e+00  0.0000000e+00
  4.0000001e-01 -3.9544073e-01 -6.5522480e+00]",1.564706490215137,0,0
3,3,2024-09-16 17:22:39.752423168,TASK_BEGIN,5,-0.6334905134249232,0.051902900562598,-0.1768135141650808,0.5276545265127157,-0.0575351350573614,-0.0138645678631683,4.656424338978705,-1.2937424182670123,3,2024-09-16 17:21:12.856555908,1726507272.856557,2024-09-16 17:21:12.856556800,0,3,-6.38687565244093,-140.83972617468592,[0. 0. 0. 1.],[4.27271192e-04 1.19157569e-01 8.80414938e-01 2.22173815e-07],"[ 0.00731047  0.4247954   0.2499331  -1.3884897  -0.37848973 -0.66355246
  0.          0.          0.4        -0.39268953 -6.211421  ]",1.5661119534972217,0,0
4,4,2024-09-16 17:22:39.826642944,TASK_BEGIN,5,-0.7379362072293594,0.0635482846441956,0.0436846952207308,0.5805814509273514,0.0302921470652438,-0.0412944910970696,5.722372949142062,-1.602249738634038,3,2024-09-16 17:21:12.917541992,1726507272.9175425,2024-09-16 17:21:12.917542400,0,3,-6.541223938950347,-150.8557241347242,[0. 0. 0. 1.],[4.06401293e-04 2.42165974e-01 7.57427559e-01 6.51997723e-08],"[ 0.01033878  0.38048124  0.27019265 -1.4462044  -0.44880524 -0.7167933
  0.          0.          0.4        -0.38966122 -5.856908  ]",1.5670746939262354,0,0
5,5,2024-09-16 17:22:39.895469056,TASK_BEGIN,5,-0.8345327351599662,0.0747893827521515,0.2317687988683811,0.630368907678063,0.1112519902501124,-0.0665758104899559,6.680584402896212,-1.8727997317391651,3,2024-09-16 17:21:12.976829102,1726507272.9768288,2024-09-16 17:21:12.976828928,0,3,-6.919846894614645,-161.35066835543233,[0. 0. 0. 1.],[4.13913759e-04 4.13537192e-01 5.86048854e-01 4.02146518e-08],"[ 0.01363126  0.33445168  0.29185402 -1.5049651  -0.52475643 -0.77515787
  0.          0.          0.4        -0.38636872 -5.4886713 ]",1.5674337818462072,0,0
6,6,2024-09-16 17:22:39.963318016,TASK_BEGIN,5,-0.9220306247675892,0.0854572267757829,0.3806568025563194,0.6770780894187405,0.1844595652643744,-0.089444721614525,7.520068579960589,-2.1010697978476043,3,2024-09-16 17:21:12.976829102,1726507272.9768288,2024-09-16 17:21:12.976828928,0,3,-6.919846894614645,-161.35066835543233,[0. 0. 0. 1.],[4.13913759e-04 4.13537192e-01 5.86048854e-01 4.02146518e-08],"[ 0.01363126  0.33445168  0.29185402 -1.5049651  -0.52475643 -0.77515787
  0.          0.          0.4        -0.38636872 -5.4886713 ]",1.5674337818462072,0,0
7,7,2024-09-16 17:22:40.022430976,TASK_BEGIN,5,-0.9994848102377192,0.0953453561551402,0.4853317932276917,0.7209790146589026,0.2494231725151387,-0.1097589064455782,8.23719991968561,-2.2853486336745696,3,2024-09-16 17:21:12.976829102,1726507272.9768288,2024-09-16 17:21:12.976828928,0,3,-6.919846894614645,-161.35066835543233,[0. 0. 0. 1.],[4.13913759e-04 4.13537192e-01 5.86048854e-01 4.02146518e-08],"[ 0.01363126  0.33445168  0.29185402 -1.5049651  -0.52475643 -0.77515787
  0.          0.          0.4        -0.38636872 -5.4886713 ]",1.5674337818462072,0,0
8,8,2024-09-16 17:22:40.092441088,TASK_BEGIN,5,-1.0662421045336,0.104226753625034,0.5427914919477667,0.762413410225419,0.3060346615933049,-0.1274926483329257,8.834872943235228,-2.4263923903365203,3,2024-09-16 17:21:12.976829102,1726507272.9768288,2024-09-16 17:21:12.976828928,0,3,-6.919846894614645,-161.35066835543233,[0. 0. 0. 1.],[4.13913759e-04 4.13537192e-01 5.86048854e-01 4.02146518e-08],"[ 0.01363126  0.33445168  0.29185402 -1.5049651  -0.52475643 -0.77515787
  0.          0.          0.4        -0.38636872 -5.4886713 ]",1.5674337818462072,0,0
9,9,2024-09-16 17:22:41.043129856,TASK_BEGIN,5,-1.1218898374344768,0.1118722319970918,0.5522839175661504,0.8016690039515947,0.3545203918386422,-0.1427238749645664,9.320982901544967,-2.5270162057377714,3,2024-09-16 17:21:13.656447021,1726507273.656447,2024-09-16 17:21:13.656446976,0,0,-86.01585057838605,-383.20346158594947,[1. 0. 0. 0.],[1.55016079e-08 1.03374010e-10 9.99985351e-01 1.46333239e-05],"[ 0.09345714 -0.26941627  1.5709786  -0.2520022  -2.3673718  -1.2740376
  1.          0.          0.4        -0.30654284 -0.6577278 ]",1.567832009823233,1,2
10,10,2024-09-16 17:22:41.110876928,TASK_BEGIN,5,-1.1661623355600654,0.1180599154009938,0.5155465141048147,0.838900479352866,0.3953525821165752,-0.1556165566463545,9.706616092922324,-2.5915136443701723,3,2024-09-16 17:21:13.656447021,1726507273.656447,2024-09-16 17:21:13.656446976,0,0,-86.01585057838605,-383.20346158594947,[1. 0. 0. 0.],[1.55016079e-08 1.03374010e-10 9.99985351e-01 1.46333239e-05],"[ 0.09345714 -0.26941627  1.5709786  -0.2520022  -2.3673718  -1.2740376
  1.          0.          0.4        -0.30654284 -0.6577278 ]",1.567832009823233,1,2
11,11,2024-09-16 17:22:41.178667008,TASK_BEGIN,5,-1.1988420181418058,0.122577554361233,0.4369655313738917,0.8740958411753905,0.4291431492801372,-0.1664000018833621,10.004412843800909,-2.6250652382244803,3,2024-09-16 17:21:13.656447021,1726507273.656447,2024-09-16 17:21:13.656446976,0,0,-86.01585057838605,-383.20346158594947,[1. 0. 0. 0.],[1.55016079e-08 1.03374010e-10 9.99985351e-01 1.46333239e-05],"[ 0.09345714 -0.26941627  1.5709786  -0.2520022  -2.3673718  -1.2740376
  1.          0.          0.4        -0.30654284 -0.6577278 ]",1.567832009823233,1,2
12,12,2024-09-16 17:22:41.246373888,TASK_BEGIN,5,-1.2197108236315704,0.1252290687366577,0.3234766927046933,0.9070774394655816,0.4565406289487538,-0.175344406365335,10.22735874630876,-2.63325545689765,3,2024-09-16 17:21:13.656447021,1726507273.656447,2024-09-16 17:21:13.656446976,0,0,-86.01585057838605,-383.20346158594947,[1. 0. 0. 0.],[1.55016079e-08 1.03374010e-10 9.99985351e-01 1.46333239e-05],"[ 0.09345714 -0.26941627  1.5709786  -0.2520022  -2.3673718  -1.2740376
  1.          0.          0.4        -0.30654284 -0.6577278 ]",1.567832009823233,1,2
13,13,2024-09-16 17:22:41.311242240,TASK_BEGIN,5,-1.2285792422759103,0.1258515545054219,0.1839737612912493,0.9375538727524194,0.4781438164506673,-0.1827350650744174,10.388022652650529,-2.621714856261532,3,2024-09-16 17:21:13.656447021,1726507273.656447,2024-09-16 17:21:13.656446976,0,0,-86.01585057838605,-383.20346158594947,[1. 0. 0. 0.],[1.55016079e-08 1.03374010e-10 9.99985351e-01 1.46333239e-05],"[ 0.09345714 -0.26941627  1.5709786  -0.2520022  -2.3673718  -1.2740376
  1.          0.          0.4        -0.30654284 -0.6577278 ]",1.567832009823233,1,2
14,16,2024-09-16 17:22:42.368360192,TASK_BEGIN,5,-1.1836999222167537,0.1148108166151394,-0.2981946184714391,1.0115349315939697,0.5130205292649642,-0.1983385011040927,10.60738576406559,-2.51999573191457,3,2024-09-16 17:21:15.466906982,1726507275.4669077,2024-09-16 17:21:15.466907648,1,0,-2.5736064966476384,-19.459191058961977,[1. 0. 0. 0.],[0.40873809 0.130518   0.1632317  0.29751221],"[ 3.1344095e-04  9.7288811e-01  5.1368852e-03 -3.1596860e-01
 -8.1220752e-04 -1.9423863e-03  0.0000000e+00  0.0000000e+00
  0.0000000e+00  3.1344095e-04 -1.2253197e+01]",1.500415686519069,0,0
15,17,2024-09-16 17:22:42.424692992,TASK_BEGIN,5,-1.146527442024547,0.1069360992867941,-0.4565772958443921,1.0301724288157443,0.5163197609235851,-0.2022279100876899,10.62336411083957,-2.477647727768456,3,2024-09-16 17:21:15.496354980,1726507275.4963553,2024-09-16 17:21:15.496355328,1,0,-2.57364595606753,-21.83824510443989,[1. 0. 0. 0.],[0.41046915 0.13113778 0.17344724 0.28494583],"[ 3.4817061e-04  9.6755099e-01  5.1381495e-03 -3.4157640e-01
 -9.0925262e-04 -1.9418433e-03  0.0000000e+00  0.0000000e+00
  0.0000000e+00  3.4817061e-04 -1.2210500e+01]",1.5007316842067402,0,0
16,18,2024-09-16 17:22:42.503901184,TASK_BEGIN,5,-1.0999128072672333,0.0971826375499455,-0.6070360415213748,1.045833309658109,0.5166215787891932,-0.2059066796069312,10.622030537805076,-2.4360175846769625,3,2024-09-16 17:21:15.496354980,1726507275.4963553,2024-09-16 17:21:15.496355328,1,0,-2.57364595606753,-21.83824510443989,[1. 0. 0. 0.],[0.41046915 0.13113778 0.17344724 0.28494583],"[ 3.4817061e-04  9.6755099e-01  5.1381495e-03 -3.4157640e-01
 -9.0925262e-04 -1.9418433e-03  0.0000000e+00  0.0000000e+00
  0.0000000e+00  3.4817061e-04 -1.2210500e+01]",1.5007316842067402,0,0
17,19,2024-09-16 17:22:42.563533056,TASK_BEGIN,5,-1.045317231513937,0.0857613739041614,-0.747444676032604,1.0583559513868963,0.5149436647062555,-0.2096605912135434,10.607571787218436,-2.3968086864528155,3,2024-09-16 17:21:15.496354980,1726507275.4963553,2024-09-16 17:21:15.496355328,1,0,-2.57364595606753,-21.83824510443989,[1. 0. 0. 0.],[0.41046915 0.13113778 0.17344724 0.28494583],"[ 3.4817061e-04  9.6755099e-01  5.1381495e-03 -3.4157640e-01
 -9.0925262e-04 -1.9418433e-03  0.0000000e+00  0.0000000e+00
  0.0000000e+00  3.4817061e-04 -1.2210500e+01]",1.5007316842067402,0,0
18,20,2024-09-16 17:22:42.639348992,TASK_BEGIN,5,-0.984400327903471,0.0729200706980447,-0.875776296251192,1.067295964568271,0.5124785510527722,-0.213782247980013,10.582539132158368,-2.36098255693494,3,2024-09-16 17:21:15.496354980,1726507275.4963553,2024-09-16 17:21:15.496355328,1,0,-2.57364595606753,-21.83824510443989,[1. 0. 0. 0.],[0.41046915 0.13113778 0.17344724 0.28494583],"[ 3.4817061e-04  9.6755099e-01  5.1381495e-03 -3.4157640e-01
 -9.0925262e-04 -1.9418433e-03  0.0000000e+00  0.0000000e+00
  0.0000000e+00  3.4817061e-04 -1.2210500e+01]",1.5007316842067402,0,0
19,21,2024-09-16 17:22:42.707094016,TASK_BEGIN,5,-0.9189122860591,0.0589308161996335,-0.9895488523286156,1.0719055796664576,0.5104994834960482,-0.2185532948761575,10.548116001134527,-2.328908620124995,3,2024-09-16 17:21:15.496354980,1726507275.4963553,2024-09-16 17:21:15.496355328,1,0,-2.57364595606753,-21.83824510443989,[1. 0. 0. 0.],[0.41046915 0.13113778 0.17344724 0.28494583],"[ 3.4817061e-04  9.6755099e-01  5.1381495e-03 -3.4157640e-01
 -9.0925262e-04 -1.9418433e-03  0.0000000e+00  0.0000000e+00
  0.0000000e+00  3.4817061e-04 -1.2210500e+01]",1.5007316842067402,0,0
20,22,2024-09-16 17:22:42.774843904,TASK_BEGIN,5,-0.8506118508029008,0.0440807693016558,-1.0856103888567863,1.071199307240423,0.5102557060698136,-0.2242221024710352,10.50451074167828,-2.3005322175501552,3,2024-09-16 17:21:15.496354980,1726507275.4963553,2024-09-16 17:21:15.496355328,1,0,-2.57364595606753,-21.83824510443989,[1. 0. 0. 0.],[0.41046915 0.13113778 0.17344724 0.28494583],"[ 3.4817061e-04  9.6755099e-01  5.1381495e-03 -3.4157640e-01
 -9.0925262e-04 -1.9418433e-03  0.0000000e+00  0.0000000e+00
  0.0000000e+00  3.4817061e-04 -1.2210500e+01]",1.5007316842067402,0,0
21,23,2024-09-16 17:22:43.712531968,TASK_BEGIN,5,-0.78123246015226,0.0286673700411981,-1.1602198071766217,1.064088333731865,0.5128731643381846,-0.2309795239111002,10.451406589998534,-2.2755160445727687,3,2024-09-16 17:21:16.252875977,1726507276.2528765,2024-09-16 17:21:16.252876544,1,2,1.4713635666269098,4.631180097118312,[0. 0. 1. 0.],[0.3568618  0.36891808 0.09786101 0.1763591 ],"[ 5.1511130e-03  7.8024256e-01  1.0919427e-01 -1.5010083e-02
 -1.3919512e-02 -3.4677837e-04  0.0000000e+00  0.0000000e+00
  0.0000000e+00  5.1511130e-03 -1.0712032e+01]",1.5250327282715603,0,0
22,24,2024-09-16 17:22:43.786301952,TASK_BEGIN,5,-0.7124682145038911,0.0129952130433885,-1.209373213457026,1.049550428441914,0.5192598266286904,-0.2389323066764242,10.388505831725176,-2.253366357613576,3,2024-09-16 17:21:16.252875977,1726507276.2528765,2024-09-16 17:21:16.252876544,1,2,1.4713635666269098,4.631180097118312,[0. 0. 1. 0.],[0.3568618  0.36891808 0.09786101 0.1763591 ],"[ 5.1511130e-03  7.8024256e-01  1.0919427e-01 -1.5010083e-02
 -1.3919512e-02 -3.4677837e-04  0.0000000e+00  0.0000000e+00
  0.0000000e+00  5.1511130e-03 -1.0712032e+01]",1.5250327282715603,0,0
23,25,2024-09-16 17:22:43.851407104,TASK_BEGIN,5,-0.6459387669708571,-0.0026289996273581,-1.229298564485093,1.0267991023431189,0.5300153671845304,-0.2480764530985647,10.316206465627324,-2.233578538435469,3,2024-09-16 17:21:16.252875977,1726507276.2528765,2024-09-16 17:21:16.252876544,1,2,1.4713635666269098,4.631180097118312,[0. 0. 1. 0.],[0.3568618  0.36891808 0.09786101 0.1763591 ],"[ 5.1511130e-03  7.8024256e-01  1.0919427e-01 -1.5010083e-02
 -1.3919512e-02 -3.4677837e-04  0.0000000e+00  0.0000000e+00
  0.0000000e+00  5.1511130e-03 -1.0712032e+01]",1.5250327282715603,0,0
24,26,2024-09-16 17:22:43.913051904,TASK_BEGIN,5,-0.5831325191746677,-0.0179029991884678,-1.2170383019142297,0.9954319798742408,0.5453573699586622,-0.2582788424076543,10.236129358636296,-2.2157593263089197,3,2024-09-16 17:21:16.252875977,1726507276.2528765,2024-09-16 17:21:16.252876544,1,2,1.4713635666269098,4.631180097118312,[0. 0. 1. 0.],[0.3568618  0.36891808 0.09786101 0.1763591 ],"[ 5.1511130e-03  7.8024256e-01  1.0919427e-01 -1.5010083e-02
 -1.3919512e-02 -3.4677837e-04  0.0000000e+00  0.0000000e+00
  0.0000000e+00  5.1511130e-03 -1.0712032e+01]",1.5250327282715603,0,0
25,27,2024-09-16 17:22:43.974689024,TASK_BEGIN,5,-0.5253579067163303,-0.0325333165898913,-1.1710136147682584,0.95554345759424,0.5650832006787734,-0.2692757654447154,10.151072744999414,-2.1996318460081885,3,2024-09-16 17:21:16.980874023,1726507276.980874,2024-09-16 17:21:16.980873984,1,0,-2.9299059941997427,-55.93198631077143,[1. 0. 0. 0.],[0.32160534 0.3542561  0.26636605 0.05777251],"[ 0.02816455  0.6439098   0.13798887 -0.6564587  -0.09542503 -0.06678918
  0.          0.          0.          0.02816455 -9.62137   ]",1.5126700383827294,0,0
26,28,2024-09-16 17:22:44.051870208,TASK_BEGIN,5,-0.4737172012792884,-0.0462362461369668,-1.091400779997146,0.907774469149886,0.588587404092008,-0.2806902216271494,10.064438902469025,-2.184924472640576,3,2024-09-16 17:21:16.980874023,1726507276.980874,2024-09-16 17:21:16.980873984,1,0,-2.9299059941997427,-55.93198631077143,[1. 0. 0. 0.],[0.32160534 0.3542561  0.26636605 0.05777251],"[ 0.02816455  0.6439098   0.13798887 -0.6564587  -0.09542503 -0.06678918
  0.          0.          0.          0.02816455 -9.62137   ]",1.5126700383827294,0,0
27,29,2024-09-16 17:22:44.125058816,TASK_BEGIN,5,-0.4290871060296375,-0.0587400887789428,-0.9801922105397924,0.8532800597149894,0.6149558644412205,-0.2920641356661921,9.979617739621162,-2.171262925527257,3,2024-09-16 17:21:16.980874023,1726507276.980874,2024-09-16 17:21:16.980873984,1,0,-2.9299059941997427,-55.93198631077143,[1. 0. 0. 0.],[0.32160534 0.3542561  0.26636605 0.05777251],"[ 0.02816455  0.6439098   0.13798887 -0.6564587  -0.09542503 -0.06678918
  0.          0.          0.          0.02816455 -9.62137   ]",1.5126700383827294,0,0
28,30,2024-09-16 17:22:45.068598016,TASK_BEGIN,5,-0.3920796197235877,-0.069796506249717,-0.8409642794054852,0.7936258831489205,0.6431310765004887,-0.3029007152714832,9.899611556539814,-2.1581617751751865,3,2024-09-16 17:21:18.156848877,1726507278.1568499,2024-09-16 17:21:18.156849920,1,1,-5.032609689980953,-132.126964376113,[0. 1. 0. 0.],[6.26213012e-04 1.87377203e-06 9.92115937e-01 7.25597630e-03],"[ 0.04529135 -0.09309721 -0.08085443 -1.6870854   0.16808505  0.44059426
  0.          0.          0.          0.04529135 -3.7253146 ]",1.5627956502156997,0,0
29,31,2024-09-16 17:22:45.136399872,TASK_BEGIN,5,-0.3629785622623875,-0.0792031478700467,-0.6784675202363644,0.7306441753331784,0.6720854107975295,-0.3127124575733426,9.826809709661577,-2.1451025311724554,3,2024-09-16 17:21:18.215845947,1726507278.215846,2024-09-16 17:21:18.215846144,1,1,-5.241910921136062,-139.77338692305634,[0. 1. 0. 0.],[3.62704559e-04 5.31041079e-07 9.88891561e-01 1.07452032e-02],"[ 0.04441245 -0.14696431 -0.10399813 -1.7417929   0.21615683  0.49557853
  0.          0.          0.          0.04441245 -3.2943778 ]",1.563635359305317,0,0
30,32,2024-09-16 17:22:45.196181248,TASK_BEGIN,5,-0.3416887465307591,-0.086827672085394,-0.498166548395405,0.6662814827252358,0.7009242157305694,-0.3210680041369628,9.762808091948488,-2.131634752148836,3,2024-09-16 17:21:18.276858154,1726507278.2768588,2024-09-16 17:21:18.276858880,1,0,-5.007238318817372,-146.95673061639457,[1. 0. 0. 0.],[3.02690101e-04 2.43025978e-07 9.69955677e-01 2.97413901e-02],"[ 0.04345759 -0.20242935 -0.10384606 -1.7934449   0.26570687  0.49547473
  0.          0.          0.          0.04345759 -2.8506575 ]",1.5646618286984535,0,0
31,33,2024-09-16 17:22:45.271902976,TASK_BEGIN,5,-0.327744143776949,-0.0926187069314695,-0.3058432431261044,0.6024669487505858,0.7288997178996566,-0.3276279759271007,9.708310442203544,-2.117458731890998,3,2024-09-16 17:21:18.363875000,1726507278.3638756,2024-09-16 17:21:18.363875584,1,0,-5.005921424351101,-157.46142100977315,[1. 0. 0. 0.],[4.05301628e-04 3.18509334e-07 6.69105347e-01 3.30489033e-01],"[ 0.04201722 -0.28858566 -0.10355565 -1.8709114   0.34001243  0.4953189
  0.          0.          0.          0.04201722 -2.161407  ]",1.5667682500767792,0,0
32,34,2024-09-16 17:22:45.334989056,TASK_BEGIN,5,-0.3203778055186198,-0.0965996212322216,-0.1073030265923967,0.5410171292960629,0.7553841989118267,-0.3321653023406457,9.663147717145462,-2.1024804208148087,3,2024-09-16 17:21:18.421895996,1726507278.4218967,2024-09-16 17:21:18.421896704,1,0,-5.004928014745701,-164.2882713635266,[1. 0. 0. 0.],[2.42615269e-04 2.59376896e-07 2.12993951e-01 7.86763174e-01],"[ 0.04105083 -0.34799635 -0.10332121 -1.922547    0.3895365   0.49521524
  0.          0.          0.          0.04105083 -1.6861215 ]",1.5678160338283953,0,0
33,35,2024-09-16 17:22:45.397520128,TASK_BEGIN,5,-0.3186110840335338,-0.0988552103438603,0.0918824143929638,0.4835674972882857,0.7798564169669401,-0.3345767960828513,9.626377874720522,-2.0868472934997566,3,2024-09-16 17:21:18.479846924,1726507278.4798477,2024-09-16 17:21:18.479847680,1,0,-5.003823350239344,-170.9771052275337,[1. 0. 0. 0.],[1.73256322e-04 1.80287731e-07 7.30233356e-02 9.26803228e-01],"[ 0.04007856 -0.40898603 -0.10305481 -1.974174    0.43905023  0.4951116
  0.          0.          0.          0.04007856 -1.198204  ]",1.5685082260690617,0,0
34,36,2024-09-16 17:22:45.475152128,TASK_BEGIN,5,-0.3213211019684083,-0.0995241727160227,0.2866516440896718,0.4315157691688006,0.8018998235781593,-0.3348906274493852,9.59641650664067,-2.0709722906538097,3,2024-09-16 17:21:18.508844971,1726507278.5088458,2024-09-16 17:21:18.508845824,1,0,-5.003239668491801,-174.27057384375019,[1. 0. 0. 0.],[1.53762636e-04 1.52211791e-07 4.43815381e-02 9.55464547e-01],"[ 0.03958996 -0.44007307 -0.10290983 -1.9999841   0.46380323  0.49505988
  0.          0.          0.          0.03958996 -0.94950765]",1.5685821977549295,1,1
35,44,2024-09-16 17:22:47.734258688,TASK_BEGIN,5,-0.3666419335925254,-0.0783190942795583,1.1991499659452898,0.3109213369944999,0.8459906074056445,-0.2924028944285222,9.312762725560994,-2.0225269500028147,3,2024-09-16 17:21:20.814111084,1726507280.8141112,2024-09-16 17:21:20.814111232,2,0,-2.6028270016880697,-46.85822657385984,[1. 0. 0. 0.],[0.35909139 0.10876312 0.27474578 0.25739971],"[ 4.5169988e-03  8.6998451e-01  3.1917751e-02 -6.6122162e-01
 -1.2613814e-02 -1.2013959e-02  0.0000000e+00  0.0000000e+00
  6.0000002e-01 -5.9548301e-01 -9.7081242e+00]",1.5246308768738408,0,0
36,45,2024-09-16 17:22:47.811299072,TASK_BEGIN,5,-0.3640169936014172,-0.0765438964354375,1.1824196137706595,0.3370314274264322,0.8305970755824933,-0.2859773943449405,9.252673342830716,-2.032776946557965,3,2024-09-16 17:21:20.900621826,1726507280.9006224,2024-09-16 17:21:20.900622336,2,0,-2.9152574094996737,-53.51017000341756,[1. 0. 0. 0.],[0.29476673 0.08683557 0.38355766 0.23484005],"[ 5.1484108e-03  8.3655608e-01  3.1162051e-02 -7.4019152e-01
 -1.5417950e-02 -3.2066401e-02  0.0000000e+00  0.0000000e+00
  6.0000002e-01 -5.9485161e-01 -9.4406967e+00]",1.5281393733424495,0,0
37,46,2024-09-16 17:22:47.873044992,TASK_BEGIN,5,-0.3592607122052497,-0.0756616495640701,1.1383569152154365,0.3693349097636856,0.8110903949094757,-0.2801694078944521,9.194098095187602,-2.0464701290865843,3,2024-09-16 17:21:20.958623779,1726507280.9586244,2024-09-16 17:21:20.958624256,2,0,-2.602774098682346,-57.84067313196255,[1. 0. 0. 0.],[0.23937229 0.07722932 0.49116005 0.19223834],"[ 5.57859754e-03  8.12158108e-01  3.18486877e-02 -7.93546140e-01
 -1.66185685e-02 -1.20063415e-02  0.00000000e+00  0.00000000e+00
  6.00000024e-01 -5.94421387e-01 -9.24551296e+00]",1.5322071529480181,0,0
38,47,2024-09-16 17:22:47.935364096,TASK_BEGIN,5,-0.3529111902603063,-0.0757564085550152,1.0749429132604624,0.4051998337185541,0.7883171504242568,-0.2751837662753479,9.142345281657814,-2.0633599167572045,3,2024-09-16 17:21:21.016624023,1726507281.016625,2024-09-16 17:21:21.016624896,2,0,-2.60303362583511,-61.86956591137889,[1. 0. 0. 0.],[0.22768479 0.07203114 0.52564015 0.17464392],"[ 6.0087838e-03  7.8615999e-01  3.1848680e-02 -8.4474641e-01
 -1.7819228e-02 -1.2006527e-02  0.0000000e+00  0.0000000e+00
  6.0000002e-01 -5.9399122e-01 -9.0375280e+00]",1.5352939039226299,0,0
39,48,2024-09-16 17:22:48.013470976,TASK_BEGIN,5,-0.3455832430320439,-0.0768583274379161,1.0021906955994304,0.4415520488466143,0.7633212925523098,-0.2712025137091564,9.103122652803345,-2.083337667273073,3,2024-09-16 17:21:21.105623047,1726507281.1056237,2024-09-16 17:21:21.105623808,2,0,-2.6033537093017003,-67.76390030619523,[1. 0. 0. 0.],[0.25689562 0.06304823 0.5167783  0.16327784],"[ 6.6540241e-03  7.4416304e-01  3.1848673e-02 -9.2154670e-01
 -1.9620309e-02 -1.2007313e-02  0.0000000e+00  0.0000000e+00
  6.0000002e-01 -5.9334600e-01 -8.7015524e+00]",1.5384680362336778,0,0
40,49,2024-09-16 17:22:48.082279936,TASK_BEGIN,5,-0.3378631009506219,-0.0789474589551519,0.93081387491835,0.4751831697566432,0.737330253051735,-0.2683843404810959,9.08203443326774,-2.1064228259309767,3,2024-09-16 17:21:21.163620117,1726507281.163621,2024-09-16 17:21:21.163620864,2,0,-2.6035250644095242,-71.59632681617232,[1. 0. 0. 0.],[0.27676621 0.05792313 0.5070741  0.15823656],"[ 7.0842109e-03  7.1416509e-01  3.1848669e-02 -9.7274697e-01
 -2.0821052e-02 -1.2007281e-02  0.0000000e+00  0.0000000e+00
  6.0000002e-01 -5.9291577e-01 -8.4615688e+00]",1.5413582931266172,0,0
41,50,2024-09-16 17:22:48.150000896,TASK_BEGIN,5,-0.3302346253862376,-0.0819626240606368,0.8707732332569369,0.5030999561072711,0.7117653875776516,-0.2668698690306074,9.08369447268334,-2.1326346372347342,3,2024-09-16 17:21:21.251621094,1726507281.251622,2024-09-16 17:21:21.251621888,2,0,-2.6037373332512743,-77.20299350383941,[1. 0. 0. 0.],[0.27930621 0.04793629 0.5182815  0.15447601],"[ 7.7294507e-03  6.6616821e-01  3.1848662e-02 -1.0495473e+00
 -2.2622176e-02 -1.2007342e-02  0.0000000e+00  0.0000000e+00
  6.0000002e-01 -5.9227055e-01 -8.0775938e+00]",1.5453107945946525,0,0
42,51,2024-09-16 17:22:49.092931840,TASK_BEGIN,5,-0.3230492047759842,-0.0858124543909311,0.8299170353374246,0.5228533682486167,0.688238140858166,-0.2667908827918933,9.110634076901563,-2.161802392384584,3,2024-09-16 17:21:22.130620850,1726507282.130622,2024-09-16 17:21:22.130621952,2,2,-5.659865777130437,-119.86836630503471,[0. 0. 1. 0.],[1.21461528e-03 9.98709075e-01 7.59753066e-05 3.34256740e-07],"[ 0.09047707  0.1546979   1.1677291  -0.44245902 -0.5720452  -0.4956684
  0.          0.          0.6        -0.5095229  -3.9858315 ]",1.565695789662434,0,0
43,52,2024-09-16 17:22:49.160710144,TASK_BEGIN,5,-0.3165100407909377,-0.0903876983426319,0.8128768652350019,0.5327995340522969,0.6685158914196462,-0.2682802675249918,9.162540016804432,-2.1934300475725204,3,2024-09-16 17:21:22.130620850,1726507282.130622,2024-09-16 17:21:22.130621952,2,2,-5.659865777130437,-119.86836630503471,[0. 0. 1. 0.],[1.21461528e-03 9.98709075e-01 7.59753066e-05 3.34256740e-07],"[ 0.09047707  0.1546979   1.1677291  -0.44245902 -0.5720452  -0.4956684
  0.          0.          0.6        -0.5095229  -3.9858315 ]",1.565695789662434,0,0
44,53,2024-09-16 17:22:49.228524032,TASK_BEGIN,5,-0.3106449433163802,-0.0955755470456887,0.8203699300372196,0.5322721773985462,0.6544625437085949,-0.2714792181259883,9.236226451284416,-2.226684118642794,3,2024-09-16 17:21:22.130620850,1726507282.130622,2024-09-16 17:21:22.130621952,2,2,-5.659865777130437,-119.86836630503471,[0. 0. 1. 0.],[1.21461528e-03 9.98709075e-01 7.59753066e-05 3.34256740e-07],"[ 0.09047707  0.1546979   1.1677291  -0.44245902 -0.5720452  -0.4956684
  0.          0.          0.6        -0.5095229  -3.9858315 ]",1.565695789662434,0,0
45,54,2024-09-16 17:22:49.287866112,TASK_BEGIN,5,-0.3052809149888482,-0.101274222920654,0.8490535576776569,0.5216539717336249,0.6479416414891785,-0.27653609655999,9.326186520496409,-2.260457887106374,3,2024-09-16 17:21:22.130620850,1726507282.130622,2024-09-16 17:21:22.130621952,2,2,-5.659865777130437,-119.86836630503471,[0. 0. 1. 0.],[1.21461528e-03 9.98709075e-01 7.59753066e-05 3.34256740e-07],"[ 0.09047707  0.1546979   1.1677291  -0.44245902 -0.5720452  -0.4956684
  0.          0.          0.6        -0.5095229  -3.9858315 ]",1.565695789662434,0,0
46,55,2024-09-16 17:22:49.349894912,TASK_BEGIN,5,-0.3000405881637696,-0.10740483181278,0.8920244432191281,0.5023186335419431,0.6506507936436592,-0.2835898409876414,9.425178316638432,-2.2934155970178933,3,2024-09-16 17:21:22.130620850,1726507282.130622,2024-09-16 17:21:22.130621952,2,2,-5.659865777130437,-119.86836630503471,[0. 0. 1. 0.],[1.21461528e-03 9.98709075e-01 7.59753066e-05 3.34256740e-07],"[ 0.09047707  0.1546979   1.1677291  -0.44245902 -0.5720452  -0.4956684
  0.          0.          0.6        -0.5095229  -3.9858315 ]",1.565695789662434,0,0
47,56,2024-09-16 17:22:49.427584000,TASK_BEGIN,5,-0.2943585809296168,-0.1139183395313268,0.9399476500508852,0.4764229242010966,0.6638857326911233,-0.2927351415469848,9.524486393334948,-2.32398151521454,3,2024-09-16 17:21:22.130620850,1726507282.130622,2024-09-16 17:21:22.130621952,2,2,-5.659865777130437,-119.86836630503471,[0. 0. 1. 0.],[1.21461528e-03 9.98709075e-01 7.59753066e-05 3.34256740e-07],"[ 0.09047707  0.1546979   1.1677291  -0.44245902 -0.5720452  -0.4956684
  0.          0.          0.6        -0.5095229  -3.9858315 ]",1.565695789662434,0,0
48,57,2024-09-16 17:22:49.499524096,TASK_BEGIN,5,-0.2875152861330153,-0.1207953004983708,0.9826728660161784,0.4465715760157485,0.6882964166798223,-0.3039772662970593,9.614041458031972,-2.3503301203898426,3,2024-09-16 17:21:22.130620850,1726507282.130622,2024-09-16 17:21:22.130621952,2,2,-5.659865777130437,-119.86836630503471,[0. 0. 1. 0.],[1.21461528e-03 9.98709075e-01 7.59753066e-05 3.34256740e-07],"[ 0.09047707  0.1546979   1.1677291  -0.44245902 -0.5720452  -0.4956684
  0.          0.          0.6        -0.5095229  -3.9858315 ]",1.565695789662434,0,0
49,58,2024-09-16 17:22:50.443237120,TASK_BEGIN,5,-0.2786903460664745,-0.1280386609919079,1.0110613748254045,0.4154168819453153,0.7237292395460516,-0.3171946118724044,9.682937838617292,-2.370469892779308,3,2024-09-16 17:21:22.842700928,1726507282.842702,2024-09-16 17:21:22.842701824,2,3,-2.4862974993814166,-345.2891117371533,[0. 0. 0. 1.],[3.15092518e-03 9.96835200e-01 4.56565390e-09 1.38706758e-05],"[ 0.47414684  0.19771588  3.4951944   0.40715444 -1.1980451  -0.58273137
  0.          0.          0.6        -0.12585315 -4.329975  ]",1.5684403791481845,1,2
50,59,2024-09-16 17:22:50.498789120,TASK_BEGIN,5,-0.2670317927360424,-0.1356635970316481,1.0186213138558258,0.3852734859369389,0.7692112147496037,-0.3321258674515284,9.720703624081745,-2.382467841723027,3,2024-09-16 17:21:22.842700928,1726507282.842702,2024-09-16 17:21:22.842701824,2,3,-2.4862974993814166,-345.2891117371533,[0. 0. 0. 1.],[3.15092518e-03 9.96835200e-01 4.56565390e-09 1.38706758e-05],"[ 0.47414684  0.19771588  3.4951944   0.40715444 -1.1980451  -0.58273137
  0.          0.          0.6        -0.12585315 -4.329975  ]",1.5684403791481845,1,2
51,60,2024-09-16 17:22:50.578758144,TASK_BEGIN,5,-0.2517392099221449,-0.1436862277176964,1.00255001329796,0.3578334309219466,0.8230650858573718,-0.3483848254972498,9.71908174196228,-2.384765719138174,3,2024-09-16 17:21:22.901698975,1726507282.901699,2024-09-16 17:21:22.901699072,2,0,-2.2413904561946083,-342.768485176,[1. 0. 0. 0.],[3.01639269e-03 9.96966342e-01 1.09887800e-08 1.72545324e-05],"[ 0.5224802   0.21006584  3.4942987   0.3557216  -1.2563055  -0.5825624
  0.          0.          0.6        -0.07751983 -4.428775  ]",1.565476061595404,1,2
52,61,2024-09-16 17:22:50.637973248,TASK_BEGIN,5,-0.2321565833855978,-0.1521109661007755,0.9640215361378298,0.3340334115704233,0.8831102321991897,-0.3654935229704333,9.67359713304085,-2.376467647361488,3,2024-09-16 17:21:22.959698975,1726507282.9596996,2024-09-16 17:21:22.959699712,2,0,-2.4680826722495794,-340.74599910958096,[1. 0. 0. 0.],[3.70090111e-03 9.96271748e-01 2.09236629e-08 2.73303768e-05],"[ 0.5708335   0.22082531  3.4933844   0.30432403 -1.3145491  -0.58239365
  0.          0.          0.6        -0.02916648 -4.5148506 ]",1.559992486979131,1,2
53,62,2024-09-16 17:22:50.700483840,TASK_BEGIN,5,-0.2078574217476929,-0.1609192102059488,0.9078633527480012,0.3140656551219059,0.946905523324145,-0.3829237138728678,9.584248618399938,-2.357493073667777,3,2024-09-16 17:21:23.488698975,1726507283.4886994,2024-09-16 17:21:23.488699392,2,1,-100.30156256665215,-406.00676212706304,[0. 1. 0. 0.],[1.76515676e-01 7.82671662e-01 1.21307305e-06 4.08114494e-02],"[ 1.004371    0.2665993   3.4570894   0.01841115 -1.4801973   0.16562125
  0.          0.          0.6         0.404371   -4.8810425 ]",1.3865943433133339,1,2
54,63,2024-09-16 17:22:50.778052096,TASK_BEGIN,5,-0.1787071623140422,-0.1700636394872341,0.8418896820881315,0.2974883809031878,1.0119932313932254,-0.4001415316973086,9.455198620233611,-2.3285662912057634,3,2024-09-16 17:21:23.488698975,1726507283.4886994,2024-09-16 17:21:23.488699392,2,1,-100.30156256665215,-406.00676212706304,[0. 1. 0. 0.],[1.76515676e-01 7.82671662e-01 1.21307305e-06 4.08114494e-02],"[ 1.004371    0.2665993   3.4570894   0.01841115 -1.4801973   0.16562125
  0.          0.          0.6         0.404371   -4.8810425 ]",1.3865943433133339,1,2
55,64,2024-09-16 17:22:50.839611136,TASK_BEGIN,5,-0.1449006059223683,-0.1794688980197247,0.7760926720715142,0.2833936563742076,1.076098628698815,-0.4166509380360632,9.29386683179229,-2.2910908325669435,3,2024-09-16 17:21:23.488698975,1726507283.4886994,2024-09-16 17:21:23.488699392,2,1,-100.30156256665215,-406.00676212706304,[0. 1. 0. 0.],[1.76515676e-01 7.82671662e-01 1.21307305e-06 4.08114494e-02],"[ 1.004371    0.2665993   3.4570894   0.01841115 -1.4801973   0.16562125
  0.          0.          0.6         0.404371   -4.8810425 ]",1.3865943433133339,1,2
56,68,2024-09-16 17:22:51.997209856,TASK_BEGIN,5,0.021985917711259,-0.21738684289226,0.7340045783393582,0.2287948096900517,1.2891154477925657,-0.4687120434039755,8.543263454103347,-2.0999672584088915,3,2024-09-16 17:21:25.097665039,1726507285.0976655,2024-09-16 17:21:25.097665536,3,0,0.7300153530385529,0.7300153530385529,[1. 0. 0. 0.],[0.43967179 0.16206491 0.06900454 0.32925876],"[-2.1228790e-03  1.0054975e+00 -1.5729767e-01  6.9761544e-02
  6.2459228e-03  5.9808172e-02  0.0000000e+00  0.0000000e+00
  4.0000001e-01 -4.0212288e-01 -1.2650158e+01]",1.4977494146289432,0,0
57,69,2024-09-16 17:22:52.064923136,TASK_BEGIN,5,0.0660828768821717,-0.2262230958675251,0.8218572797825731,0.2112501236496252,1.3266960233543943,-0.4774854978801482,8.391006962331426,-2.055131507380972,3,2024-09-16 17:21:25.154634033,1726507285.154634,2024-09-16 17:21:25.154633984,3,0,0.12155011290695938,1.3224664965049115,[1. 0. 0. 0.],[0.45985399 0.17409204 0.06216353 0.30389044],"[-4.2481422e-03  1.0064795e+00 -1.5737726e-01  1.8578397e-02
  1.2221637e-02  5.9766255e-02  0.0000000e+00  0.0000000e+00
  4.0000001e-01 -4.0424815e-01 -1.2658014e+01]",1.4988691822385136,0,0
58,70,2024-09-16 17:22:52.129172992,TASK_BEGIN,5,0.1086627098522237,-0.2344975910044454,0.9561962876935692,0.1915686311881804,1.3574620481907975,-0.4846330826888447,8.274060882631828,-2.0163738888218745,3,2024-09-16 17:21:25.212661133,1726507285.2126613,2024-09-16 17:21:25.212661248,3,0,-0.6973378332411215,0.31703230252700787,[1. 0. 0. 0.],[0.47895476 0.18335776 0.05534795 0.28233953],"[-6.3745975e-03  1.0058610e+00 -1.5745611e-01 -3.2642327e-02
  1.8193746e-02  5.9729267e-02  0.0000000e+00  0.0000000e+00
  4.0000001e-01 -4.0637460e-01 -1.2653067e+01]",1.5008009165133989,0,0
59,71,2024-09-16 17:22:52.189644032,TASK_BEGIN,5,0.1485291355405877,-0.2420681072865866,1.1343749184783145,0.1700486125754079,1.3815799201185062,-0.4902927075982316,8.197499937469802,-1.9851623462797927,3,2024-09-16 17:21:25.270629883,1726507285.2706306,2024-09-16 17:21:25.270630656,3,0,-1.4286792553379968,-2.193339533986882,[1. 0. 0. 0.],[0.48389296 0.17925106 0.05385441 0.28300157],"[-8.5021658e-03  1.0036423e+00 -1.5753460e-01 -8.3863907e-02
  2.4162317e-02  5.9693016e-02  0.0000000e+00  0.0000000e+00
  4.0000001e-01 -4.0850216e-01 -1.2635317e+01]",1.5039459617138993,0,0
60,72,2024-09-16 17:22:53.119518976,TASK_BEGIN,5,0.1846041427721459,-0.2488137972485782,1.3503395125366162,0.1472712214374046,1.3992788655317232,-0.4945982171616048,8.162126033119417,-1.9621505090940368,3,2024-09-16 17:21:26.212639160,1726507286.2126396,2024-09-16 17:21:26.212639488,3,2,-4.66932562040036,-65.32141496985633,[0. 0. 1. 0.],[0.19277603 0.11535447 0.03251737 0.65935213],"[ -0.0446806    0.96698725  -0.21724254   0.7247911    0.07115475
   0.0187502    0.           0.           0.4         -0.4446806
 -12.342076  ]",1.551391435914658,0,0
61,73,2024-09-16 17:22:53.187325952,TASK_BEGIN,5,0.2160099467072103,-0.2546490818441065,1.595114453890107,0.1240758571329624,1.410809855094758,-0.4976613684335559,8.16478387846443,-1.9472306209908008,3,2024-09-16 17:21:26.272629883,1726507286.2726302,2024-09-16 17:21:26.272630272,3,2,-6.646180089590746,-75.50142381577938,[0. 0. 1. 0.],[0.15954244 0.08773274 0.02495318 0.72777163],"[-4.8506260e-02  9.9151719e-01 -2.9313993e-01  8.1171155e-01
  7.1218677e-02 -4.4502029e-03  0.0000000e+00  0.0000000e+00
  4.0000001e-01 -4.4850627e-01 -1.2538316e+01]",1.5523435104681522,0,0
62,74,2024-09-16 17:22:53.254643712,TASK_BEGIN,5,0.2421277803955936,-0.2595299386232945,1.857564297148804,0.1014907044808717,1.416462373391297,-0.499571699395297,8.199224632173369,-1.9396853899767423,3,2024-09-16 17:21:26.330631104,1726507286.3306315,2024-09-16 17:21:26.330631424,3,2,-5.710272456397024,-90.02465152727,[0. 0. 1. 0.],[0.10936103 0.05352978 0.01425874 0.82285045],"[-5.2816231e-02  1.0208673e+00 -2.9777643e-01  9.7087270e-01
  7.0804134e-02  2.2876074e-03  0.0000000e+00  0.0000000e+00
  4.0000001e-01 -4.5281622e-01 -1.2773117e+01]",1.5542438882717902,0,0
63,75,2024-09-16 17:22:53.314276864,TASK_BEGIN,5,0.2626124929422231,-0.2634477933418918,2.125311717031213,0.0805986195024153,1.4166123424796038,-0.5004028090665658,8.257174522376546,-1.9383825026090205,3,2024-09-16 17:21:26.388631104,1726507286.3886313,2024-09-16 17:21:26.388631296,3,2,-11.593230508875354,-104.55163481141545,[0. 0. 1. 0.],[0.09509079 0.04499213 0.01113323 0.84878385],"[-5.7614405e-02  1.0539951e+00 -3.5290980e-01  1.1161464e+00
  6.9763690e-02 -1.0763668e-02  0.0000000e+00  0.0000000e+00
  4.0000001e-01 -4.5761439e-01 -1.3038139e+01]",1.555800322439024,0,0
64,76,2024-09-16 17:22:53.390518784,TASK_BEGIN,5,0.2773695045715799,-0.2664161481590158,2.3855599487795858,0.0623849681208083,1.4117874506526191,-0.5002179934006769,8.329291718940738,-1.9419603158131409,3,2024-09-16 17:21:26.388631104,1726507286.3886313,2024-09-16 17:21:26.388631296,3,2,-11.593230508875354,-104.55163481141545,[0. 0. 1. 0.],[0.09509079 0.04499213 0.01113323 0.84878385],"[-5.7614405e-02  1.0539951e+00 -3.5290980e-01  1.1161464e+00
  6.9763690e-02 -1.0763668e-02  0.0000000e+00  0.0000000e+00
  4.0000001e-01 -4.5761439e-01 -1.3038139e+01]",1.555800322439024,0,0
65,77,2024-09-16 17:22:53.452824832,TASK_BEGIN,5,0.2865166118003076,-0.2684592256864961,2.6256935143236446,0.0476237384826333,1.402729882357897,-0.4990762220567019,8.405913613611952,-1.948958532152105,3,2024-09-16 17:21:26.388631104,1726507286.3886313,2024-09-16 17:21:26.388631296,3,2,-11.593230508875354,-104.55163481141545,[0. 0. 1. 0.],[0.09509079 0.04499213 0.01113323 0.84878385],"[-5.7614405e-02  1.0539951e+00 -3.5290980e-01  1.1161464e+00
  6.9763690e-02 -1.0763668e-02  0.0000000e+00  0.0000000e+00
  4.0000001e-01 -4.5761439e-01 -1.3038139e+01]",1.555800322439024,0,0
66,78,2024-09-16 17:22:53.525974016,TASK_BEGIN,5,0.2903436217559602,-0.269607324445772,2.833768262478486,0.036823441168734,1.3904173073301485,-0.4970407923252234,8.477662568666418,-1.9578757614257265,3,2024-09-16 17:21:26.388631104,1726507286.3886313,2024-09-16 17:21:26.388631296,3,2,-11.593230508875354,-104.55163481141545,[0. 0. 1. 0.],[0.09509079 0.04499213 0.01113323 0.84878385],"[-5.7614405e-02  1.0539951e+00 -3.5290980e-01  1.1161464e+00
  6.9763690e-02 -1.0763668e-02  0.0000000e+00  0.0000000e+00
  4.0000001e-01 -4.5761439e-01 -1.3038139e+01]",1.555800322439024,0,0
67,79,2024-09-16 17:22:54.469012992,TASK_BEGIN,5,0.2892738997019128,-0.2698979574476383,2.999025072151829,0.030233164709905,1.3760207515133345,-0.4941912864959182,8.53598230891386,-1.967187257743921,3,2024-09-16 17:21:27.007776855,1726507287.007777,2024-09-16 17:21:27.007777024,3,3,0.9133830002924606,-35.683309501376584,[0. 0. 0. 1.],[0.06706399 0.02454361 0.09721788 0.81117452],"[ -0.103645     1.3280754   -0.19394605   0.58006227  -0.05227738
  -0.37725213   0.           0.           0.4         -0.503645
 -15.230782  ]",1.5085108853422193,0,0
68,80,2024-09-16 17:22:54.522028800,TASK_BEGIN,5,0.2838394892653013,-0.269379929959582,3.1124090082391067,0.0279005175969426,1.3608271479490324,-0.4906388744568999,8.57357694551867,-1.9753772225172035,3,2024-09-16 17:21:27.622602051,1726507287.6226027,2024-09-16 17:21:27.622602752,3,0,-1.469871026179021,-32.07463426043735,[1. 0. 0. 0.],[0.12291847 0.07850099 0.743732   0.05484854],"[ -0.13400619   1.427077    -0.18021506   0.03901269  -0.48427907
  -0.4111332    0.           0.           0.4         -0.5340062
 -16.022795  ]",1.5129987067147386,0,0
69,81,2024-09-16 17:22:54.604584960,TASK_BEGIN,5,0.2746703222775061,-0.2681155294199511,3.167030872699281,0.0297553088703215,1.3461740337582773,-0.4865428792221439,8.584665691254465,-1.9810005029087936,3,2024-09-16 17:21:27.680587891,1726507287.680588,2024-09-16 17:21:27.680588032,3,0,-2.1761038447832846,-35.40716223878571,[1. 0. 0. 0.],[0.11129178 0.10590489 0.75300091 0.02980242],"[-1.3687666e-01  1.4273899e+00 -1.8043983e-01 -1.2470837e-02
 -5.2538800e-01 -4.1107377e-01  0.0000000e+00  0.0000000e+00
  4.0000001e-01 -5.3687668e-01 -1.6025297e+01]",1.5245815475126836,0,0
70,82,2024-09-16 17:22:54.659887872,TASK_BEGIN,5,0.2624739474600225,-0.2661755414012215,3.158581061477597,0.0356807520229448,1.333410724999336,-0.4821226553275641,8.565061074987085,-1.9827469224510208,3,2024-09-16 17:21:27.738557129,1726507287.7385573,2024-09-16 17:21:27.738557440,3,0,-2.8807604038400427,-40.09685612345765,[1. 0. 0. 0.],[0.10324981 0.12838181 0.75079274 0.01757564],"[ -0.1397419    1.426116    -0.18068181  -0.06394789  -0.5664909
  -0.4110144    0.           0.           0.4         -0.5397419
 -16.015106  ]",1.5347850824611762,0,0
71,83,2024-09-16 17:22:54.737757184,TASK_BEGIN,5,0.247996792055214,-0.2636282267249057,3.085694877086449,0.0455489239030072,1.323854579414348,-0.4776560262523904,8.512195984375056,-1.979496606451784,3,2024-09-16 17:21:27.825584961,1726507287.8255858,2024-09-16 17:21:27.825585920,3,0,-3.6668973635989914,-49.10993776921365,[1. 0. 0. 0.],[0.07355048 0.12395822 0.79436413 0.00812717],"[ -0.14402907   1.4212298   -0.18107618  -0.14115034  -0.6281341
  -0.41092548   0.           0.           0.4         -0.54402906
 -15.976017  ]",1.5407210251162382,0,0
72,84,2024-09-16 17:22:54.807805184,TASK_BEGIN,5,0.2319949625580068,-0.2605311734103806,2.950171638937713,0.05922485363656,1.3187052684800058,-0.4734573763978202,8.425186621758769,-1.970386350186081,3,2024-09-16 17:21:27.883593018,1726507287.8835938,2024-09-16 17:21:27.883593728,3,0,-3.9897799450354796,-55.92930259896942,[1. 0. 0. 0.],[0.05803985 0.11776097 0.81929001 0.00490917],"[ -0.1468796    1.4159884   -0.18135938  -0.19260919  -0.66922206
  -0.4108662    0.           0.           0.4         -0.5468796
 -15.934086  ]",1.5417063704185305,0,0
73,85,2024-09-16 17:22:54.860843008,TASK_BEGIN,5,0.2152459871031719,-0.2569349048452988,2.7569352269988854,0.0765587295854297,1.3189202594745009,-0.4698382926377496,8.304919831255624,-1.9549021489084883,3,2024-09-16 17:21:27.941572021,1726507287.941573,2024-09-16 17:21:27.941572864,3,0,-4.200578310746266,-63.08217814949801,[1. 0. 0. 0.],[0.04902045 0.12195599 0.82599902 0.00302455],"[ -0.14972353   1.4091592   -0.18165821  -0.24406005  -0.7103042
  -0.41080698   0.           0.           0.4         -0.5497235
 -15.879452  ]",1.5421341848826333,0,0
74,86,2024-09-16 17:22:55.818947072,TASK_BEGIN,5,0.1986037419527039,-0.2529002874205192,2.513723713655497,0.0973823639294318,1.325094143492842,-0.4670658737666138,8.154130897606256,-1.932990462607512,3,2024-09-16 17:21:28.909127929,1726507288.9091282,2024-09-16 17:21:28.909128192,3,0,-4.690299658453171,-175.35835229531685,[1. 0. 0. 0.],[1.28927707e-03 9.26895135e-01 7.18155609e-02 2.68217186e-08],"[ -0.19546302   1.0668087   -0.18831293  -1.091524    -1.3873066
  -0.40983334   0.           0.           0.4         -0.59546304
 -13.140648  ]",1.5650980150911702,0,0
75,87,2024-09-16 17:22:55.886740992,TASK_BEGIN,5,0.1830673874871193,-0.2485238276855505,2.230583532510534,0.121508789373512,1.337387328106246,-0.4653361159386422,7.977450964569768,-1.90516609682096,3,2024-09-16 17:21:28.968868896,1726507288.9688694,2024-09-16 17:21:28.968869376,3,0,-4.692102231848708,-181.20515441643116,[1. 0. 0. 0.],[6.92167922e-04 9.77176513e-01 2.21313101e-02 9.25224831e-09],"[ -0.19815223   1.0321114   -0.18878362  -1.1427815   -1.4282855
  -0.40977454   0.           0.           0.4         -0.5981522
 -12.86307   ]",1.565901449220743,0,0
76,88,2024-09-16 17:22:55.954514944,TASK_BEGIN,5,0.1698128862665171,-0.2439586401905887,1.9192561932372256,0.1487187688604899,1.3555294364356398,-0.4647693773531063,7.781404753258158,-1.8725884390403555,3,2024-09-16 17:21:29.055869141,1726507289.055869,2024-09-16 17:21:29.055869184,3,0,-4.694099573747053,-189.763349726176,[1. 0. 0. 0.],[3.22758994e-04 9.95129163e-01 4.54807563e-03 2.34434094e-09],"[ -0.20216663   0.9770689   -0.18949503  -1.2196437   -1.4897429
  -0.40968642   0.           0.           0.4         -0.60216665
 -12.4227295 ]",1.5667259496080592,0,0
77,89,2024-09-16 17:22:56.022201856,TASK_BEGIN,5,0.160140154132327,-0.2394189931076182,1.5925451436041622,0.1787208255803336,1.3788992049069364,-0.4654221838318669,7.574306099381554,-1.837076861356124,3,2024-09-16 17:21:29.113868896,1726507289.1138694,2024-09-16 17:21:29.113869312,3,0,-4.695049835322493,-195.32978116195414,[1. 0. 0. 0.],[1.97277324e-04 9.98291441e-01 1.51128078e-03 1.02450162e-09],"[ -0.2048301    0.93837583  -0.18997175  -1.2708689   -1.5307071
  -0.40962777   0.           0.           0.4         -0.6048301
 -12.113185  ]",1.5669331741141792,0,0
78,90,2024-09-16 17:22:56.089970944,TASK_BEGIN,5,0.1553370616912458,-0.2351666150273611,1.2637359752095711,0.2110889764314882,1.4066486739082091,-0.4673032021787207,7.36594000901968,-1.8010276904780955,3,2024-09-16 17:21:29.142870850,1726507289.1428714,2024-09-16 17:21:29.142871296,3,0,-4.695431114162261,-198.07191446449687,[1. 0. 0. 0.],[1.53706865e-04 9.98986731e-01 8.59561026e-04 6.80340282e-10],"[ -0.20615785   0.9184295   -0.19021057  -1.2964767   -1.551187
  -0.40959844   0.           0.           0.4         -0.60615784
 -11.953614  ]",1.5669431862382874,0,0
79,91,2024-09-16 17:22:56.150515200,TASK_BEGIN,5,0.1565103135103244,-0.2314866273282054,0.9460424148104036,0.2452059470053547,1.4378093595661958,-0.4703806172871996,7.166977726786752,-1.7672033821715427,3,2024-09-16 17:21:29.142870850,1726507289.1428714,2024-09-16 17:21:29.142871296,3,0,-4.695431114162261,-198.07191446449687,[1. 0. 0. 0.],[1.53706865e-04 9.98986731e-01 8.59561026e-04 6.80340282e-10],"[ -0.20615785   0.9184295   -0.19021057  -1.2964767   -1.551187
  -0.40959844   0.           0.           0.4         -0.60615784
 -11.953614  ]",1.5669431862382874,0,0
80,92,2024-09-16 17:22:56.212103936,TASK_BEGIN,5,0.1644234108290755,-0.2286577050915251,0.6519670330440567,0.2802496758338912,1.471340698934866,-0.4745731424751162,6.98827697451405,-1.7384287352418508,3,2024-09-16 17:21:29.142870850,1726507289.1428714,2024-09-16 17:21:29.142871296,3,0,-4.695431114162261,-198.07191446449687,[1. 0. 0. 0.],[1.53706865e-04 9.98986731e-01 8.59561026e-04 6.80340282e-10],"[ -0.20615785   0.9184295   -0.19021057  -1.2964767   -1.551187
  -0.40959844   0.           0.           0.4         -0.60615784
 -11.953614  ]",1.5669431862382874,0,0
81,93,2024-09-16 17:22:57.166827008,TASK_BEGIN,5,0.1793494412189974,-0.2269155269227723,0.3925565953139823,0.3152398404555516,1.506140341289158,-0.4797286269079759,6.840304170082871,-1.7172915892023657,3,2024-09-16 17:21:29.559895996,1726507289.5598962,2024-09-16 17:21:29.559896320,3,3,-7.40747923129147,-248.36281764069616,[0. 0. 0. 1.],[2.90637873e-05 9.99969884e-01 1.05233202e-06 2.70479712e-10],"[-0.22486751  0.5929202  -0.21808952 -1.7293696  -1.9102854  -0.73182404
  0.          0.          0.4        -0.6248675  -9.34954   ]",1.5681250116197212,0,0
82,94,2024-09-16 17:22:57.235760128,TASK_BEGIN,5,0.2009575196912265,-0.2264149245027673,0.1766711999405708,0.3491297697327354,1.541050807263698,-0.4856045641978057,6.732719983445629,-1.7059231910323531,3,2024-09-16 17:21:29.559895996,1726507289.5598962,2024-09-16 17:21:29.559896320,3,3,-7.40747923129147,-248.36281764069616,[0. 0. 0. 1.],[2.90637873e-05 9.99969884e-01 1.05233202e-06 2.70479712e-10],"[-0.22486751  0.5929202  -0.21808952 -1.7293696  -1.9102854  -0.73182404
  0.          0.          0.4        -0.6248675  -9.34954   ]",1.5681250116197212,0,0
83,95,2024-09-16 17:22:57.294919936,TASK_BEGIN,5,0.2282725205606363,-0.2272031704674557,0.010417947028737,0.3809092829306384,1.5748681624951435,-0.4918631254734913,6.673921312205464,-1.7058557309085738,3,2024-09-16 17:21:29.881583984,1726507289.881585,2024-09-16 17:21:29.881584896,3,2,-18.18179643798958,-362.7959026434421,[0. 0. 1. 0.],[2.37243186e-01 7.58422691e-01 1.42483543e-05 4.31987447e-03],"[-0.17935562  0.22756946  1.1563019  -2.5706375  -2.3075001  -0.71213526
  0.          0.          0.4        -0.5793556  -6.4267344 ]",1.554900911550543,0,0
84,96,2024-09-16 17:22:57.365573120,TASK_BEGIN,5,0.259727451027882,-0.2292110227394185,-0.1031047945697248,0.4096755196357704,1.6063531024820186,-0.498082470370046,6.670312764771715,-1.7179079976492615,3,2024-09-16 17:21:29.881583984,1726507289.881585,2024-09-16 17:21:29.881584896,3,2,-18.18179643798958,-362.7959026434421,[0. 0. 1. 0.],[2.37243186e-01 7.58422691e-01 1.42483543e-05 4.31987447e-03],"[-0.17935562  0.22756946  1.1563019  -2.5706375  -2.3075001  -0.71213526
  0.          0.          0.4        -0.5793556  -6.4267344 ]",1.554900911550543,0,0
85,97,2024-09-16 17:22:57.428504832,TASK_BEGIN,5,0.2933000548394154,-0.2322587650584155,-0.1636674597396326,0.4346440369865228,1.6342585433412893,-0.5037784702412501,6.725348611238779,-1.7420752856459498,3,2024-09-16 17:21:29.881583984,1726507289.881585,2024-09-16 17:21:29.881584896,3,2,-18.18179643798958,-362.7959026434421,[0. 0. 1. 0.],[2.37243186e-01 7.58422691e-01 1.42483543e-05 4.31987447e-03],"[-0.17935562  0.22756946  1.1563019  -2.5706375  -2.3075001  -0.71213526
  0.          0.          0.4        -0.5793556  -6.4267344 ]",1.554900911550543,0,0
86,98,2024-09-16 17:22:57.505006080,TASK_BEGIN,5,0.3267206489270997,-0.2360731940728436,-0.1734618688130232,0.455110296088494,1.657383227797776,-0.5084343334310293,6.838723873044326,-1.7774632978595362,3,2024-09-16 17:21:29.881583984,1726507289.881585,2024-09-16 17:21:29.881584896,3,2,-18.18179643798958,-362.7959026434421,[0. 0. 1. 0.],[2.37243186e-01 7.58422691e-01 1.42483543e-05 4.31987447e-03],"[-0.17935562  0.22756946  1.1563019  -2.5706375  -2.3075001  -0.71213526
  0.          0.          0.4        -0.5793556  -6.4267344 ]",1.554900911550543,0,0
87,99,2024-09-16 17:22:57.566147840,TASK_BEGIN,5,0.3577302473247003,-0.2403148585779848,-0.136535719780147,0.4704033148837409,1.674649614863703,-0.5115425012677587,7.006114747837587,-1.8223283846368423,3,2024-09-16 17:21:29.881583984,1726507289.881585,2024-09-16 17:21:29.881584896,3,2,-18.18179643798958,-362.7959026434421,[0. 0. 1. 0.],[2.37243186e-01 7.58422691e-01 1.42483543e-05 4.31987447e-03],"[-0.17935562  0.22756946  1.1563019  -2.5706375  -2.3075001  -0.71213526
  0.          0.          0.4        -0.5793556  -6.4267344 ]",1.554900911550543,0,0
88,106,2024-09-16 17:22:58.899825152,TASK_BEGIN,5,0.4124252494961546,-0.2558029721645593,0.909075730570435,0.4072006877579151,1.5993871995134303,-0.4702910351733931,8.782791790392043,-2.17530797487479,3,2024-09-16 17:21:31.989744873,1726507291.9897451,2024-09-16 17:21:31.989745152,4,0,-1.4416253658891804,-2.2554612865795933,[1. 0. 0. 0.],[0.4198515  0.21404687 0.05378488 0.31231675],"[-2.8363864e-03  9.9987149e-01 -1.4010522e-01 -9.0569541e-02
  8.2303118e-03  5.3235598e-02  0.0000000e+00  0.0000000e+00
 -6.0000002e-01  5.9716362e-01 -1.1803693e+01]",1.488372428806471,0,0
89,107,2024-09-16 17:22:59.842696960,TASK_BEGIN,5,0.4014986837936483,-0.2542103390735105,1.0882949185237076,0.3796451021410815,1.5660046581168467,-0.4572086197065009,8.976494591812155,-2.2019492695364264,3,2024-09-16 17:21:32.923743896,1726507292.9237447,2024-09-16 17:21:32.923744768,4,1,-5.573515015526718,-93.47846363759824,[0. 1. 0. 0.],[1.20404552e-02 1.45882901e-04 5.39920502e-02 9.33821612e-01],"[-0.04106776  0.7418134  -0.3320325  -0.93029904  0.2508095   0.50041837
  0.          0.         -0.6         0.55893224 -9.739228  ]",1.5548286265925664,0,0
90,108,2024-09-16 17:22:59.910569728,TASK_BEGIN,5,0.3905973814434967,-0.2518494097455309,1.2571314781042775,0.3508041991012668,1.530444865672937,-0.443831711109883,9.127813791581456,-2.2181092592670697,3,2024-09-16 17:21:33.010746094,1726507293.010747,2024-09-16 17:21:33.010746880,4,1,-6.371201479385613,-108.85096883218883,[0. 1. 0. 0.],[6.21611781e-03 2.99947774e-05 4.70283641e-02 9.46725523e-01],"[-0.04784894  0.6958654  -0.38320827 -1.0179895   0.33842966  0.6262497
  0.          0.         -0.6         0.5521511  -9.371644  ]",1.5606905084868086,0,0
91,109,2024-09-16 17:22:59.975912192,TASK_BEGIN,5,0.3816346183861789,-0.2489523096748094,1.412866353308483,0.3217940679283101,1.4941375290593448,-0.4308482321959558,9.23367968324206,-2.2233820343831705,3,2024-09-16 17:21:33.070746826,1726507293.0707474,2024-09-16 17:21:33.070747392,4,1,-6.470906294664255,-119.43233705797596,[0. 1. 0. 0.],[3.05918591e-03 3.99984528e-06 2.24933621e-02 9.74443452e-01],"[-0.0527939   0.66304266 -0.40811327 -1.0767425   0.40591583  0.6907607
  0.          0.         -0.6         0.5472061  -9.109062  ]",1.5614300355213682,0,0
92,110,2024-09-16 17:23:00.046070016,TASK_BEGIN,5,0.3762144607192698,-0.2457780871964572,1.5544457534739162,0.2935406239403072,1.4583186075402508,-0.4189053091786112,9.293643875507245,-2.217786903312646,3,2024-09-16 17:21:33.128746094,1726507293.128746,2024-09-16 17:21:33.128745984,4,1,-6.858986460557654,-130.6674249299827,[0. 1. 0. 0.],[8.12018097e-04 1.89008457e-07 1.57880634e-03 9.97608987e-01],"[-0.05806375  0.6284621  -0.43517953 -1.1366488   0.4804404   0.76213276
  0.          0.         -0.6         0.5419363  -8.8324175 ]",1.5617257276817136,0,0
93,111,2024-09-16 17:23:00.099920896,TASK_BEGIN,5,0.3754827091718798,-0.2425847676869127,1.6821734889894822,0.2667485096076984,1.423927835580684,-0.408546812826608,9.309547863062464,-2.201798968626961,3,2024-09-16 17:21:33.186744873,1726507293.1867452,2024-09-16 17:21:33.186745088,4,1,-7.240734199987466,-142.29572443637718,[0. 1. 0. 0.],[2.16039988e-04 8.94417345e-09 1.48914203e-04 9.99635037e-01],"[-0.06362597  0.5921092  -0.45751703 -1.1981338   0.561542    0.827454
  0.          0.         -0.6         0.53637403 -8.5415945 ]",1.563304652895185,0,0
94,112,2024-09-16 17:23:00.181572096,TASK_BEGIN,5,0.3800685219735757,-0.2396032262245938,1.7973928717830778,0.241865317745747,1.3916006645742691,-0.400165344993363,9.285016070391368,-2.176367808515506,3,2024-09-16 17:21:33.273746094,1726507293.2737463,2024-09-16 17:21:33.273746176,4,1,-8.014484793182655,-160.97482437588116,[0. 1. 0. 0.],[1.50715354e-04 4.73223087e-09 1.71960146e-05 9.99832084e-01],"[-0.07250937  0.53415227 -0.49128148 -1.2945724   0.6962955   0.93735695
  0.          0.         -0.6         0.5274906  -8.077939  ]",1.565508059190647,0,0
95,113,2024-09-16 17:23:00.237974016,TASK_BEGIN,5,0.3901131802408037,-0.237020162891245,1.9022254353263803,0.2190423152963415,1.3617588262757807,-0.3939837916837943,9.22479183309866,-2.142893705518158,3,2024-09-16 17:21:33.332773926,1726507293.3327746,2024-09-16 17:21:33.332774656,4,1,-8.313663428787786,-174.16218973874302,[0. 1. 0. 0.],[1.84661348e-04 7.24398998e-09 4.32996552e-06 9.99811001e-01],"[-0.07881689  0.4931743  -0.51329666 -1.360176    0.7958205   1.0142548
  0.          0.         -0.6         0.52118313 -7.7501154 ]",1.5658624662188771,0,0
96,114,2024-09-16 17:23:01.192687104,TASK_BEGIN,5,0.4053386270931967,-0.2349733738228274,1.9992783309648272,0.1981112375499979,1.334755267804406,-0.3900730432620182,9.13411497049684,-2.103171933885552,3,2024-09-16 17:21:33.653872070,1726507293.6538725,2024-09-16 17:21:33.653872384,4,1,-10.14641943224701,-254.6754386032696,[0. 1. 0. 0.],[1.26159529e-01 7.12727534e-05 8.22280593e-05 8.73686970e-01],"[-0.11810327  0.23318124 -0.5668459  -1.7388971   1.4807664   1.428902
  0.          0.         -0.6         0.48189673 -5.670171  ]",1.568386216532644,0,0
97,115,2024-09-16 17:23:01.260508160,TASK_BEGIN,5,0.4251131929098749,-0.2335560439274469,2.0912512535722856,0.1786017446955166,1.310987893644318,-0.3883915461720873,9.01839262405424,-2.059326520837515,3,2024-09-16 17:21:33.653872070,1726507293.6538725,2024-09-16 17:21:33.653872384,4,1,-10.14641943224701,-254.6754386032696,[0. 1. 0. 0.],[1.26159529e-01 7.12727534e-05 8.22280593e-05 8.73686970e-01],"[-0.11810327  0.23318124 -0.5668459  -1.7388971   1.4807664   1.428902
  0.          0.         -0.6         0.48189673 -5.670171  ]",1.568386216532644,0,0
98,116,2024-09-16 17:23:01.328217088,TASK_BEGIN,5,0.448516383167204,-0.2328247449854841,2.180521807913138,0.1598062828945846,1.2909161932175368,-0.3888195354610179,8.88318840508537,-2.0137382496411798,3,2024-09-16 17:21:33.653872070,1726507293.6538725,2024-09-16 17:21:33.653872384,4,1,-10.14641943224701,-254.6754386032696,[0. 1. 0. 0.],[1.26159529e-01 7.12727534e-05 8.22280593e-05 8.73686970e-01],"[-0.11810327  0.23318124 -0.5668459  -1.7388971   1.4807664   1.428902
  0.          0.         -0.6         0.48189673 -5.670171  ]",1.568386216532644,0,0
99,117,2024-09-16 17:23:01.392076800,TASK_BEGIN,5,0.4744229614610382,-0.2328082917321931,2.268836970839299,0.1408843636919187,1.274999044602395,-0.391174762234627,8.734304973358615,-1.968947134873398,3,2024-09-16 17:21:33.714854004,1726507293.7148542,2024-09-16 17:21:33.714854144,4,1,-10.653536876520102,-270.5191214597719,[0. 1. 0. 0.],[2.03079121e-01 1.24972749e-04 1.44697991e-04 7.96651208e-01],"[-0.12588175  0.17944384 -0.5619941  -1.8097527   1.6295174   1.5082338
  0.          0.         -0.6         0.47411826 -5.2402716 ]",1.5682266753998497,0,0
100,118,2024-09-16 17:23:01.463733760,TASK_BEGIN,5,0.5015939215274849,-0.2335155255275091,2.357123481971908,0.121006279749974,1.2636272991553854,-0.395218789355997,8.577732899571034,-1.92750365442254,3,2024-09-16 17:21:33.774852051,1726507293.7748523,2024-09-16 17:21:33.774852352,4,1,-10.78391851619268,-286.3223175335308,[0. 1. 0. 0.],[2.69912689e-01 1.82995465e-04 1.83083094e-04 7.29721233e-01],"[-0.13378859  0.12366533 -0.5526803  -1.8772007   1.7852453   1.5756965
  0.          0.         -0.6         0.4662114  -4.7940435 ]",1.5676535459307868,0,0
101,119,2024-09-16 17:23:01.531366144,TASK_BEGIN,5,0.5287377842453548,-0.2349386981411542,2.4453570953200545,0.0995280606522825,1.2570967385516665,-0.4006660243496266,8.419423281287237,-1.8917688712178664,3,2024-09-16 17:21:34.080701172,1726507294.080702,2024-09-16 17:21:34.080701952,4,1,-11.911289371795428,-369.0084386377801,[0. 1. 0. 0.],[5.61282228e-01 1.98122270e-04 5.90773223e-05 4.38460573e-01],"[-0.17346144 -0.18753725 -0.4364004  -2.1938615   2.6783223   1.9369314
  0.          0.         -0.6         0.42653856 -2.304423  ]",1.5670788340158768,0,0
102,120,2024-09-16 17:23:01.593689088,TASK_BEGIN,5,0.5545398612983485,-0.2370499121184349,2.532510889000928,0.0761488352895808,1.2556142981786684,-0.4071976748341799,8.265011867704422,-1.863694665080104,3,2024-09-16 17:21:34.080701172,1726507294.080702,2024-09-16 17:21:34.080701952,4,1,-11.911289371795428,-369.0084386377801,[0. 1. 0. 0.],[5.61282228e-01 1.98122270e-04 5.90773223e-05 4.38460573e-01],"[-0.17346144 -0.18753725 -0.4364004  -2.1938615   2.6783223   1.9369314
  0.          0.         -0.6         0.42653856 -2.304423  ]",1.5670788340158768,0,0
103,126,2024-09-16 17:23:02.881566208,TASK_BEGIN,5,0.620150685248463,-0.2586033961099622,2.9068773558699497,-0.0759242452739273,1.3448793795337848,-0.4501556423415189,7.673928893408981,-1.882672351410226,3,2024-09-16 17:21:35.965066895,1726507295.9650676,2024-09-16 17:21:35.965067520,5,0,-0.09362460355778524,0.1768917989977159,[1. 0. 0. 0.],[0.31306246 0.48231086 0.08058594 0.12404074],"[ 3.8313866e-03  1.0049167e+00  1.8909262e-01  1.7066352e-02
 -1.0944459e-02 -7.1844324e-02  0.0000000e+00  0.0000000e+00
  0.0000000e+00  3.8313866e-03 -1.0882114e+01]",1.4936201861157574,0,0
104,127,2024-09-16 17:23:02.949266176,TASK_BEGIN,5,0.6110726492916613,-0.2621755682541488,2.925324808734358,-0.0953312412954537,1.3685465923314302,-0.4548462620596744,7.661077650977624,-1.9099207848701207,3,2024-09-16 17:21:36.053083008,1726507296.0530834,2024-09-16 17:21:36.053083392,5,0,-1.1070128871744274,-2.1310092582458577,[1. 0. 0. 0.],[0.32604604 0.44171533 0.0983617  0.13387693],"[ 7.6642036e-03  1.0033176e+00  1.8923485e-01 -5.9778672e-02
 -2.1711178e-02 -7.1777180e-02  0.0000000e+00  0.0000000e+00
  0.0000000e+00  7.6642036e-03 -1.0869322e+01]",1.498837503848612,0,0
105,128,2024-09-16 17:23:03.861403136,TASK_BEGIN,5,0.5968390690656465,-0.2652905780887342,2.9281887977587675,-0.1113236081486406,1.3907372046211377,-0.4580533905771076,7.67651867691923,-1.9407874577917588,3,2024-09-16 17:21:36.641333008,1726507296.6413336,2024-09-16 17:21:36.641333504,5,3,-4.701951593408063,-55.60654556169334,[0. 0. 0. 1.],[0.15877751 0.60536368 0.22562358 0.01023523],"[  0.03500223   0.90023434   0.27657595  -0.5819497   -0.12899423
  -0.27299982   0.           0.           0.           0.03500223
 -10.044656  ]",1.5538649649502208,0,0
106,129,2024-09-16 17:23:03.935342080,TASK_BEGIN,5,0.5785956630095279,-0.2678658683343759,2.9153205468882444,-0.1237952543670515,1.409761297986474,-0.4595770536469665,7.719288481191553,-1.9740316404919425,3,2024-09-16 17:21:36.641333008,1726507296.6413336,2024-09-16 17:21:36.641333504,5,3,-4.701951593408063,-55.60654556169334,[0. 0. 0. 1.],[0.15877751 0.60536368 0.22562358 0.01023523],"[  0.03500223   0.90023434   0.27657595  -0.5819497   -0.12899423
  -0.27299982   0.           0.           0.           0.03500223
 -10.044656  ]",1.5538649649502208,0,0
107,130,2024-09-16 17:23:04.003092992,TASK_BEGIN,5,0.5578821998470297,-0.2698999527949221,2.88702331539202,-0.1328903453246495,1.424109830371177,-0.4592753306161064,7.78693469860977,-2.008251880203992,3,2024-09-16 17:21:36.641333008,1726507296.6413336,2024-09-16 17:21:36.641333504,5,3,-4.701951593408063,-55.60654556169334,[0. 0. 0. 1.],[0.15877751 0.60536368 0.22562358 0.01023523],"[  0.03500223   0.90023434   0.27657595  -0.5819497   -0.12899423
  -0.27299982   0.           0.           0.           0.03500223
 -10.044656  ]",1.5538649649502208,0,0
108,131,2024-09-16 17:23:04.063069952,TASK_BEGIN,5,0.5365273516284382,-0.2714744923133867,2.8442892122090786,-0.1389555549807983,1.4325326709949726,-0.4570718823337527,7.875654966493581,-2.0418405336739287,3,2024-09-16 17:21:36.641333008,1726507296.6413336,2024-09-16 17:21:36.641333504,5,3,-4.701951593408063,-55.60654556169334,[0. 0. 0. 1.],[0.15877751 0.60536368 0.22562358 0.01023523],"[  0.03500223   0.90023434   0.27657595  -0.5819497   -0.12899423
  -0.27299982   0.           0.           0.           0.03500223
 -10.044656  ]",1.5538649649502208,0,0
109,132,2024-09-16 17:23:04.138637056,TASK_BEGIN,5,0.516468141128646,-0.2727375708472555,2.789179808457496,-0.1424961835635318,1.4341002681150212,-0.4529731748846848,7.980862485733882,-2.073082871780051,3,2024-09-16 17:21:36.641333008,1726507296.6413336,2024-09-16 17:21:36.641333504,5,3,-4.701951593408063,-55.60654556169334,[0. 0. 0. 1.],[0.15877751 0.60536368 0.22562358 0.01023523],"[  0.03500223   0.90023434   0.27657595  -0.5819497   -0.12899423
  -0.27299982   0.           0.           0.           0.03500223
 -10.044656  ]",1.5538649649502208,0,0
110,133,2024-09-16 17:23:04.206406912,TASK_BEGIN,5,0.4994933417682901,-0.2738682059447087,2.725183398292086,-0.144157831727354,1.4282499317365585,-0.4470884008829945,8.097976294277954,-2.100355881269498,3,2024-09-16 17:21:36.641333008,1726507296.6413336,2024-09-16 17:21:36.641333504,5,3,-4.701951593408063,-55.60654556169334,[0. 0. 0. 1.],[0.15877751 0.60536368 0.22562358 0.01023523],"[  0.03500223   0.90023434   0.27657595  -0.5819497   -0.12899423
  -0.27299982   0.           0.           0.           0.03500223
 -10.044656  ]",1.5538649649502208,0,0
111,134,2024-09-16 17:23:04.261848832,TASK_BEGIN,5,0.4869745477068339,-0.2750319146357831,2.6573100676551915,-0.1447169676725528,1.414818226912349,-0.4396399488278057,8.223136149826985,-2.122349838434319,3,2024-09-16 17:21:36.641333008,1726507296.6413336,2024-09-16 17:21:36.641333504,5,3,-4.701951593408063,-55.60654556169334,[0. 0. 0. 1.],[0.15877751 0.60536368 0.22562358 0.01023523],"[  0.03500223   0.90023434   0.27657595  -0.5819497   -0.12899423
  -0.27299982   0.           0.           0.           0.03500223
 -10.044656  ]",1.5538649649502208,0,0
112,135,2024-09-16 17:23:05.217664000,TASK_BEGIN,5,0.4796837303539086,-0.2763439100700735,2.591697918663724,-0.1450345260921148,1.394076464448596,-0.4309624516328203,8.353627503717748,-2.138254747250261,3,2024-09-16 17:21:38.223820068,1726507298.2238207,2024-09-16 17:21:38.223820800,5,1,-5.477874942036445,-105.25533373791465,[0. 1. 0. 0.],[2.35375055e-03 2.33123760e-06 1.30890856e-06 9.97642609e-01],"[-0.01568151  0.24955928 -0.8475842  -0.27793944  0.7644355   0.6458739
  0.          0.          0.         -0.01568151 -4.8392553 ]",1.56721736199759,1,2
113,136,2024-09-16 17:23:05.285502976,TASK_BEGIN,5,0.477740719968168,-0.2778476974494002,2.53470064411179,-0.1459445089898207,1.36677001158534,-0.4214949835747006,8.487951245130514,-2.147865045509063,3,2024-09-16 17:21:38.223820068,1726507298.2238207,2024-09-16 17:21:38.223820800,5,1,-5.477874942036445,-105.25533373791465,[0. 1. 0. 0.],[2.35375055e-03 2.33123760e-06 1.30890856e-06 9.97642609e-01],"[-0.01568151  0.24955928 -0.8475842  -0.27793944  0.7644355   0.6458739
  0.          0.          0.         -0.01568151 -4.8392553 ]",1.56721736199759,1,2
114,137,2024-09-16 17:23:05.350310912,TASK_BEGIN,5,0.4806548475553065,-0.2795032356381613,2.491707726650489,-0.1480923511573957,1.3341219295376132,-0.4117624448084094,8.62561206459644,-2.151563420412548,3,2024-09-16 17:21:38.223820068,1726507298.2238207,2024-09-16 17:21:38.223820800,5,1,-5.477874942036445,-105.25533373791465,[0. 1. 0. 0.],[2.35375055e-03 2.33123760e-06 1.30890856e-06 9.97642609e-01],"[-0.01568151  0.24955928 -0.8475842  -0.27793944  0.7644355   0.6458739
  0.          0.          0.         -0.01568151 -4.8392553 ]",1.56721736199759,1,2
115,138,2024-09-16 17:23:05.420950016,TASK_BEGIN,5,0.487422417442431,-0.281181179831709,2.466103036738368,-0.1517712441259374,1.2977628508204326,-0.4023381568246126,8.766714321302665,-2.1501770192280074,3,2024-09-16 17:21:38.223820068,1726507298.2238207,2024-09-16 17:21:38.223820800,5,1,-5.477874942036445,-105.25533373791465,[0. 1. 0. 0.],[2.35375055e-03 2.33123760e-06 1.30890856e-06 9.97642609e-01],"[-0.01568151  0.24955928 -0.8475842  -0.27793944  0.7644355   0.6458739
  0.          0.          0.         -0.01568151 -4.8392553 ]",1.56721736199759,1,2
116,139,2024-09-16 17:23:05.488657920,TASK_BEGIN,5,0.4966861909306637,-0.2826714761614918,2.45869496879056,-0.1568142913741388,1.259594084267922,-0.3937932056132619,8.911351150332763,-2.14473893320772,3,2024-09-16 17:21:38.223820068,1726507298.2238207,2024-09-16 17:21:38.223820800,5,1,-5.477874942036445,-105.25533373791465,[0. 1. 0. 0.],[2.35375055e-03 2.33123760e-06 1.30890856e-06 9.97642609e-01],"[-0.01568151  0.24955928 -0.8475842  -0.27793944  0.7644355   0.6458739
  0.          0.          0.         -0.01568151 -4.8392553 ]",1.56721736199759,1,2
117,140,2024-09-16 17:23:05.549503232,TASK_BEGIN,5,0.5069560414777655,-0.2837131917684414,2.4676938907319936,-0.1625817545248035,1.2216194617001543,-0.3866486425860713,9.058786360737113,-2.1362117183350917,3,2024-09-16 17:21:38.223820068,1726507298.2238207,2024-09-16 17:21:38.223820800,5,1,-5.477874942036445,-105.25533373791465,[0. 1. 0. 0.],[2.35375055e-03 2.33123760e-06 1.30890856e-06 9.97642609e-01],"[-0.01568151  0.24955928 -0.8475842  -0.27793944  0.7644355   0.6458739
  0.          0.          0.         -0.01568151 -4.8392553 ]",1.56721736199759,1,2
118,141,2024-09-16 17:23:05.624183808,TASK_BEGIN,5,0.5168369737053903,-0.2840381250310979,2.489059659173533,-0.1680448481120945,1.185777999807759,-0.3813394611978538,9.206630212481144,-2.125244503334001,3,2024-09-16 17:21:38.223820068,1726507298.2238207,2024-09-16 17:21:38.223820800,5,1,-5.477874942036445,-105.25533373791465,[0. 1. 0. 0.],[2.35375055e-03 2.33123760e-06 1.30890856e-06 9.97642609e-01],"[-0.01568151  0.24955928 -0.8475842  -0.27793944  0.7644355   0.6458739
  0.          0.          0.         -0.01568151 -4.8392553 ]",1.56721736199759,1,2
119,142,2024-09-16 17:23:06.559375104,TASK_BEGIN,5,0.5251991170191468,-0.2834139460004758,2.516995500904037,-0.1719349649843059,1.1537983799618785,-0.3781888156287556,9.350379717360449,-2.112038426498839,3,2024-09-16 17:21:39.278405029,1726507299.2784054,2024-09-16 17:21:39.278405376,5,0,-5.211363051705348,-438.5245536656439,[1. 0. 0. 0.],[9.12233099e-05 1.10538900e-07 5.49547221e-11 9.99908666e-01],"[-0.5070837   0.06605387 -3.63283    -0.41468847  1.6464869   0.48784786
  0.          0.          0.         -0.5070837  -3.3712118 ]",1.5375670765561906,1,2
120,143,2024-09-16 17:23:06.632500992,TASK_BEGIN,5,0.5312747794402367,-0.2816805492353672,2.5444812451755263,-0.1729150659929548,1.127085417204766,-0.3773897323881028,9.48361466239884,-2.096363528734892,3,2024-09-16 17:21:39.278405029,1726507299.2784054,2024-09-16 17:21:39.278405376,5,0,-5.211363051705348,-438.5245536656439,[1. 0. 0. 0.],[9.12233099e-05 1.10538900e-07 5.49547221e-11 9.99908666e-01],"[-0.5070837   0.06605387 -3.63283    -0.41468847  1.6464869   0.48784786
  0.          0.          0.         -0.5070837  -3.3712118 ]",1.5375670765561906,1,2
121,144,2024-09-16 17:23:06.691654144,TASK_BEGIN,5,0.5347065633986252,-0.2787798645423023,2.563836075617883,-0.1697358467278154,1.1066375150772048,-0.3789943709334779,9.59880420617232,-2.077708778340696,3,2024-09-16 17:21:39.278405029,1726507299.2784054,2024-09-16 17:21:39.278405376,5,0,-5.211363051705348,-438.5245536656439,[1. 0. 0. 0.],[9.12233099e-05 1.10538900e-07 5.49547221e-11 9.99908666e-01],"[-0.5070837   0.06605387 -3.63283    -0.41468847  1.6464869   0.48784786
  0.          0.          0.         -0.5070837  -3.3712118 ]",1.5375670765561906,1,2
122,145,2024-09-16 17:23:06.769190912,TASK_BEGIN,5,0.5355490250428483,-0.2747738797601881,2.567315105849066,-0.1613540325077667,1.0929917642483729,-0.3829126621715413,9.688365150239791,-2.055501594141057,3,2024-09-16 17:21:39.278405029,1726507299.2784054,2024-09-16 17:21:39.278405376,5,0,-5.211363051705348,-438.5245536656439,[1. 0. 0. 0.],[9.12233099e-05 1.10538900e-07 5.49547221e-11 9.99908666e-01],"[-0.5070837   0.06605387 -3.63283    -0.41468847  1.6464869   0.48784786
  0.          0.          0.         -0.5070837  -3.3712118 ]",1.5375670765561906,1,2
123,146,2024-09-16 17:23:06.830279936,TASK_BEGIN,5,0.5341985819276515,-0.2698415726903631,2.5476580554613486,-0.1469961565998998,1.0861967709114813,-0.3889209480205664,9.745591931010717,-2.0293270883853984,3,2024-09-16 17:21:39.278405029,1726507299.2784054,2024-09-16 17:21:39.278405376,5,0,-5.211363051705348,-438.5245536656439,[1. 0. 0. 0.],[9.12233099e-05 1.10538900e-07 5.49547221e-11 9.99908666e-01],"[-0.5070837   0.06605387 -3.63283    -0.41468847  1.6464869   0.48784786
  0.          0.          0.         -0.5070837  -3.3712118 ]",1.5375670765561906,1,2
124,147,2024-09-16 17:23:06.906501888,TASK_BEGIN,5,0.5312520752850393,-0.2642544135011344,2.49843898190573,-0.1261529527224826,1.085801684642323,-0.3966747105300213,9.765247825149668,-1.9990897066846791,3,2024-09-16 17:21:39.278405029,1726507299.2784054,2024-09-16 17:21:39.278405376,5,0,-5.211363051705348,-438.5245536656439,[1. 0. 0. 0.],[9.12233099e-05 1.10538900e-07 5.49547221e-11 9.99908666e-01],"[-0.5070837   0.06605387 -3.63283    -0.41468847  1.6464869   0.48784786
  0.          0.          0.         -0.5070837  -3.3712118 ]",1.5375670765561906,1,2
125,148,2024-09-16 17:23:06.974284800,TASK_BEGIN,5,0.5273406707017806,-0.2583412523513272,2.414232278684909,-0.0985183677322674,1.090839627499449,-0.4057165552917213,9.743781271742655,-1.9650817224701376,3,2024-09-16 17:21:39.307432861,1726507299.307434,2024-09-16 17:21:39.307433984,5,0,-5.229202395186576,-439.36851052417404,[1. 0. 0. 0.],[1.20510727e-04 1.47440411e-07 7.16133357e-11 9.99879342e-01],"[-0.53233004  0.05954385 -3.6324933  -0.44027343  1.6708769   0.4877986
  0.          0.          0.         -0.53233004 -3.3191316 ]",1.5374986740760443,1,2
126,156,2024-09-16 17:23:09.241554944,TASK_BEGIN,5,0.4920784215568505,-0.2336315221323082,0.3667404204580554,0.3476731940264302,1.1168615746838009,-0.4525671546747642,8.20165822185617,-1.6742462157688118,3,2024-09-16 17:21:42.341314941,1726507302.3413155,2024-09-16 17:21:42.341315584,6,1,-4.5765260264023,-74.4778315843619,[0. 1. 0. 0.],[0.06071825 0.00353568 0.2784757  0.65727037],"[ 0.01122483  0.76680136 -0.09289066 -0.87313485  0.08112556  0.3734289
  0.          0.         -0.4         0.4112248  -9.003093  ]",1.5385874707753022,0,0
127,157,2024-09-16 17:23:09.311558144,TASK_BEGIN,5,0.4872595830014593,-0.2349368300515684,-0.0011996510688746,0.4201999590330334,1.1002245584051178,-0.4488556499827482,7.907574835081706,-1.6499053401424923,3,2024-09-16 17:21:42.400314941,1726507302.400316,2024-09-16 17:21:42.400315904,6,1,-4.989622274992408,-82.81709751058217,[0. 1. 0. 0.],[0.03184603 0.00100602 0.13641281 0.83073514],"[ 0.0100615   0.7383107  -0.12151368 -0.9270845   0.12350879  0.4400773
  0.          0.         -0.4         0.4100615  -8.775167  ]",1.5480056779230496,0,0
128,158,2024-09-16 17:23:09.379270144,TASK_BEGIN,5,0.4828422635821023,-0.2368211491819163,-0.3674497435865787,0.4916638206871618,1.0794625342496689,-0.4428311661673237,7.616612048419144,-1.6296255115785432,3,2024-09-16 17:21:42.458313965,1726507302.4583144,2024-09-16 17:21:42.458314496,6,1,-5.430610021992445,-91.81993383614635,[0. 1. 0. 0.],[1.68503240e-02 2.70273588e-04 8.29870407e-02 8.99892362e-01],"[ 0.00856551  0.70815015 -0.15000111 -0.9824142   0.17262928  0.50737023
  0.          0.         -0.4         0.4085655  -8.533883  ]",1.555535516643421,0,0
129,159,2024-09-16 17:23:09.447002880,TASK_BEGIN,5,0.4793098847603191,-0.2390090128252974,-0.7205811190508373,0.5597565230315709,1.0557936856639047,-0.4347704771895709,7.3397739566080675,-1.6134904041314753,3,2024-09-16 17:21:42.545312012,1726507302.545313,2024-09-16 17:21:42.545312768,6,1,-5.968586107510427,-106.08573475819925,[0. 1. 0. 0.],[1.09508299e-02 5.82761751e-05 1.23282877e-01 8.65708017e-01],"[ 5.7818890e-03  6.5976655e-01 -1.8700048e-01 -1.0661037e+00
  2.5733086e-01  5.9646374e-01  0.0000000e+00  0.0000000e+00
 -4.0000001e-01  4.0578189e-01 -8.1468143e+00]",1.5600467870830057,0,0
130,160,2024-09-16 17:23:09.512281856,TASK_BEGIN,5,0.4771459880656258,-0.2412150825446506,-1.0484445797400717,0.6218803221217958,1.0305755337393732,-0.4250171507269332,7.088847464468897,-1.6017070416223766,3,2024-09-16 17:21:42.545312012,1726507302.545313,2024-09-16 17:21:42.545312768,6,1,-5.968586107510427,-106.08573475819925,[0. 1. 0. 0.],[1.09508299e-02 5.82761751e-05 1.23282877e-01 8.65708017e-01],"[ 5.7818890e-03  6.5976655e-01 -1.8700048e-01 -1.0661037e+00
  2.5733086e-01  5.9646374e-01  0.0000000e+00  0.0000000e+00
 -4.0000001e-01  4.0578189e-01 -8.1468143e+00]",1.5600467870830057,0,0
131,161,2024-09-16 17:23:09.573841920,TASK_BEGIN,5,0.4767338702669753,-0.2431583636532051,-1.3389250706601243,0.6753189677522589,1.0051711003047552,-0.4139683105191566,6.875754423632973,-1.594724320738126,3,2024-09-16 17:21:42.545312012,1726507302.545313,2024-09-16 17:21:42.545312768,6,1,-5.968586107510427,-106.08573475819925,[0. 1. 0. 0.],[1.09508299e-02 5.82761751e-05 1.23282877e-01 8.65708017e-01],"[ 5.7818890e-03  6.5976655e-01 -1.8700048e-01 -1.0661037e+00
  2.5733086e-01  5.9646374e-01  0.0000000e+00  0.0000000e+00
 -4.0000001e-01  4.0578189e-01 -8.1468143e+00]",1.5600467870830057,0,0
132,162,2024-09-16 17:23:09.650243072,TASK_BEGIN,5,0.4782805726216594,-0.244575532372613,-1.5808023654131993,0.7174692638542862,0.9808532401591564,-0.402063159849905,6.711827419570288,-1.5933154681699178,3,2024-09-16 17:21:42.749313232,1726507302.7493138,2024-09-16 17:21:42.749313792,6,1,-6.497584410542581,-137.9445720283776,[0. 1. 0. 0.],[3.21236667e-03 7.29505222e-07 1.35532845e-02 9.83233619e-01],"[-1.5552044e-03  5.3274691e-01 -2.1515124e-01 -1.2566383e+00
  4.7182295e-01  6.7326385e-01  0.0000000e+00  0.0000000e+00
 -4.0000001e-01  3.9844480e-01 -7.1306572e+00]",1.5618480308655962,0,0
133,163,2024-09-16 17:23:10.593769984,TASK_BEGIN,5,0.4817973024492452,-0.245238706287275,-1.764516203946439,0.7460932196390904,0.9587499746279342,-0.3897602646627479,6.606922307925741,-1.5985319249109342,3,2024-09-16 17:21:43.453455078,1726507303.4534552,2024-09-16 17:21:43.453455104,6,1,-11.026618055769527,-303.4068584858769,[0. 1. 0. 0.],[8.77173153e-02 5.67182476e-05 5.58098446e-05 9.12170157e-01],"[-0.05026889 -0.07531685 -0.3513023  -2.0667217   1.8421001   1.5923598
  0.          0.         -0.4         0.34973112 -2.266147  ]",1.5672739850984965,1,1
134,164,2024-09-16 17:23:10.650557184,TASK_BEGIN,5,0.4871374494620339,-0.2449773997961817,-1.882781504317217,0.759556522049119,0.9398030133640588,-0.3774979426696033,6.568323843766541,-1.6115058361628516,3,2024-09-16 17:21:43.453455078,1726507303.4534552,2024-09-16 17:21:43.453455104,6,1,-11.026618055769527,-303.4068584858769,[0. 1. 0. 0.],[8.77173153e-02 5.67182476e-05 5.58098446e-05 9.12170157e-01],"[-0.05026889 -0.07531685 -0.3513023  -2.0667217   1.8421001   1.5923598
  0.          0.         -0.4         0.34973112 -2.266147  ]",1.5672739850984965,1,1
135,165,2024-09-16 17:23:10.727254016,TASK_BEGIN,5,0.4940484986059411,-0.2436957165156457,-1.9310948928199052,0.7570217531368364,0.9247133695920738,-0.3656475798873861,6.599677880263983,-1.6331956302504758,3,2024-09-16 17:21:43.453455078,1726507303.4534552,2024-09-16 17:21:43.453455104,6,1,-11.026618055769527,-303.4068584858769,[0. 1. 0. 0.],[8.77173153e-02 5.67182476e-05 5.58098446e-05 9.12170157e-01],"[-0.05026889 -0.07531685 -0.3513023  -2.0667217   1.8421001   1.5923598
  0.          0.         -0.4         0.34973112 -2.266147  ]",1.5672739850984965,1,1
136,166,2024-09-16 17:23:10.796974848,TASK_BEGIN,5,0.502184625033704,-0.2413739782903765,-1.9081265397449616,0.7385685959307322,0.913881286209888,-0.3544771451509304,6.700331759676509,-1.6641905858537205,3,2024-09-16 17:21:43.453455078,1726507303.4534552,2024-09-16 17:21:43.453455104,6,1,-11.026618055769527,-303.4068584858769,[0. 1. 0. 0.],[8.77173153e-02 5.67182476e-05 5.58098446e-05 9.12170157e-01],"[-0.05026889 -0.07531685 -0.3513023  -2.0667217   1.8421001   1.5923598
  0.          0.         -0.4         0.34973112 -2.266147  ]",1.5672739850984965,1,1
137,167,2024-09-16 17:23:10.850496000,TASK_BEGIN,5,0.5110648591007617,-0.2380535110848409,-1.815929639401747,0.7052249713718188,0.9073559919641866,-0.3441340199568429,6.865306579249411,-1.7046172118983538,3,2024-09-16 17:21:43.453455078,1726507303.4534552,2024-09-16 17:21:43.453455104,6,1,-11.026618055769527,-303.4068584858769,[0. 1. 0. 0.],[8.77173153e-02 5.67182476e-05 5.58098446e-05 9.12170157e-01],"[-0.05026889 -0.07531685 -0.3513023  -2.0667217   1.8421001   1.5923598
  0.          0.         -0.4         0.34973112 -2.266147  ]",1.5672739850984965,1,1
138,168,2024-09-16 17:23:10.928118784,TASK_BEGIN,5,0.5200133269095346,-0.2338145887315992,-1.659881405045199,0.6589020873843588,0.904797474229602,-0.334647112078139,7.085855175179795,-1.7541332368014562,3,2024-09-16 17:21:43.453455078,1726507303.4534552,2024-09-16 17:21:43.453455104,6,1,-11.026618055769527,-303.4068584858769,[0. 1. 0. 0.],[8.77173153e-02 5.67182476e-05 5.58098446e-05 9.12170157e-01],"[-0.05026889 -0.07531685 -0.3513023  -2.0667217   1.8421001   1.5923598
  0.          0.         -0.4         0.34973112 -2.266147  ]",1.5672739850984965,1,1
139,169,2024-09-16 17:23:10.989680896,TASK_BEGIN,5,0.5281400868641387,-0.2287593811968215,-1.4483010788564332,0.6022413751861243,0.9054623602288016,-0.3259462496538923,7.350358542676289,-1.8119818920665205,3,2024-09-16 17:21:43.453455078,1726507303.4534552,2024-09-16 17:21:43.453455104,6,1,-11.026618055769527,-303.4068584858769,[0. 1. 0. 0.],[8.77173153e-02 5.67182476e-05 5.58098446e-05 9.12170157e-01],"[-0.05026889 -0.07531685 -0.3513023  -2.0667217   1.8421001   1.5923598
  0.          0.         -0.4         0.34973112 -2.266147  ]",1.5672739850984965,1,1
140,174,2024-09-16 17:23:12.214370816,TASK_BEGIN,5,0.5214409545024583,-0.1957851307062564,0.017521436560304,0.2823489408316246,0.9124136084770236,-0.2886237268627649,8.818535445838585,-2.1736285460104194,3,2024-09-16 17:21:45.300990967,1726507305.300991,2024-09-16 17:21:45.300990976,7,0,-1.9300360927248192,-4.76089991905034,[1. 0. 0. 0.],[0.49611437 0.16644713 0.04835986 0.28907864],"[-5.58137894e-03  9.95782137e-01 -2.06754863e-01 -1.52597815e-01
  1.60340983e-02  7.85169154e-02  0.00000000e+00  0.00000000e+00
  4.00000006e-01 -4.05581385e-01 -1.11177025e+01]",1.5084367644491397,0,0
141,175,2024-09-16 17:23:12.282068224,TASK_BEGIN,5,0.5066827205731279,-0.1888212595050573,0.294933073558316,0.2348993964993422,0.9055607461460752,-0.2812500537633075,9.029560850855775,-2.243246231787141,3,2024-09-16 17:21:45.359989990,1726507305.3599904,2024-09-16 17:21:45.359990272,7,0,-2.232483800413121,-8.972367179146218,[1. 0. 0. 0.],[0.50193991 0.13639711 0.04347473 0.31818824],"[-8.3750086e-03  9.8981524e-01 -2.0685841e-01 -2.0382294e-01
  2.3879923e-02  7.8468166e-02  0.0000000e+00  0.0000000e+00
  4.0000001e-01 -4.0837499e-01 -1.1069967e+01]",1.5118270309110213,0,0
142,176,2024-09-16 17:23:12.337177856,TASK_BEGIN,5,0.4882481691788422,-0.1822318959109806,0.5381436012273672,0.1991527366319739,0.8942730156972651,-0.2736494105261198,9.17785391985409,-2.3039419576285045,3,2024-09-16 17:21:45.417989014,1726507305.4179895,2024-09-16 17:21:45.417989376,7,0,-2.442244326830732,-13.559653876547573,[1. 0. 0. 0.],[0.48820085 0.11464321 0.04260599 0.35454996],"[ -0.01117015   0.9822484   -0.20696136  -0.25504896   0.03172088
   0.07842019   0.           0.           0.4         -0.41117015
 -11.009433  ]",1.5137776621449253,0,0
143,177,2024-09-16 17:23:13.291354880,TASK_BEGIN,5,0.4674068397579553,-0.1762480628775099,0.7406787732562102,0.1762784211388731,0.8787388690376571,-0.2658176597344081,9.252540647502627,-2.351971302614292,3,2024-09-16 17:21:46.392368164,1726507306.3923683,2024-09-16 17:21:46.392368384,7,2,-12.361577051034562,-69.41154701062214,[0. 0. 1. 0.],[0.05539521 0.02628469 0.01737789 0.90094221],"[ -0.05222599   0.8931644   -0.1891964    0.8183769   -0.08101859
  -0.17976561   0.           0.           0.4         -0.45222598
 -10.296761  ]",1.554991202998605,0,0
144,178,2024-09-16 17:23:13.361493248,TASK_BEGIN,5,0.445597772380502,-0.1710739195371793,0.9003409597238234,0.166508556525256,0.8596140307203112,-0.25784036192529,9.24656202886654,-2.384046684762626,3,2024-09-16 17:21:46.422367188,1726507306.4223676,2024-09-16 17:21:46.422367488,7,2,-9.01209128894364,-77.72952282945955,[0. 0. 1. 0.],[0.03570596 0.01399045 0.01001761 0.94028598],"[ -0.05331691   0.90733683  -0.1448759    0.90635544  -0.08942266
  -0.16808121   0.           0.           0.4         -0.4533169
 -10.41014   ]",1.555246724497068,0,0
145,179,2024-09-16 17:23:13.429138944,TASK_BEGIN,5,0.4241761018845718,-0.1668649186059889,1.0187807937731277,0.1692093589860203,0.8379259101268282,-0.2499031387880596,9.157120744311287,-2.397656941984433,3,2024-09-16 17:21:46.509378906,1726507306.5093791,2024-09-16 17:21:46.509379072,7,2,-5.399444289225914,-94.69701033696123,[0. 0. 1. 0.],[0.03154077 0.00977214 0.00934551 0.94934157],"[ -0.05575132   0.95504475  -0.10361888   1.0724444   -0.11367487
  -0.16577089   0.           0.           0.4         -0.45575133
 -10.791803  ]",1.5559492812350098,0,0
146,180,2024-09-16 17:23:13.496911104,TASK_BEGIN,5,0.4042114579163406,-0.1637128628087756,1.1006314278319285,0.1830463326866855,0.8149315324678629,-0.2422803244990221,8.985703900914764,-2.3912953686803493,3,2024-09-16 17:21:46.568366943,1726507306.568368,2024-09-16 17:21:46.568367872,7,2,-11.959285781551916,-117.48998174303499,[0. 0. 1. 0.],[0.01733228 0.0036417  0.00563693 0.97338909],"[ -0.05758699   0.99385333  -0.12377726   1.2936953   -0.13218842
  -0.19159803   0.           0.           0.4         -0.45758697
 -11.102272  ]",1.558359414340078,0,0
147,181,2024-09-16 17:23:13.564649216,TASK_BEGIN,5,0.386373455759494,-0.1616416423335351,1.1524772287833038,0.2061926071077998,0.7919488497750143,-0.2353034078056968,8.737774088181803,-2.3645692410861794,3,2024-09-16 17:21:46.656368896,1726507306.65637,2024-09-16 17:21:46.656369920,7,2,-11.184934355262772,-137.24021770788525,[0. 0. 1. 0.],[0.01152219 0.00153652 0.00802675 0.97891454],"[ -0.05959368   1.0595245   -0.05766273   1.4935945   -0.1604828
  -0.18920211   0.           0.           0.4         -0.45959368
 -11.627642  ]",1.5595625336429382,0,0
148,182,2024-09-16 17:23:13.632492800,TASK_BEGIN,5,0.3708863730117133,-0.1606144608019963,1.1817529996230716,0.2365392163035559,0.7701789118936544,-0.2293153472344786,8.422303294933304,-2.3182020063926414,3,2024-09-16 17:21:46.656368896,1726507306.65637,2024-09-16 17:21:46.656369920,7,2,-11.184934355262772,-137.24021770788525,[0. 0. 1. 0.],[0.01152219 0.00153652 0.00802675 0.97891454],"[ -0.05959368   1.0595245   -0.05766273   1.4935945   -0.1604828
  -0.18920211   0.           0.           0.4         -0.45959368
 -11.627642  ]",1.5595625336429382,0,0
149,183,2024-09-16 17:23:13.700135936,TASK_BEGIN,5,0.3575274577240169,-0.1605484482563109,1.1955984980621817,0.2718870177887959,0.7505453047040483,-0.2246170807989265,8.051331223633314,-2.2539760044249597,3,2024-09-16 17:21:46.656368896,1726507306.65637,2024-09-16 17:21:46.656369920,7,2,-11.184934355262772,-137.24021770788525,[0. 0. 1. 0.],[0.01152219 0.00153652 0.00802675 0.97891454],"[ -0.05959368   1.0595245   -0.05766273   1.4935945   -0.1604828
  -0.18920211   0.           0.           0.4         -0.45959368
 -11.627642  ]",1.5595625336429382,0,0
150,184,2024-09-16 17:23:14.614142720,TASK_BEGIN,5,0.3456721749870954,-0.161329211021409,1.1997558643348851,0.3101211937774398,0.7335895785763314,-0.2214144842859399,7.639605351554352,-2.1746522745785124,3,2024-09-16 17:21:47.649144043,1726507307.6491446,2024-09-16 17:21:47.649144576,7,3,-2.7620608128808986,-102.35685865438289,[0. 0. 0. 1.],[6.21636905e-04 9.99376018e-01 4.11203989e-07 1.93416903e-06],"[ -0.04770136   1.5994015    0.24965581   0.4826369   -1.1285903
  -1.1355875    0.           0.           0.4         -0.44770136
 -15.946657  ]",1.5666363110378243,0,0
151,185,2024-09-16 17:23:14.686013952,TASK_BEGIN,5,0.3343920920668227,-0.1628186695013471,1.1976817221710956,0.3493771118006748,0.7194572709009632,-0.2197782660546827,7.204146560396672,-2.083844790233458,3,2024-09-16 17:21:47.649144043,1726507307.6491446,2024-09-16 17:21:47.649144576,7,3,-2.7620608128808986,-102.35685865438289,[0. 0. 0. 1.],[6.21636905e-04 9.99376018e-01 4.11203989e-07 1.93416903e-06],"[ -0.04770136   1.5994015    0.24965581   0.4826369   -1.1285903
  -1.1355875    0.           0.           0.4         -0.44770136
 -15.946657  ]",1.5666363110378243,0,0
152,186,2024-09-16 17:23:14.752791040,TASK_BEGIN,5,0.3225846446512698,-0.1648545557575493,1.190062139434613,0.3881906285214422,0.7079742251845185,-0.2196281876865946,6.763456561798969,-1.9857783979828625,3,2024-09-16 17:21:47.649144043,1726507307.6491446,2024-09-16 17:21:47.649144576,7,3,-2.7620608128808986,-102.35685865438289,[0. 0. 0. 1.],[6.21636905e-04 9.99376018e-01 4.11203989e-07 1.93416903e-06],"[ -0.04770136   1.5994015    0.24965581   0.4826369   -1.1285903
  -1.1355875    0.           0.           0.4         -0.44770136
 -15.946657  ]",1.5666363110378243,0,0
153,187,2024-09-16 17:23:14.821490944,TASK_BEGIN,5,0.3091070511372047,-0.1672470087994831,1.174863729045135,0.4256002105904402,0.6987713601094678,-0.2207433708087653,6.336255296174886,-1.88490807795079,3,2024-09-16 17:21:47.911576904,1726507307.911578,2024-09-16 17:21:47.911577856,7,0,-3.698750772961432,-123.42122702097488,[1. 0. 0. 0.],[8.06035527e-04 9.99193109e-01 2.12403261e-08 8.33804446e-07],"[ -0.03330724   1.6556947    0.23857953   0.24214238  -1.6535233
  -1.1638211    0.           0.           0.4         -0.43330723
 -16.397003  ]",1.5674980691302114,0,0
154,188,2024-09-16 17:23:14.875965952,TASK_BEGIN,5,0.2929004794291227,-0.1697804266149803,1.1479499255104886,0.461156539370916,0.6914101058227013,-0.2227928486015727,5.939999381753982,-1.7854873292554012,3,2024-09-16 17:21:47.969575928,1726507307.9695766,2024-09-16 17:21:47.969576704,7,0,-3.8777434217889777,-128.58580791483485,[1. 0. 0. 0.],[8.56236779e-04 9.99142891e-01 1.03913718e-08 8.61824272e-07],"[ -0.02987973   1.6638179    0.2347554    0.19117206  -1.7698041
  -1.162479     0.           0.           0.4         -0.42987972
 -16.461988  ]",1.5680770536635618,0,0
155,189,2024-09-16 17:23:14.953604096,TASK_BEGIN,5,0.2730916299806484,-0.1722222210674457,1.1041467119867174,0.4948123522303727,0.6854766303528035,-0.2253792741588572,5.589601017117738,-1.6912006011795595,3,2024-09-16 17:21:48.056991943,1726507308.0569925,2024-09-16 17:21:48.056992512,7,0,-4.287541336199126,-137.05420469027518,[1. 0. 0. 0.],[8.22532539e-04 9.99176560e-01 8.05268516e-09 8.99090236e-07],"[ -0.02458628   1.6729484    0.22917119   0.11526349  -1.9439746
  -1.1604743    0.           0.           0.4         -0.42458627
 -16.535032  ]",1.568402080153157,0,0
156,190,2024-09-16 17:23:15.024710912,TASK_BEGIN,5,0.2490551782851917,-0.1743323688103586,1.0385203614113283,0.5267062528637855,0.6806182905170906,-0.2280860701823091,5.296628390406011,-1.6049094244792903,3,2024-09-16 17:21:48.114993164,1726507308.114993,2024-09-16 17:21:48.114993152,7,0,-4.685846704723133,-143.4409993749918,[1. 0. 0. 0.],[8.49325714e-04 9.99149693e-01 8.16200920e-09 9.73101695e-07],"[ -0.02096033   1.6769793    0.22562206   0.06500867  -2.0599217
  -1.1591437    0.           0.           0.4         -0.42096034
 -16.56728   ]",1.568480254991543,0,0
157,191,2024-09-16 17:23:15.968081920,TASK_BEGIN,5,0.2204412045587115,-0.1758708589892408,0.9476504867812384,0.5568942927140798,0.676512531763221,-0.2305152517581687,5.069004336792567,-1.528523052819092,3,2024-09-16 17:21:49.056099854,1726507309.0561006,2024-09-16 17:21:49.056100608,7,0,-7.955488455934585,-304.47341601939337,[1. 0. 0. 0.],[1.76635950e-02 9.82310882e-01 5.85791080e-08 2.54640800e-05],"[  0.04192249   1.5106289    0.21443982  -0.7202559   -3.897327
  -1.1384546    0.           0.           0.4         -0.3580775
 -15.236477  ]",1.5681610270029211,0,0
158,192,2024-09-16 17:23:16.035870208,TASK_BEGIN,5,0.1871956589865947,-0.1766094694951623,0.8308008456150422,0.5851003710157329,0.6727982546091044,-0.2323085835649105,4.911033450095405,-1.4630081350040796,3,2024-09-16 17:21:49.114098145,1726507309.1140985,2024-09-16 17:21:49.114098432,7,0,-7.974097626477942,-314.27381363545754,[1. 0. 0. 0.],[2.18404942e-02 9.78118083e-01 6.33359033e-08 4.13598350e-05],"[  0.04572741   1.4857199    0.21699418  -0.76966697  -4.0110774
  -1.1371977    0.           0.           0.4         -0.35427257
 -15.037205  ]",1.568190656827856,0,0
159,193,2024-09-16 17:23:16.103635968,TASK_BEGIN,5,0.1495883898516888,-0.1763541023528685,0.690854648426022,0.6105565347653652,0.6690122251265355,-0.233156188452223,4.823636232912245,-1.4085390248227392,3,2024-09-16 17:21:49.201101074,1726507309.2011013,2024-09-16 17:21:49.201101312,7,0,-7.9999292845342325,-328.6752340406182,[1. 0. 0. 0.],[2.72100023e-02 9.72716047e-01 1.05978779e-07 7.38445248e-05],"[  0.05131785   1.4452188    0.22134425  -0.8441789   -4.181468
  -1.1353202    0.           0.           0.4         -0.34868214
 -14.713196  ]",1.5682207660594059,0,0
160,194,2024-09-16 17:23:16.171360000,TASK_BEGIN,5,0.1082295666689814,-0.1749727521175474,0.5347041378776528,0.6319898254575845,0.6645448110085362,-0.2328019962020239,4.8048258950021285,-1.3647573173912733,3,2024-09-16 17:21:49.259100830,1726507309.2591012,2024-09-16 17:21:49.259101184,7,0,-8.016122485281471,-338.07881558339494,[1. 0. 0. 0.],[3.13057010e-02 9.68586289e-01 1.49646101e-07 1.07860656e-04],"[  0.0549597    1.4161422    0.22453369  -0.89414424  -4.2949066
  -1.134074     0.           0.           0.4         -0.3450403
 -14.480583  ]",1.5682371728806235,0,0
161,195,2024-09-16 17:23:16.239106048,TASK_BEGIN,5,0.0640483660804223,-0.1724166302913974,0.3728215275206279,0.647764142213046,0.6586217766799859,-0.2310520101305493,4.850428373747884,-1.3310735863231395,3,2024-09-16 17:21:49.317099121,1726507309.3170996,2024-09-16 17:21:49.317099520,7,0,-8.0315749481706,-347.3263378540852,[1. 0. 0. 0.],[4.17811100e-02 9.58026418e-01 1.91206394e-07 1.92281176e-04],"[  0.05852882   1.3854191    0.22790608  -0.9443596   -4.4082203
  -1.1328313    0.           0.           0.4         -0.34147117
 -14.234798  ]",1.5683343338931905,0,0
162,196,2024-09-16 17:23:16.306847232,TASK_BEGIN,5,0.0182295999110227,-0.1687274607069274,0.2180278180642958,0.6561293138544448,0.6503432368779754,-0.2277867468590456,4.954842034673093,-1.3069146013994926,3,2024-09-16 17:21:49.406099121,1726507309.406099,2024-09-16 17:21:49.406099200,7,0,-8.053541519897294,-360.9089456326156,[1. 0. 0. 0.],[6.83242592e-02 9.31175257e-01 2.65771624e-07 5.00217618e-04],"[  0.06374025   1.3362756    0.233211    -1.0201758   -4.5779576
  -1.1309755    0.           0.           0.4         -0.33625975
 -13.84165   ]",1.5685666541306102,0,0
163,197,2024-09-16 17:23:16.368025088,TASK_BEGIN,5,-0.027879630968109,-0.1640335314001589,0.0837256981726122,0.655518084345727,0.6387992689169932,-0.2229752542043939,5.111579196954286,-1.2918308379888035,3,2024-09-16 17:21:49.464097900,1726507309.4640985,2024-09-16 17:21:49.464098560,7,0,-8.067329108871604,-369.7741386414362,[1. 0. 0. 0.],[9.49378247e-02 9.04104856e-01 3.27951607e-07 9.56991253e-04],"[  0.06711737   1.3014934    0.23684527  -1.0710592   -4.690962
  -1.1297432    0.           0.           0.4         -0.3328826
 -13.563393  ]",1.5686567775055136,0,0
164,198,2024-09-16 17:23:17.318115072,TASK_BEGIN,5,-0.0728843075345594,-0.1585371029297405,-0.0180259697449524,0.6448477772284802,0.6232212605395564,-0.2166826973451323,5.31353855794987,-1.285455129180921,3,2024-09-16 17:21:50.396469971,1726507310.3964708,2024-09-16 17:21:50.396470784,7,2,-1.4836842785462523,-452.1642119136394,[0. 0. 1. 0.],[6.34905238e-01 8.23149532e-02 4.25426848e-08 2.82779766e-01],"[ 0.11533371  0.5613935   0.38987598 -1.4298705  -6.5132422  -1.1699945
  0.          0.          0.4        -0.28466627 -7.642593  ]",1.5687906704690928,0,0
165,199,2024-09-16 17:23:17.385870080,TASK_BEGIN,5,-0.1154675035214809,-0.1524915944345828,-0.0782197471575493,0.6237833278298053,0.6030931431686656,-0.2090614428957558,5.553137751126287,-1.2873881513266383,3,2024-09-16 17:21:50.483469971,1726507310.4834707,2024-09-16 17:21:50.483470592,7,2,-4.128415603586222,-447.6504096050765,[0. 0. 1. 0.],[5.64797711e-01 5.05487992e-02 9.26329311e-09 3.84653480e-01],"[ 0.1233677   0.4993912   0.5172943  -1.2936876  -6.6876082  -1.1567696
  0.          0.          0.4        -0.27663228 -7.1465745 ]",1.5687906752135228,0,0
166,200,2024-09-16 17:23:17.451086848,TASK_BEGIN,5,-0.1544988187897614,-0.1461720869575513,-0.0921108342435962,0.592908059927968,0.578184420508054,-0.2003233447493347,5.822396207505975,-1.2971064349060897,3,2024-09-16 17:21:50.541498779,1726507310.5414994,2024-09-16 17:21:50.541499392,7,2,-5.027428644452288,-447.7894825051014,[0. 0. 1. 0.],[5.01495442e-01 3.28960093e-02 3.46738846e-09 4.65608546e-01],"[ 0.13012989  0.4611411   0.5965883  -1.2288113  -6.8036013  -1.1565579
  0.          0.          0.4        -0.2698701  -6.840574  ]",1.5687906757518326,0,0
167,201,2024-09-16 17:23:17.521356288,TASK_BEGIN,5,-0.1890894523924963,-0.1398500563009202,-0.0597570493520057,0.5537532825963429,0.5485355129649975,-0.1907041601317831,6.112996289543832,-1.313938163644713,3,2024-09-16 17:21:50.600498047,1726507310.6004982,2024-09-16 17:21:50.600498176,7,2,-3.0699352208173876,-447.76445236239493,[0. 0. 1. 0.],[4.15292803e-01 1.82027546e-02 1.17308162e-09 5.66504441e-01],"[ 0.13844371  0.42541635  0.7036594  -1.1380783  -6.9195833  -1.1638165
  0.          0.          0.4        -0.2615563  -6.5547757 ]",1.568790675990842,0,0
168,202,2024-09-16 17:23:17.574630912,TASK_BEGIN,5,-0.2185944226618614,-0.1337782453465129,0.0141932783399285,0.5086698532201656,0.5144557920297935,-0.1804367017140317,6.41636179909902,-1.3370725223131144,3,2024-09-16 17:21:50.629498047,1726507310.629499,2024-09-16 17:21:50.629498880,7,2,-6.873957461995064,-450.16076530076606,[0. 0. 1. 0.],[3.69344433e-01 1.31385150e-02 5.92167790e-10 6.17517052e-01],"[ 0.14367239  0.4092226   0.81998414 -1.0707514  -6.9775476  -1.1592995
  0.          0.          0.4        -0.2563276  -6.4252257 ]",1.568790676066882,0,0
169,203,2024-09-16 17:23:17.651488000,TASK_BEGIN,5,-0.2426012748177603,-0.1281806289606043,0.121378665282919,0.4605750625247855,0.4765593797467097,-0.1697399342645624,6.72371876768658,-1.3655225097873227,3,2024-09-16 17:21:50.629498047,1726507310.629499,2024-09-16 17:21:50.629498880,7,2,-6.873957461995064,-450.16076530076606,[0. 0. 1. 0.],[3.69344433e-01 1.31385150e-02 5.92167790e-10 6.17517052e-01],"[ 0.14367239  0.4092226   0.81998414 -1.0707514  -6.9775476  -1.1592995
  0.          0.          0.4        -0.2563276  -6.4252257 ]",1.568790676066882,0,0
170,204,2024-09-16 17:23:17.724577024,TASK_BEGIN,5,-0.2609308770333138,-0.1232414715423604,0.2509994933419498,0.4126417707603014,0.4357943754241596,-0.1588152982819535,7.025993250194296,-1.3980063482682203,3,2024-09-16 17:21:50.629498047,1726507310.629499,2024-09-16 17:21:50.629498880,7,2,-6.873957461995064,-450.16076530076606,[0. 0. 1. 0.],[3.69344433e-01 1.31385150e-02 5.92167790e-10 6.17517052e-01],"[ 0.14367239  0.4092226   0.81998414 -1.0707514  -6.9775476  -1.1592995
  0.          0.          0.4        -0.2563276  -6.4252257 ]",1.568790676066882,0,0
171,205,2024-09-16 17:23:18.668486144,TASK_BEGIN,5,-0.2736325593039713,-0.1190958462651455,0.3911777064262904,0.3679917637795047,0.3933924200589099,-0.1478374415105058,7.313516008358293,-1.432815223454225,3,2024-09-16 17:21:51.197447998,1726507311.1974487,2024-09-16 17:21:51.197448704,7,0,-6.610702096599653,-567.4919538735616,[1. 0. 0. 0.],[3.96319228e-03 9.77923537e-07 2.73950631e-14 9.96035830e-01],"[ 0.37909412  0.16721892  2.2386267  -0.9687622  -8.083131   -1.1820672
  0.          0.          0.4        -0.02090588 -4.4891963 ]",1.5687906758002264,0,0
172,206,2024-09-16 17:23:18.736274944,TASK_BEGIN,5,-0.2809492147094399,-0.1158277244463396,0.5301611100370609,0.329434047816271,0.3507187871896438,-0.1369389084667842,7.575815586941845,-1.4677805376457151,3,2024-09-16 17:21:51.197447998,1726507311.1974487,2024-09-16 17:21:51.197448704,7,0,-6.610702096599653,-567.4919538735616,[1. 0. 0. 0.],[3.96319228e-03 9.77923537e-07 2.73950631e-14 9.96035830e-01],"[ 0.37909412  0.16721892  2.2386267  -0.9687622  -8.083131   -1.1820672
  0.          0.          0.4        -0.02090588 -4.4891963 ]",1.5687906758002264,0,0
173,207,2024-09-16 17:23:18.804039936,TASK_BEGIN,5,-0.2832665829848603,-0.1134750797911846,0.6572327469561313,0.2992724750423108,0.3090756928400056,-0.1262000199630392,7.801898185618855,-1.5003990284838298,3,2024-09-16 17:21:51.197447998,1726507311.1974487,2024-09-16 17:21:51.197448704,7,0,-6.610702096599653,-567.4919538735616,[1. 0. 0. 0.],[3.96319228e-03 9.77923537e-07 2.73950631e-14 9.96035830e-01],"[ 0.37909412  0.16721892  2.2386267  -0.9687622  -8.083131   -1.1820672
  0.          0.          0.4        -0.02090588 -4.4891963 ]",1.5687906758002264,0,0
174,208,2024-09-16 17:23:18.860109056,TASK_BEGIN,5,-0.2810905743687942,-0.112033332934068,0.7633243339919433,0.2791812559035213,0.2695299863531428,-0.1156528322892374,7.981093819800953,-1.5280864974356962,3,2024-09-16 17:21:51.197447998,1726507311.1974487,2024-09-16 17:21:51.197448704,7,0,-6.610702096599653,-567.4919538735616,[1. 0. 0. 0.],[3.96319228e-03 9.77923537e-07 2.73950631e-14 9.96035830e-01],"[ 0.37909412  0.16721892  2.2386267  -0.9687622  -8.083131   -1.1820672
  0.          0.          0.4        -0.02090588 -4.4891963 ]",1.5687906758002264,0,0
175,209,2024-09-16 17:23:18.937293824,TASK_BEGIN,5,-0.2750737965470809,-0.1114503083744584,0.8414783843406612,0.2701167780885106,0.2328128898886016,-0.1052975844914692,8.10410433756578,-1.5484816911419814,3,2024-09-16 17:21:51.844218018,1726507311.844218,2024-09-16 17:21:51.844218112,7,1,-4.920771221090499,-570.5172418576449,[0. 1. 0. 0.],[1.32138547e-01 8.76782728e-05 3.97403807e-14 8.67773774e-01],"[ 0.7370823  -0.22587132  2.409796   -1.3755966  -8.911566   -0.3927101
  0.          0.          0.4         0.33708233 -1.3444746 ]",1.2983504116389835,0,0
176,210,2024-09-16 17:23:19.007245056,TASK_BEGIN,5,-0.2660565136756989,-0.1116173281890425,0.8872886492424867,0.2722482106329405,0.1993036975155946,-0.0951216298302349,8.163837046959268,-1.5597373332704842,3,2024-09-16 17:21:52.109184082,1726507312.109184,2024-09-16 17:21:52.109184000,7,0,-56.34803073288322,-611.7471775373358,[1. 0. 0. 0.],[2.41233462e-01 2.73185075e-04 1.14060880e-12 7.58493353e-01],"[ 0.8925495  -0.4258697   2.326117   -0.52330506 -9.112128   -4.394988
  0.          0.          0.4         0.4925495   0.2555125 ]",1.5687906761008852,1,2
177,211,2024-09-16 17:23:19.060043264,TASK_BEGIN,5,-0.2550662773142217,-0.1123680142310549,0.8992449824436413,0.2849431233285538,0.1690740063380965,-0.0851114412707425,8.155891683187962,-1.5607752557000043,3,2024-09-16 17:21:52.109184082,1726507312.109184,2024-09-16 17:21:52.109184000,7,0,-56.34803073288322,-611.7471775373358,[1. 0. 0. 0.],[2.41233462e-01 2.73185075e-04 1.14060880e-12 7.58493353e-01],"[ 0.8925495  -0.4258697   2.326117   -0.52330506 -9.112128   -4.394988
  0.          0.          0.4         0.4925495   0.2555125 ]",1.5687906761008852,1,2
178,219,2024-09-16 17:23:21.343622912,TASK_BEGIN,5,-0.2135305445858278,-0.1139656455373748,0.3727738532261782,0.5289344162179737,0.0237399133785615,-0.0157102915604655,6.047089239325958,-1.3818011689132643,3,2024-09-16 17:21:54.302043945,1726507314.3020444,2024-09-16 17:21:54.302044416,8,3,-3.857331073602973,-46.24744680217287,[0. 0. 0. 1.],[0.28822151 0.4006814  0.26888781 0.04220928],"[ 0.02693494  0.9094254   0.2079262  -0.5425435  -0.07945954 -0.13195851
  0.          0.          0.          0.02693494 -9.34835   ]",1.5437593657196098,0,0
179,220,2024-09-16 17:23:21.404912896,TASK_BEGIN,5,-0.2191868005540912,-0.111520641163166,0.3409316586646875,0.5439667750135108,0.0192513637537856,-0.0102900886264738,5.678663713421416,-1.381892286296461,3,2024-09-16 17:21:54.302043945,1726507314.3020444,2024-09-16 17:21:54.302044416,8,3,-3.857331073602973,-46.24744680217287,[0. 0. 0. 1.],[0.28822151 0.4006814  0.26888781 0.04220928],"[ 0.02693494  0.9094254   0.2079262  -0.5425435  -0.07945954 -0.13195851
  0.          0.          0.          0.02693494 -9.34835   ]",1.5437593657196098,0,0
180,221,2024-09-16 17:23:21.465982976,TASK_BEGIN,5,-0.22582351634791,-0.1083724543148509,0.3365459324698809,0.5505712993300833,0.0197440388958257,-0.0062190039834426,5.333574405761143,-1.3952413108632362,3,2024-09-16 17:21:54.302043945,1726507314.3020444,2024-09-16 17:21:54.302044416,8,3,-3.857331073602973,-46.24744680217287,[0. 0. 0. 1.],[0.28822151 0.4006814  0.26888781 0.04220928],"[ 0.02693494  0.9094254   0.2079262  -0.5425435  -0.07945954 -0.13195851
  0.          0.          0.          0.02693494 -9.34835   ]",1.5437593657196098,0,0
181,222,2024-09-16 17:23:21.542300928,TASK_BEGIN,5,-0.2326255695878945,-0.1045507751623783,0.3620105889105758,0.5484321845764303,0.0260349086206569,-0.0036712874378438,5.024055247044322,-1.4216195731383463,3,2024-09-16 17:21:54.302043945,1726507314.3020444,2024-09-16 17:21:54.302044416,8,3,-3.857331073602973,-46.24744680217287,[0. 0. 0. 1.],[0.28822151 0.4006814  0.26888781 0.04220928],"[ 0.02693494  0.9094254   0.2079262  -0.5425435  -0.07945954 -0.13195851
  0.          0.          0.          0.02693494 -9.34835   ]",1.5437593657196098,0,0
182,223,2024-09-16 17:23:21.604013824,TASK_BEGIN,5,-0.238810504500412,-0.1001008249882827,0.4176725492351547,0.5376810150522705,0.0388129235851561,-0.0027825598159141,4.759575861520118,-1.459526140955756,3,2024-09-16 17:21:54.302043945,1726507314.3020444,2024-09-16 17:21:54.302044416,8,3,-3.857331073602973,-46.24744680217287,[0. 0. 0. 1.],[0.28822151 0.4006814  0.26888781 0.04220928],"[ 0.02693494  0.9094254   0.2079262  -0.5425435  -0.07945954 -0.13195851
  0.          0.          0.          0.02693494 -9.34835   ]",1.5437593657196098,0,0
183,224,2024-09-16 17:23:21.682481920,TASK_BEGIN,5,-0.2436751564251411,-0.0950924961986268,0.501426025733192,0.5188807477736109,0.0585513094262369,-0.0036389394042847,4.546800931388086,-1.5064405000658438,3,2024-09-16 17:21:54.302043945,1726507314.3020444,2024-09-16 17:21:54.302044416,8,3,-3.857331073602973,-46.24744680217287,[0. 0. 0. 1.],[0.28822151 0.4006814  0.26888781 0.04220928],"[ 0.02693494  0.9094254   0.2079262  -0.5425435  -0.07945954 -0.13195851
  0.          0.          0.          0.02693494 -9.34835   ]",1.5437593657196098,0,0
184,225,2024-09-16 17:23:21.750206976,TASK_BEGIN,5,-0.2466295041559101,-0.0896293164759475,0.6086864857966013,0.4929771756299567,0.0854477758535566,-0.006265762544196,4.389918959756116,-1.5591845366900956,3,2024-09-16 17:21:54.302043945,1726507314.3020444,2024-09-16 17:21:54.302044416,8,3,-3.857331073602973,-46.24744680217287,[0. 0. 0. 1.],[0.28822151 0.4006814  0.26888781 0.04220928],"[ 0.02693494  0.9094254   0.2079262  -0.5425435  -0.07945954 -0.13195851
  0.          0.          0.          0.02693494 -9.34835   ]",1.5437593657196098,0,0
185,226,2024-09-16 17:23:22.693116928,TASK_BEGIN,5,-0.24722271041749,-0.0838472335572721,0.7329052624910972,0.4612069072921267,0.1193901069753129,-0.010619801981136,4.290942319441307,-1.6142654954300026,3,2024-09-16 17:21:55.788899902,1726507315.7889009,2024-09-16 17:21:55.788900864,8,0,-3.1549522840429205,-62.235754223448296,[1. 0. 0. 0.],[0.06626475 0.00126431 0.28107876 0.65139218],"[ 0.02011228  0.22598267 -0.314004   -0.70760345  0.35883448  0.20558
  0.          0.          0.          0.02011228 -3.8808079 ]",1.5583184191021813,0,0
186,227,2024-09-16 17:23:22.760914944,TASK_BEGIN,5,-0.2451573349806795,-0.0779025443707925,0.8665065746019356,0.4249702235297751,0.1599481552900942,-0.0165937346337212,4.249839068526825,-1.6681513370525425,3,2024-09-16 17:21:55.846859863,1726507315.846861,2024-09-16 17:21:55.846860800,8,0,-3.1816586306889434,-67.31613483134677,[1. 0. 0. 0.],[0.0641989  0.00076712 0.23144856 0.70358542],"[ 0.01594599  0.2027806  -0.31396174 -0.758878    0.3793919   0.20557263
  0.          0.          0.          0.01594599 -3.6951914 ]",1.560119948643814,0,0
187,228,2024-09-16 17:23:22.828669952,TASK_BEGIN,5,-0.2402770374764942,-0.0719592797052426,1.0019260353819572,0.3857109259848094,0.2063896571349582,-0.0240331462419685,4.264645633369112,-1.7175237138869666,3,2024-09-16 17:21:55.904892822,1726507315.9048932,2024-09-16 17:21:55.904893184,8,0,-3.204034565664429,-72.34197455228241,[1. 0. 0. 0.],[4.76329011e-02 3.70800912e-04 1.84072622e-01 7.67923676e-01],"[ 0.01177867  0.17798209 -0.31391725 -0.8101519   0.39994863  0.20556526
  0.          0.          0.          0.01177867 -3.4968033 ]",1.5611757465408425,0,0
188,229,2024-09-16 17:23:22.896480000,TASK_BEGIN,5,-0.2325257896584606,-0.0661837946404525,1.1324896160606863,0.3448497639374169,0.2577081596379453,-0.0327546795576075,4.331632570749048,-1.759537197806348,3,2024-09-16 17:21:55.991885986,1726507315.9918861,2024-09-16 17:21:55.991886080,8,0,-3.2313236421424563,-79.76533193941408,[1. 0. 0. 0.],[2.49267992e-02 9.57485232e-05 9.19966827e-02 8.82980770e-01],"[ 0.00552583  0.13779116 -0.3138462  -0.8870616   0.4307822   0.20555405
  0.          0.          0.          0.00552583 -3.1752758 ]",1.5622262790911383,0,0
189,230,2024-09-16 17:23:22.964179968,TASK_BEGIN,5,-0.2219059147419921,-0.0607434247125309,1.2530735178496055,0.3037669433803447,0.3126499521454538,-0.0425529065632145,4.445358695027312,-1.7920310343020245,3,2024-09-16 17:21:56.049406006,1726507316.0494068,2024-09-16 17:21:56.049406720,8,0,-3.2462384206293677,-84.6309038935769,[1. 0. 0. 0.],[1.78982827e-02 4.98596806e-05 6.83702383e-02 9.13681619e-01],"[ 1.35580695e-03  1.09001756e-01 -3.13795984e-01 -9.38333988e-01
  4.51337039e-01  2.05546811e-01  0.00000000e+00  0.00000000e+00
  0.00000000e+00  1.35580695e-03 -2.94496059e+00]",1.5627068064381637,0,0
190,231,2024-09-16 17:23:23.020103936,TASK_BEGIN,5,-0.2084694961747275,-0.0558023582628973,1.360563704694219,0.2637795007355177,0.3697287629506475,-0.0531913457113355,4.598455376843892,-1.813621438254712,3,2024-09-16 17:21:56.078433105,1726507316.078433,2024-09-16 17:21:56.078433024,8,0,-3.398792938404881,-87.18338779304601,[1. 0. 0. 0.],[1.56199899e-02 3.82127396e-05 6.11578244e-02 9.23183973e-01],"[-7.2964031e-04  9.4008327e-02 -3.1377009e-01 -9.6396983e-01
  4.6161419e-01  2.0554312e-01  0.0000000e+00  0.0000000e+00
  0.0000000e+00 -7.2964031e-04 -2.8250132e+00]",1.5628875547173315,0,0
191,232,2024-09-16 17:23:23.098201856,TASK_BEGIN,5,-0.1923515872903673,-0.0515123359778558,1.4540877466841575,0.2260730463180123,0.4272301892315838,-0.0643830014197946,4.781288754243289,-1.8236664818369848,3,2024-09-16 17:21:56.196439941,1726507316.1964402,2024-09-16 17:21:56.196440320,8,0,-3.6924390499153787,-98.26670238490014,[1. 0. 0. 0.],[1.57313695e-02 4.70948323e-05 4.40904418e-02 9.40131094e-01],"[-0.00907437  0.03004324 -0.31366086 -1.0665115   0.502721    0.2055283
  0.          0.          0.         -0.00907437 -2.3132925 ]",1.563765562631153,0,0
192,233,2024-09-16 17:23:24.029751040,TASK_BEGIN,5,-0.1738266775093938,-0.0479987371394808,1.5349962894321605,0.1915984695292127,0.4832372352192462,-0.0757753367244069,4.981921250224483,-1.8221561506593265,3,2024-09-16 17:21:56.341405029,1726507316.3414054,2024-09-16 17:21:56.341405440,8,0,-3.71329542892326,-111.6116066374843,[1. 0. 0. 0.],[1.02586848e-02 4.40087118e-05 1.59082479e-02 9.73789059e-01],"[-0.01951241 -0.05889374 -0.31351227 -1.1946841   0.5541003   0.20550969
  0.          0.          0.         -0.01951241 -1.6017966 ]",1.5646683613868368,0,0
193,234,2024-09-16 17:23:24.106952960,TASK_BEGIN,5,-0.1533573948320732,-0.0453437392918476,1.6066106450683886,0.1609701487401954,0.5357104185747649,-0.0869562244267609,5.186727438356663,-1.8095900291590616,3,2024-09-16 17:21:56.428405029,1726507316.4284055,2024-09-16 17:21:56.428405504,8,0,-3.723036555639368,-119.34521925696242,[1. 0. 0. 0.],[9.61507431e-03 4.83416792e-05 7.84232793e-03 9.82494256e-01],"[-0.02577941 -0.11704588 -0.31341684 -1.2715851   0.5849257   0.20549855
  0.          0.          0.         -0.02577941 -1.1365795 ]",1.5635381351077378,0,0
194,235,2024-09-16 17:23:24.178542080,TASK_BEGIN,5,-0.1316020122124265,-0.0435719264717203,1.6737409238494474,0.1343956062538283,0.5826111650529974,-0.0974853397189535,5.381682207138107,-1.7868797531342866,3,2024-09-16 17:21:56.486439941,1726507316.4864404,2024-09-16 17:21:56.486440448,8,0,-3.728659400030125,-124.38758421868023,[1. 0. 0. 0.],[7.73612632e-03 4.05747194e-05 5.21459482e-03 9.87008704e-01],"[-0.0299592  -0.15780985 -0.3133506  -1.3228515   0.60547507  0.20549163
  0.          0.          0.         -0.0299592  -0.8104677 ]",1.560764450491263,0,0
195,236,2024-09-16 17:23:24.246316032,TASK_BEGIN,5,-0.1093687570217104,-0.042644383192696,1.7420029575390967,0.111656963851623,0.6220252670657193,-0.1069401946737372,5.554006380705262,-1.7552814242243209,3,2024-09-16 17:21:56.925440186,1726507316.925441,2024-09-16 17:21:56.925441024,8,2,-3.552348695634481,-5.480422172419919,[0. 0. 1. 0.],[0.12606546 0.02334504 0.00212113 0.84846837],"[-0.09232584 -0.25156546 -0.66376275  0.33556244 -0.08716439 -0.3082698
  1.          0.          0.         -0.09232584 -0.06042292]",1.5513044022695328,0,0
196,237,2024-09-16 17:23:24.306344960,TASK_BEGIN,5,-0.0875410835971834,-0.0424611512258383,1.8170131834115204,0.0921642436980254,0.652260791232443,-0.1149608839960322,5.693744074855904,-1.716357918188806,3,2024-09-16 17:21:56.925440186,1726507316.925441,2024-09-16 17:21:56.925441024,8,2,-3.552348695634481,-5.480422172419919,[0. 0. 1. 0.],[0.12606546 0.02334504 0.00212113 0.84846837],"[-0.09232584 -0.25156546 -0.66376275  0.33556244 -0.08716439 -0.3082698
  1.          0.          0.         -0.09232584 -0.06042292]",1.5513044022695328,0,0
197,238,2024-09-16 17:23:24.367876096,TASK_BEGIN,5,-0.067006104053402,-0.0428684547400816,1.903477065214676,0.075101286799527,0.671926691684103,-0.1212815551284454,5.794986121253148,-1.671986433992454,3,2024-09-16 17:21:56.925440186,1726507316.925441,2024-09-16 17:21:56.925441024,8,2,-3.552348695634481,-5.480422172419919,[0. 0. 1. 0.],[0.12606546 0.02334504 0.00212113 0.84846837],"[-0.09232584 -0.25156546 -0.66376275  0.33556244 -0.08716439 -0.3082698
  1.          0.          0.         -0.09232584 -0.06042292]",1.5513044022695328,0,0
198,239,2024-09-16 17:23:24.449541888,TASK_BEGIN,5,-0.0485967833279865,-0.043670425490115,2.004131993901121,0.0596646776603192,0.6800120643772539,-0.1257441496275752,5.856589970099328,-1.6243969495015615,3,2024-09-16 17:21:57.480406982,1726507317.4804075,2024-09-16 17:21:57.480407552,8,0,1.1978709982229248,-21.634090081413685,[1. 0. 0. 0.],[0.42733193 0.04294381 0.18613852 0.34358574],"[-0.18164189 -0.22317451 -0.6565238  -0.05922293 -0.28781617  0.30015486
  1.          0.          0.         -0.18164189 -0.28755048]",1.551555354447256,0,0
199,240,2024-09-16 17:23:25.354038016,TASK_BEGIN,5,-0.0330502999734408,-0.0446447478545445,2.1186789171307057,0.0453436160225133,0.6759752999158871,-0.1282972556039608,5.882220697599226,-1.5761566738705513,3,2024-09-16 17:21:58.452187988,1726507318.4521883,2024-09-16 17:21:58.452188160,8,3,-1.2622761647827139,24.387982357017947,[0. 0. 0. 1.],[0.41049448 0.1596495  0.05805328 0.37180274],"[-0.22983868 -0.21749604  0.12750524  0.00635842 -0.3401462  -0.01872054
  1.          1.          0.         -0.22983868 -0.33297828]",1.5180910731013246,0,0
200,241,2024-09-16 17:23:25.431255040,TASK_BEGIN,5,-0.0209914549844516,-0.0455565992577267,2.2430985516218,0.0321451685734672,0.659830052830496,-0.128985163152929,5.879583649760927,-1.5300161050342889,3,2024-09-16 17:21:58.512208008,1726507318.5122082,2024-09-16 17:21:58.512208128,8,3,-0.40760946484669547,23.126477591617437,[0. 0. 0. 1.],[0.40853245 0.21503032 0.06959794 0.30683928],"[-0.22788858 -0.21791601  0.14088713 -0.01627155 -0.33553544  0.05902877
  1.          1.          0.         -0.22788858 -0.32961848]",1.5183670965712293,0,0
201,242,2024-09-16 17:23:25.492006144,TASK_BEGIN,5,-0.0129337804424659,-0.0461682102047299,2.3697618239535942,0.0206855986888536,0.6322090090228877,-0.1279329441160244,5.85897855504794,-1.488630652864806,3,2024-09-16 17:21:58.570208984,1726507318.5702095,2024-09-16 17:21:58.570209536,8,3,-0.6540727147135448,21.546367813387135,[0. 0. 0. 1.],[0.39716522 0.2546511  0.07144179 0.27674189],"[-0.22567272 -0.21851194  0.16049255 -0.0187149  -0.32904088  0.06721292
  1.          1.          0.         -0.22567272 -0.32485107]",1.5232350825083447,0,0
202,243,2024-09-16 17:23:25.568842752,TASK_BEGIN,5,-0.0092689580280934,-0.0462508403166333,2.4884210833231166,0.0121288709483133,0.5943941276924776,-0.1253364256168421,5.831571677019306,-1.4542556946250669,3,2024-09-16 17:21:58.656857910,1726507318.6568587,2024-09-16 17:21:58.656858624,8,3,-0.6001442992829686,19.36802930913534,[0. 0. 0. 1.],[0.38388861 0.2961283  0.06464999 0.25533309],"[-0.22181344 -0.2195617   0.19063586 -0.02260274 -0.31773677  0.07978106
  1.          1.          0.         -0.22181344 -0.316453  ]",1.5292291601447299,0,0
203,244,2024-09-16 17:23:25.631837952,TASK_BEGIN,5,-0.0102312971024586,-0.0456066516822906,2.587767755221405,0.0080043346767241,0.5482974198737157,-0.1214615790001295,5.807817698579448,-1.4285027875943197,3,2024-09-16 17:21:58.717513184,1726507318.7175138,2024-09-16 17:21:58.717513728,8,3,-0.5210974531811934,18.140966546924606,[0. 0. 0. 1.],[0.37349687 0.32801935 0.05936964 0.23911414],"[-0.21888725 -0.22036779  0.21020222 -0.02523645 -0.30917114  0.08792941
  1.          1.          0.         -0.21888725 -0.31000426]",1.5325730834769922,0,0
204,245,2024-09-16 17:23:25.707565824,TASK_BEGIN,5,-0.0158578451976164,-0.044097284888079,2.657108707828584,0.0099476503946559,0.4963705124954066,-0.1166453876027078,5.796246077323048,-1.412184389821988,3,2024-09-16 17:21:58.811213867,1726507318.8112144,2024-09-16 17:21:58.811214336,8,3,-0.6622916701871537,16.340357439323018,[0. 0. 0. 1.],[0.35598296 0.37673664 0.0515848  0.2156956 ],"[-0.21395667 -0.22174549  0.24167198 -0.02962292 -0.29474714  0.10103078
  1.          1.          0.         -0.21395667 -0.29898265]",1.5366998191516505,0,0
205,246,2024-09-16 17:23:25.772061952,TASK_BEGIN,5,-0.0259750791463514,-0.0416651309568763,2.6878917871059937,0.0193958455553653,0.441441888013998,-0.1112873964966834,5.80261924935549,-1.4052521519418513,3,2024-09-16 17:21:58.872581055,1726507318.872581,2024-09-16 17:21:58.872581120,8,3,-0.4080801611771625,15.079221448416327,[0. 0. 0. 1.],[0.34028474 0.41855738 0.04365192 0.19750596],"[-0.2102464  -0.22279835  0.26520538 -0.03300916 -0.28389934  0.11083138
  1.          1.          0.         -0.2102464  -0.2905598 ]",1.5394113332842356,0,0
206,247,2024-09-16 17:23:26.703793920,TASK_BEGIN,5,-0.0402271091842232,-0.0383340531093957,2.674969039290959,0.0372781795390003,0.3865100903303096,-0.1058303017561219,5.829485070530703,-1.4068506088677362,3,2024-09-16 17:21:59.327362061,1726507319.3273628,2024-09-16 17:21:59.327362816,8,3,0.05926230961796875,10.965104634644751,[0. 0. 0. 1.],[0.23221557 0.61684967 0.03852951 0.11240526],"[-0.17261465 -0.234267    0.43091124 -0.06202239 -0.17387272  0.18057618
  1.          1.          0.         -0.17261465 -0.1988106 ]",1.5451906522333598,0,0
207,248,2024-09-16 17:23:26.781131008,TASK_BEGIN,5,-0.0581319516496344,-0.0341906789461797,2.617425989127106,0.0637824820504449,0.3345237823712964,-0.1007323974111019,5.876219090939873,-1.4154934196646023,3,2024-09-16 17:21:59.327362061,1726507319.3273628,2024-09-16 17:21:59.327362816,8,3,0.05926230961796875,10.965104634644751,[0. 0. 0. 1.],[0.23221557 0.61684967 0.03852951 0.11240526],"[-0.17261465 -0.234267    0.43091124 -0.06202239 -0.17387272  0.18057618
  1.          1.          0.         -0.17261465 -0.1988106 ]",1.5451906522333598,0,0
208,249,2024-09-16 17:23:26.842231040,TASK_BEGIN,5,-0.0791427912093418,-0.0293595748525764,2.5187500636084903,0.098273145043486,0.28816831261333,-0.0964323809749234,5.939578412628411,-1.429323625362307,3,2024-09-16 17:21:59.327362061,1726507319.3273628,2024-09-16 17:21:59.327362816,8,3,0.05926230961796875,10.965104634644751,[0. 0. 0. 1.],[0.23221557 0.61684967 0.03852951 0.11240526],"[-0.17261465 -0.234267    0.43091124 -0.06202239 -0.17387272  0.18057618
  1.          1.          0.         -0.17261465 -0.1988106 ]",1.5451906522333598,0,0
209,250,2024-09-16 17:23:26.918614016,TASK_BEGIN,5,-0.1027121796759627,-0.0239817270955858,2.3862745845315323,0.1393721862417268,0.2496822394792536,-0.0933092406092141,6.014620502048795,-1.4463972580254454,3,2024-09-16 17:21:59.327362061,1726507319.3273628,2024-09-16 17:21:59.327362816,8,3,0.05926230961796875,10.965104634644751,[0. 0. 0. 1.],[0.23221557 0.61684967 0.03852951 0.11240526],"[-0.17261465 -0.234267    0.43091124 -0.06202239 -0.17387272  0.18057618
  1.          1.          0.         -0.17261465 -0.1988106 ]",1.5451906522333598,0,0
210,251,2024-09-16 17:23:26.980719104,TASK_BEGIN,5,-0.1283546289128696,-0.0181978133294441,2.2301187051021967,0.1851493879706205,0.2207325990069754,-0.0916465568604492,6.095701975866274,-1.4649295121403851,3,2024-09-16 17:21:59.327362061,1726507319.3273628,2024-09-16 17:21:59.327362816,8,3,0.05926230961796875,10.965104634644751,[0. 0. 0. 1.],[0.23221557 0.61684967 0.03852951 0.11240526],"[-0.17261465 -0.234267    0.43091124 -0.06202239 -0.17387272  0.18057618
  1.          1.          0.         -0.17261465 -0.1988106 ]",1.5451906522333598,0,0
211,252,2024-09-16 17:23:27.057534976,TASK_BEGIN,5,-0.155667052976654,-0.012139806936102,2.0619745210880422,0.2333518451817516,0.2023649537689574,-0.0916123624015187,6.177271598204685,-1.4834516631605623,3,2024-09-16 17:21:59.911359131,1726507319.911359,2024-09-16 17:21:59.911358976,8,0,2.5216625377529027,29.307369057524205,[1. 0. 0. 0.],[0.0991826  0.81231088 0.07484068 0.01366584],"[-1.0849246e-01 -2.5508171e-01  4.5111942e-01 -3.9517250e-08
 -1.1218754e-04  2.3585471e-08  1.0000000e+00  1.0000000e+00
  0.0000000e+00 -1.0849246e-01 -3.2292869e-02]",1.5149446058476757,0,0
212,253,2024-09-16 17:23:27.125474816,TASK_BEGIN,5,-0.1842834263787728,-0.0059359664881191,1.8939486408140007,0.281632199112771,0.1950250519828162,-0.0932592670210747,6.254339746429426,-1.500861743524197,3,2024-09-16 17:21:59.911359131,1726507319.911359,2024-09-16 17:21:59.911358976,8,0,2.5216625377529027,29.307369057524205,[1. 0. 0. 0.],[0.0991826  0.81231088 0.07484068 0.01366584],"[-1.0849246e-01 -2.5508171e-01  4.5111942e-01 -3.9517250e-08
 -1.1218754e-04  2.3585471e-08  1.0000000e+00  1.0000000e+00
  0.0000000e+00 -1.0849246e-01 -3.2292869e-02]",1.5149446058476757,0,0
