,Unnamed: 0,time,MARKER,pid,L_O_DSI,L_D_DSI,L_O_DSphi,L_D_DSphi,R_O_DSI,R_D_DSI,R_O_DSphi,R_D_DSphi,trial_id,dateTimestamps,floatTimestamps,timestamps,episode,actions,rewards,discounted_rewards,chosen_actions,optimal_actions,states,continuous_optimal,binary_optimal,discrete_optimal
1,1,2024-09-16 20:40:14.938782976,TASK_BEGIN,6,0.1688490513550582,-0.2043979484167392,0.1766432841104844,0.3406076193374879,0.1920596605142047,-0.0897015171069723,0.1246216177080917,-0.2165262262721496,0,2024-09-16 20:38:28.278430908,1726519108.2784312,2024-09-16 20:38:28.278431232,0,0.0,0.1,0.1,[1. 0.],[0.39553769 0.60446231],"[ 0.98611111  0.29296875  0.48828125  1.          0.          1.
  1.          0.          1.          0.4609375  -0.8         0.46666667]",0.8168868079201113,0,0
2,2,2024-09-16 20:40:15.005771008,TASK_BEGIN,6,0.2938363336209969,-0.2312451084377431,0.1023157708954821,0.3048282057785945,0.1041105181303696,-0.033478558084064,0.1837051254592563,-0.3450045038257291,0,2024-09-16 20:38:28.278430908,1726519108.2784312,2024-09-16 20:38:28.278431232,0,0.0,0.1,0.1,[1. 0.],[0.39553769 0.60446231],"[ 0.98611111  0.29296875  0.48828125  1.          0.          1.
  1.          0.          1.          0.4609375  -0.8         0.46666667]",0.8168868079201113,0,0
3,3,2024-09-16 20:40:15.078760960,TASK_BEGIN,6,0.4101057748937647,-0.2569541015251378,0.0152957781645715,0.2736398157937106,0.0221668003802,0.0191321122419432,0.2439111987723357,-0.469642235660321,0,2024-09-16 20:38:28.278430908,1726519108.2784312,2024-09-16 20:38:28.278431232,0,0.0,0.1,0.1,[1. 0.],[0.39553769 0.60446231],"[ 0.98611111  0.29296875  0.48828125  1.          0.          1.
  1.          0.          1.          0.4609375  -0.8         0.46666667]",0.8168868079201113,0,0
4,4,2024-09-16 20:40:15.140766208,TASK_BEGIN,6,0.513902663148732,-0.2811221550956754,-0.0870627486251033,0.2483587160052349,-0.0512880784627579,0.0666588992024417,0.3041078579969557,-0.5881639668310504,0,2024-09-16 20:38:28.278430908,1726519108.2784312,2024-09-16 20:38:28.278431232,0,0.0,0.1,0.1,[1. 0.],[0.39553769 0.60446231],"[ 0.98611111  0.29296875  0.48828125  1.          0.          1.
  1.          0.          1.          0.4609375  -0.8         0.46666667]",0.8168868079201113,0,0
5,5,2024-09-16 20:40:16.092377856,TASK_BEGIN,6,0.6023064313931669,-0.303410763940772,-0.2065565091255837,0.2298339477691533,-0.1144022514118245,0.1079898821890502,0.3609468418858576,-0.6982777378788192,0,2024-09-16 20:38:29.503623047,1726519109.5036232,2024-09-16 20:38:29.503623168,0,0.0,0.1,2.299568541948448,[1. 0.],[0.32194404 0.67805596],"[ 0.63888889  0.29296875  0.48828125  1.          0.          1.
  1.          0.          1.          0.65039062  1.         -0.36666667]",0.8823335191832063,0,0
6,6,2024-09-16 20:40:16.161097984,TASK_BEGIN,6,0.6733861675486187,-0.3235707268226789,-0.343642223443391,0.2184055412108731,-0.165948788369511,0.1424219813077224,0.4090866471379303,-0.7977105995339623,0,2024-09-16 20:38:29.503623047,1726519109.5036232,2024-09-16 20:38:29.503623168,0,0.0,0.1,2.299568541948448,[1. 0.],[0.32194404 0.67805596],"[ 0.63888889  0.29296875  0.48828125  1.          0.          1.
  1.          0.          1.          0.65039062  1.         -0.36666667]",0.8823335191832063,0,0
7,7,2024-09-16 20:40:16.215528960,TASK_BEGIN,6,0.7262450291507836,-0.3414559284550748,-0.4969936135306912,0.2139246301862798,-0.2052567662728243,0.1696604825049959,0.4419728224986896,-0.8843374778287391,0,2024-09-16 20:38:29.503623047,1726519109.5036232,2024-09-16 20:38:29.503623168,0,0.0,0.1,2.299568541948448,[1. 0.],[0.32194404 0.67805596],"[ 0.63888889  0.29296875  0.48828125  1.          0.          1.
  1.          0.          1.          0.65039062  1.         -0.36666667]",0.8823335191832063,0,0
8,8,2024-09-16 20:40:16.296529152,TASK_BEGIN,6,0.7609678473998827,-0.3570206816102565,-0.6633143737603634,0.2158366920414651,-0.232139470863826,0.1897756126944031,0.4529519325165091,-0.9563852215934238,0,2024-09-16 20:38:29.503623047,1726519109.5036232,2024-09-16 20:38:29.503623168,0,0.0,0.1,2.299568541948448,[1. 0.],[0.32194404 0.67805596],"[ 0.63888889  0.29296875  0.48828125  1.          0.          1.
  1.          0.          1.          0.65039062  1.         -0.36666667]",0.8823335191832063,0,0
9,9,2024-09-16 20:40:16.364272896,TASK_BEGIN,6,0.7785166489833409,-0.3703081089401024,-0.8374937478319837,0.223305228988019,-0.2468486049515335,0.2031342748288414,0.4364367037016022,-1.0126424339129554,0,2024-09-16 20:38:29.503623047,1726519109.5036232,2024-09-16 20:38:29.503623168,0,0.0,0.1,2.299568541948448,[1. 0.],[0.32194404 0.67805596],"[ 0.63888889  0.29296875  0.48828125  1.          0.          1.
  1.          0.          1.          0.65039062  1.         -0.36666667]",0.8823335191832063,0,0
10,10,2024-09-16 20:40:16.431442944,TASK_BEGIN,6,0.7806030916853258,-0.3814390224228027,-1.0131365734421982,0.2353674823386303,-0.2500438078383667,0.2103256329288772,0.3889082815280311,-1.052626308558044,0,2024-09-16 20:38:29.503623047,1726519109.5036232,2024-09-16 20:38:29.503623168,0,0.0,0.1,2.299568541948448,[1. 0.],[0.32194404 0.67805596],"[ 0.63888889  0.29296875  0.48828125  1.          0.          1.
  1.          0.          1.          0.65039062  1.         -0.36666667]",0.8823335191832063,0,0
11,11,2024-09-16 20:40:16.493441792,TASK_BEGIN,6,0.7695280199601275,-0.3906047547617672,-1.18335539842012,0.2511008414678667,-0.2427439083326685,0.2120911093265775,0.3096243982341995,-1.0766985798276385,0,2024-09-16 20:38:29.503623047,1726519109.5036232,2024-09-16 20:38:29.503623168,0,0.0,0.1,2.299568541948448,[1. 0.],[0.32194404 0.67805596],"[ 0.63888889  0.29296875  0.48828125  1.          0.          1.
  1.          0.          1.          0.65039062  1.         -0.36666667]",0.8823335191832063,0,0
12,12,2024-09-16 20:40:17.432545024,TASK_BEGIN,6,0.7479702302799717,-0.398061870182393,-1.3414817917645825,0.2697352319342014,-0.2262350098254058,0.2092601613313975,0.2009481821168564,-1.0861159105291032,0,2024-09-16 20:38:31.227793945,1726519111.2277946,2024-09-16 20:38:31.227794688,0,0.0,0.1,4.528433576092385,[1. 0.],[0.00232411 0.99767589],"[ 0.16666667  0.29296875  0.48828125  0.66666667  0.21484375  0.41015625
  1.          0.          1.          0.43554688  0.9        -0.06666667]",1.0249614545775791,0,0
13,13,2024-09-16 20:40:17.495426048,TASK_BEGIN,6,0.7187386749808841,-0.4041233604476343,-1.4814068753855782,0.2906645852160079,-0.201944565634329,0.2026899779098655,0.0682829633225295,-1.0829795363346282,0,2024-09-16 20:38:31.278822021,1726519111.2788227,2024-09-16 20:38:31.278822656,0,0.0,-1.0,3.4831492403314614,[1. 0.],[2.33930595e-05 9.99976607e-01],"[ 0.15277778  0.29296875  0.48828125  0.65277778  0.21484375  0.41015625
  1.          0.          1.          0.45507812  1.         -0.1       ]",1.034621395807972,1,2
14,14,2024-09-16 20:40:17.572145920,TASK_BEGIN,6,0.684538087186171,-0.4091409562725725,-1.597603676382133,0.3133750971856907,-0.1713163445574678,0.1932106822167453,-0.0803059957855693,-1.0700725786279817,0,2024-09-16 20:38:31.278822021,1726519111.2788227,2024-09-16 20:38:31.278822656,0,0.0,-1.0,3.4831492403314614,[1. 0.],[2.33930595e-05 9.99976607e-01],"[ 0.15277778  0.29296875  0.48828125  0.65277778  0.21484375  0.41015625
  1.          0.          1.          0.45507812  1.         -0.1       ]",1.034621395807972,1,2
15,15,2024-09-16 20:40:17.633688064,TASK_BEGIN,6,0.6478031309872256,-0.413478228666894,-1.6851210864936124,0.337336355519162,-0.1357178294028804,0.1815818128550883,-0.2347040689405539,-1.050612967939698,0,2024-09-16 20:38:31.278822021,1726519111.2788227,2024-09-16 20:38:31.278822656,0,0.0,-1.0,3.4831492403314614,[1. 0.],[2.33930595e-05 9.99976607e-01],"[ 0.15277778  0.29296875  0.48828125  0.65277778  0.21484375  0.41015625
  1.          0.          1.          0.45507812  1.         -0.1       ]",1.034621395807972,1,2
16,16,2024-09-16 20:40:17.712108032,TASK_BEGIN,6,0.6106281267601333,-0.4174812587583086,-1.7398038634218191,0.3619039418119339,-0.0963947330283094,0.1684666434179324,-0.3836073443565514,-1.0279549838735924,0,2024-09-16 20:38:31.278822021,1726519111.2788227,2024-09-16 20:38:31.278822656,0,0.0,-1.0,3.4831492403314614,[1. 0.],[2.33930595e-05 9.99976607e-01],"[ 0.15277778  0.29296875  0.48828125  0.65277778  0.21484375  0.41015625
  1.          0.          1.          0.45507812  1.         -0.1       ]",1.034621395807972,1,2
17,17,2024-09-16 20:40:17.777532928,TASK_BEGIN,6,0.574778383850644,-0.4214563212046225,-1.7587412245169332,0.3862826097900155,-0.0544738498470121,0.1544282520974216,-0.5156257128224652,-1.005270771443083,0,2024-09-16 20:38:31.278822021,1726519111.2788227,2024-09-16 20:38:31.278822656,0,0.0,-1.0,3.4831492403314614,[1. 0.],[2.33930595e-05 9.99976607e-01],"[ 0.15277778  0.29296875  0.48828125  0.65277778  0.21484375  0.41015625
  1.          0.          1.          0.45507812  1.         -0.1       ]",1.034621395807972,1,2
18,18,2024-09-16 20:40:17.848181760,TASK_BEGIN,6,0.5417398825815944,-0.4256582500295137,-1.7406622877325193,0.4095660609010322,-0.0110037068312242,0.1399453550785106,-0.6204814564533776,-0.9852657373762445,0,2024-09-16 20:38:31.278822021,1726519111.2788227,2024-09-16 20:38:31.278822656,0,0.0,-1.0,3.4831492403314614,[1. 0.],[2.33930595e-05 9.99976607e-01],"[ 0.15277778  0.29296875  0.48828125  0.65277778  0.21484375  0.41015625
  1.          0.          1.          0.45507812  1.         -0.1       ]",1.034621395807972,1,2
19,23,2024-09-16 20:40:19.038886912,TASK_BEGIN,6,0.4554389682823503,-0.4543321868567778,-1.1674307248126636,0.4806679982465378,0.1936503899717339,0.074437514481178,-0.5634594623672732,-0.972732017229588,0,2024-09-16 20:38:32.834145020,1726519112.8341453,2024-09-16 20:38:32.834145280,1,0.0,0.1,0.1,[1. 0.],[0.38959098 0.61040902],"[ 0.98611111  0.3125      0.5078125   1.          0.          1.
  1.          0.          1.          0.4609375  -0.8         0.46666667]",0.8175743958480742,0,0
20,24,2024-09-16 20:40:19.095835904,TASK_BEGIN,6,0.4584399785562474,-0.4612813953596857,-0.993394555346212,0.4824485402751846,0.2249592812462722,0.0650663654622783,-0.4445604898032327,-0.9892036174238013,0,2024-09-16 20:38:32.834145020,1726519112.8341453,2024-09-16 20:38:32.834145280,1,0.0,0.1,0.1,[1. 0.],[0.38959098 0.61040902],"[ 0.98611111  0.3125      0.5078125   1.          0.          1.
  1.          0.          1.          0.4609375  -0.8         0.46666667]",0.8175743958480742,0,0
21,25,2024-09-16 20:40:19.174342912,TASK_BEGIN,6,0.4686070374346735,-0.4681243986698018,-0.8185570426057986,0.4799605490018083,0.2509204978053829,0.0576256943440203,-0.3047336744240961,-1.0110470853917115,0,2024-09-16 20:38:32.834145020,1726519112.8341453,2024-09-16 20:38:32.834145280,1,0.0,0.1,0.1,[1. 0.],[0.38959098 0.61040902],"[ 0.98611111  0.3125      0.5078125   1.          0.          1.
  1.          0.          1.          0.4609375  -0.8         0.46666667]",0.8175743958480742,0,0
22,26,2024-09-16 20:40:20.118126080,TASK_BEGIN,6,0.4855055166740075,-0.4744922130810625,-0.6521344708129895,0.4734004792269882,0.2708980185245206,0.0523486098394904,-0.153344877703765,-1.037535585164277,0,2024-09-16 20:38:33.691636963,1726519113.6916375,2024-09-16 20:38:33.691637504,1,1.0,0.1,1.654862385499124,[0. 1.],[0.38028866 0.61971134],"[ 0.75        0.3125      0.5078125   1.          0.          1.
  1.          0.          1.          0.40039062 -0.8         0.5       ]",0.8187881855196188,0,0
23,27,2024-09-16 20:40:20.183197952,TASK_BEGIN,6,0.5083268437174324,-0.479956249406014,-0.5024920333831823,0.46292739649479,0.2845325992617243,0.0494097361131656,-0.0001734291259588,-1.0677212881842515,0,2024-09-16 20:38:33.691636963,1726519113.6916375,2024-09-16 20:38:33.691637504,1,1.0,0.1,1.654862385499124,[0. 1.],[0.38028866 0.61971134],"[ 0.75        0.3125      0.5078125   1.          0.          1.
  1.          0.          1.          0.40039062 -0.8         0.5       ]",0.8187881855196188,0,0
24,28,2024-09-16 20:40:20.253545984,TASK_BEGIN,6,0.5359119550547438,-0.4840464949019463,-0.3764013124145015,0.448618102890756,0.2917673561251572,0.0489178558185984,0.1449802017325098,-1.1003503073842429,0,2024-09-16 20:38:33.691636963,1726519113.6916375,2024-09-16 20:38:33.691637504,1,1.0,0.1,1.654862385499124,[0. 1.],[0.38028866 0.61971134],"[ 0.75        0.3125      0.5078125   1.          0.          1.
  1.          0.          1.          0.40039062 -0.8         0.5       ]",0.8187881855196188,0,0
25,29,2024-09-16 20:40:20.305879040,TASK_BEGIN,6,0.5668256189536581,-0.486286133322399,-0.2785058858000546,0.4304915251109505,0.2928234414979322,0.0509187846769876,0.2726948768472196,-1.133820178684681,0,2024-09-16 20:38:33.691636963,1726519113.6916375,2024-09-16 20:38:33.691637504,1,1.0,0.1,1.654862385499124,[0. 1.],[0.38028866 0.61971134],"[ 0.75        0.3125      0.5078125   1.          0.          1.
  1.          0.          1.          0.40039062 -0.8         0.5       ]",0.8187881855196188,0,0
26,30,2024-09-16 20:40:20.383575808,TASK_BEGIN,6,0.5994720104061464,-0.4862397303589629,-0.2111882313709857,0.4086070730627614,0.2881677739524213,0.0553976743113426,0.3744860970935778,-1.166216297744111,0,2024-09-16 20:38:33.691636963,1726519113.6916375,2024-09-16 20:38:33.691637504,1,1.0,0.1,1.654862385499124,[0. 1.],[0.38028866 0.61971134],"[ 0.75        0.3125      0.5078125   1.          0.          1.
  1.          0.          1.          0.40039062 -0.8         0.5       ]",0.8187881855196188,0,0
27,31,2024-09-16 20:40:20.445177856,TASK_BEGIN,6,0.6322256830405265,-0.4835607962672829,-0.1749364748111999,0.3832099363849439,0.2784882106739719,0.0622751015051004,0.4434680377790264,-1.195429792701951,0,2024-09-16 20:38:33.691636963,1726519113.6916375,2024-09-16 20:38:33.691637504,1,1.0,0.1,1.654862385499124,[0. 1.],[0.38028866 0.61971134],"[ 0.75        0.3125      0.5078125   1.          0.          1.
  1.          0.          1.          0.40039062 -0.8         0.5       ]",0.8187881855196188,0,0
28,32,2024-09-16 20:40:20.524337920,TASK_BEGIN,6,0.6635397100594782,-0.4780229490770868,-0.1690060999755043,0.3548534566440199,0.2646447073393423,0.0714029162757688,0.4749180092007232,-1.2193209920377643,0,2024-09-16 20:38:33.691636963,1726519113.6916375,2024-09-16 20:38:33.691637504,1,1.0,0.1,1.654862385499124,[0. 1.],[0.38028866 0.61971134],"[ 0.75        0.3125      0.5078125   1.          0.          1.
  1.          0.          1.          0.40039062 -0.8         0.5       ]",0.8187881855196188,0,0
29,33,2024-09-16 20:40:21.463087872,TASK_BEGIN,6,0.6920165270396932,-0.4695298552175957,-0.1919900019159651,0.3244292722671374,0.2475672944869887,0.0825687607237951,0.4666170315722696,-1.2358956786375852,0,2024-09-16 20:38:34.653458008,1726519114.6534588,2024-09-16 20:38:34.653458944,1,0.0,0.1,3.1055091413092217,[1. 0.],[0.40612388 0.59387612],"[ 0.48611111  0.3125      0.5078125   0.98611111  0.25390625  0.44921875
  1.          0.          1.          0.47265625  1.         -0.13333333]",0.8343824913242225,0,0
30,34,2024-09-16 20:40:21.524667904,TASK_BEGIN,6,0.7164584674370883,-0.4581107278806372,-0.2420652181648694,0.2930997428486704,0.2281176693937208,0.0955122635206526,0.4190396342412472,-1.243512195560571,0,2024-09-16 20:38:34.653458008,1726519114.6534588,2024-09-16 20:38:34.653458944,1,0.0,0.1,3.1055091413092217,[1. 0.],[0.40612388 0.59387612],"[ 0.48611111  0.3125      0.5078125   0.98611111  0.25390625  0.44921875
  1.          0.          1.          0.47265625  1.         -0.13333333]",0.8343824913242225,0,0
31,35,2024-09-16 20:40:21.601472000,TASK_BEGIN,6,0.7359069840259571,-0.443910821983715,-0.3169394035432469,0.2621875715638265,0.2069731522419289,0.1099482570256327,0.3355301183113983,-1.2411458065160466,0,2024-09-16 20:38:35.360364014,1726519115.360364,2024-09-16 20:38:35.360364032,1,1.0,0.1,4.01043993533839,[0. 1.],[9.99724411e-01 2.75588725e-04],"[ 0.29166667  0.3125      0.5078125   0.79166667  0.25390625  0.44921875
  1.          0.          1.          0.3828125  -0.8         0.5       ]",1.011130839545808,0,0
32,36,2024-09-16 20:40:21.663084032,TASK_BEGIN,6,0.749665421231099,-0.42718421657562,-0.4136300235556792,0.2330744074538447,0.1845936478769582,0.1255873417159689,0.2224243529567577,-1.2286568560369064,0,2024-09-16 20:38:35.360364014,1726519115.360364,2024-09-16 20:38:35.360364032,1,1.0,0.1,4.01043993533839,[0. 1.],[9.99724411e-01 2.75588725e-04],"[ 0.29166667  0.3125      0.5078125   0.79166667  0.25390625  0.44921875
  1.          0.          1.          0.3828125  -0.8         0.5       ]",1.011130839545808,0,0
33,37,2024-09-16 20:40:21.739280128,TASK_BEGIN,6,0.7573107680570115,-0.408291668300258,-0.5282236515063287,0.2071180259612881,0.1612870882276489,0.1421447088508744,0.0888531075601329,-1.2069352922526602,0,2024-09-16 20:38:35.360364014,1726519115.360364,2024-09-16 20:38:35.360364032,1,1.0,0.1,4.01043993533839,[0. 1.],[9.99724411e-01 2.75588725e-04],"[ 0.29166667  0.3125      0.5078125   0.79166667  0.25390625  0.44921875
  1.          0.          1.          0.3828125  -0.8         0.5       ]",1.011130839545808,0,0
34,38,2024-09-16 20:40:21.802555136,TASK_BEGIN,6,0.7586985878848865,-0.3876973543165106,-0.65578438552012,0.1855767195821822,0.1373287292049037,0.1593355177760796,-0.0540140363161901,-1.17781502445164,0,2024-09-16 20:38:35.360364014,1726519115.360364,2024-09-16 20:38:35.360364032,1,1.0,0.1,4.01043993533839,[0. 1.],[9.99724411e-01 2.75588725e-04],"[ 0.29166667  0.3125      0.5078125   0.79166667  0.25390625  0.44921875
  1.          0.          1.          0.3828125  -0.8         0.5       ]",1.011130839545808,0,0
35,39,2024-09-16 20:40:21.874768128,TASK_BEGIN,6,0.7539469869370262,-0.3659536081232397,-0.7905707358852075,0.1695424159917453,0.1130633918418186,0.1768641072358416,-0.1942279129660743,-1.1437584139494026,0,2024-09-16 20:38:35.360364014,1726519115.360364,2024-09-16 20:38:35.360364032,1,1.0,0.1,4.01043993533839,[0. 1.],[9.99724411e-01 2.75588725e-04],"[ 0.29166667  0.3125      0.5078125   0.79166667  0.25390625  0.44921875
  1.          0.          1.          0.3828125  -0.8         0.5       ]",1.011130839545808,0,0
36,40,2024-09-16 20:40:22.806110208,TASK_BEGIN,6,0.7433931040677279,-0.3436712892343279,-0.9265824159139784,0.1598915853071345,0.0889437726693516,0.1944165760066572,-0.3204508360922599,-1.1074374235867066,0,2024-09-16 20:38:36.374759033,1726519116.3747594,2024-09-16 20:38:36.374759424,1,0.0,0.1,5.9150411374658685,[1. 0.],[0.69749906 0.30250094],"[ 0.01388889  0.3125      0.5078125   0.51388889  0.25390625  0.44921875
  1.          0.          1.          0.43945312  1.         -0.13333333]",0.9410391689947959,0,0
37,41,2024-09-16 20:40:22.886148864,TASK_BEGIN,6,0.7275446788010504,-0.3214854749585742,-1.0582595540290145,0.1572515937963978,0.0655064008715508,0.2116617322084993,-0.4230473197858773,-1.071384772420895,0,2024-09-16 20:38:36.374759033,1726519116.3747594,2024-09-16 20:38:36.374759424,1,0.0,0.1,5.9150411374658685,[1. 0.],[0.69749906 0.30250094],"[ 0.01388889  0.3125      0.5078125   0.51388889  0.25390625  0.44921875
  1.          0.          1.          0.43945312  1.         -0.13333333]",0.9410391689947959,0,0
38,42,2024-09-16 20:40:22.945399808,TASK_BEGIN,6,0.7070465421640731,-0.3000274526964517,-1.1811071085621607,0.1619820554739198,0.0433198008969504,0.2282621604021055,-0.4946990621496112,-1.037806299541843,0,2024-09-16 20:38:36.374759033,1726519116.3747594,2024-09-16 20:38:36.374759424,1,0.0,0.1,5.9150411374658685,[1. 0.],[0.69749906 0.30250094],"[ 0.01388889  0.3125      0.5078125   0.51388889  0.25390625  0.44921875
  1.          0.          1.          0.43945312  1.         -0.13333333]",0.9410391689947959,0,0
39,43,2024-09-16 20:40:23.021583104,TASK_BEGIN,6,0.6826512725568731,-0.2799074470191577,-1.2921262621851115,0.1741819729907714,0.0229386809309112,0.2438960419617702,-0.5306879210157007,-1.0085161207653628,0,2024-09-16 20:38:36.374759033,1726519116.3747594,2024-09-16 20:38:36.374759424,1,0.0,0.1,5.9150411374658685,[1. 0.],[0.69749906 0.30250094],"[ 0.01388889  0.3125      0.5078125   0.51388889  0.25390625  0.44921875
  1.          0.          1.          0.43945312  1.         -0.13333333]",0.9410391689947959,0,0
40,44,2024-09-16 20:40:23.089312000,TASK_BEGIN,6,0.6551837178579522,-0.2617074321140235,-1.3900124988267657,0.1937207427975001,0.0048865396825077,0.2582820104263788,-0.5290369001739598,-0.9849027172628992,0,2024-09-16 20:38:36.374759033,1726519116.3747594,2024-09-16 20:38:36.374759424,1,0.0,0.1,5.9150411374658685,[1. 0.],[0.69749906 0.30250094],"[ 0.01388889  0.3125      0.5078125   0.51388889  0.25390625  0.44921875
  1.          0.          1.          0.43945312  1.         -0.13333333]",0.9410391689947959,0,0
41,45,2024-09-16 20:40:23.153233152,TASK_BEGIN,6,0.6255151357338415,-0.2459785355304485,-1.475061679427993,0.2202666571388426,-0.0103156081581158,0.2711893146186009,-0.4905195342081229,-0.9678814686129052,0,2024-09-16 20:38:36.374759033,1726519116.3747594,2024-09-16 20:38:36.374759424,1,0.0,0.1,5.9150411374658685,[1. 0.],[0.69749906 0.30250094],"[ 0.01388889  0.3125      0.5078125   0.51388889  0.25390625  0.44921875
  1.          0.          1.          0.43945312  1.         -0.13333333]",0.9410391689947959,0,0
42,46,2024-09-16 20:40:23.224780032,TASK_BEGIN,6,0.5945635648682307,-0.2332334217876969,-1.5487210873496935,0.2532804031575142,-0.0220823626820608,0.2824260109711833,-0.4185030045470094,-0.9578419942098604,0,2024-09-16 20:38:36.374759033,1726519116.3747594,2024-09-16 20:38:36.374759424,1,0.0,0.1,5.9150411374658685,[1. 0.],[0.69749906 0.30250094],"[ 0.01388889  0.3125      0.5078125   0.51388889  0.25390625  0.44921875
  1.          0.          1.          0.43945312  1.         -0.13333333]",0.9410391689947959,0,0
43,47,2024-09-16 20:40:24.139764224,TASK_BEGIN,6,0.5633181623908943,-0.2239286366931149,-1.612850972782379,0.2919664418690786,-0.0297087875162415,0.2918210616081055,-0.318721366252328,-0.9545927251688394,0,2024-09-16 20:38:37.933320068,1726519117.9333205,2024-09-16 20:38:37.933320448,1,0.0,0.1,7.864461904976649,[1. 0.],[9.99948664e-01 5.13361647e-05],"[ 0.08333333  0.25390625  0.44921875  0.58333333  0.1953125   0.390625
  1.          0.          1.          0.328125    0.8        -0.03333333]",0.6657612048369183,0,0
44,48,2024-09-16 20:40:24.201762048,TASK_BEGIN,6,0.5328742444320642,-0.2184422338017823,-1.6689499053372112,0.3352200188440982,-0.0323735154816493,0.2992185523586387,-0.1990174379677073,-0.9573147509836882,0,2024-09-16 20:38:37.984323975,1726519117.984324,2024-09-16 20:38:37.984324096,1,0.0,0.1,7.885817285926882,[1. 0.],[0.99627241 0.00372759],"[ 0.06944444  0.25390625  0.44921875  0.56944444  0.1953125   0.390625
  1.          0.          1.          0.34570312  0.9        -0.06666667]",0.7700925560925642,0,0
45,49,2024-09-16 20:40:24.266722816,TASK_BEGIN,6,0.5044586016237531,-0.2170564772195876,-1.7176339961978906,0.3816239010628152,-0.0291974917944798,0.3044849283524592,-0.0688488353563223,-0.964588791887652,0,2024-09-16 20:38:38.033319092,1726519118.0333195,2024-09-16 20:38:38.033319424,1,0.0,0.1,7.906959113067613,[1. 0.],[0.75716262 0.24283738],"[ 0.05555556  0.25390625  0.44921875  0.55555556  0.1953125   0.390625
  1.          0.          1.          0.36523438  1.         -0.1       ]",0.9022449597310006,0,0
46,50,2024-09-16 20:40:24.341568768,TASK_BEGIN,6,0.4794197721356849,-0.2199520679515701,-1.7585006204622693,0.4295105301870815,-0.0193267924391586,0.3075199556100356,0.0616258107964992,-0.9745467280959716,0,2024-09-16 20:38:38.133318848,1726519118.133319,2024-09-16 20:38:38.133318912,1,0.0,-1.0,6.848610626717567,[1. 0.],[0.02013532 0.97986468],"[ 0.02777778  0.25390625  0.44921875  0.52777778  0.1953125   0.390625
  1.          0.          1.          0.40429688  1.         -0.16666667]",1.0116997925549822,1,2
47,51,2024-09-16 20:40:24.403207936,TASK_BEGIN,6,0.4591651192590336,-0.2272134059959121,-1.7903034238190665,0.4770530696180408,-0.0020170780631771,0.3082631230168884,0.1827374365076963,-0.9851063390903344,0,2024-09-16 20:38:38.133318848,1726519118.133319,2024-09-16 20:38:38.133318912,1,0.0,-1.0,6.848610626717567,[1. 0.],[0.02013532 0.97986468],"[ 0.02777778  0.25390625  0.44921875  0.52777778  0.1953125   0.390625
  1.          0.          1.          0.40429688  1.         -0.16666667]",1.0116997925549822,1,2
48,52,2024-09-16 20:40:24.479507200,TASK_BEGIN,6,0.4450395684045004,-0.2388364683185574,-1.8113174764382445,0.5223532164909236,0.0232905824515821,0.3066902832941532,0.2863971543558538,-0.9941912702213518,0,2024-09-16 20:38:38.133318848,1726519118.133319,2024-09-16 20:38:38.133318912,1,0.0,-1.0,6.848610626717567,[1. 0.],[0.02013532 0.97986468],"[ 0.02777778  0.25390625  0.44921875  0.52777778  0.1953125   0.390625
  1.          0.          1.          0.40429688  1.         -0.16666667]",1.0116997925549822,1,2
49,53,2024-09-16 20:40:24.541559808,TASK_BEGIN,6,0.4381525121570531,-0.2547271134462028,-1.8198808760628504,0.5635526509689698,0.0569095168041656,0.3028001932021349,0.366787069689686,-0.9998841753840806,0,2024-09-16 20:38:38.133318848,1726519118.133319,2024-09-16 20:38:38.133318912,1,0.0,-1.0,6.848610626717567,[1. 0.],[0.02013532 0.97986468],"[ 0.02777778  0.25390625  0.44921875  0.52777778  0.1953125   0.390625
  1.          0.          1.          0.40429688  1.         -0.16666667]",1.0116997925549822,1,2
50,60,2024-09-16 20:40:25.897314816,TASK_BEGIN,6,0.5809342253448522,-0.4536931523820391,-1.6140700180675571,0.6599102906398663,0.4801313370594363,0.2118852461626226,0.2832365155685142,-0.8632581387078109,0,2024-09-16 20:38:39.688421875,1726519119.6884222,2024-09-16 20:38:39.688422144,2,0.0,0.1,0.1,[1. 0.],[0.38159443 0.61840557],"[ 0.98611111  0.234375    0.4296875   1.          0.          1.
  1.          0.          1.          0.4609375  -0.8         0.46666667]",0.8145377574425208,0,0
51,61,2024-09-16 20:40:26.843017984,TASK_BEGIN,6,0.6160221279272996,-0.4877226259280836,-1.5854620893434124,0.6494517466884887,0.5502335622947346,0.1907890902997333,0.2304678625203558,-0.8228545333754962,0,2024-09-16 20:38:40.390301025,1726519120.3903012,2024-09-16 20:38:40.390301184,2,1.0,0.1,1.3994164535871148,[0. 1.],[0.34697118 0.65302882],"[ 0.79166667  0.234375    0.4296875   1.          0.          1.
  1.          0.          1.          0.37109375 -0.8         0.5       ]",0.8154697249938971,0,0
52,62,2024-09-16 20:40:26.910736128,TASK_BEGIN,6,0.6514528341564265,-0.5213670582003247,-1.5660501790112442,0.6359325796850401,0.6165114243090429,0.1684953798016302,0.1847841619575749,-0.7827224644262782,0,2024-09-16 20:38:40.690299072,1726519120.6902997,2024-09-16 20:38:40.690299648,2,1.0,0.1,1.902721317787415,[0. 1.],[0.55002821 0.44997179],"[ 0.70833333  0.234375    0.4296875   1.          0.          1.
  1.          0.          1.          0.30664062 -0.8         0.5       ]",0.8174052555970699,0,0
53,63,2024-09-16 20:40:26.978490112,TASK_BEGIN,6,0.6865842039952122,-0.5541485809177914,-1.5556871032469897,0.6204225180064793,0.6767829586219386,0.1456144142214736,0.1507085021893379,-0.7457917271871191,0,2024-09-16 20:38:40.740300781,1726519120.7403018,2024-09-16 20:38:40.740301824,2,1.0,0.1,1.9836941046095409,[0. 1.],[0.33327389 0.66672611],"[ 0.69444444  0.234375    0.4296875   1.          0.          1.
  1.          0.          1.          0.29101562 -0.8         0.5       ]",0.8301538035625795,0,0
54,64,2024-09-16 20:40:27.046246144,TASK_BEGIN,6,0.7209307987498942,-0.5856557386534614,-1.5521832183954958,0.6038468593612537,0.7291278608283973,0.1228695835795801,0.1320247714518299,-0.7150515834800909,0,2024-09-16 20:38:40.740300781,1726519120.7403018,2024-09-16 20:38:40.740301824,2,1.0,0.1,1.9836941046095409,[0. 1.],[0.33327389 0.66672611],"[ 0.69444444  0.234375    0.4296875   1.          0.          1.
  1.          0.          1.          0.29101562 -0.8         0.5       ]",0.8301538035625795,0,0
55,65,2024-09-16 20:40:27.114017024,TASK_BEGIN,6,0.7540570830142759,-0.6155290534054981,-1.551493597981284,0.5869920943426957,0.7720178003481759,0.1010273866809052,0.1318628494047118,-0.6932976524064505,0,2024-09-16 20:38:40.740300781,1726519120.7403018,2024-09-16 20:38:40.740301824,2,1.0,0.1,1.9836941046095409,[0. 1.],[0.33327389 0.66672611],"[ 0.69444444  0.234375    0.4296875   1.          0.          1.
  1.          0.          1.          0.29101562 -0.8         0.5       ]",0.8301538035625795,0,0
56,66,2024-09-16 20:40:27.175641088,TASK_BEGIN,6,0.7854889828435763,-0.6434428304261913,-1.5483322305810163,0.570557224905642,0.8043881745576957,0.0808261217127023,0.1525689679203085,-0.6828552740575322,0,2024-09-16 20:38:40.740300781,1726519120.7403018,2024-09-16 20:38:40.740301824,2,1.0,0.1,1.9836941046095409,[0. 1.],[0.33327389 0.66672611],"[ 0.69444444  0.234375    0.4296875   1.          0.          1.
  1.          0.          1.          0.29101562 -0.8         0.5       ]",0.8301538035625795,0,0
57,67,2024-09-16 20:40:27.238126080,TASK_BEGIN,6,0.814692880318604,-0.6690975494679874,-1.5370657855715255,0.5552176375949214,0.825657539882211,0.0629233327400237,0.1954125949156472,-0.6853105302593689,0,2024-09-16 20:38:40.740300781,1726519120.7403018,2024-09-16 20:38:40.740301824,2,1.0,0.1,1.9836941046095409,[0. 1.],[0.33327389 0.66672611],"[ 0.69444444  0.234375    0.4296875   1.          0.          1.
  1.          0.          1.          0.29101562 -0.8         0.5       ]",0.8301538035625795,0,0
58,68,2024-09-16 20:40:28.183016192,TASK_BEGIN,6,0.841122546330509,-0.6922292884277482,-1.5126831377910992,0.5416683353054466,0.835722475529803,0.0478659822652531,0.2602511688376887,-0.7012989567930089,0,2024-09-16 20:38:41.844379883,1726519121.8443806,2024-09-16 20:38:41.844380672,2,0.0,0.1,3.573883979152818,[1. 0.],[0.03265572 0.96734428],"[ 0.38888889  0.234375    0.4296875   0.88888889  0.21484375  0.41015625
  1.          0.          1.          0.421875    1.         -0.23333333]",0.9317356623684553,0,0
59,69,2024-09-16 20:40:28.245579008,TASK_BEGIN,6,0.8642941853423611,-0.7126314621314662,-1.4716858321273156,0.5306327910225217,0.8349432377272458,0.0360754443194459,0.3452914693590845,-0.7304092453874023,0,2024-09-16 20:38:41.844379883,1726519121.8443806,2024-09-16 20:38:41.844380672,2,0.0,0.1,3.573883979152818,[1. 0.],[0.03265572 0.96734428],"[ 0.38888889  0.234375    0.4296875   0.88888889  0.21484375  0.41015625
  1.          0.          1.          0.421875    1.         -0.23333333]",0.9317356623684553,0,0
60,70,2024-09-16 20:40:28.328535808,TASK_BEGIN,6,0.8838463514693584,-0.730177063824753,-1.4126966715385316,0.5228292464427186,0.8241144655472806,0.0278370297368489,0.4470604815384491,-0.7712378525917438,0,2024-09-16 20:38:41.844379883,1726519121.8443806,2024-09-16 20:38:41.844380672,2,0.0,0.1,3.573883979152818,[1. 0.],[0.03265572 0.96734428],"[ 0.38888889  0.234375    0.4296875   0.88888889  0.21484375  0.41015625
  1.          0.          1.          0.421875    1.         -0.23333333]",0.9317356623684553,0,0
61,71,2024-09-16 20:40:28.384841728,TASK_BEGIN,6,0.8995651341228929,-0.7448310344715247,-1.3366273304200698,0.518894164923816,0.8044074115365214,0.0232887582122749,0.5606208226285914,-0.8215832852698459,0,2024-09-16 20:38:41.844379883,1726519121.8443806,2024-09-16 20:38:41.844380672,2,0.0,0.1,3.573883979152818,[1. 0.],[0.03265572 0.96734428],"[ 0.38888889  0.234375    0.4296875   0.88888889  0.21484375  0.41015625
  1.          0.          1.          0.421875    1.         -0.23333333]",0.9317356623684553,0,0
62,72,2024-09-16 20:40:28.462479872,TASK_BEGIN,6,0.911375714598923,-0.7566490843171054,-1.2465739260561677,0.519300663833455,0.7772772463633753,0.0224122563168587,0.6799645187759888,-0.8787098246383387,0,2024-09-16 20:38:41.844379883,1726519121.8443806,2024-09-16 20:38:41.844380672,2,0.0,0.1,3.573883979152818,[1. 0.],[0.03265572 0.96734428],"[ 0.38888889  0.234375    0.4296875   0.88888889  0.21484375  0.41015625
  1.          0.          1.          0.421875    1.         -0.23333333]",0.9317356623684553,0,0
63,73,2024-09-16 20:40:28.524483840,TASK_BEGIN,6,0.9193002464416276,-0.7657641191198569,-1.1477517912270685,0.5243258997831726,0.7443424640836903,0.0250347513876906,0.7984801101692363,-0.9395886398670992,0,2024-09-16 20:38:41.844379883,1726519121.8443806,2024-09-16 20:38:41.844380672,2,0.0,0.1,3.573883979152818,[1. 0.],[0.03265572 0.96734428],"[ 0.38888889  0.234375    0.4296875   0.88888889  0.21484375  0.41015625
  1.          0.          1.          0.421875    1.         -0.23333333]",0.9317356623684553,0,0
64,74,2024-09-16 20:40:28.599513856,TASK_BEGIN,6,0.9233856138209544,-0.772365982954313,-1.0474214856332047,0.5340663687105064,0.7072613388775167,0.0308472515596556,0.9094242776400878,-1.0010746567231383,0,2024-09-16 20:38:42.345388916,1726519122.3453898,2024-09-16 20:38:42.345389824,2,1.0,0.1,4.1883358588189035,[0. 1.],[9.99613050e-01 3.86950489e-04],"[ 0.25        0.234375    0.4296875   0.75        0.21484375  0.41015625
  1.          0.          1.          0.30664062 -0.8         0.5       ]",0.9983533269793226,1,2
65,75,2024-09-16 20:40:29.541584896,TASK_BEGIN,6,0.9236339555059876,-0.7766844528751166,-0.95445069433736,0.5484382412941683,0.6676353277102324,0.0394335009238913,1.0063404041681734,-1.060032460385568,0,2024-09-16 20:38:42.547468994,1726519122.5474694,2024-09-16 20:38:42.547469312,2,0.0,0.1,4.417338614521361,[1. 0.],[0.99423749 0.00576251],"[ 0.19444444  0.234375    0.4296875   0.69444444  0.21484375  0.41015625
  1.          0.          1.          0.25       -0.6         0.43333333]",0.6107014906130429,1,2
66,76,2024-09-16 20:40:29.611766016,TASK_BEGIN,6,0.9199830022839348,-0.7789815085068257,-0.878312124862478,0.5671082613777284,0.6269443308109495,0.0503006040707269,1.0833657998120223,-1.1134219538886907,0,2024-09-16 20:38:42.649619141,1726519122.64962,2024-09-16 20:38:42.649619968,2,0.0,-1.0,3.4284335760923854,[1. 0.],[0.96644322 0.03355678],"[ 0.16666667  0.234375    0.4296875   0.66666667  0.21484375  0.41015625
  1.          0.          1.          0.23242188 -0.4         0.36666667]",0.5942033057695233,1,2
67,82,2024-09-16 20:40:30.868903936,TASK_BEGIN,6,0.81925522516193,-0.7677717386295011,-1.0576937170047571,0.6981055468166772,0.4201225437420807,0.1317273339784962,0.9342408590518206,-1.1807679806685087,0,2024-09-16 20:38:44.204544922,1726519124.2045457,2024-09-16 20:38:44.204545792,3,0.0,0.1,0.1,[1. 0.],[0.43968908 0.56031092],"[ 0.98611111  0.25390625  0.44921875  1.          0.          1.
  1.          0.          1.          0.4609375  -0.8         0.46666667]",0.8158654728285952,0,0
68,83,2024-09-16 20:40:30.936691200,TASK_BEGIN,6,0.7925630114773328,-0.7646904903603032,-1.1717132833976376,0.7043586176360999,0.399096453058297,0.1424788675486938,0.8062323973672184,-1.139087827007429,0,2024-09-16 20:38:44.204544922,1726519124.2045457,2024-09-16 20:38:44.204545792,3,0.0,0.1,0.1,[1. 0.],[0.43968908 0.56031092],"[ 0.98611111  0.25390625  0.44921875  1.          0.          1.
  1.          0.          1.          0.4609375  -0.8         0.46666667]",0.8158654728285952,0,0
69,84,2024-09-16 20:40:30.997073920,TASK_BEGIN,6,0.7642764970832355,-0.7619985786306158,-1.286122677729323,0.700784375341885,0.3840569058758103,0.150884269646377,0.6572088963444906,-1.08427785779452,0,2024-09-16 20:38:44.204544922,1726519124.2045457,2024-09-16 20:38:44.204545792,3,0.0,0.1,0.1,[1. 0.],[0.43968908 0.56031092],"[ 0.98611111  0.25390625  0.44921875  1.          0.          1.
  1.          0.          1.          0.4609375  -0.8         0.46666667]",0.8158654728285952,0,0
70,85,2024-09-16 20:40:31.058600192,TASK_BEGIN,6,0.7346689877477695,-0.7599096196745844,-1.389614353536345,0.6862476806474676,0.3760121929517397,0.1564990890047902,0.4925166322379289,-1.0191298595191656,0,2024-09-16 20:38:44.204544922,1726519124.2045457,2024-09-16 20:38:44.204545792,3,0.0,0.1,0.1,[1. 0.],[0.43968908 0.56031092],"[ 0.98611111  0.25390625  0.44921875  1.          0.          1.
  1.          0.          1.          0.4609375  -0.8         0.46666667]",0.8158654728285952,0,0
71,86,2024-09-16 20:40:31.135412736,TASK_BEGIN,6,0.703915666068615,-0.7586004681832916,-1.47226610032724,0.6602644725617934,0.3759116458046638,0.1590317201689519,0.3176973551311775,-0.9471334612481036,0,2024-09-16 20:38:44.204544922,1726519124.2045457,2024-09-16 20:38:44.204545792,3,0.0,0.1,0.1,[1. 0.],[0.43968908 0.56031092],"[ 0.98611111  0.25390625  0.44921875  1.          0.          1.
  1.          0.          1.          0.4609375  -0.8         0.46666667]",0.8158654728285952,0,0
72,87,2024-09-16 20:40:31.207628800,TASK_BEGIN,6,0.6721854225088238,-0.7582040422299356,-1.5263422191305167,0.6229798014454163,0.3844700879505653,0.1583783578097373,0.1381692505508685,-0.8722161484003276,0,2024-09-16 20:38:44.967673096,1726519124.967673,2024-09-16 20:38:44.967673088,3,1.0,0.1,1.4854222890512436,[0. 1.],[0.74459976 0.25540024],"[ 0.77777778  0.25390625  0.44921875  1.          0.          1.
  1.          0.          1.          0.43164062 -0.8         0.5       ]",0.8155661652778067,0,0
73,88,2024-09-16 20:40:31.274318080,TASK_BEGIN,6,0.639744646187509,-0.7588046120280166,-1.5466550646914137,0.5751261742087951,0.402010355450719,0.1546298909846333,-0.0408596262604845,-0.7984481615113409,0,2024-09-16 20:38:45.068303223,1726519125.0683038,2024-09-16 20:38:45.068303872,3,1.0,0.1,1.654862385499124,[0. 1.],[0.38722226 0.61277774],"[ 0.75        0.25390625  0.44921875  1.          0.          1.
  1.          0.          1.          0.40039062 -0.8         0.5       ]",0.8165841431690627,0,0
74,89,2024-09-16 20:40:32.206437888,TASK_BEGIN,6,0.6070179560377206,-0.7604369449579655,-1.5305502812528815,0.517994460049193,0.4283755781636197,0.1480532901890109,-0.214235264988683,-0.729773811569369,0,2024-09-16 20:38:45.423593018,1726519125.4235938,2024-09-16 20:38:45.423593728,3,1.0,0.1,2.2217864060085333,[0. 1.],[0.50313373 0.49686627],"[ 0.65277778  0.25390625  0.44921875  1.          0.          1.
  1.          0.          1.          0.31054688 -0.8         0.5       ]",0.8402531295189503,0,0
75,90,2024-09-16 20:40:32.283620096,TASK_BEGIN,6,0.5745874543631568,-0.763089095887627,-1.4775820986868835,0.4533871160642807,0.4629290338225578,0.1390551168248761,-0.3766742650082558,-0.669790381189132,0,2024-09-16 20:38:45.423593018,1726519125.4235938,2024-09-16 20:38:45.423593728,3,1.0,0.1,2.2217864060085333,[0. 1.],[0.50313373 0.49686627],"[ 0.65277778  0.25390625  0.44921875  1.          0.          1.
  1.          0.          1.          0.31054688 -0.8         0.5       ]",0.8402531295189503,0,0
76,91,2024-09-16 20:40:32.345138944,TASK_BEGIN,6,0.5431527906047734,-0.7667065457634139,-1.3890806658754973,0.3835372003731414,0.504601909708082,0.1281355599964329,-0.5228357869153231,-0.6215602738029898,0,2024-09-16 20:38:45.423593018,1726519125.4235938,2024-09-16 20:38:45.423593728,3,1.0,0.1,2.2217864060085333,[0. 1.],[0.50313373 0.49686627],"[ 0.65277778  0.25390625  0.44921875  1.          0.          1.
  1.          0.          1.          0.31054688 -0.8         0.5       ]",0.8402531295189503,0,0
77,92,2024-09-16 20:40:32.407164928,TASK_BEGIN,6,0.5134741968928888,-0.7711957189750658,-1.2679093440543283,0.3110296307093359,0.5519307119622543,0.1158422716517876,-0.6477313638907976,-0.5874382440015289,0,2024-09-16 20:38:45.423593018,1726519125.4235938,2024-09-16 20:38:45.423593728,3,1.0,0.1,2.2217864060085333,[0. 1.],[0.50313373 0.49686627],"[ 0.65277778  0.25390625  0.44921875  1.          0.          1.
  1.          0.          1.          0.31054688 -0.8         0.5       ]",0.8402531295189503,0,0
78,93,2024-09-16 20:40:32.484780032,TASK_BEGIN,6,0.48630329779242,-0.7764271953131443,-1.1184510091134108,0.2387433805251683,0.6030755162991376,0.1027308622119339,-0.747295112121729,-0.5689159674795732,0,2024-09-16 20:38:45.525594971,1726519125.5255954,2024-09-16 20:38:45.525595392,3,0.0,0.1,2.3765728565289637,[1. 0.],[0.73232721 0.26767279],"[ 0.625       0.25390625  0.44921875  1.          0.          1.
  1.          0.          1.          0.28515625 -0.6         0.43333333]",0.7239482969342427,0,0
79,94,2024-09-16 20:40:32.547265024,TASK_BEGIN,6,0.4623157431395414,-0.782241669439169,-0.9464857797809438,0.1697663263400728,0.6558663819960028,0.0893334202829587,-0.8188546233995141,-0.5665149021248308,0,2024-09-16 20:38:46.334388916,1726519126.3343892,2024-09-16 20:38:46.334389248,3,0.0,0.1,3.5089737163159778,[1. 0.],[0.99615644 0.00384356],"[ 0.40277778  0.25390625  0.44921875  0.90277778  0.2734375   0.46875
  1.          0.          1.          0.36328125  1.         -0.1       ]",0.7623394092029608,0,0
80,95,2024-09-16 20:40:32.625452800,TASK_BEGIN,6,0.4420754561096588,-0.7884623115695266,-0.7587308690641578,0.107241535904821,0.7079230722068145,0.0761324908196237,-0.8613127102451665,-0.579765653707103,0,2024-09-16 20:38:46.384423096,1726519126.3844235,2024-09-16 20:38:46.384423424,3,0.0,0.1,3.573883979152818,[1. 0.],[0.79357939 0.20642061],"[ 0.38888889  0.25390625  0.44921875  0.88888889  0.2734375   0.46875
  1.          0.          1.          0.3828125   1.         -0.13333333]",0.8933266761067591,0,0
81,96,2024-09-16 20:40:33.555328000,TASK_BEGIN,6,0.4260393849856879,-0.7949119766455968,-0.5622881069908154,0.054168034449435,0.7568425098834705,0.0635382082436064,-0.8749846038968653,-0.6072847390190277,0,2024-09-16 20:38:46.634404053,1726519126.6344047,2024-09-16 20:38:46.634404608,3,1.0,0.1,3.8888276046713495,[0. 1.],[0.48197241 0.51802759],"[ 0.31944444  0.25390625  0.44921875  0.81944444  0.2734375   0.46875
  1.          0.          1.          0.375      -0.8         0.5       ]",0.8465801153750749,0,0
82,97,2024-09-16 20:40:33.636720896,TASK_BEGIN,6,0.4145718102944671,-0.801427747580339,-0.3643236475523135,0.0131876974626293,0.8004063628900846,0.0518708571554371,-0.8611887609238478,-0.646935640058405,0,2024-09-16 20:38:47.398510986,1726519127.398512,2024-09-16 20:38:47.398511872,3,0.0,0.1,5.617304224744376,[1. 0.],[0.76041548 0.23958452],"[0.11111111 0.25390625 0.44921875 0.61111111 0.2734375  0.46875
 1.         0.         1.         0.375      0.7        0.        ]",0.9299390716371801,0,0
83,98,2024-09-16 20:40:33.704464128,TASK_BEGIN,6,0.4079260751036377,-0.8078666346148686,-0.171898348286991,-0.0136358762106626,0.8367615552705375,0.0413544964695459,-0.8217739623088623,-0.696063879689174,0,2024-09-16 20:38:47.398510986,1726519127.398512,2024-09-16 20:38:47.398511872,3,0.0,0.1,5.617304224744376,[1. 0.],[0.76041548 0.23958452],"[0.11111111 0.25390625 0.44921875 0.61111111 0.2734375  0.46875
 1.         0.         1.         0.375      0.7        0.        ]",0.9299390716371801,0,0
84,99,2024-09-16 20:40:33.772175104,TASK_BEGIN,6,0.4061843517959347,-0.8141040446908026,0.0083483277027263,-0.0250260334419536,0.8645477868120671,0.0321241673893931,-0.7587682749755662,-0.751785962131514,0,2024-09-16 20:38:47.398510986,1726519127.398512,2024-09-16 20:38:47.398511872,3,0.0,0.1,5.617304224744376,[1. 0.],[0.76041548 0.23958452],"[0.11111111 0.25390625 0.44921875 0.61111111 0.2734375  0.46875
 1.         0.         1.         0.375      0.7        0.        ]",0.9299390716371801,0,0
85,100,2024-09-16 20:40:33.840008960,TASK_BEGIN,6,0.4091918872394835,-0.8200333607641292,0.17069448397134,-0.0206377692913832,0.8829617134204015,0.0242433926482855,-0.674263323958051,-0.8112780368942412,0,2024-09-16 20:38:47.398510986,1726519127.398512,2024-09-16 20:38:47.398511872,3,0.0,0.1,5.617304224744376,[1. 0.],[0.76041548 0.23958452],"[0.11111111 0.25390625 0.44921875 0.61111111 0.2734375  0.46875
 1.         0.         1.         0.375      0.7        0.        ]",0.9299390716371801,0,0
86,101,2024-09-16 20:40:33.907196160,TASK_BEGIN,6,0.4165322949586537,-0.825573893963303,0.3107283976693769,-0.0010879780146557,0.8917664967901621,0.0177249658232062,-0.5704831644124524,-0.8720061048572391,0,2024-09-16 20:38:47.398510986,1726519127.398512,2024-09-16 20:38:47.398511872,3,0.0,0.1,5.617304224744376,[1. 0.],[0.76041548 0.23958452],"[0.11111111 0.25390625 0.44921875 0.61111111 0.2734375  0.46875
 1.         0.         1.         0.375      0.7        0.        ]",0.9299390716371801,0,0
87,102,2024-09-16 20:40:33.971834880,TASK_BEGIN,6,0.4275598872580182,-0.8306863141326896,0.4254139570026196,0.0321368248969704,0.8912708743089158,0.0125486438341768,-0.449878147578452,-0.9318782026743482,0,2024-09-16 20:38:47.398510986,1726519127.398512,2024-09-16 20:38:47.398511872,3,0.0,0.1,5.617304224744376,[1. 0.],[0.76041548 0.23958452],"[0.11111111 0.25390625 0.44921875 0.61111111 0.2734375  0.46875
 1.         0.         1.         0.375      0.7        0.        ]",0.9299390716371801,0,0
88,103,2024-09-16 20:40:34.893081088,TASK_BEGIN,6,0.4414699064177285,-0.8353859561052129,0.512908448679182,0.0768487179391795,0.8822825746869642,0.0086752838011874,-0.3151744266961658,-0.9893254861351958,0,2024-09-16 20:38:48.516972900,1726519128.5169733,2024-09-16 20:38:48.516973312,3,0.0,-1.0,5.38669700191154,[1. 0.],[3.51931788e-04 9.99648068e-01],"[ 0.30555556  0.2734375   0.46875     0.80555556  0.3125      0.5078125
  1.          0.          1.          0.43554688  1.         -0.16666667]",1.0151983646720777,1,2
89,104,2024-09-16 20:40:34.947362048,TASK_BEGIN,6,0.4573698641518409,-0.8397414927428597,0.5723387942173043,0.1303449684024983,0.8660117387221864,0.0060609954657676,-0.1694551111543644,-1.043312791384171,0,2024-09-16 20:38:48.516972900,1726519128.5169733,2024-09-16 20:38:48.516973312,3,0.0,-1.0,5.38669700191154,[1. 0.],[3.51931788e-04 9.99648068e-01],"[ 0.30555556  0.2734375   0.46875     0.80555556  0.3125      0.5078125
  1.          0.          1.          0.43554688  1.         -0.16666667]",1.0151983646720777,1,2
90,105,2024-09-16 20:40:35.025206016,TASK_BEGIN,6,0.4743237214352837,-0.843852910445218,0.6036508189074242,0.1895939287462343,0.8439174043423411,0.0046703466866603,-0.0163385640388817,-1.093276113151224,0,2024-09-16 20:38:48.516972900,1726519128.5169733,2024-09-16 20:38:48.516973312,3,0.0,-1.0,5.38669700191154,[1. 0.],[3.51931788e-04 9.99648068e-01],"[ 0.30555556  0.2734375   0.46875     0.80555556  0.3125      0.5078125
  1.          0.          1.          0.43554688  1.         -0.16666667]",1.0151983646720777,1,2
91,106,2024-09-16 20:40:35.091897088,TASK_BEGIN,6,0.4913730561170861,-0.8478153105292571,0.6075746766921183,0.2514332968217372,0.817536220709691,0.0044826112076264,0.1397940207106946,-1.138994206672493,0,2024-09-16 20:38:48.516972900,1726519128.5169733,2024-09-16 20:38:48.516973312,3,0.0,-1.0,5.38669700191154,[1. 0.],[3.51931788e-04 9.99648068e-01],"[ 0.30555556  0.2734375   0.46875     0.80555556  0.3125      0.5078125
  1.          0.          1.          0.43554688  1.         -0.16666667]",1.0151983646720777,1,2
92,107,2024-09-16 20:40:35.149768192,TASK_BEGIN,6,0.5075638642244631,-0.8516853633337194,0.5856983412355903,0.3127862360685703,0.7883428795030301,0.0054886361036245,0.2936133383624373,-1.1804094305295154,0,2024-09-16 20:38:48.516972900,1726519128.5169733,2024-09-16 20:38:48.516973312,3,0.0,-1.0,5.38669700191154,[1. 0.],[3.51931788e-04 9.99648068e-01],"[ 0.30555556  0.2734375   0.46875     0.80555556  0.3125      0.5078125
  1.          0.          1.          0.43554688  1.         -0.16666667]",1.0151983646720777,1,2
93,108,2024-09-16 20:40:35.226501888,TASK_BEGIN,6,0.5220016005545748,-0.8554691552463999,0.5405622936161159,0.3708720344491867,0.7576605544820677,0.0076826172227777,0.4387630339602756,-1.2174338622767134,0,2024-09-16 20:38:48.516972900,1726519128.5169733,2024-09-16 20:38:48.516973312,3,0.0,-1.0,5.38669700191154,[1. 0.],[3.51931788e-04 9.99648068e-01],"[ 0.30555556  0.2734375   0.46875     0.80555556  0.3125      0.5078125
  1.          0.          1.          0.43554688  1.         -0.16666667]",1.0151983646720777,1,2
94,109,2024-09-16 20:40:35.288989952,TASK_BEGIN,6,0.533934769841074,-0.8591407847132475,0.4756899622179844,0.4233743130755881,0.7266141439529508,0.0110535896976186,0.5679649301143888,-1.2498069631730542,0,2024-09-16 20:38:48.516972900,1726519128.5169733,2024-09-16 20:38:48.516973312,3,0.0,-1.0,5.38669700191154,[1. 0.],[3.51931788e-04 9.99648068e-01],"[ 0.30555556  0.2734375   0.46875     0.80555556  0.3125      0.5078125
  1.          0.          1.          0.43554688  1.         -0.16666667]",1.0151983646720777,1,2
95,111,2024-09-16 20:40:36.311005184,TASK_BEGIN,6,0.5484942938170214,-0.8661133600870874,0.3054029874761688,0.5051834576470795,0.6668714972267202,0.0212046941684018,0.7477584184484015,-1.2986658232203705,0,2024-09-16 20:38:50.068849121,1726519130.0688488,2024-09-16 20:38:50.068848896,4,0.0,0.1,0.1,[1. 0.],[0.43968908 0.56031092],"[ 0.98611111  0.25390625  0.44921875  1.          0.          1.
  1.          0.          1.          0.4609375  -0.8         0.46666667]",0.8158654728285952,0,0
96,112,2024-09-16 20:40:36.367261952,TASK_BEGIN,6,0.5509610270537485,-0.869507525335143,0.2113409982016395,0.5326225063048292,0.6393937026287158,0.0278529025941125,0.7847705572808397,-1.3140949064459193,0,2024-09-16 20:38:50.068849121,1726519130.0688488,2024-09-16 20:38:50.068848896,4,0.0,0.1,0.1,[1. 0.],[0.43968908 0.56031092],"[ 0.98611111  0.25390625  0.44921875  1.          0.          1.
  1.          0.          1.          0.4609375  -0.8         0.46666667]",0.8158654728285952,0,0
97,113,2024-09-16 20:40:36.445839872,TASK_BEGIN,6,0.5506185457629449,-0.8729707553611364,0.1199922210126895,0.5505422540957146,0.6140327725493998,0.0353908715763091,0.7805531997211996,-1.3230175692426784,0,2024-09-16 20:38:50.068849121,1726519130.0688488,2024-09-16 20:38:50.068848896,4,0.0,0.1,0.1,[1. 0.],[0.43968908 0.56031092],"[ 0.98611111  0.25390625  0.44921875  1.          0.          1.
  1.          0.          1.          0.4609375  -0.8         0.46666667]",0.8158654728285952,0,0
98,114,2024-09-16 20:40:36.514162176,TASK_BEGIN,6,0.5481340107695019,-0.8766253136245356,0.0382481127761887,0.5588768140012895,0.5910242234967102,0.0436350988891061,0.7340247470722794,-1.3252867276493774,0,2024-09-16 20:38:50.068849121,1726519130.0688488,2024-09-16 20:38:50.068848896,4,0.0,0.1,0.1,[1. 0.],[0.43968908 0.56031092],"[ 0.98611111  0.25390625  0.44921875  1.          0.          1.
  1.          0.          1.          0.4609375  -0.8         0.46666667]",0.8158654728285952,0,0
99,115,2024-09-16 20:40:36.580828928,TASK_BEGIN,6,0.5444196806283972,-0.8805912160868701,-0.0272246519769596,0.5577238186257254,0.5705404245441988,0.0523544014256339,0.6474564829896192,-1.3209685521179366,0,2024-09-16 20:38:50.068849121,1726519130.0688488,2024-09-16 20:38:50.068848896,4,0.0,0.1,0.1,[1. 0.],[0.43968908 0.56031092],"[ 0.98611111  0.25390625  0.44921875  1.          0.          1.
  1.          0.          1.          0.4609375  -0.8         0.46666667]",0.8158654728285952,0,0
100,116,2024-09-16 20:40:36.647417088,TASK_BEGIN,6,0.5405423709188399,-0.8849716726897313,-0.0705295433264791,0.5473348528337882,0.5527342114275864,0.0612828576149461,0.5267818187699427,-1.3103970105537202,0,2024-09-16 20:38:50.068849121,1726519130.0688488,2024-09-16 20:38:50.068848896,4,0.0,0.1,0.1,[1. 0.],[0.43968908 0.56031092],"[ 0.98611111  0.25390625  0.44921875  1.          0.          1.
  1.          0.          1.          0.4609375  -0.8         0.46666667]",0.8158654728285952,0,0
101,117,2024-09-16 20:40:37.590406912,TASK_BEGIN,6,0.537619779792942,-0.8898414990349028,-0.0870705430918254,0.5281715384539225,0.5377828874731405,0.0701317321309697,0.3814527204791246,-1.2942287743236025,0,2024-09-16 20:38:50.929709961,1726519130.9297101,2024-09-16 20:38:50.929710080,4,1.0,0.1,1.654862385499124,[0. 1.],[0.32037968 0.67962032],"[ 0.75        0.25390625  0.44921875  1.          0.          1.
  1.          0.          1.          0.29492188 -0.8         0.5       ]",0.8169919986232003,0,0
102,118,2024-09-16 20:40:37.659262976,TASK_BEGIN,6,0.5367268869376477,-0.8952361462727976,-0.0738806160699274,0.5009541110971182,0.5259322758519294,0.0785964688887095,0.2236378372292423,-1.273444424818671,0,2024-09-16 20:38:50.929709961,1726519130.9297101,2024-09-16 20:38:50.929710080,4,1.0,0.1,1.654862385499124,[0. 1.],[0.32037968 0.67962032],"[ 0.75        0.25390625  0.44921875  1.          0.          1.
  1.          0.          1.          0.29492188 -0.8         0.5       ]",0.8169919986232003,0,0
103,119,2024-09-16 20:40:37.716040960,TASK_BEGIN,6,0.5388096214569517,-0.901137088655796,-0.029659220106931,0.466646292195201,0.5175184021875482,0.0863623474365162,0.066875766017315,-1.2492956255813452,0,2024-09-16 20:38:50.929709961,1726519130.9297101,2024-09-16 20:38:50.929710080,4,1.0,0.1,1.654862385499124,[0. 1.],[0.32037968 0.67962032],"[ 0.75        0.25390625  0.44921875  1.          0.          1.
  1.          0.          1.          0.29492188 -0.8         0.5       ]",0.8169919986232003,0,0
104,120,2024-09-16 20:40:37.795051008,TASK_BEGIN,6,0.5446032191227086,-0.9074534349992752,0.0453194741793794,0.4263901290503273,0.5129498733285927,0.0931123430919903,-0.0754568863758984,-1.2232301594239028,0,2024-09-16 20:38:50.929709961,1726519130.9297101,2024-09-16 20:38:50.929710080,4,1.0,0.1,1.654862385499124,[0. 1.],[0.32037968 0.67962032],"[ 0.75        0.25390625  0.44921875  1.          0.          1.
  1.          0.          1.          0.29492188 -0.8         0.5       ]",0.8169919986232003,0,0
105,121,2024-09-16 20:40:37.861542912,TASK_BEGIN,6,0.5545598774392518,-0.9140062526045548,0.1492143214732819,0.3814310281536159,0.5126524382014787,0.0985388548532317,-0.191549664360183,-1.196787493275656,0,2024-09-16 20:38:50.929709961,1726519130.9297101,2024-09-16 20:38:50.929710080,4,1.0,0.1,1.654862385499124,[0. 1.],[0.32037968 0.67962032],"[ 0.75        0.25390625  0.44921875  1.          0.          1.
  1.          0.          1.          0.29492188 -0.8         0.5       ]",0.8169919986232003,0,0
106,122,2024-09-16 20:40:37.919513856,TASK_BEGIN,6,0.5687870970038102,-0.9205251410562284,0.2785029317015438,0.3330621645146074,0.5169757127255863,0.1023632898879954,-0.2722838424301129,-1.171429987498044,0,2024-09-16 20:38:50.929709961,1726519130.9297101,2024-09-16 20:38:50.929710080,4,1.0,0.1,1.654862385499124,[0. 1.],[0.32037968 0.67962032],"[ 0.75        0.25390625  0.44921875  1.          0.          1.
  1.          0.          1.          0.29492188 -0.8         0.5       ]",0.8169919986232003,0,0
107,123,2024-09-16 20:40:37.998142976,TASK_BEGIN,6,0.5869998758116607,-0.9266640230462204,0.4279357736479822,0.2825981784913989,0.5260708230699714,0.1043652407305421,-0.3119737398402618,-1.1483342632321467,0,2024-09-16 20:38:51.030738037,1726519131.0307386,2024-09-16 20:38:51.030738688,4,0.0,0.1,1.8209306240276917,[1. 0.],[0.56664485 0.43335515],"[ 0.72222222  0.25390625  0.44921875  1.          0.          1.
  1.          0.          1.          0.26953125 -0.6         0.43333333]",0.7686055286990052,0,0
108,124,2024-09-16 20:40:38.942301952,TASK_BEGIN,6,0.6085027561544969,-0.9320360534998154,0.5908027844619494,0.2313668600973428,0.5397840845911515,0.1044130390797825,-0.3086285265714747,-1.1282400876805765,0,2024-09-16 20:38:51.996711914,1726519131.9967127,2024-09-16 20:38:51.996712704,4,1.0,0.1,3.2427095093971685,[0. 1.],[0.8085262 0.1914738],"[ 0.45833333  0.25390625  0.44921875  0.95833333  0.234375    0.4296875
  1.          0.          1.          0.3359375  -0.8         0.5       ]",0.968685999354881,0,0
109,125,2024-09-16 20:40:39.004800000,TASK_BEGIN,6,0.6322212844575109,-0.936259086326109,0.7595318712955641,0.1807004713147583,0.5576158285550995,0.1024842464496845,-0.2637876229477852,-1.1114228144432463,0,2024-09-16 20:38:52.760709961,1726519132.7607102,2024-09-16 20:38:52.760710144,4,0.0,0.1,4.1883358588189035,[1. 0.],[9.99990923e-01 9.07663065e-06],"[0.25       0.25390625 0.44921875 0.75       0.234375   0.4296875
 1.         0.         1.         0.3359375  0.7        0.        ]",0.6721651469903762,0,0
110,126,2024-09-16 20:40:39.069433856,TASK_BEGIN,6,0.6567854970791303,-0.9389977232180202,0.926407426715253,0.1319102725490311,0.5787481840465644,0.0986729611776119,-0.182118695215115,-1.0977597519225688,0,2024-09-16 20:38:52.862304932,1726519132.8623052,2024-09-16 20:38:52.862305280,4,0.0,0.1,4.303987975228407,[1. 0.],[0.57420871 0.42579129],"[ 0.22222222  0.25390625  0.44921875  0.72222222  0.234375    0.4296875
  1.          0.          1.          0.36914062  0.9        -0.06666667]",0.9780076526630331,0,0
111,127,2024-09-16 20:40:39.146123776,TASK_BEGIN,6,0.6806524667717214,-0.9399908185968856,1.0841908213322329,0.0862326846541903,0.6021142453150286,0.0931870096090626,-0.0708328854859659,-1.0868431590750411,0,2024-09-16 20:38:52.862304932,1726519132.8623052,2024-09-16 20:38:52.862305280,4,0.0,0.1,4.303987975228407,[1. 0.],[0.57420871 0.42579129],"[ 0.22222222  0.25390625  0.44921875  0.72222222  0.234375    0.4296875
  1.          0.          1.          0.36914062  0.9        -0.06666667]",0.9780076526630331,0,0
112,128,2024-09-16 20:40:39.212850176,TASK_BEGIN,6,0.7022518571170818,-0.9390634064515468,1.2265853960528568,0.0447485497279746,0.6264851268911398,0.0863364024813754,0.0612391265748281,-1.0781476579013398,0,2024-09-16 20:38:53.011192139,1726519133.0111923,2024-09-16 20:38:53.011192320,4,1.0,0.1,4.473165228376147,[0. 1.],[0.98470028 0.01529972],"[ 0.18055556  0.25390625  0.44921875  0.68055556  0.234375    0.4296875
  1.          0.          1.          0.32226562 -0.8         0.5       ]",0.9850366290147325,0,0
113,129,2024-09-16 20:40:39.279987968,TASK_BEGIN,6,0.7201312508874442,-0.9361292778807476,1.3486493133370598,0.0082919202467769,0.6505604781384839,0.0785120865362678,0.2049306927231073,-1.071255029397909,0,2024-09-16 20:38:53.011192139,1726519133.0111923,2024-09-16 20:38:53.011192320,4,1.0,0.1,4.473165228376147,[0. 1.],[0.98470028 0.01529972],"[ 0.18055556  0.25390625  0.44921875  0.68055556  0.234375    0.4296875
  1.          0.          1.          0.32226562 -0.8         0.5       ]",0.9850366290147325,0,0
114,130,2024-09-16 20:40:39.346147840,TASK_BEGIN,6,0.733066788391113,-0.9311890354829302,1.4471856730645285,-0.0226141699825299,0.673057997848176,0.0701545850757733,0.3520144649193211,-1.0660621765095608,0,2024-09-16 20:38:53.011192139,1726519133.0111923,2024-09-16 20:38:53.011192320,4,1.0,0.1,4.473165228376147,[0. 1.],[0.98470028 0.01529972],"[ 0.18055556  0.25390625  0.44921875  0.68055556  0.234375    0.4296875
  1.          0.          1.          0.32226562 -0.8         0.5       ]",0.9850366290147325,0,0
115,131,2024-09-16 20:40:40.284470016,TASK_BEGIN,6,0.7401101773732187,-0.9243239012012776,1.520898188960487,-0.0477492254361748,0.6928087553272028,0.0617154910119353,0.4959781194896401,-1.0628592938646213,0,2024-09-16 20:38:54.023276123,1726519134.023276,2024-09-16 20:38:54.023276032,4,0.0,0.1,6.230625882640316,[1. 0.],[0.16572361 0.83427639],"[-0.09722222  0.25390625  0.44921875  0.40277778  0.234375    0.4296875
  0.90277778  0.234375    0.4296875   0.4140625   1.         -0.16666667]",0.9233820499715352,0,0
116,132,2024-09-16 20:40:40.354161152,TASK_BEGIN,6,0.7405762471286136,-0.9156845392855112,1.570120529782923,-0.0671115681139425,0.708853631290075,0.0536207336155528,0.6321176147064725,-1.062222178406074,0,2024-09-16 20:38:54.023276123,1726519134.023276,2024-09-16 20:38:54.023276032,4,0.0,0.1,6.230625882640316,[1. 0.],[0.16572361 0.83427639],"[-0.09722222  0.25390625  0.44921875  0.40277778  0.234375    0.4296875
  0.90277778  0.234375    0.4296875   0.4140625   1.         -0.16666667]",0.9233820499715352,0,0
117,133,2024-09-16 20:40:40.423244800,TASK_BEGIN,6,0.7340141628014392,-0.9054760198904144,1.5962400092721476,-0.0808143889072048,0.7205088560978697,0.0462467326888373,0.7571461345386764,-1.0647716411221515,0,2024-09-16 20:38:54.023276123,1726519134.023276,2024-09-16 20:38:54.023276032,4,0.0,0.1,6.230625882640316,[1. 0.],[0.16572361 0.83427639],"[-0.09722222  0.25390625  0.44921875  0.40277778  0.234375    0.4296875
  0.90277778  0.234375    0.4296875   0.4140625   1.         -0.16666667]",0.9233820499715352,0,0
118,134,2024-09-16 20:40:40.485309952,TASK_BEGIN,6,0.7202032939171018,-0.8939396526888579,1.601081419753587,-0.0890135484577833,0.7273676977692183,0.0399127815914177,0.8686309144976601,-1.0709217837378855,0,2024-09-16 20:38:54.023276123,1726519134.023276,2024-09-16 20:38:54.023276032,4,0.0,0.1,6.230625882640316,[1. 0.],[0.16572361 0.83427639],"[-0.09722222  0.25390625  0.44921875  0.40277778  0.234375    0.4296875
  0.90277778  0.234375    0.4296875   0.4140625   1.         -0.16666667]",0.9233820499715352,0,0
119,135,2024-09-16 20:40:40.562964736,TASK_BEGIN,6,0.6991700383382423,-0.8813307007059532,1.5863245574625044,-0.0918604803615773,0.7292406849688454,0.0348824265942541,0.9644500345358484,-1.0807126703490333,0,2024-09-16 20:38:54.023276123,1726519134.023276,2024-09-16 20:38:54.023276032,4,0.0,0.1,6.230625882640316,[1. 0.],[0.16572361 0.83427639],"[-0.09722222  0.25390625  0.44921875  0.40277778  0.234375    0.4296875
  0.90277778  0.234375    0.4296875   0.4140625   1.         -0.16666667]",0.9233820499715352,0,0
120,136,2024-09-16 20:40:40.624999936,TASK_BEGIN,6,0.671198286434072,-0.8678950180325374,1.5528535719663703,-0.0894323960613344,0.7260783708758098,0.0313646778748555,1.0423122205662871,-1.093742391476593,0,2024-09-16 20:38:54.023276123,1726519134.023276,2024-09-16 20:38:54.023276032,4,0.0,0.1,6.230625882640316,[1. 0.],[0.16572361 0.83427639],"[-0.09722222  0.25390625  0.44921875  0.40277778  0.234375    0.4296875
  0.90277778  0.234375    0.4296875   0.4140625   1.         -0.16666667]",0.9233820499715352,0,0
121,137,2024-09-16 20:40:40.698806272,TASK_BEGIN,6,0.6368262547933405,-0.8538537034793502,1.500062641856407,-0.0816176398097624,0.7179329379640325,0.0295113792415248,1.0993779560936618,-1.1091612160660698,0,2024-09-16 20:38:54.023276123,1726519134.023276,2024-09-16 20:38:54.023276032,4,0.0,0.1,6.230625882640316,[1. 0.],[0.16572361 0.83427639],"[-0.09722222  0.25390625  0.44921875  0.40277778  0.234375    0.4296875
  0.90277778  0.234375    0.4296875   0.4140625   1.         -0.16666667]",0.9233820499715352,0,0
122,138,2024-09-16 20:40:41.610819072,TASK_BEGIN,6,0.5968338265941652,-0.8394005490278853,1.4254101994543131,-0.0680046904533656,0.7049802133217219,0.0294111261266647,1.1322060784388248,-1.1257158887439978,0,2024-09-16 20:38:54.923331055,1726519134.9233313,2024-09-16 20:38:54.923331328,4,1.0,1.0,7.7544054270095595,[0. 1.],[0.8497312 0.1502688],"[ 0.15277778  0.234375    0.4296875   0.65277778  0.234375    0.4296875
  1.          0.          1.          0.31054688 -0.8         0.5       ]",0.9575780739206715,0,0
123,139,2024-09-16 20:40:41.673088000,TASK_BEGIN,6,0.5522110256905755,-0.8247049083092252,1.3245923253900818,-0.04786684346311,0.6875731263551409,0.0310810007783277,1.137344712999094,-1.1418925168952327,0,2024-09-16 20:38:54.923331055,1726519134.9233313,2024-09-16 20:38:54.923331328,4,1.0,1.0,7.7544054270095595,[0. 1.],[0.8497312 0.1502688],"[ 0.15277778  0.234375    0.4296875   0.65277778  0.234375    0.4296875
  1.          0.          1.          0.31054688 -0.8         0.5       ]",0.9575780739206715,0,0
124,140,2024-09-16 20:40:41.753907968,TASK_BEGIN,6,0.5041002392989268,-0.8099070487167809,1.192446814617914,-0.0202944624552294,0.6662784608710615,0.0344603329769582,1.1125467704064524,-1.1561791388191611,0,2024-09-16 20:38:54.923331055,1726519134.9233313,2024-09-16 20:38:54.923331328,4,1.0,1.0,7.7544054270095595,[0. 1.],[0.8497312 0.1502688],"[ 0.15277778  0.234375    0.4296875   0.65277778  0.234375    0.4296875
  1.          0.          1.          0.31054688 -0.8         0.5       ]",0.9575780739206715,0,0
125,141,2024-09-16 20:40:41.821616896,TASK_BEGIN,6,0.453724186026478,-0.7950993525015703,1.024296074602509,0.0155605125485259,0.6418619029346165,0.0394145157761037,1.0580441735566504,-1.1673465553746902,0,2024-09-16 20:38:54.923331055,1726519134.9233313,2024-09-16 20:38:54.923331328,4,1.0,1.0,7.7544054270095595,[0. 1.],[0.8497312 0.1502688],"[ 0.15277778  0.234375    0.4296875   0.65277778  0.234375    0.4296875
  1.          0.          1.          0.31054688 -0.8         0.5       ]",0.9575780739206715,0,0
126,142,2024-09-16 20:40:41.889345024,TASK_BEGIN,6,0.4023199450065815,-0.7802999411049145,0.8172586979478584,0.0602090911210087,0.6152138273278828,0.0457534446348415,0.9771779322054118,-1.174600893109684,0,2024-09-16 20:38:54.923331055,1726519134.9233313,2024-09-16 20:38:54.923331328,4,1.0,1.0,7.7544054270095595,[0. 1.],[0.8497312 0.1502688],"[ 0.15277778  0.234375    0.4296875   0.65277778  0.234375    0.4296875
  1.          0.          1.          0.31054688 -0.8         0.5       ]",0.9575780739206715,0,0
127,143,2024-09-16 20:40:41.957058048,TASK_BEGIN,6,0.3510993963876525,-0.765435079109603,0.5711843522712382,0.1135962137427045,0.5872374489866107,0.0532604281111507,0.8761354670125453,-1.1775741854865711,0,2024-09-16 20:38:55.733771973,1726519135.7337725,2024-09-16 20:38:55.733772544,4,0.0,0.1,8.087971050098806,[1. 0.],[9.99998523e-01 1.47728312e-06],"[-0.06944444  0.234375    0.4296875   0.43055556  0.234375    0.4296875
  1.          0.          1.          0.32617188  0.8        -0.03333333]",0.6701899463941527,0,0
128,144,2024-09-16 20:40:42.012635904,TASK_BEGIN,6,0.3012515640360326,-0.750342560930056,0.2890764053351153,0.1749760214200219,0.5587347292347483,0.061723230191347,0.7631146339531288,-1.176245637087448,0,2024-09-16 20:38:55.784806885,1726519135.7848072,2024-09-16 20:38:55.784807168,4,0.0,0.1,8.107091339597819,[1. 0.],[9.99982101e-01 1.78992017e-05],"[-0.08333333  0.234375    0.4296875   0.41666667  0.234375    0.4296875
  0.99166667  0.25390625  0.44921875  0.34375     0.9        -0.06666667]",0.7229905754399446,0,0
129,145,2024-09-16 20:40:42.967269120,TASK_BEGIN,6,0.2539799150328925,-0.7347946949697549,-0.022975695034949,0.242905862945153,0.530325261003487,0.0709583377803516,0.6473872089789366,-1.1708865639022776,0,2024-09-16 20:38:56.651042969,1726519136.651044,2024-09-16 20:38:56.651043840,4,1.0,0.1,8.404385529016487,[0. 1.],[9.99978017e-01 2.19830711e-05],"[ 0.18055556  0.234375    0.4296875   0.75555556  0.25390625  0.44921875
  1.          0.          1.          0.29101562 -0.8         0.5       ]",0.9960164881166655,1,2
130,146,2024-09-16 20:40:43.036192768,TASK_BEGIN,6,0.2105350572520826,-0.7185296226897405,-0.3562571180632066,0.3153267676725051,0.5024253575153768,0.080819191634543,0.5384941175207449,-1.1620396904136332,0,2024-09-16 20:38:56.651042969,1726519136.651044,2024-09-16 20:38:56.651043840,4,1.0,0.1,8.404385529016487,[0. 1.],[9.99978017e-01 2.19830711e-05],"[ 0.18055556  0.234375    0.4296875   0.75555556  0.25390625  0.44921875
  1.          0.          1.          0.29101562 -0.8         0.5       ]",0.9960164881166655,1,2
131,147,2024-09-16 20:40:43.103525888,TASK_BEGIN,6,0.1721855658570604,-0.7012756657941315,-0.7001963502277909,0.3896986896546621,0.4752875952998097,0.0911858379898998,0.4455679379545193,-1.1504980842162702,0,2024-09-16 20:38:56.651042969,1726519136.651044,2024-09-16 20:38:56.651043840,4,1.0,0.1,8.404385529016487,[0. 1.],[9.99978017e-01 2.19830711e-05],"[ 0.18055556  0.234375    0.4296875   0.75555556  0.25390625  0.44921875
  1.          0.          1.          0.29101562 -0.8         0.5       ]",0.9960164881166655,1,2
132,148,2024-09-16 20:40:43.168559104,TASK_BEGIN,6,0.1400940276321088,-0.6827568468534132,-1.0433900253769732,0.4631863654008711,0.4490606259228553,0.1019481655652445,0.3767411144495796,-1.1372724683518851,0,2024-09-16 20:38:56.651042969,1726519136.651044,2024-09-16 20:38:56.651043840,4,1.0,0.1,8.404385529016487,[0. 1.],[9.99978017e-01 2.19830711e-05],"[ 0.18055556  0.234375    0.4296875   0.75555556  0.25390625  0.44921875
  1.          0.          1.          0.29101562 -0.8         0.5       ]",0.9960164881166655,1,2
133,149,2024-09-16 20:40:43.233177856,TASK_BEGIN,6,0.1151335571116153,-0.6626836027629712,-1.374782505624094,0.5328878043831557,0.423809550170637,0.1130024993788634,0.3386351109735088,-1.1235599135390544,0,2024-09-16 20:38:56.651042969,1726519136.651044,2024-09-16 20:38:56.651043840,4,1.0,0.1,8.404385529016487,[0. 1.],[9.99978017e-01 2.19830711e-05],"[ 0.18055556  0.234375    0.4296875   0.75555556  0.25390625  0.44921875
  1.          0.          1.          0.29101562 -0.8         0.5       ]",0.9960164881166655,1,2
134,150,2024-09-16 20:40:43.307127040,TASK_BEGIN,6,0.0977309158555337,-0.6407477186670474,-1.6847616305205615,0.5960737539910056,0.3994741114845789,0.1242696968788485,0.3358864053722209,-1.1106940021684488,0,2024-09-16 20:38:56.651042969,1726519136.651044,2024-09-16 20:38:56.651043840,4,1.0,0.1,8.404385529016487,[0. 1.],[9.99978017e-01 2.19830711e-05],"[ 0.18055556  0.234375    0.4296875   0.75555556  0.25390625  0.44921875
  1.          0.          1.          0.29101562 -0.8         0.5       ]",0.9960164881166655,1,2
135,151,2024-09-16 20:40:43.369887232,TASK_BEGIN,6,0.0877972929609694,-0.6166365279508661,-1.965868120662957,0.6504087439372535,0.3758160832590291,0.1357204801084186,0.3706245564042787,-1.1000173526202048,0,2024-09-16 20:38:56.651042969,1726519136.651044,2024-09-16 20:38:56.651043840,4,1.0,0.1,8.404385529016487,[0. 1.],[9.99978017e-01 2.19830711e-05],"[ 0.18055556  0.234375    0.4296875   0.75555556  0.25390625  0.44921875
  1.          0.          1.          0.29101562 -0.8         0.5       ]",0.9960164881166655,1,2
136,157,2024-09-16 20:40:44.657246208,TASK_BEGIN,6,0.1294357573743495,-0.4166059635761218,-2.8773080873835197,0.7379268059027567,0.2222341580814754,0.2115052131095803,1.106847975317427,-1.106258958192688,0,2024-09-16 20:38:58.456165039,1726519138.4561656,2024-09-16 20:38:58.456165632,5,0.0,0.1,0.1,[1. 0.],[0.3207893 0.6792107],"[ 0.98611111  0.21484375  0.41015625  1.          0.          1.
  1.          0.          1.          0.4609375  -0.8         0.46666667]",0.8183131117058684,0,0
137,158,2024-09-16 20:40:44.723424768,TASK_BEGIN,6,0.1399658425722135,-0.3746801229790552,-2.902794032723952,0.7163691463288562,0.1904071561552799,0.2258936565599581,1.2305747766449748,-1.1115889657420626,0,2024-09-16 20:38:58.456165039,1726519138.4561656,2024-09-16 20:38:58.456165632,5,0.0,0.1,0.1,[1. 0.],[0.3207893 0.6792107],"[ 0.98611111  0.21484375  0.41015625  1.          0.          1.
  1.          0.          1.          0.4609375  -0.8         0.46666667]",0.8183131117058684,0,0
138,159,2024-09-16 20:40:45.628483840,TASK_BEGIN,6,0.1475674580293352,-0.3311172421782247,-2.902017554984715,0.6883977219766392,0.1560713471261726,0.2408132044814771,1.3290267222448329,-1.1143769383192037,0,2024-09-16 20:38:59.316407959,1726519139.3164082,2024-09-16 20:38:59.316408064,5,1.0,0.1,1.654862385499124,[0. 1.],[0.49830056 0.50169944],"[ 0.75        0.21484375  0.41015625  1.          0.          1.
  1.          0.          1.          0.32421875 -0.8         0.5       ]",0.8211727494705828,0,0
139,160,2024-09-16 20:40:45.706589952,TASK_BEGIN,6,0.1509162378528211,-0.286418054575175,-2.882305356134316,0.6564373103724771,0.1195164910255217,0.2561693725966462,1.3964002460951912,-1.1136281929004463,0,2024-09-16 20:38:59.316407959,1726519139.3164082,2024-09-16 20:38:59.316408064,5,1.0,0.1,1.654862385499124,[0. 1.],[0.49830056 0.50169944],"[ 0.75        0.21484375  0.41015625  1.          0.          1.
  1.          0.          1.          0.32421875 -0.8         0.5       ]",0.8211727494705828,0,0
140,161,2024-09-16 20:40:45.768119040,TASK_BEGIN,6,0.1488640116985069,-0.2411673674704351,-2.851919676845188,0.6232113964323698,0.0814407465875053,0.2717877501934506,1.429487023021214,-1.1088623012014218,0,2024-09-16 20:38:59.316407959,1726519139.3164082,2024-09-16 20:38:59.316408064,5,1.0,0.1,1.654862385499124,[0. 1.],[0.49830056 0.50169944],"[ 0.75        0.21484375  0.41015625  1.          0.          1.
  1.          0.          1.          0.32421875 -0.8         0.5       ]",0.8211727494705828,0,0
141,162,2024-09-16 20:40:45.845395968,TASK_BEGIN,6,0.1405183891746607,-0.1960290793407328,-2.8192857857077875,0.5915446806196115,0.0428812962198694,0.2874094495296093,1.427738831017428,-1.100126169347578,0,2024-09-16 20:38:59.316407959,1726519139.3164082,2024-09-16 20:38:59.316408064,5,1.0,0.1,1.654862385499124,[0. 1.],[0.49830056 0.50169944],"[ 0.75        0.21484375  0.41015625  1.          0.          1.
  1.          0.          1.          0.32421875 -0.8         0.5       ]",0.8211727494705828,0,0
142,163,2024-09-16 20:40:45.914727936,TASK_BEGIN,6,0.1253592371933982,-0.1517291669635607,-2.792162482015623,0.564113289744234,0.0050472775258398,0.3027079500179785,1.3930692724384508,-1.0878914285734609,0,2024-09-16 20:38:59.316407959,1726519139.3164082,2024-09-16 20:38:59.316408064,5,1.0,0.1,1.654862385499124,[0. 1.],[0.49830056 0.50169944],"[ 0.75        0.21484375  0.41015625  1.          0.          1.
  1.          0.          1.          0.32421875 -0.8         0.5       ]",0.8211727494705828,0,0
143,164,2024-09-16 20:40:45.969263872,TASK_BEGIN,6,0.1033752926872207,-0.1090236335374072,-2.776923005653189,0.5431869160188161,-0.0308734639495437,0.31732364444312,1.3293733990171888,-1.0728769090183965,0,2024-09-16 20:38:59.316407959,1726519139.3164082,2024-09-16 20:38:59.316408064,5,1.0,0.1,1.654862385499124,[0. 1.],[0.49830056 0.50169944],"[ 0.75        0.21484375  0.41015625  1.          0.          1.
  1.          0.          1.          0.32421875 -0.8         0.5       ]",0.8211727494705828,0,0
144,165,2024-09-16 20:40:46.047370752,TASK_BEGIN,6,0.0751589281364204,-0.0686524267687228,-2.778055479979798,0.5303992867635127,-0.0638585133676324,0.330904318598974,1.2418328130716578,-1.0558672355216074,0,2024-09-16 20:38:59.316407959,1726519139.3164082,2024-09-16 20:38:59.316408064,5,1.0,0.1,1.654862385499124,[0. 1.],[0.49830056 0.50169944],"[ 0.75        0.21484375  0.41015625  1.          0.          1.
  1.          0.          1.          0.32421875 -0.8         0.5       ]",0.8211727494705828,0,0
145,166,2024-09-16 20:40:46.988045824,TASK_BEGIN,6,0.0418945590819331,-0.0312897310002916,-2.7979096109182957,0.5265893253150599,-0.0931150260756012,0.3431402027047592,1.1361319519020467,-1.0375646299071934,0,2024-09-16 20:39:00.171031981,1726519140.1710327,2024-09-16 20:39:00.171032576,5,1.0,0.1,2.965523050004307,[0. 1.],[0.75332562 0.24667438],"[ 0.51388889  0.21484375  0.41015625  1.          0.          1.
  1.          0.          1.          0.29296875 -0.8         0.5       ]",0.8956976132342614,0,0
146,167,2024-09-16 20:40:47.050873088,TASK_BEGIN,6,0.0052291159345154,0.0024956654169836,-2.8367026942600715,0.5317653487857757,-0.1180823407781183,0.3537868516989,1.017797303691569,-1.0184909538100684,0,2024-09-16 20:39:00.171031981,1726519140.1710327,2024-09-16 20:39:00.171032576,5,1.0,0.1,2.965523050004307,[0. 1.],[0.75332562 0.24667438],"[ 0.51388889  0.21484375  0.41015625  1.          0.          1.
  1.          0.          1.          0.29296875 -0.8         0.5       ]",0.8956976132342614,0,0
147,168,2024-09-16 20:40:47.128163072,TASK_BEGIN,6,-0.0329229159561869,0.0322656321708674,-2.89278073091475,0.5452129545700258,-0.1384080682409633,0.3626748323217078,0.8918661087963657,-0.9989663244839934,0,2024-09-16 20:39:00.171031981,1726519140.1710327,2024-09-16 20:39:00.171032576,5,1.0,0.1,2.965523050004307,[0. 1.],[0.75332562 0.24667438],"[ 0.51388889  0.21484375  0.41015625  1.          0.          1.
  1.          0.          1.          0.29296875 -0.8         0.5       ]",0.8956976132342614,0,0
148,169,2024-09-16 20:40:47.196899840,TASK_BEGIN,6,-0.070568696571165,0.0577289042742304,-2.963024199283088,0.5656935523609876,-0.1539216445406102,0.3697107999800469,0.762897298479178,-0.9791686186043668,0,2024-09-16 20:39:00.982074951,1726519140.9820757,2024-09-16 20:39:00.982075648,5,0.0,0.1,4.01043993533839,[1. 0.],[9.99865608e-01 1.34392462e-04],"[ 0.29166667  0.21484375  0.41015625  0.79166667  0.3125      0.5078125
  1.          0.          1.          0.30859375  0.8        -0.03333333]",0.7434745921147753,0,0
149,170,2024-09-16 20:40:47.264617984,TASK_BEGIN,6,-0.1057831533559665,0.0787510461251035,-3.043239732790056,0.5916421917483152,-0.1646136263551013,0.3748754317367856,0.6351163702158301,-0.9592310342507449,0,2024-09-16 20:39:01.033075928,1726519141.0330768,2024-09-16 20:39:01.033076736,5,0.0,0.1,4.070335535985006,[1. 0.],[0.90259015 0.09740985],"[ 0.27777778  0.21484375  0.41015625  0.77777778  0.3125      0.5078125
  1.          0.          1.          0.32617188  0.9        -0.06666667]",0.9356948250843711,0,0
150,171,2024-09-16 20:40:47.332379904,TASK_BEGIN,6,-0.1368114465148007,0.0953522166349976,-3.1284894236140874,0.6213165673194753,-0.1706164777842559,0.3782192488184055,0.5124667812735384,-0.93932936425058,0,2024-09-16 20:39:01.083074951,1726519141.0830755,2024-09-16 20:39:01.083075584,5,1.0,0.1,4.129632180625156,[0. 1.],[0.10008938 0.89991062],"[ 0.26388889  0.21484375  0.41015625  0.76388889  0.3125      0.5078125
  1.          0.          1.          0.31054688 -0.8         0.5       ]",0.9593616523529747,0,0
151,172,2024-09-16 20:40:47.390234880,TASK_BEGIN,6,-0.162134245266544,0.1076848067893126,-3.2134103365294258,0.6529119858573308,-0.1721785070383517,0.3798543822995904,0.3985516437859387,-0.9197593199108453,0,2024-09-16 20:39:01.134074951,1726519141.1340752,2024-09-16 20:39:01.134075136,5,1.0,0.1,4.1883358588189035,[0. 1.],[0.94785292 0.05214708],"[ 0.25        0.21484375  0.41015625  0.75        0.3125      0.5078125
  1.          0.          1.          0.29492188 -0.8         0.5       ]",0.9911701263211043,0,0
152,173,2024-09-16 20:40:48.333362176,TASK_BEGIN,6,-0.1805048149723431,0.1159927914833096,-3.292568123738198,0.6846683639765604,-0.1696303343503667,0.3799419574367218,0.2966099711493559,-0.901027152867818,0,2024-09-16 20:39:01.993074951,1726519141.9930751,2024-09-16 20:39:01.993075200,5,0.0,0.1,5.9150411374658685,[1. 0.],[9.99995884e-01 4.11616238e-06],"[ 0.01388889  0.21484375  0.41015625  0.51388889  0.3125      0.5078125
  1.          0.          1.          0.328125    0.9        -0.06666667]",0.7401322987671224,0,0
153,174,2024-09-16 20:40:48.411048704,TASK_BEGIN,6,-0.1909778175018559,0.120568220478521,-3.3608254359614045,0.7149637403557133,-0.1633529447852225,0.3786783755787609,0.2095490947370964,-0.8839222244590866,0,2024-09-16 20:39:02.196111084,1726519142.1961112,2024-09-16 20:39:02.196111104,5,0.0,0.1,6.0760048156355735,[1. 0.],[9.99446004e-01 5.53996012e-04],"[-0.04166667  0.21484375  0.41015625  0.45833333  0.3125      0.5078125
  0.95833333  0.21484375  0.41015625  0.40625     1.         -0.2       ]",0.8304622580797094,0,0
154,175,2024-09-16 20:40:48.473048832,TASK_BEGIN,6,-0.1929498029048891,0.121724284747595,-3.413622057378168,0.7423625862123177,-0.1537611739898567,0.3762863908939868,0.1399237177488126,-0.869500291921139,0,2024-09-16 20:39:02.246078125,1726519142.2460783,2024-09-16 20:39:02.246078208,5,0.0,0.1,6.115244767479218,[1. 0.],[0.99203907 0.00796093],"[-0.05555556  0.21484375  0.41015625  0.44444444  0.3125      0.5078125
  0.94444444  0.21484375  0.41015625  0.42578125  1.         -0.23333333]",0.8701177464314668,0,0
155,176,2024-09-16 20:40:48.546627840,TASK_BEGIN,6,-0.1862194382742574,0.1197938933829408,-3.447057129232075,0.7655990199080192,-0.1413144239527359,0.3730142235311711,0.0898754619161133,-0.8589552446279696,0,2024-09-16 20:39:02.348077148,1726519142.3480778,2024-09-16 20:39:02.348077824,5,0.0,0.1,6.1925513966063805,[1. 0.],[0.5400295 0.4599705],"[-0.08333333  0.21484375  0.41015625  0.41666667  0.3125      0.5078125
  0.91666667  0.21484375  0.41015625  0.46484375  1.         -0.3       ]",0.9392896310316987,0,0
156,177,2024-09-16 20:40:48.613067008,TASK_BEGIN,6,-0.1710514006790252,0.1151436898655583,-3.4577948578077278,0.783512363722368,-0.1265516816676499,0.3691374540357691,0.0611465292474686,-0.85341858404752,0,2024-09-16 20:39:02.348077148,1726519142.3480778,2024-09-16 20:39:02.348077824,5,0.0,0.1,6.1925513966063805,[1. 0.],[0.5400295 0.4599705],"[-0.08333333  0.21484375  0.41015625  0.41666667  0.3125      0.5078125
  0.91666667  0.21484375  0.41015625  0.46484375  1.         -0.3       ]",0.9392896310316987,0,0
157,178,2024-09-16 20:40:48.675939072,TASK_BEGIN,6,-0.1481971864361128,0.1081793330278044,-3.442918424655013,0.7949726967477772,-0.1101243388169665,0.3649523577410302,0.0551688149451529,-0.8537444219797585,0,2024-09-16 20:39:02.348077148,1726519142.3480778,2024-09-16 20:39:02.348077824,5,0.0,0.1,6.1925513966063805,[1. 0.],[0.5400295 0.4599705],"[-0.08333333  0.21484375  0.41015625  0.41666667  0.3125      0.5078125
  0.91666667  0.21484375  0.41015625  0.46484375  1.         -0.3       ]",0.9392896310316987,0,0
158,179,2024-09-16 20:40:48.736545280,TASK_BEGIN,6,-0.1188389627498802,0.0993248769329966,-3.39981151257253,0.7988349655423891,-0.0927882780031559,0.360752947967546,0.0731219562157489,-0.8603335111504931,0,2024-09-16 20:39:02.348077148,1726519142.3480778,2024-09-16 20:39:02.348077824,5,0.0,0.1,6.1925513966063805,[1. 0.],[0.5400295 0.4599705],"[-0.08333333  0.21484375  0.41015625  0.41666667  0.3125      0.5078125
  0.91666667  0.21484375  0.41015625  0.46484375  1.         -0.3       ]",0.9392896310316987,0,0
159,180,2024-09-16 20:40:49.689542912,TASK_BEGIN,6,-0.0844847196960131,0.0889855775543227,-3.3260821327923216,0.7939665812464932,-0.0753348966703284,0.3567958773854695,0.1158496612611107,-0.8730227669917309,0,2024-09-16 20:39:02.804651123,1726519142.8046513,2024-09-16 20:39:02.804651264,5,1.0,0.1,6.521830031892424,[0. 1.],[9.99999947e-01 5.33508921e-08],"[ 0.29166667  0.3125      0.5078125   0.79166667  0.21484375  0.41015625
  1.          0.          1.          0.36523438 -0.8         0.5       ]",0.997890226319722,1,2
160,181,2024-09-16 20:40:49.751868928,TASK_BEGIN,6,-0.046864064342547,0.0775210258677736,-3.2195283591302,0.7793759947935455,-0.0584818862936549,0.3532681612687203,0.1835801712882272,-0.8910373209012588,0,2024-09-16 20:39:02.804651123,1726519142.8046513,2024-09-16 20:39:02.804651264,5,1.0,0.1,6.521830031892424,[0. 1.],[9.99999947e-01 5.33508921e-08],"[ 0.29166667  0.3125      0.5078125   0.79166667  0.21484375  0.41015625
  1.          0.          1.          0.36523438 -0.8         0.5       ]",0.997890226319722,1,2
161,182,2024-09-16 20:40:49.828441856,TASK_BEGIN,6,-0.0078209591589194,0.065244997679582,-3.0781014879171438,0.7544021326907746,-0.0427794110415989,0.350271951207628,0.2755150504150789,-0.912999121336132,0,2024-09-16 20:39:02.855649902,1726519142.8556502,2024-09-16 20:39:02.855650304,5,0.0,0.1,6.5566117315735,[1. 0.],[9.99811150e-01 1.88850031e-04],"[ 0.27777778  0.3125      0.5078125   0.77777778  0.21484375  0.41015625
  1.          0.          1.          0.3515625  -0.7         0.46666667]",0.6048544166896381,1,2
162,183,2024-09-16 20:40:49.896820992,TASK_BEGIN,6,0.0308387465521527,0.0524458619873639,-2.8998617750798603,0.7188789130074295,-0.0285861522401612,0.3478300521762529,0.3894133411415791,-0.9369814995605956,0,2024-09-16 20:39:02.906651855,1726519142.906652,2024-09-16 20:39:02.906651904,5,0.0,0.1,6.591045614257764,[1. 0.],[9.99982704e-01 1.72962824e-05],"[ 0.26388889  0.3125      0.5078125   0.76388889  0.21484375  0.41015625
  1.          0.          1.          0.33984375 -0.6         0.43333333]",0.5923006247338332,1,2
163,184,2024-09-16 20:40:49.964218880,TASK_BEGIN,6,0.0675506435188094,0.0394091180998481,-2.6831257905901995,0.6732277044380197,-0.0161223988651407,0.3459065129483,0.5212281039132686,-0.9605853237430356,0,2024-09-16 20:39:03.008686035,1726519143.0086863,2024-09-16 20:39:03.008686336,5,0.0,0.1,6.658883806534034,[1. 0.],[9.99981915e-01 1.80846689e-05],"[ 0.23611111  0.3125      0.5078125   0.73611111  0.21484375  0.41015625
  1.          0.          1.          0.32226562 -0.4         0.36666667]",0.5852409572595628,1,2
164,185,2024-09-16 20:40:50.032329984,TASK_BEGIN,6,0.1011836016735458,0.0264256374725489,-2.427029389971521,0.6184874288378666,-0.0055507921643398,0.344432550041757,0.6648364775108131,-0.981034424597756,0,2024-09-16 20:39:03.059649902,1726519143.0596507,2024-09-16 20:39:03.059650560,5,0.0,0.1,6.692294968468693,[1. 0.],[9.99996993e-01 3.00734942e-06],"[ 0.22222222  0.3125      0.5078125   0.72222222  0.21484375  0.41015625
  1.          0.          1.          0.31640625 -0.3         0.33333333]",0.5839579622708769,1,2
165,186,2024-09-16 20:40:50.094483968,TASK_BEGIN,6,0.1311315174890609,0.0137824051627306,-2.132390084024854,0.5562934721558206,0.0029739618566033,0.3433280729817195,0.8120425302711113,-0.9953444341652132,0,2024-09-16 20:39:03.110683838,1726519143.1106844,2024-09-16 20:39:03.110684416,5,0.0,0.1,6.725372018784006,[1. 0.],[9.99999815e-01 1.85002589e-07],"[ 0.20833333  0.3125      0.5078125   0.70833333  0.21484375  0.41015625
  1.          0.          1.          0.3125     -0.2         0.3       ]",0.5832639939318291,1,2
166,187,2024-09-16 20:40:51.044113152,TASK_BEGIN,6,0.1572626712647647,0.0017492990835965,-1.8024563538030545,0.4887913502546472,0.0093065066923416,0.3425140046161649,0.9530669231214748,-1.00062219020056,0,2024-09-16 20:39:04.714916992,1726519144.7149172,2024-09-16 20:39:04.714917120,6,0.0,0.1,0.1,[1. 0.],[0.43968908 0.56031092],"[ 0.98611111  0.25390625  0.44921875  1.          0.          1.
  1.          0.          1.          0.4609375  -0.8         0.46666667]",0.8158654728285952,0,0
167,188,2024-09-16 20:40:51.107001088,TASK_BEGIN,6,0.1797636296486823,-0.0094206337319417,-1.4432388806336152,0.4184711514596746,0.0133455838261877,0.3419182287384052,1.0775026601568485,-0.99446034381355,0,2024-09-16 20:39:04.714916992,1726519144.7149172,2024-09-16 20:39:04.714917120,6,0.0,0.1,0.1,[1. 0.],[0.43968908 0.56031092],"[ 0.98611111  0.25390625  0.44921875  1.          0.          1.
  1.          0.          1.          0.4609375  -0.8         0.46666667]",0.8158654728285952,0,0
168,189,2024-09-16 20:40:51.165094912,TASK_BEGIN,6,0.1989616364557636,-0.0194752529646769,-1.0634601114359463,0.3479458297518693,0.015074301605927,0.341481578055631,1.1754853463674315,-0.9753150645071426,0,2024-09-16 20:39:04.714916992,1726519144.7149172,2024-09-16 20:39:04.714917120,6,0.0,0.1,0.1,[1. 0.],[0.43968908 0.56031092],"[ 0.98611111  0.25390625  0.44921875  1.          0.          1.
  1.          0.          1.          0.4609375  -0.8         0.46666667]",0.8158654728285952,0,0
169,190,2024-09-16 20:40:51.247353088,TASK_BEGIN,6,0.2152017560193623,-0.0281484306892048,-0.6742890163909858,0.2797326832155728,0.0145839914929711,0.3411675202977404,1.2388416013371493,-0.9427822416644384,0,2024-09-16 20:39:04.714916992,1726519144.7149172,2024-09-16 20:39:04.714917120,6,0.0,0.1,0.1,[1. 0.],[0.43968908 0.56031092],"[ 0.98611111  0.25390625  0.44921875  1.          0.          1.
  1.          0.          1.          0.4609375  -0.8         0.46666667]",0.8158654728285952,0,0
170,191,2024-09-16 20:40:51.302620160,TASK_BEGIN,6,0.2288032541547533,-0.0351661695907584,-0.288791659060949,0.2160782684683902,0.0120664132918453,0.3409742817647082,1.2620667828664929,-0.8977344893230268,0,2024-09-16 20:39:04.714916992,1726519144.7149172,2024-09-16 20:39:04.714917120,6,0.0,0.1,0.1,[1. 0.],[0.43968908 0.56031092],"[ 0.98611111  0.25390625  0.44921875  1.          0.          1.
  1.          0.          1.          0.4609375  -0.8         0.46666667]",0.8158654728285952,0,0
171,192,2024-09-16 20:40:51.380323072,TASK_BEGIN,6,0.2400614361560017,-0.0402795326126805,0.0791324450218693,0.1588192717607854,0.0077704584448964,0.3409446742377325,1.2429427224984542,-0.8422771636922111,0,2024-09-16 20:39:04.714916992,1726519144.7149172,2024-09-16 20:39:04.714917120,6,0.0,0.1,0.1,[1. 0.],[0.43968908 0.56031092],"[ 0.98611111  0.25390625  0.44921875  1.          0.          1.
  1.          0.          1.          0.4609375  -0.8         0.46666667]",0.8158654728285952,0,0
172,193,2024-09-16 20:40:51.442387200,TASK_BEGIN,6,0.2492504788939414,-0.0433107286110601,0.4162606616575841,0.1092653873964325,0.001935918181527,0.3411688449741978,1.182576990241918,-0.779498077477032,0,2024-09-16 20:39:04.714916992,1726519144.7149172,2024-09-16 20:39:04.714917120,6,0.0,0.1,0.1,[1. 0.],[0.43968908 0.56031092],"[ 0.98611111  0.25390625  0.44921875  1.          0.          1.
  1.          0.          1.          0.4609375  -0.8         0.46666667]",0.8158654728285952,0,0
173,194,2024-09-16 20:40:52.391822080,TASK_BEGIN,6,0.2566103171591706,-0.0441877686140001,0.7115084768551256,0.0681222967763738,-0.0052738553536112,0.3417777584044275,1.0848216872676142,-0.7130642784945093,0,2024-09-16 20:39:06.167319092,1726519146.1673198,2024-09-16 20:39:06.167319808,6,1.0,0.1,2.6029962661171973,[0. 1.],[0.9238584 0.0761416],"[ 0.58333333  0.25390625  0.44921875  1.          0.          1.
  1.          0.          1.          0.32421875 -0.8         0.5       ]",0.8630549808487695,0,0
174,195,2024-09-16 20:40:52.459535872,TASK_BEGIN,6,0.2623130990916914,-0.0429482294563594,0.9567954170358234,0.0354963566945114,-0.0138210030885308,0.3429264487102115,0.9553141196753234,-0.6467770121538651,0,2024-09-16 20:39:06.217320068,1726519146.2173202,2024-09-16 20:39:06.217320192,6,1.0,0.1,2.6769663034560254,[0. 1.],[0.71676955 0.28323045],"[ 0.56944444  0.25390625  0.44921875  1.          0.          1.
  1.          0.          1.          0.30859375 -0.8         0.5       ]",0.8805072852221277,0,0
175,196,2024-09-16 20:40:52.526716160,TASK_BEGIN,6,0.2664060574062251,-0.0397107389551272,1.1471252451074156,0.011004603902483,-0.0238152688465052,0.3447675128588244,0.8005307880499044,-0.5841725156262406,0,2024-09-16 20:39:06.217320068,1726519146.2173202,2024-09-16 20:39:06.217320192,6,1.0,0.1,2.6769663034560254,[0. 1.],[0.71676955 0.28323045],"[ 0.56944444  0.25390625  0.44921875  1.          0.          1.
  1.          0.          1.          0.30859375 -0.8         0.5       ]",0.8805072852221277,0,0
176,197,2024-09-16 20:40:52.594983936,TASK_BEGIN,6,0.2687471844110998,-0.0346325133507588,1.2801253384492888,-0.0060390949562518,-0.0355013590370861,0.3474191676188227,0.6271575651124762,-0.5282023742033614,0,2024-09-16 20:39:06.217320068,1726519146.2173202,2024-09-16 20:39:06.217320192,6,1.0,0.1,2.6769663034560254,[0. 1.],[0.71676955 0.28323045],"[ 0.56944444  0.25390625  0.44921875  1.          0.          1.
  1.          0.          1.          0.30859375 -0.8         0.5       ]",0.8805072852221277,0,0
177,198,2024-09-16 20:40:52.662163968,TASK_BEGIN,6,0.2689654540271227,-0.0278794157005587,1.3555046877491452,-0.016428996835237,-0.049180306129884,0.3509323228227878,0.4418558926840636,-0.4810066703520768,0,2024-09-16 20:39:06.217320068,1726519146.2173202,2024-09-16 20:39:06.217320192,6,1.0,0.1,2.6769663034560254,[0. 1.],[0.71676955 0.28323045],"[ 0.56944444  0.25390625  0.44921875  1.          0.          1.
  1.          0.          1.          0.30859375 -0.8         0.5       ]",0.8805072852221277,0,0
178,199,2024-09-16 20:40:52.730295040,TASK_BEGIN,6,0.2664613500509276,-0.0196240627353094,1.3747580969213862,-0.0209235361521827,-0.065031743153194,0.355258111270743,0.2513096597821327,-0.4438029786840707,0,2024-09-16 20:39:06.217320068,1726519146.2173202,2024-09-16 20:39:06.217320192,6,1.0,0.1,2.6769663034560254,[0. 1.],[0.71676955 0.28323045],"[ 0.56944444  0.25390625  0.44921875  1.          0.          1.
  1.          0.          1.          0.30859375 -0.8         0.5       ]",0.8805072852221277,0,0
179,200,2024-09-16 20:40:52.797815808,TASK_BEGIN,6,0.2604464386257757,-0.0100663671240099,1.341070951021358,-0.0201771215007189,-0.0828755775409992,0.360221549684444,0.0623363419457476,-0.416911871146707,0,2024-09-16 20:39:06.217320068,1726519146.2173202,2024-09-16 20:39:06.217320192,6,1.0,0.1,2.6769663034560254,[0. 1.],[0.71676955 0.28323045],"[ 0.56944444  0.25390625  0.44921875  1.          0.          1.
  1.          0.          1.          0.30859375 -0.8         0.5       ]",0.8805072852221277,0,0
180,201,2024-09-16 20:40:53.718189056,TASK_BEGIN,6,0.2500311207724816,0.0005421538499233,1.2591400297423627,-0.0147420087745254,-0.1020014344818055,0.3655154926453788,-0.1181403670055654,-0.3998997211688873,0,2024-09-16 20:39:07.172141113,1726519147.1721416,2024-09-16 20:39:07.172141568,6,0.0,0.1,3.949939328624636,[1. 0.],[0.0314735 0.9685265],"[ 0.30555556  0.25390625  0.44921875  0.80555556  0.2734375   0.46875
  1.          0.          1.          0.38085938  1.         -0.13333333]",0.994489554888516,0,0
181,202,2024-09-16 20:40:53.786042112,TASK_BEGIN,6,0.234377310659141,0.0118871998496671,1.1348103558375018,-0.0051238310531669,-0.1211913895351323,0.3707260620765545,-0.2833481367058216,-0.3917714819243965,0,2024-09-16 20:39:07.172141113,1726519147.1721416,2024-09-16 20:39:07.172141568,6,0.0,0.1,3.949939328624636,[1. 0.],[0.0314735 0.9685265],"[ 0.30555556  0.25390625  0.44921875  0.80555556  0.2734375   0.46875
  1.          0.          1.          0.38085938  1.         -0.13333333]",0.994489554888516,0,0
182,203,2024-09-16 20:40:53.853737984,TASK_BEGIN,6,0.2129072065454544,0.023599651610113,0.9747323853925164,0.0081352016063355,-0.1389489844226944,0.3753845358328164,-0.4271430058214267,-0.3911450043750746,0,2024-09-16 20:39:07.172141113,1726519147.1721416,2024-09-16 20:39:07.172141568,6,0.0,0.1,3.949939328624636,[1. 0.],[0.0314735 0.9685265],"[ 0.30555556  0.25390625  0.44921875  0.80555556  0.2734375   0.46875
  1.          0.          1.          0.38085938  1.         -0.13333333]",0.994489554888516,0,0
183,204,2024-09-16 20:40:53.921464064,TASK_BEGIN,6,0.1855184318802875,0.0352761983570605,0.7861519878446812,0.0243948500938765,-0.1538254545516766,0.3790276832496382,-0.5446389998703809,-0.3963847999088505,0,2024-09-16 20:39:07.172141113,1726519147.1721416,2024-09-16 20:39:07.172141568,6,0.0,0.1,3.949939328624636,[1. 0.],[0.0314735 0.9685265],"[ 0.30555556  0.25390625  0.44921875  0.80555556  0.2734375   0.46875
  1.          0.          1.          0.38085938  1.         -0.13333333]",0.994489554888516,0,0
184,205,2024-09-16 20:40:53.989211904,TASK_BEGIN,6,0.1527371155870017,0.046498289987819,0.5766503755002137,0.0429282709908475,-0.1646977860939163,0.3812490111317936,-0.632844028783279,-0.405716061700356,0,2024-09-16 20:39:07.172141113,1726519147.1721416,2024-09-16 20:39:07.172141568,6,0.0,0.1,3.949939328624636,[1. 0.],[0.0314735 0.9685265],"[ 0.30555556  0.25390625  0.44921875  0.80555556  0.2734375   0.46875
  1.          0.          1.          0.38085938  1.         -0.13333333]",0.994489554888516,0,0
185,206,2024-09-16 20:40:54.054672128,TASK_BEGIN,6,0.1157549416863375,0.0568373816504115,0.3537202251098001,0.0629981417448551,-0.1709051039635023,0.381731162728742,-0.6910698864114628,-0.4173550559223648,0,2024-09-16 20:39:07.172141113,1726519147.1721416,2024-09-16 20:39:07.172141568,6,0.0,0.1,3.949939328624636,[1. 0.],[0.0314735 0.9685265],"[ 0.30555556  0.25390625  0.44921875  0.80555556  0.2734375   0.46875
  1.          0.          1.          0.38085938  1.         -0.13333333]",0.994489554888516,0,0
186,207,2024-09-16 20:40:54.124708864,TASK_BEGIN,6,0.07632544186218,0.0658488227625673,0.1243446439696284,0.0839261619251534,-0.17223862329179,0.3802589235882859,-0.7209148927700374,-0.4296790499106294,0,2024-09-16 20:39:07.172141113,1726519147.1721416,2024-09-16 20:39:07.172141568,6,0.0,0.1,3.949939328624636,[1. 0.],[0.0314735 0.9685265],"[ 0.30555556  0.25390625  0.44921875  0.80555556  0.2734375   0.46875
  1.          0.          1.          0.38085938  1.         -0.13333333]",0.994489554888516,0,0
187,208,2024-09-16 20:40:55.064228096,TASK_BEGIN,6,0.0365404106057304,0.0730712009869116,-0.105253665607611,0.105104229096182,-0.1688463789350558,0.376720580930631,-0.7257995244074502,-0.441412756261644,0,2024-09-16 20:39:08.130052002,1726519148.1300523,2024-09-16 20:39:08.130052352,6,1.0,0.1,5.832099925993132,[0. 1.],[0.94374401 0.05625599],"[ 0.04166667  0.25390625  0.44921875  0.54166667  0.2734375   0.46875
  1.          0.          1.          0.34960938 -0.8         0.5       ]",0.9168952129244952,0,0
188,209,2024-09-16 20:40:55.136046848,TASK_BEGIN,6,-0.0014358052907623,0.0780455572221697,-0.329726787769414,0.1259662221774523,-0.1611126805030541,0.3711051844477801,-0.7102197959988612,-0.4517632745328236,0,2024-09-16 20:39:08.180085938,1726519148.1800864,2024-09-16 20:39:08.180086272,6,0.0,0.1,5.873778926733201,[1. 0.],[0.90388258 0.09611742],"[ 0.02777778  0.25390625  0.44921875  0.52777778  0.2734375   0.46875
  1.          0.          1.          0.3359375  -0.7         0.46666667]",0.6628523486192324,0,0
189,210,2024-09-16 20:40:55.203618816,TASK_BEGIN,6,-0.0355906743650615,0.0803533794249364,-0.544740122482964,0.1459810644970801,-0.1495343797451408,0.3634957748241777,-0.6789152052696871,-0.4604528953074192,0,2024-09-16 20:39:08.992867920,1726519148.9928687,2024-09-16 20:39:08.992868608,6,0.0,0.1,6.48669700191154,[1. 0.],[0.97002697 0.02997303],"[ 0.30555556  0.2734375   0.46875     0.80555556  0.2734375   0.46875
  1.          0.          1.          0.3828125   0.9        -0.06666667]",0.9380032116402456,0,0
190,211,2024-09-16 20:40:55.271533824,TASK_BEGIN,6,-0.0642261897964983,0.079658941431657,-0.7472743199375066,0.1647245272689318,-0.1346076132096258,0.3540560752311153,-0.6361145675008235,-0.4676625321060793,0,2024-09-16 20:39:09.043869141,1726519149.0438695,2024-09-16 20:39:09.043869440,6,0.0,0.1,6.521830031892424,[1. 0.],[0.04687889 0.95312111],"[ 0.29166667  0.2734375   0.46875     0.79166667  0.2734375   0.46875
  1.          0.          1.          0.40234375  1.         -0.1       ]",1.0054864584956118,0,0
191,212,2024-09-16 20:40:55.339124992,TASK_BEGIN,6,-0.0860882870635193,0.0757362673009919,-0.9360367406575344,0.1820378620674678,-0.1167493710607188,0.3430108879586616,-0.5850625010547817,-0.4739258851017834,0,2024-09-16 20:39:09.043869141,1726519149.0438695,2024-09-16 20:39:09.043869440,6,0.0,0.1,6.521830031892424,[1. 0.],[0.04687889 0.95312111],"[ 0.29166667  0.2734375   0.46875     0.79166667  0.2734375   0.46875
  1.          0.          1.          0.40234375  1.         -0.1       ]",1.0054864584956118,0,0
192,213,2024-09-16 20:40:55.404077056,TASK_BEGIN,6,-0.1004744900690493,0.0684676526122879,-1.111741829166232,0.1982080706102397,-0.0962683340108375,0.3306215943720579,-0.5279809017483538,-0.4799987758033028,0,2024-09-16 20:39:09.043869141,1726519149.0438695,2024-09-16 20:39:09.043869440,6,0.0,0.1,6.521830031892424,[1. 0.],[0.04687889 0.95312111],"[ 0.29166667  0.2734375   0.46875     0.79166667  0.2734375   0.46875
  1.          0.          1.          0.40234375  1.         -0.1       ]",1.0054864584956118,0,0
193,214,2024-09-16 20:40:55.474727936,TASK_BEGIN,6,-0.1072966405438883,0.0578193332344662,-1.2770569299198702,0.2140735750499798,-0.0733848199481409,0.3171596303632828,-0.4663688858760916,-0.4867275159806256,0,2024-09-16 20:39:09.043869141,1726519149.0438695,2024-09-16 20:39:09.043869440,6,0.0,0.1,6.521830031892424,[1. 0.],[0.04687889 0.95312111],"[ 0.29166667  0.2734375   0.46875     0.79166667  0.2734375   0.46875
  1.          0.          1.          0.40234375  1.         -0.1       ]",1.0054864584956118,0,0
194,215,2024-09-16 20:40:56.412132096,TASK_BEGIN,6,-0.1070726773821223,0.0438144013201536,-1.4360927777504513,0.2309752026350041,-0.04829233285228,0.3028829913936696,-0.4013394931116454,-0.494953711654797,0,2024-09-16 20:39:10.056752930,1726519150.0567539,2024-09-16 20:39:10.056753920,6,1.0,0.1,7.96912452045039,[0. 1.],[0.83715948 0.16284052],"[ 0.01388889  0.2734375   0.46875     0.51388889  0.2734375   0.46875
  1.          0.          1.          0.35546875 -0.8         0.5       ]",0.9442961094326423,0,0
195,216,2024-09-16 20:40:56.485611776,TASK_BEGIN,6,-0.1008361416075681,0.0265177428777739,-1.5933468233419246,0.2505122097212541,-0.0212348890337924,0.2880195605784577,-0.3337118007811392,-0.505480270434226,0,2024-09-16 20:39:10.056752930,1726519150.0567539,2024-09-16 20:39:10.056753920,6,1.0,0.1,7.96912452045039,[0. 1.],[0.83715948 0.16284052],"[ 0.01388889  0.2734375   0.46875     0.51388889  0.2734375   0.46875
  1.          0.          1.          0.35546875 -0.8         0.5       ]",0.9442961094326423,0,0
196,217,2024-09-16 20:40:56.552198912,TASK_BEGIN,6,-0.0899619995679897,0.0060294376950643,-1.7522786178413916,0.2741560545192054,0.0074412990544798,0.2727590443348835,-0.2638051745114452,-0.5190750168793284,0,2024-09-16 20:39:10.056752930,1726519150.0567539,2024-09-16 20:39:10.056753920,6,1.0,0.1,7.96912452045039,[0. 1.],[0.83715948 0.16284052],"[ 0.01388889  0.2734375   0.46875     0.51388889  0.2734375   0.46875
  1.          0.          1.          0.35546875 -0.8         0.5       ]",0.9442961094326423,0,0
197,218,2024-09-16 20:40:56.621451008,TASK_BEGIN,6,-0.0759294512332219,-0.0175275972594665,-1.9140988177314149,0.3028796552908347,0.0372948834228844,0.257253445121858,-0.191220619369725,-0.5364437998659055,0,2024-09-16 20:39:10.056752930,1726519150.0567539,2024-09-16 20:39:10.056753920,6,1.0,0.1,7.96912452045039,[0. 1.],[0.83715948 0.16284052],"[ 0.01388889  0.2734375   0.46875     0.51388889  0.2734375   0.46875
  1.          0.          1.          0.35546875 -0.8         0.5       ]",0.9442961094326423,0,0
198,219,2024-09-16 20:40:56.677015040,TASK_BEGIN,6,-0.0600782136769938,-0.0440317451254059,-2.07732403675544,0.3369605459894724,0.067866765875985,0.2416197129486053,-0.1150033090848396,-0.5581311700111391,0,2024-09-16 20:39:10.056752930,1726519150.0567539,2024-09-16 20:39:10.056753920,6,1.0,0.1,7.96912452045039,[0. 1.],[0.83715948 0.16284052],"[ 0.01388889  0.2734375   0.46875     0.51388889  0.2734375   0.46875
  1.          0.          1.          0.35546875 -0.8         0.5       ]",0.9442961094326423,0,0
199,220,2024-09-16 20:40:56.754400768,TASK_BEGIN,6,-0.0434245615328071,-0.0733858232831935,-2.238146036704765,0.3759976531367893,0.0988077580874594,0.2259348661840531,-0.0342641438174326,-0.5843848374618675,0,2024-09-16 20:39:10.056752930,1726519150.0567539,2024-09-16 20:39:10.056753920,6,1.0,0.1,7.96912452045039,[0. 1.],[0.83715948 0.16284052],"[ 0.01388889  0.2734375   0.46875     0.51388889  0.2734375   0.46875
  1.          0.          1.          0.35546875 -0.8         0.5       ]",0.9442961094326423,0,0
200,221,2024-09-16 20:40:56.824688896,TASK_BEGIN,6,-0.0265749867323487,-0.105515300393364,-2.3912125485511195,0.4190461126045967,0.1299987225877517,0.2102240298306622,0.0510309531452273,-0.6150460243703797,0,2024-09-16 20:39:10.056752930,1726519150.0567539,2024-09-16 20:39:10.056753920,6,1.0,0.1,7.96912452045039,[0. 1.],[0.83715948 0.16284052],"[ 0.01388889  0.2734375   0.46875     0.51388889  0.2734375   0.46875
  1.          0.          1.          0.35546875 -0.8         0.5       ]",0.9442961094326423,0,0
201,222,2024-09-16 20:40:57.733774848,TASK_BEGIN,6,-0.0097389543921589,-0.140326047875344,-2.530398891192137,0.4647403778257458,0.1615958759718209,0.1944552383010163,0.1394477983838456,-0.6494939319397652,0,2024-09-16 20:39:10.973736084,1726519150.973737,2024-09-16 20:39:10.973736960,6,0.0,0.1,8.3052064645243,[1. 0.],[0.03574943 0.96425057],"[ 0.26388889  0.2734375   0.46875     0.83888889  0.2734375   0.46875
  1.          0.          1.          0.40820312  1.         -0.1       ]",1.0073428899947552,0,0
202,223,2024-09-16 20:40:57.811064832,TASK_BEGIN,6,0.0071864700019738,-0.1776296313221982,-2.6494603362359634,0.5113686792797456,0.1939706653617817,0.1785535365992922,0.2278388426604106,-0.6866571533922441,0,2024-09-16 20:39:10.973736084,1726519150.973737,2024-09-16 20:39:10.973736960,6,0.0,0.1,8.3052064645243,[1. 0.],[0.03574943 0.96425057],"[ 0.26388889  0.2734375   0.46875     0.83888889  0.2734375   0.46875
  1.          0.          1.          0.40820312  1.         -0.1       ]",1.0073428899947552,0,0
203,224,2024-09-16 20:40:57.878755072,TASK_BEGIN,6,0.0245085918978408,-0.2170664281686741,-2.7426725892142545,0.5569608981024825,0.2275688062727449,0.1624320894297487,0.3115014899292862,-0.7250985791069195,0,2024-09-16 20:39:10.973736084,1726519150.973737,2024-09-16 20:39:10.973736960,6,0.0,0.1,8.3052064645243,[1. 0.],[0.03574943 0.96425057],"[ 0.26388889  0.2734375   0.46875     0.83888889  0.2734375   0.46875
  1.          0.          1.          0.40820312  1.         -0.1       ]",1.0073428899947552,0,0
204,225,2024-09-16 20:40:57.939805952,TASK_BEGIN,6,0.042653083408195,-0.2580618553269049,-2.8054692472626,0.599438984377455,0.2627465793641128,0.1460269059180128,0.3846408250546764,-0.7631430464936341,0,2024-09-16 20:39:10.973736084,1726519150.973737,2024-09-16 20:39:10.973736960,6,0.0,0.1,8.3052064645243,[1. 0.],[0.03574943 0.96425057],"[ 0.26388889  0.2734375   0.46875     0.83888889  0.2734375   0.46875
  1.          0.          1.          0.40820312  1.         -0.1       ]",1.0073428899947552,0,0
205,226,2024-09-16 20:40:58.014170880,TASK_BEGIN,6,0.0621178960595603,-0.2998345408147255,-2.8349064329065223,0.6368017257577044,0.2996332395473984,0.1293261829596194,0.440967508872725,-0.7989983435849658,0,2024-09-16 20:39:11.774291992,1726519151.7742922,2024-09-16 20:39:11.774292224,6,1.0,0.1,9.387425098802979,[0. 1.],[0.94177068 0.05822932],"[ 0.04166667  0.2734375   0.46875     0.61666667  0.2734375   0.46875
  1.          0.          1.          0.36328125 -0.8         0.5       ]",0.9407105236876392,0,0
206,227,2024-09-16 20:40:58.081864960,TASK_BEGIN,6,0.0834677589621138,-0.3414496565019012,-2.829823210901074,0.6672860118354418,0.3380316738528409,0.1123971342017817,0.4743039448038391,-0.8308586522772274,0,2024-09-16 20:39:11.774291992,1726519151.7742922,2024-09-16 20:39:11.774292224,6,1.0,0.1,9.387425098802979,[0. 1.],[0.94177068 0.05822932],"[ 0.04166667  0.2734375   0.46875     0.61666667  0.2734375   0.46875
  1.          0.          1.          0.36328125 -0.8         0.5       ]",0.9407105236876392,0,0
207,228,2024-09-16 20:40:58.149553920,TASK_BEGIN,6,0.1073609673531912,-0.3818944150323372,-2.7907627839368683,0.6894775007875459,0.3773514980628224,0.0954133525681533,0.4791909210046786,-0.8570220029421007,0,2024-09-16 20:39:11.774291992,1726519151.7742922,2024-09-16 20:39:11.774292224,6,1.0,0.1,9.387425098802979,[0. 1.],[0.94177068 0.05822932],"[ 0.04166667  0.2734375   0.46875     0.61666667  0.2734375   0.46875
  1.          0.          1.          0.36328125 -0.8         0.5       ]",0.9407105236876392,0,0
208,229,2024-09-16 20:40:59.093470208,TASK_BEGIN,6,0.13457465163213,-0.4201524925272588,-2.7197931913793463,0.7023715866959686,0.416586879064056,0.0786733764911062,0.4515681906833678,-0.8760459886789245,0,2024-09-16 20:39:12.726191162,1726519152.7261918,2024-09-16 20:39:12.726191872,6,1.0,0.1,9.493909836881826,[0. 1.],[0.82743198 0.17256802],"[ 0.35277778  0.2734375   0.46875     0.85277778  0.29296875  0.48828125
  1.          0.          1.          0.36523438 -0.8         0.5       ]",0.977996172171185,0,0
209,230,2024-09-16 20:40:59.161233920,TASK_BEGIN,6,0.1659827827862059,-0.4552628432875962,-2.620250443479277,0.7053821459340855,0.4543605978455754,0.0625973251400803,0.3895081435038982,-0.8869239189859857,0,2024-09-16 20:39:12.726191162,1726519152.7261918,2024-09-16 20:39:12.726191872,6,1.0,0.1,9.493909836881826,[0. 1.],[0.82743198 0.17256802],"[ 0.35277778  0.2734375   0.46875     0.85277778  0.29296875  0.48828125
  1.          0.          1.          0.36523438 -0.8         0.5       ]",0.977996172171185,0,0
210,231,2024-09-16 20:40:59.228201984,TASK_BEGIN,6,0.2024672793354385,-0.4863586703034513,-2.496373253373902,0.6982969713438262,0.4890267944336945,0.0477008051884295,0.2937923885914008,-0.8892281227772172,0,2024-09-16 20:39:12.726191162,1726519152.7261918,2024-09-16 20:39:12.726191872,6,1.0,0.1,9.493909836881826,[0. 1.],[0.82743198 0.17256802],"[ 0.35277778  0.2734375   0.46875     0.85277778  0.29296875  0.48828125
  1.          0.          1.          0.36523438 -0.8         0.5       ]",0.977996172171185,0,0
211,232,2024-09-16 20:40:59.296681984,TASK_BEGIN,6,0.2447723957641366,-0.5126897573769736,-2.352930178308116,0.681210808042212,0.518799595037847,0.034556124579418,0.1680907260573177,-0.8831584933391615,0,2024-09-16 20:39:12.726191162,1726519152.7261918,2024-09-16 20:39:12.726191872,6,1.0,0.1,9.493909836881826,[0. 1.],[0.82743198 0.17256802],"[ 0.35277778  0.2734375   0.46875     0.85277778  0.29296875  0.48828125
  1.          0.          1.          0.36523438 -0.8         0.5       ]",0.977996172171185,0,0
212,233,2024-09-16 20:40:59.364412160,TASK_BEGIN,6,0.2933233914659635,-0.5336322318350499,-2.1949733626833554,0.6544839909619249,0.5418902727588981,0.0237485554737911,0.0186512497323604,-0.8694682994302596,0,2024-09-16 20:39:12.726191162,1726519152.7261918,2024-09-16 20:39:12.726191872,6,1.0,0.1,9.493909836881826,[0. 1.],[0.82743198 0.17256802],"[ 0.35277778  0.2734375   0.46875     0.85277778  0.29296875  0.48828125
  1.          0.          1.          0.36523438 -0.8         0.5       ]",0.977996172171185,0,0
213,234,2024-09-16 20:40:59.428531968,TASK_BEGIN,6,0.3480414699547926,-0.5486886581409408,-2.0276401776213957,0.6187341195497384,0.5566589120049179,0.0158303852198501,-0.1464184802369017,-0.8493086821602661,0,2024-09-16 20:39:12.726191162,1726519152.7261918,2024-09-16 20:39:12.726191872,6,1.0,0.1,9.493909836881826,[0. 1.],[0.82743198 0.17256802],"[ 0.35277778  0.2734375   0.46875     0.85277778  0.29296875  0.48828125
  1.          0.          1.          0.36523438 -0.8         0.5       ]",0.977996172171185,0,0
214,235,2024-09-16 20:40:59.490100992,TASK_BEGIN,6,0.4082066726897632,-0.5574859795618544,-1.855832638257116,0.5748202983084633,0.5617804363838126,0.0112768433398307,-0.318063192613156,-0.8240725596754592,0,2024-09-16 20:39:12.726191162,1726519152.7261918,2024-09-16 20:39:12.726191872,6,1.0,0.1,9.493909836881826,[0. 1.],[0.82743198 0.17256802],"[ 0.35277778  0.2734375   0.46875     0.85277778  0.29296875  0.48828125
  1.          0.          1.          0.36523438 -0.8         0.5       ]",0.977996172171185,0,0
215,236,2024-09-16 20:41:00.443453184,TASK_BEGIN,6,0.4724254907248771,-0.5597830724053706,-1.683845843010578,0.5237940918147393,0.5564052607306627,0.0104488105084176,-0.4871332871860075,-0.7952854754066859,0,2024-09-16 20:39:13.628192871,1726519153.6281931,2024-09-16 20:39:13.628193024,6,0.0,0.1,10.450929894343355,[1. 0.],[0.04037532 0.95962468],"[ 0.10277778  0.2734375   0.46875     0.60277778  0.29296875  0.48828125
  1.          0.          1.          0.41796875  1.         -0.1       ]",1.0141849399362863,0,0
216,237,2024-09-16 20:41:00.511179008,TASK_BEGIN,6,0.5387382589129915,-0.5554934045954252,-1.515212578869419,0.4668400917083524,0.5402805940720216,0.0135647516680033,-0.6450655418304383,-0.7645273900478299,0,2024-09-16 20:39:13.628192871,1726519153.6281931,2024-09-16 20:39:13.628193024,6,0.0,0.1,10.450929894343355,[1. 0.],[0.04037532 0.95962468],"[ 0.10277778  0.2734375   0.46875     0.60277778  0.29296875  0.48828125
  1.          0.          1.          0.41796875  1.         -0.1       ]",1.0141849399362863,0,0
217,238,2024-09-16 20:41:00.578974208,TASK_BEGIN,6,0.604859742879202,-0.5447152149632933,-1.3528950647177884,0.4052423733539536,0.5137924497268646,0.0206854386513226,-0.7844421378085962,-0.7333341603233856,0,2024-09-16 20:39:13.628192871,1726519153.6281931,2024-09-16 20:39:13.628193024,6,0.0,0.1,10.450929894343355,[1. 0.],[0.04037532 0.95962468],"[ 0.10277778  0.2734375   0.46875     0.60277778  0.29296875  0.48828125
  1.          0.          1.          0.41796875  1.         -0.1       ]",1.0141849399362863,0,0
218,239,2024-09-16 20:41:00.646646016,TASK_BEGIN,6,0.6684930978287159,-0.5277517344674404,-1.1997129494632373,0.3403926937870854,0.4779085744895808,0.0317162428477437,-0.8994890131080125,-0.7030515429617994,0,2024-09-16 20:39:13.728270020,1726519153.7282703,2024-09-16 20:39:13.728270336,6,1.0,0.1,10.441956389445922,[0. 1.],[0.31863131 0.68136869],"[ 0.075       0.2734375   0.46875     0.575       0.29296875  0.48828125
  1.          0.          1.          0.38671875 -0.8         0.5       ]",0.8540499024355006,0,0
219,240,2024-09-16 20:41:00.704756224,TASK_BEGIN,6,0.7276232073216673,-0.5051036163903208,-1.0587748125219243,0.273830717906988,0.4340424430534481,0.0464253335771794,-0.986481809769768,-0.6746851620168218,0,2024-09-16 20:39:13.728270020,1726519153.7282703,2024-09-16 20:39:13.728270336,6,1.0,0.1,10.441956389445922,[0. 1.],[0.31863131 0.68136869],"[ 0.075       0.2734375   0.46875     0.575       0.29296875  0.48828125
  1.          0.          1.          0.38671875 -0.8         0.5       ]",0.8540499024355006,0,0
220,241,2024-09-16 20:41:00.781326848,TASK_BEGIN,6,0.7807085058144092,-0.4774262017698244,-0.933684160382469,0.2072807599495152,0.3838815731045499,0.0644681220560973,-1.0439469109111554,-0.6488324941286517,0,2024-09-16 20:39:14.534346191,1726519154.5343463,2024-09-16 20:39:14.534346240,6,0.0,0.1,10.376307202278756,[1. 0.],[0.89751543 0.10248457],"[-0.14722222  0.2734375   0.46875     0.35277778  0.29296875  0.48828125
  0.85277778  0.21484375  0.41015625  0.40234375  0.8        -0.03333333]",0.8090763339096047,0,0
221,242,2024-09-16 20:41:00.849974016,TASK_BEGIN,6,0.8267374467219429,-0.4454611756865709,-0.8284549446060725,0.1426484563476153,0.3292286430229981,0.0854075434851424,-1.0725299751667463,-0.6257385829138652,0,2024-09-16 20:39:14.634344971,1726519154.6343453,2024-09-16 20:39:14.634345216,6,1.0,0.1,10.368818688953407,[0. 1.],[0.01266546 0.98733454],"[-0.175       0.2734375   0.46875     0.325       0.29296875  0.48828125
  0.825       0.21484375  0.41015625  0.40429688 -0.8         0.5       ]",0.9199499918400755,0,0
222,243,2024-09-16 20:41:01.793691904,TASK_BEGIN,6,0.8651657688674046,-0.4099659913708056,-0.7473197282309576,0.0819790642461084,0.2718999398562474,0.1087258429594379,-1.0745025740257537,-0.6054315095463265,0,2024-09-16 20:39:15.388515869,1726519155.3885164,2024-09-16 20:39:15.388516352,6,1.0,0.1,11.199295594782217,[0. 1.],[0.99825266 0.00174734],"[ 0.11666667  0.29296875  0.48828125  0.61666667  0.21484375  0.41015625
  1.          0.          1.          0.34765625 -0.8         0.5       ]",0.9741802468799128,0,0
223,244,2024-09-16 20:41:01.850963200,TASK_BEGIN,6,0.89577905818362,-0.3716641191118578,-0.6946925551421348,0.0274128483640426,0.2136887763724232,0.1338332338825938,-1.0530121530309375,-0.587862798282177,0,2024-09-16 20:39:15.388515869,1726519155.3885164,2024-09-16 20:39:15.388516352,6,1.0,0.1,11.199295594782217,[0. 1.],[0.99825266 0.00174734],"[ 0.11666667  0.29296875  0.48828125  0.61666667  0.21484375  0.41015625
  1.          0.          1.          0.34765625 -0.8         0.5       ]",0.9741802468799128,0,0
224,245,2024-09-16 20:41:01.929135104,TASK_BEGIN,6,0.9185329933145552,-0.3312250314447957,-0.6753263486399251,-0.0188456534453888,0.1563462361746516,0.1600861262530095,-1.011270107645616,-0.573012898863141,0,2024-09-16 20:39:15.388515869,1726519155.3885164,2024-09-16 20:39:15.388516352,6,1.0,0.1,11.199295594782217,[0. 1.],[0.99825266 0.00174734],"[ 0.11666667  0.29296875  0.48828125  0.61666667  0.21484375  0.41015625
  1.          0.          1.          0.34765625 -0.8         0.5       ]",0.9741802468799128,0,0
225,246,2024-09-16 20:41:01.996860160,TASK_BEGIN,6,0.9334318064072082,-0.289267511037739,-0.6943118425353403,-0.0545917905790219,0.10152079370652,0.1868242083258353,-0.9519463215484092,-0.5609489737243084,0,2024-09-16 20:39:15.388515869,1726519155.3885164,2024-09-16 20:39:15.388516352,6,1.0,0.1,11.199295594782217,[0. 1.],[0.99825266 0.00174734],"[ 0.11666667  0.29296875  0.48828125  0.61666667  0.21484375  0.41015625
  1.          0.          1.          0.34765625 -0.8         0.5       ]",0.9741802468799128,0,0
226,247,2024-09-16 20:41:02.052594944,TASK_BEGIN,6,0.940502198179446,-0.2463714876666774,-0.7564111970041576,-0.0778049135537196,0.0506392235566236,0.2134242961554479,-0.8769914485236353,-0.5518243055231736,0,2024-09-16 20:39:15.388515869,1726519155.3885164,2024-09-16 20:39:15.388516352,6,1.0,0.1,11.199295594782217,[0. 1.],[0.99825266 0.00174734],"[ 0.11666667  0.29296875  0.48828125  0.61666667  0.21484375  0.41015625
  1.          0.          1.          0.34765625 -0.8         0.5       ]",0.9741802468799128,0,0
227,248,2024-09-16 20:41:02.130153728,TASK_BEGIN,6,0.9398754496533568,-0.2030833869482954,-0.8646334777705114,-0.0869793791606876,0.0047540312146917,0.2393609713740764,-0.7878800373924708,-0.5458339474416335,0,2024-09-16 20:39:15.388515869,1726519155.3885164,2024-09-16 20:39:15.388516352,6,1.0,0.1,11.199295594782217,[0. 1.],[0.99825266 0.00174734],"[ 0.11666667  0.29296875  0.48828125  0.61666667  0.21484375  0.41015625
  1.          0.          1.          0.34765625 -0.8         0.5       ]",0.9741802468799128,0,0
228,249,2024-09-16 20:41:02.191310848,TASK_BEGIN,6,0.9319230219802482,-0.1599082779500962,-1.0186139684185596,-0.0814970242002317,-0.0355949940250976,0.264261092871749,-0.6860885011302729,-0.5431781867264248,0,2024-09-16 20:39:15.388515869,1726519155.3885164,2024-09-16 20:39:15.388516352,6,1.0,0.1,11.199295594782217,[0. 1.],[0.99825266 0.00174734],"[ 0.11666667  0.29296875  0.48828125  0.61666667  0.21484375  0.41015625
  1.          0.          1.          0.34765625 -0.8         0.5       ]",0.9741802468799128,0,0
229,250,2024-09-16 20:41:03.137286912,TASK_BEGIN,6,0.9173548790666304,-0.1172939060923101,-1.2135622597240046,-0.0618666757192585,-0.0704531165474373,0.2879367597078689,-0.5736061655186531,-0.5440741556649595,0,2024-09-16 20:39:16.153516113,1726519156.153516,2024-09-16 20:39:16.153516032,6,1.0,0.1,11.031464195976932,[0. 1.],[0.86886829 0.13113171],"[-0.09166667  0.29296875  0.48828125  0.40833333  0.21484375  0.41015625
  0.97777778  0.21484375  0.41015625  0.31835938 -0.8         0.5       ]",0.9491265814047972,0,0
230,251,2024-09-16 20:41:03.211590144,TASK_BEGIN,6,0.8972151821141033,-0.0756177209490279,-1.4401121504095855,-0.0297422380448238,-0.1004200121621814,0.3103825231814885,-0.4532789354269622,-0.5488033613875233,0,2024-09-16 20:39:16.968446045,1726519156.9684465,2024-09-16 20:39:16.968446464,6,0.0,0.1,10.878248205270678,[1. 0.],[9.99849343e-01 1.50656736e-04],"[0.18611111 0.21484375 0.41015625 0.75555556 0.21484375 0.41015625
 1.         0.         1.         0.30273438 0.7        0.        ]",0.7035725122014097,0,0
231,252,2024-09-16 20:41:03.278270976,TASK_BEGIN,6,0.8727778112606899,-0.0351841142101115,-1.684876243388789,0.0122276360610426,-0.1265104883032206,0.3317327722137986,-0.328812453674685,-0.5577463911454754,0,2024-09-16 20:39:17.070595947,1726519157.070597,2024-09-16 20:39:17.070596864,6,0.0,0.1,10.86077106598579,[1. 0.],[0.36651179 0.63348821],"[ 0.15833333  0.21484375  0.41015625  0.72777778  0.21484375  0.41015625
  1.          0.          1.          0.3359375   0.9        -0.06666667]",0.9641071233954112,0,0
232,253,2024-09-16 20:41:03.347033856,TASK_BEGIN,6,0.84540160320199,0.0037705870666825,-1.9314028915851364,0.0606254682212646,-0.1499420836711485,0.3521921022892509,-0.2044580884204482,-0.5713485044231852,0,2024-09-16 20:39:17.070595947,1726519157.070597,2024-09-16 20:39:17.070596864,6,0.0,0.1,10.86077106598579,[1. 0.],[0.36651179 0.63348821],"[ 0.15833333  0.21484375  0.41015625  0.72777778  0.21484375  0.41015625
  1.          0.          1.          0.3359375   0.9        -0.06666667]",0.9641071233954112,0,0
233,254,2024-09-16 20:41:03.400708864,TASK_BEGIN,6,0.8164099973606936,0.0410740929371215,-2.1614049966109885,0.1115220534957057,-0.1719177409692787,0.3719646217762027,-0.0846217372082259,-0.5899734650217117,0,2024-09-16 20:39:17.070595947,1726519157.070597,2024-09-16 20:39:17.070596864,6,0.0,0.1,10.86077106598579,[1. 0.],[0.36651179 0.63348821],"[ 0.15833333  0.21484375  0.41015625  0.72777778  0.21484375  0.41015625
  1.          0.          1.          0.3359375   0.9        -0.06666667]",0.9641071233954112,0,0
