,Unnamed: 0,time,MARKER,pid,L_O_DSI,L_D_DSI,L_O_DSphi,L_D_DSphi,R_O_DSI,R_D_DSI,R_O_DSphi,R_D_DSphi,trial_id,dateTimestamps,floatTimestamps,timestamps,episode,actions,rewards,discounted_rewards,chosen_actions,optimal_actions,states,continuous_optimal,binary_optimal,discrete_optimal
1,1,2024-09-16 22:02:08.902544896,TASK_BEGIN,7,-0.0106565624542784,0.217715738085639,0.943222354837106,0.4317098209320248,1.7853137441199125,0.3062460516468827,-23.027625773215288,3.1634825349247278,1,2024-09-16 22:02:08.320558105,1726524128.320558,2024-09-16 22:02:08.320558080,0,1.0,0.7549871113282813,0.7549871113282813,[0.32290037 0.53077887 0.04054234 0.10577842],[0.32290037 0.53077887 0.04054234 0.10577842],"[ 2.0385582e-03  1.0021791e+00  1.4389215e-01 -3.6635961e-02
 -4.6601924e-03 -3.1365167e-02  0.0000000e+00  0.0000000e+00
 -6.0000002e-01  6.0203856e-01 -1.0179680e+01]",0.2555359634071006,0,0
2,2,2024-09-16 22:02:08.962001920,TASK_BEGIN,7,-0.1193866564705184,0.2874422220645879,0.9745426188165732,0.5423485622712657,2.517248579781317,0.2544261170058399,-27.69085524384732,5.665505752536038,1,2024-09-16 22:02:08.320558105,1726524128.320558,2024-09-16 22:02:08.320558080,0,1.0,0.7549871113282813,0.7549871113282813,[0.32290037 0.53077887 0.04054234 0.10577842],[0.32290037 0.53077887 0.04054234 0.10577842],"[ 2.0385582e-03  1.0021791e+00  1.4389215e-01 -3.6635961e-02
 -4.6601924e-03 -3.1365167e-02  0.0000000e+00  0.0000000e+00
 -6.0000002e-01  6.0203856e-01 -1.0179680e+01]",0.2555359634071006,0,0
3,3,2024-09-16 22:02:09.024050944,TASK_BEGIN,7,-0.2249571698719658,0.3533819020618951,0.997279925814232,0.6492181483478107,3.2132851904602027,0.2025467828572304,-32.08681640825985,8.025298251590188,1,2024-09-16 22:02:08.320558105,1726524128.320558,2024-09-16 22:02:08.320558080,0,1.0,0.7549871113282813,0.7549871113282813,[0.32290037 0.53077887 0.04054234 0.10577842],[0.32290037 0.53077887 0.04054234 0.10577842],"[ 2.0385582e-03  1.0021791e+00  1.4389215e-01 -3.6635961e-02
 -4.6601924e-03 -3.1365167e-02  0.0000000e+00  0.0000000e+00
 -6.0000002e-01  6.0203856e-01 -1.0179680e+01]",0.2555359634071006,0,0
4,4,2024-09-16 22:02:09.101741056,TASK_BEGIN,7,-0.3258950638479015,0.413989619108325,1.009216734123688,0.7497181807271178,3.860441991465952,0.1502344239552193,-36.1054197626526,10.182481012649522,1,2024-09-16 22:02:08.320558105,1726524128.320558,2024-09-16 22:02:08.320558080,0,1.0,0.7549871113282813,0.7549871113282813,[0.32290037 0.53077887 0.04054234 0.10577842],[0.32290037 0.53077887 0.04054234 0.10577842],"[ 2.0385582e-03  1.0021791e+00  1.4389215e-01 -3.6635961e-02
 -4.6601924e-03 -3.1365167e-02  0.0000000e+00  0.0000000e+00
 -6.0000002e-01  6.0203856e-01 -1.0179680e+01]",0.2555359634071006,0,0
5,5,2024-09-16 22:02:09.164226048,TASK_BEGIN,7,-0.4209312856367948,0.468082814837163,1.0091118355251183,0.841603354499758,4.450583297520382,0.0972988833827885,-39.665709970027926,12.088130804953524,1,2024-09-16 22:02:08.320558105,1726524128.320558,2024-09-16 22:02:08.320558080,0,1.0,0.7549871113282813,0.7549871113282813,[0.32290037 0.53077887 0.04054234 0.10577842],[0.32290037 0.53077887 0.04054234 0.10577842],"[ 2.0385582e-03  1.0021791e+00  1.4389215e-01 -3.6635961e-02
 -4.6601924e-03 -3.1365167e-02  0.0000000e+00  0.0000000e+00
 -6.0000002e-01  6.0203856e-01 -1.0179680e+01]",0.2555359634071006,0,0
6,6,2024-09-16 22:02:10.117141760,TASK_BEGIN,7,-0.5090276070885789,0.5148988012185234,0.9970174844832816,0.9230376926428624,4.980464997006288,0.0439793379291793,-42.71696059110129,13.705909572044431,1,2024-09-16 22:02:09.576510009,1726524129.576511,2024-09-16 22:02:09.576510976,0,0.0,-2.632552334658101,-20.410451614745714,[0.36230479 0.16994752 0.18895046 0.27879724],[0.36230479 0.16994752 0.18895046 0.27879724],"[ 0.03380338  0.69715    -0.04810512 -0.21944596  0.219524    0.03249278
  0.          0.         -0.6         0.63380337 -7.7394466 ]",0.07025536984655642,0,0
7,7,2024-09-16 22:02:10.184957952,TASK_BEGIN,7,-0.5893774499621176,0.554106162061346,0.9745262768644372,0.992582101497856,5.4512924969500425,-0.0089262294325835,-45.23378850267871,15.011621964639623,1,2024-09-16 22:02:09.576510009,1726524129.576511,2024-09-16 22:02:09.576510976,0,0.0,-2.632552334658101,-20.410451614745714,[0.36230479 0.16994752 0.18895046 0.27879724],[0.36230479 0.16994752 0.18895046 0.27879724],"[ 0.03380338  0.69715    -0.04810512 -0.21944596  0.219524    0.03249278
  0.          0.         -0.6         0.63380337 -7.7394466 ]",0.07025536984655642,0,0
8,8,2024-09-16 22:02:10.246163968,TASK_BEGIN,7,-0.661395195950538,0.5857693560909816,0.94477087911005,1.0491474808561774,5.86800426429528,-0.060157703221922,-47.20719272097053,15.991879067558113,1,2024-09-16 22:02:10.076687988,1726524130.076689,2024-09-16 22:02:10.076688896,0,0.0,-1.246654578195944,-29.583877254287042,[0.37754311 0.21869532 0.17568373 0.22807784],[0.37754311 0.21869532 0.17568373 0.22807784],"[ 4.8791566e-03  5.9302282e-01 -2.7338040e-01 -2.8483737e-01
  2.1112967e-01 -8.4200822e-02  0.0000000e+00  0.0000000e+00
 -6.0000002e-01  6.0487914e-01 -6.9064293e+00]",0.07058924810147625,0,0
9,9,2024-09-16 22:02:10.308652032,TASK_BEGIN,7,-0.7247019036571962,0.6102788369740514,0.9120544959004554,1.0919575032800246,6.238361715832304,-0.1082945436730652,-48.63527245841463,16.64273268300783,1,2024-09-16 22:02:10.076687988,1726524130.076689,2024-09-16 22:02:10.076688896,0,0.0,-1.246654578195944,-29.583877254287042,[0.37754311 0.21869532 0.17568373 0.22807784],[0.37754311 0.21869532 0.17568373 0.22807784],"[ 4.8791566e-03  5.9302282e-01 -2.7338040e-01 -2.8483737e-01
  2.1112967e-01 -8.4200822e-02  0.0000000e+00  0.0000000e+00
 -6.0000002e-01  6.0487914e-01 -6.9064293e+00]",0.07058924810147625,0,0
10,10,2024-09-16 22:02:10.385793024,TASK_BEGIN,7,-0.7790993349792742,0.6282668634723885,0.8810994383754517,1.120571827692359,6.5719314095337005,-0.1521805990720924,-49.51718758046994,16.96880261228388,1,2024-09-16 22:02:10.076687988,1726524130.076689,2024-09-16 22:02:10.076688896,0,0.0,-1.246654578195944,-29.583877254287042,[0.37754311 0.21869532 0.17568373 0.22807784],[0.37754311 0.21869532 0.17568373 0.22807784],"[ 4.8791566e-03  5.9302282e-01 -2.7338040e-01 -2.8483737e-01
  2.1112967e-01 -8.4200822e-02  0.0000000e+00  0.0000000e+00
 -6.0000002e-01  6.0487914e-01 -6.9064293e+00]",0.07058924810147625,0,0
11,11,2024-09-16 22:02:10.448278784,TASK_BEGIN,7,-0.8245210312034641,0.6405247517314885,0.856094053294022,1.1349846667162886,6.879046042060869,-0.191358605949494,-49.85261652023687,16.9832588333113,1,2024-09-16 22:02:10.286687988,1726524130.2866883,2024-09-16 22:02:10.286688256,0,0.0,-1.132575667892155,-29.301743176893147,[0.33316428 0.28934775 0.14850774 0.22898024],[0.33316428 0.28934775 0.14850774 0.22898024],"[-0.01425624  0.531003   -0.2928868  -0.40093502  0.14945246 -0.15289341
  0.          0.         -0.6         0.5857438  -6.4102707 ]",0.08679910012135228,0,0
12,12,2024-09-16 22:02:10.510787072,TASK_BEGIN,7,-0.8609719703049784,0.6479270718158621,0.8398706198017077,1.1357377548371803,7.1698067650690005,-0.2263625035869736,-49.6477042598679,16.708937057777476,1,2024-09-16 22:02:10.286687988,1726524130.2866883,2024-09-16 22:02:10.286688256,0,0.0,-1.132575667892155,-29.301743176893147,[0.33316428 0.28934775 0.14850774 0.22898024],[0.33316428 0.28934775 0.14850774 0.22898024],"[-0.01425624  0.531003   -0.2928868  -0.40093502  0.14945246 -0.15289341
  0.          0.         -0.6         0.5857438  -6.4102707 ]",0.08679910012135228,0,0
13,13,2024-09-16 22:02:11.454971136,TASK_BEGIN,7,-0.8884870356535315,0.6513622984844826,0.8334284040481219,1.1239637202376822,7.45316171805958,-0.258731666707101,-48.92657915897437,16.180105272409776,1,2024-09-16 22:02:10.979687012,1726524130.9796877,2024-09-16 22:02:10.979687680,0,0.0,-2.9216318964858203,-27.7234947896759,[0.46320032 0.35822305 0.13444566 0.04413097],[0.46320032 0.35822305 0.13444566 0.04413097],"[-0.09165629  0.2190311  -0.3324508  -0.5559014  -0.12181695 -0.17816107
  0.          0.         -0.6         0.5083437  -3.9144957 ]",0.33689854061542207,0,0
14,14,2024-09-16 22:02:11.531827968,TASK_BEGIN,7,-0.9071255840645502,0.6516705924510481,0.8358030066661757,1.1013217800898838,7.736098107556412,-0.2907199734357664,-47.74492080770781,15.443579466638484,1,2024-09-16 22:02:10.979687012,1726524130.9796877,2024-09-16 22:02:10.979687680,0,0.0,-2.9216318964858203,-27.7234947896759,[0.46320032 0.35822305 0.13444566 0.04413097],[0.46320032 0.35822305 0.13444566 0.04413097],"[-0.09165629  0.2190311  -0.3324508  -0.5559014  -0.12181695 -0.17816107
  0.          0.         -0.6         0.5083437  -3.9144957 ]",0.33689854061542207,0,0
15,15,2024-09-16 22:02:11.600069120,TASK_BEGIN,7,-0.9169987015769828,0.6495946263044696,0.8442578602069238,1.06983458707396,8.023106209878131,-0.32481257434972,-46.19972943453994,14.55800972877555,1,2024-09-16 22:02:11.462688965,1726524131.4626896,2024-09-16 22:02:11.462689536,0,0.0,-2.7508900957497815,-22.46652724852458,[0.4305059  0.40746421 0.126086   0.0359439 ],[0.4305059  0.40746421 0.126086   0.0359439 ],"[-0.1345567   0.00922203 -0.13994274 -0.5129078  -0.2631996  -0.06937148
  0.          0.         -0.6         0.4654433  -2.2360232 ]",0.354253880787688,0,0
16,16,2024-09-16 22:02:11.666946816,TASK_BEGIN,7,-0.9183239516579992,0.6457538702171979,0.8547926557146717,1.0316691761806307,8.316114844745254,-0.3632308164072348,-44.42898990204368,13.590854020708353,1,2024-09-16 22:02:11.462688965,1726524131.4626896,2024-09-16 22:02:11.462689536,0,0.0,-2.7508900957497815,-22.46652724852458,[0.4305059  0.40746421 0.126086   0.0359439 ],[0.4305059  0.40746421 0.126086   0.0359439 ],"[-0.1345567   0.00922203 -0.13994274 -0.5129078  -0.2631996  -0.06937148
  0.          0.         -0.6         0.4654433  -2.2360232 ]",0.354253880787688,0,0
17,17,2024-09-16 22:02:11.738290944,TASK_BEGIN,7,-0.9115033896583604,0.6406487348467393,0.8628730148531445,0.9889271445699817,8.614881434649462,-0.4075732119677784,-42.598794880195,12.613354804412475,1,2024-09-16 22:02:11.462688965,1726524131.4626896,2024-09-16 22:02:11.462689536,0,0.0,-2.7508900957497815,-22.46652724852458,[0.4305059  0.40746421 0.126086   0.0359439 ],[0.4305059  0.40746421 0.126086   0.0359439 ],"[-0.1345567   0.00922203 -0.13994274 -0.5129078  -0.2631996  -0.06937148
  0.          0.         -0.6         0.4654433  -2.2360232 ]",0.354253880787688,0,0
18,18,2024-09-16 22:02:11.802556928,TASK_BEGIN,7,-0.8972045838725847,0.6346856467877632,0.8642337572921,0.9434973794000816,8.91760780631001,-0.4586469638188526,-40.88254940983085,11.69471929327216,1,2024-09-16 22:02:11.462688965,1726524131.4626896,2024-09-16 22:02:11.462689536,0,0.0,-2.7508900957497815,-22.46652724852458,[0.4305059  0.40746421 0.126086   0.0359439 ],[0.4305059  0.40746421 0.126086   0.0359439 ],"[-0.1345567   0.00922203 -0.13994274 -0.5129078  -0.2631996  -0.06937148
  0.          0.         -0.6         0.4654433  -2.2360232 ]",0.354253880787688,0,0
19,19,2024-09-16 22:02:11.873851136,TASK_BEGIN,7,-0.8764058317125092,0.6282008537326723,0.8556439145732546,0.8969868493530938,9.22148479360088,-0.5164310901971788,-39.441088948416656,10.89706220972413,1,2024-09-16 22:02:11.462688965,1726524131.4626896,2024-09-16 22:02:11.462689536,0,0.0,-2.7508900957497815,-22.46652724852458,[0.4305059  0.40746421 0.126086   0.0359439 ],[0.4305059  0.40746421 0.126086   0.0359439 ],"[-0.1345567   0.00922203 -0.13994274 -0.5129078  -0.2631996  -0.06937148
  0.          0.         -0.6         0.4654433  -2.2360232 ]",0.354253880787688,0,0
20,20,2024-09-16 22:02:12.806832128,TASK_BEGIN,7,-0.8503728765299726,0.6214653591077725,0.8355041250931005,0.8507156194587142,9.522866699303297,-0.5800514115103169,-38.41030455463748,10.272056170539964,1,2024-09-16 22:02:12.397923096,1726524132.3979232,2024-09-16 22:02:12.397923328,0,3.0,10.865213945395018,19.976043475163806,[0.02343294 0.00787857 0.0084752  0.96021329],[0.02343294 0.00787857 0.0084752  0.96021329],"[-1.0110927e-01 -2.4183398e-01  2.4913882e-01 -1.8639517e-05
  1.8121816e-01 -5.2430559e-02  0.0000000e+00  1.0000000e+00
 -6.0000002e-01  4.9889073e-01 -2.2757502e-01]",1.3610272501439085,1,1
21,21,2024-09-16 22:02:12.884448000,TASK_BEGIN,7,-0.8205651949394868,0.6146726013483754,0.8041008384174556,0.8057622350951268,9.81702546941571,-0.6477157813826424,-37.89661160369866,9.859164299388317,1,2024-09-16 22:02:12.397923096,1726524132.3979232,2024-09-16 22:02:12.397923328,0,3.0,10.865213945395018,19.976043475163806,[0.02343294 0.00787857 0.0084752  0.96021329],[0.02343294 0.00787857 0.0084752  0.96021329],"[-1.0110927e-01 -2.4183398e-01  2.4913882e-01 -1.8639517e-05
  1.8121816e-01 -5.2430559e-02  0.0000000e+00  1.0000000e+00
 -6.0000002e-01  4.9889073e-01 -2.2757502e-01]",1.3610272501439085,1,1
22,22,2024-09-16 22:02:12.952861184,TASK_BEGIN,7,-0.7884981048475053,0.6079255164245598,0.7634494451246588,0.7630464457439706,10.097869073527878,-0.7166909319008183,-37.97554388108778,9.68453857459231,1,2024-09-16 22:02:12.397923096,1726524132.3979232,2024-09-16 22:02:12.397923328,0,3.0,10.865213945395018,19.976043475163806,[0.02343294 0.00787857 0.0084752  0.96021329],[0.02343294 0.00787857 0.0084752  0.96021329],"[-1.0110927e-01 -2.4183398e-01  2.4913882e-01 -1.8639517e-05
  1.8121816e-01 -5.2430559e-02  0.0000000e+00  1.0000000e+00
 -6.0000002e-01  4.9889073e-01 -2.2757502e-01]",1.3610272501439085,1,1
23,23,2024-09-16 22:02:13.008574976,TASK_BEGIN,7,-0.7555949786729994,0.6012373332108037,0.7168779651681827,0.7234059980775919,10.358060451133952,-0.7834232967050133,-38.68878909513065,9.75982198425303,1,2024-09-16 22:02:12.397923096,1726524132.3979232,2024-09-16 22:02:12.397923328,0,3.0,10.865213945395018,19.976043475163806,[0.02343294 0.00787857 0.0084752  0.96021329],[0.02343294 0.00787857 0.0084752  0.96021329],"[-1.0110927e-01 -2.4183398e-01  2.4913882e-01 -1.8639517e-05
  1.8121816e-01 -5.2430559e-02  0.0000000e+00  1.0000000e+00
 -6.0000002e-01  4.9889073e-01 -2.2757502e-01]",1.3610272501439085,1,1
24,24,2024-09-16 22:02:13.088300032,TASK_BEGIN,7,-0.7230609595089065,0.5945481394492459,0.6685611873245216,0.6876146185294058,10.589552051771014,-0.8437908726930569,-40.038862967431214,10.081117887422383,1,2024-09-16 22:02:12.397923096,1726524132.3979232,2024-09-16 22:02:12.397923328,0,3.0,10.865213945395018,19.976043475163806,[0.02343294 0.00787857 0.0084752  0.96021329],[0.02343294 0.00787857 0.0084752  0.96021329],"[-1.0110927e-01 -2.4183398e-01  2.4913882e-01 -1.8639517e-05
  1.8121816e-01 -5.2430559e-02  0.0000000e+00  1.0000000e+00
 -6.0000002e-01  4.9889073e-01 -2.2757502e-01]",1.3610272501439085,1,1
25,25,2024-09-16 22:02:13.148287232,TASK_BEGIN,7,-0.6918058062264626,0.5877522519286649,0.6230561695719651,0.6563492782016794,10.78419855283852,-0.8933945824858437,-41.984050505873896,10.6290589150875,1,2024-09-16 22:02:12.397923096,1726524132.3979232,2024-09-16 22:02:12.397923328,0,3.0,10.865213945395018,19.976043475163806,[0.02343294 0.00787857 0.0084752  0.96021329],[0.02343294 0.00787857 0.0084752  0.96021329],"[-1.0110927e-01 -2.4183398e-01  2.4913882e-01 -1.8639517e-05
  1.8121816e-01 -5.2430559e-02  0.0000000e+00  1.0000000e+00
 -6.0000002e-01  4.9889073e-01 -2.2757502e-01]",1.3610272501439085,1,1
26,26,2024-09-16 22:02:13.210289152,TASK_BEGIN,7,-0.6624303129870582,0.580730991957706,0.5847625294061539,0.6301727437182497,10.934190801526883,-0.927845507575658,-44.437244199660704,11.370579266772392,1,2024-09-16 22:02:12.397923096,1726524132.3979232,2024-09-16 22:02:12.397923328,0,3.0,10.865213945395018,19.976043475163806,[0.02343294 0.00787857 0.0084752  0.96021329],[0.02343294 0.00787857 0.0084752  0.96021329],"[-1.0110927e-01 -2.4183398e-01  2.4913882e-01 -1.8639517e-05
  1.8121816e-01 -5.2430559e-02  0.0000000e+00  1.0000000e+00
 -6.0000002e-01  4.9889073e-01 -2.2757502e-01]",1.3610272501439085,1,1
27,27,2024-09-16 22:02:14.167355904,TASK_BEGIN,7,-0.6352684652838261,0.5733870155565934,0.5572796892877497,0.6095682631502314,11.03248982667975,-0.9430996718159436,-47.27109597987669,12.262251100860071,1,2024-09-16 22:02:13.886379883,1726524133.8863802,2024-09-16 22:02:13.886380288,0,1.0,-1.0767334486516182,16.025453685466147,[0.41359921 0.43047562 0.05525116 0.10067402],[0.41359921 0.43047562 0.05525116 0.10067402],"[-0.1248374  -0.25071293 -0.10894024 -0.00472501  0.14899254 -0.01493381
  0.          1.         -0.6         0.4751626  -0.15654345]",0.42256738413829903,1,1
28,28,2024-09-16 22:02:14.225978880,TASK_BEGIN,7,-0.6104621599296047,0.5656787462919013,0.5427708228603677,0.5949965998498066,11.073700167716051,-0.9359328661460756,-50.32949214446235,13.254432152616118,1,2024-09-16 22:02:13.886379883,1726524133.8863802,2024-09-16 22:02:13.886380288,0,1.0,-1.0767334486516182,16.025453685466147,[0.41359921 0.43047562 0.05525116 0.10067402],[0.41359921 0.43047562 0.05525116 0.10067402],"[-0.1248374  -0.25071293 -0.10894024 -0.00472501  0.14899254 -0.01493381
  0.          1.         -0.6         0.4751626  -0.15654345]",0.42256738413829903,1,1
29,29,2024-09-16 22:02:14.288016128,TASK_BEGIN,7,-0.5880419447310785,0.5576497441765547,0.5415386013729228,0.5869290918863339,11.055390728086882,-0.9045599485441054,-53.4434330034659,14.29537823106796,1,2024-09-16 22:02:13.886379883,1726524133.8863802,2024-09-16 22:02:13.886380288,0,1.0,-1.0767334486516182,16.025453685466147,[0.41359921 0.43047562 0.05525116 0.10067402],[0.41359921 0.43047562 0.05525116 0.10067402],"[-0.1248374  -0.25071293 -0.10894024 -0.00472501  0.14899254 -0.01493381
  0.          1.         -0.6         0.4751626  -0.15654345]",0.42256738413829903,1,1
30,30,2024-09-16 22:02:14.366708992,TASK_BEGIN,7,-0.5679960309859519,0.549439257659664,0.5519724562061764,0.5858387941610769,10.979207826153925,-0.8492267879152812,-56.44815593707341,15.334938816673503,1,2024-09-16 22:02:13.886379883,1726524133.8863802,2024-09-16 22:02:13.886380288,0,1.0,-1.0767334486516182,16.025453685466147,[0.41359921 0.43047562 0.05525116 0.10067402],[0.41359921 0.43047562 0.05525116 0.10067402],"[-0.1248374  -0.25071293 -0.10894024 -0.00472501  0.14899254 -0.01493381
  0.          1.         -0.6         0.4751626  -0.15654345]",0.42256738413829903,1,1
31,31,2024-09-16 22:02:14.429195776,TASK_BEGIN,7,-0.5503248116207314,0.541263787704045,0.5708538367660531,0.5921630179085978,10.851166204669733,-0.7725444929212314,-59.19726171240409,16.32765100969779,1,2024-09-16 22:02:13.886379883,1726524133.8863802,2024-09-16 22:02:13.886380288,0,1.0,-1.0767334486516182,16.025453685466147,[0.41359921 0.43047562 0.05525116 0.10067402],[0.41359921 0.43047562 0.05525116 0.10067402],"[-0.1248374  -0.25071293 -0.10894024 -0.00472501  0.14899254 -0.01493381
  0.          1.         -0.6         0.4751626  -0.15654345]",0.42256738413829903,1,1
32,32,2024-09-16 22:02:14.491681280,TASK_BEGIN,7,-0.5350799558458381,0.5333769833583145,0.5938750600392212,0.606266078673725,10.681142645269324,-0.6794655488795946,-61.57029406678104,17.234719037015044,1,2024-09-16 22:02:13.886379883,1726524133.8863802,2024-09-16 22:02:13.886380288,0,1.0,-1.0767334486516182,16.025453685466147,[0.41359921 0.43047562 0.05525116 0.10067402],[0.41359921 0.43047562 0.05525116 0.10067402],"[-0.1248374  -0.25071293 -0.10894024 -0.00472501  0.14899254 -0.01493381
  0.          1.         -0.6         0.4751626  -0.15654345]",0.42256738413829903,1,1
33,33,2024-09-16 22:02:14.573810176,TASK_BEGIN,7,-0.5223773677570874,0.5260267170585189,0.6162793677623527,0.6284121941975437,10.481928408954152,-0.5769227497800893,-63.47342092400022,18.024491218261375,1,2024-09-16 22:02:13.886379883,1726524133.8863802,2024-09-16 22:02:13.886380288,0,1.0,-1.0767334486516182,16.025453685466147,[0.41359921 0.43047562 0.05525116 0.10067402],[0.41359921 0.43047562 0.05525116 0.10067402],"[-0.1248374  -0.25071293 -0.10894024 -0.00472501  0.14899254 -0.01493381
  0.          1.         -0.6         0.4751626  -0.15654345]",0.42256738413829903,1,1
34,34,2024-09-16 22:02:15.491844096,TASK_BEGIN,7,-0.5123738343537072,0.5194227067534501,0.6336410887559937,0.6587235484506586,10.267986470990785,-0.4731595959484813,-64.8363759297078,18.67202145695925,1,2024-09-16 22:02:14.589747070,1726524134.5897477,2024-09-16 22:02:14.589747712,0,0.0,0.30584246622720457,15.152466523041767,[0.47751843 0.22331716 0.01809436 0.28107006],[0.47751843 0.22331716 0.01809436 0.28107006],"[-1.3772805e-01 -2.5199592e-01  4.7421850e-06  4.3532316e-07
  1.3639982e-01 -9.8970577e-07  0.0000000e+00  0.0000000e+00
 -6.0000002e-01  4.6227196e-01 -1.4627953e-01]",0.3488494818795117,1,1
35,35,2024-09-16 22:02:15.558737152,TASK_BEGIN,7,-0.5052103125132902,0.5137130773194688,0.6427297002005804,0.6971004395278156,10.05387750373077,-0.3767950560938055,-65.61070331176629,19.159079715599624,1,2024-09-16 22:02:14.816809814,1726524134.8168101,2024-09-16 22:02:14.816810240,0,0.0,2.9794061617849366e-07,13.567149734098333,[0.47847189 0.22623839 0.01813049 0.27715924],[0.47847189 0.22623839 0.01813049 0.27715924],"[-1.3772766e-01 -2.5199580e-01 -7.2721722e-09 -1.5783211e-09
  1.3639887e-01  1.9846867e-08  0.0000000e+00  0.0000000e+00
 -6.0000002e-01  4.6227235e-01 -1.4628048e-01]",0.34810472460845315,1,1
36,36,2024-09-16 22:02:15.612668928,TASK_BEGIN,7,-0.5009390480181027,0.5089593711280213,0.6422108407843115,0.7431151349165565,9.852534340768337,-0.2957525676589734,-65.77293386360736,19.47538801390052,1,2024-09-16 22:02:14.816809814,1726524134.8168101,2024-09-16 22:02:14.816810240,0,0.0,2.9794061617849366e-07,13.567149734098333,[0.47847189 0.22623839 0.01813049 0.27715924],[0.47847189 0.22623839 0.01813049 0.27715924],"[-1.3772766e-01 -2.5199580e-01 -7.2721722e-09 -1.5783211e-09
  1.3639887e-01  1.9846867e-08  0.0000000e+00  0.0000000e+00
 -6.0000002e-01  4.6227235e-01 -1.4628048e-01]",0.34810472460845315,1,1
37,37,2024-09-16 22:02:15.690311936,TASK_BEGIN,7,-0.4994652440644466,0.5051089881372588,0.6329360883249945,0.7959128882141278,9.673837691724708,-0.2362525324460408,-65.33139625149501,19.620408978246203,1,2024-09-16 22:02:14.816809814,1726524134.8168101,2024-09-16 22:02:14.816810240,0,0.0,2.9794061617849366e-07,13.567149734098333,[0.47847189 0.22623839 0.01813049 0.27715924],[0.47847189 0.22623839 0.01813049 0.27715924],"[-1.3772766e-01 -2.5199580e-01 -7.2721722e-09 -1.5783211e-09
  1.3639887e-01  1.9846867e-08  0.0000000e+00  0.0000000e+00
 -6.0000002e-01  4.6227235e-01 -1.4628048e-01]",0.34810472460845315,1,1
38,38,2024-09-16 22:02:15.752826880,TASK_BEGIN,7,-0.5005375587492891,0.501982568095103,0.6177765244264668,0.8541503063814418,9.523843589598837,-0.2020508867207904,-64.33135986286062,19.60438683809096,1,2024-09-16 22:02:14.963025146,1726524134.9630253,2024-09-16 22:02:14.963025408,0,0.0,2.7035799092800517e-06,12.645486453503135,[0.47847189 0.22623839 0.01813049 0.27715924],[0.47847189 0.22623839 0.01813049 0.27715924],"[-1.3772766e-01 -2.5199580e-01  3.0152407e-09  7.7742279e-10
  1.3639870e-01 -1.1322191e-08  0.0000000e+00  0.0000000e+00
 -6.0000002e-01  4.6227235e-01 -1.4628048e-01]",0.3481046768949584,1,1
39,39,2024-09-16 22:02:15.830565888,TASK_BEGIN,7,-0.5037949546425511,0.4992953790358104,0.601098936685018,0.9159902768661458,9.404723968026362,-0.1940343394735589,-62.85410434012438,19.447876178406453,1,2024-09-16 22:02:14.963025146,1726524134.9630253,2024-09-16 22:02:14.963025408,0,0.0,2.7035799092800517e-06,12.645486453503135,[0.47847189 0.22623839 0.01813049 0.27715924],[0.47847189 0.22623839 0.01813049 0.27715924],"[-1.3772766e-01 -2.5199580e-01  3.0152407e-09  7.7742279e-10
  1.3639870e-01 -1.1322191e-08  0.0000000e+00  0.0000000e+00
 -6.0000002e-01  4.6227235e-01 -1.4628048e-01]",0.3481046768949584,1,1
40,40,2024-09-16 22:02:15.898484736,TASK_BEGIN,7,-0.5088356084143313,0.4967098801417974,0.5879786502996466,0.9791677201499092,9.31533073985698,-0.2101932792102389,-61.00943940140196,19.17971659807017,1,2024-09-16 22:02:14.984016846,1726524134.9840176,2024-09-16 22:02:14.984017664,0,0.0,1.493282724140954e-07,12.519031738296377,[0.47847189 0.22623839 0.01813049 0.27715924],[0.47847189 0.22623839 0.01813049 0.27715924],"[-1.3772766e-01 -2.5199580e-01  1.4669266e-09 -6.8874195e-10
  1.3639870e-01  2.8706115e-09  0.0000000e+00  0.0000000e+00
 -6.0000002e-01  4.6227235e-01 -1.4628048e-01]",0.3481046290414052,1,1
41,41,2024-09-16 22:02:16.836195072,TASK_BEGIN,7,-0.5152666229930978,0.4938939988567641,0.5832667497284364,1.0411317691673567,9.2521493162433,-0.2459179342393809,-58.92381312624352,18.833818312368848,1,2024-09-16 22:02:16.711307129,1726524136.7113075,2024-09-16 22:02:16.711307520,1,0.0,-2.0473463592057044,-6.462522338472367,[0.42348012 0.20840992 0.05375901 0.31435095],[0.42348012 0.20840992 0.05375901 0.31435095],"[-4.6054521e-03  9.9474442e-01 -1.3650073e-01 -1.5584081e-01
  1.3196646e-02  5.1809531e-02  0.0000000e+00  0.0000000e+00
 -6.0000002e-01  5.9539455e-01 -1.1359025e+01]",0.17841728808888532,0,0
42,42,2024-09-16 22:02:16.898679808,TASK_BEGIN,7,-0.5227282119581331,0.4905588878118324,0.590752117861811,1.0992376805038526,9.210176967957796,-0.2945255750866091,-56.72648473198236,18.445333619516184,1,2024-09-16 22:02:16.774331055,1726524136.7743318,2024-09-16 22:02:16.774331904,1,0.0,-2.370341095070586,-13.049796869291281,[0.43589146 0.18519151 0.06207826 0.31683877],[0.43589146 0.18519151 0.06207826 0.31683877],"[-7.3725381e-03  9.8504043e-01 -1.3660303e-01 -2.3267005e-01
  2.0961169e-02  5.1762264e-02  0.0000000e+00  0.0000000e+00
 -6.0000002e-01  5.9262747e-01 -1.1281393e+01]",0.18914005769810627,0,0
43,43,2024-09-16 22:02:16.977520896,TASK_BEGIN,7,-0.5309113298082634,0.4864695773805914,0.6126750180003208,1.1509291007799607,9.183278783162663,-0.3479086352754907,-54.53655195056699,18.04702468495706,1,2024-09-16 22:02:16.774331055,1726524136.7743318,2024-09-16 22:02:16.774331904,1,0.0,-2.370341095070586,-13.049796869291281,[0.43589146 0.18519151 0.06207826 0.31683877],[0.43589146 0.18519151 0.06207826 0.31683877],"[-7.3725381e-03  9.8504043e-01 -1.3660303e-01 -2.3267005e-01
  2.0961169e-02  5.1762264e-02  0.0000000e+00  0.0000000e+00
 -6.0000002e-01  5.9262747e-01 -1.1281393e+01]",0.18914005769810627,0,0
44,44,2024-09-16 22:02:17.045016064,TASK_BEGIN,7,-0.5395705017300346,0.4814408634789335,0.6496601535116896,1.1938714693396029,9.164052234256022,-0.3972219555477235,-52.45369236512703,17.66663607963144,1,2024-09-16 22:02:16.774331055,1726524136.7743318,2024-09-16 22:02:16.774331904,1,0.0,-2.370341095070586,-13.049796869291281,[0.43589146 0.18519151 0.06207826 0.31683877],[0.43589146 0.18519151 0.06207826 0.31683877],"[-7.3725381e-03  9.8504043e-01 -1.3660303e-01 -2.3267005e-01
  2.0961169e-02  5.1762264e-02  0.0000000e+00  0.0000000e+00
 -6.0000002e-01  5.9262747e-01 -1.1281393e+01]",0.18914005769810627,0,0
45,45,2024-09-16 22:02:17.113010944,TASK_BEGIN,7,-0.5485053617642308,0.4753332518590963,0.7009578717479956,1.2260486613475758,9.14378228546346,-0.433629318843698,-50.55349065101892,17.32548651637042,1,2024-09-16 22:02:16.774331055,1726524136.7743318,2024-09-16 22:02:16.774331904,1,0.0,-2.370341095070586,-13.049796869291281,[0.43589146 0.18519151 0.06207826 0.31683877],[0.43589146 0.18519151 0.06207826 0.31683877],"[-7.3725381e-03  9.8504043e-01 -1.3660303e-01 -2.3267005e-01
  2.0961169e-02  5.1762264e-02  0.0000000e+00  0.0000000e+00
 -6.0000002e-01  5.9262747e-01 -1.1281393e+01]",0.18914005769810627,0,0
46,46,2024-09-16 22:02:17.177995776,TASK_BEGIN,7,-0.5574970576301316,0.4680542136614221,0.7648495240033731,1.2458497538242106,9.113119618711297,-0.4491823364280303,-48.88641105554255,17.03800438587484,1,2024-09-16 22:02:16.774331055,1726524136.7743318,2024-09-16 22:02:16.774331904,1,0.0,-2.370341095070586,-13.049796869291281,[0.43589146 0.18519151 0.06207826 0.31683877],[0.43589146 0.18519151 0.06207826 0.31683877],"[-7.3725381e-03  9.8504043e-01 -1.3660303e-01 -2.3267005e-01
  2.0961169e-02  5.1762264e-02  0.0000000e+00  0.0000000e+00
 -6.0000002e-01  5.9262747e-01 -1.1281393e+01]",0.18914005769810627,0,0
47,47,2024-09-16 22:02:17.239102976,TASK_BEGIN,7,-0.5662328174848653,0.4595611225277017,0.8390680376151336,1.2521631781777605,9.063601475818812,-0.4378043924530565,-47.480211741496646,16.812146026746763,1,2024-09-16 22:02:16.774331055,1726524136.7743318,2024-09-16 22:02:16.774331904,1,0.0,-2.370341095070586,-13.049796869291281,[0.43589146 0.18519151 0.06207826 0.31683877],[0.43589146 0.18519151 0.06207826 0.31683877],"[-7.3725381e-03  9.8504043e-01 -1.3660303e-01 -2.3267005e-01
  2.0961169e-02  5.1762264e-02  0.0000000e+00  0.0000000e+00
 -6.0000002e-01  5.9262747e-01 -1.1281393e+01]",0.18914005769810627,0,0
48,48,2024-09-16 22:02:18.188482816,TASK_BEGIN,7,-0.5742702406875323,0.4498597778131673,0.9210864183480184,1.2444870784363125,8.98943567703002,-0.3961856481870116,-46.34600315263264,16.65073139734045,1,2024-09-16 22:02:18.027587891,1726524138.0275888,2024-09-16 22:02:18.027588864,1,0.0,-2.461568839021851,-18.474166176252094,[0.34077915 0.30133829 0.12853851 0.22934405],[0.34077915 0.30133829 0.12853851 0.22934405],"[-0.08976889  0.53055847 -0.19887082 -0.47671017 -0.02229999 -0.03989602
  0.          0.         -0.6         0.51023114 -7.6455374 ]",0.08337492007156869,0,0
49,49,2024-09-16 22:02:18.260500992,TASK_BEGIN,7,-0.581057593997227,0.4389951574034123,1.0082252466091923,1.2230374476907209,8.888545100187441,-0.3242952707318131,-45.485709856800085,16.55310782380737,1,2024-09-16 22:02:18.027587891,1726524138.0275888,2024-09-16 22:02:18.027588864,1,0.0,-2.461568839021851,-18.474166176252094,[0.34077915 0.30133829 0.12853851 0.22934405],[0.34077915 0.30133829 0.12853851 0.22934405],"[-0.08976889  0.53055847 -0.19887082 -0.47671017 -0.02229999 -0.03989602
  0.          0.         -0.6         0.51023114 -7.6455374 ]",0.08337492007156869,0,0
50,50,2024-09-16 22:02:18.327783168,TASK_BEGIN,7,-0.5859848538113952,0.4270384620332078,1.0976331288271006,1.1888106258529556,8.76221676641771,-0.2252903155124845,-44.89686452481857,16.51613399071411,1,2024-09-16 22:02:18.027587891,1726524138.0275888,2024-09-16 22:02:18.027588864,1,0.0,-2.461568839021851,-18.474166176252094,[0.34077915 0.30133829 0.12853851 0.22934405],[0.34077915 0.30133829 0.12853851 0.22934405],"[-0.08976889  0.53055847 -0.19887082 -0.47671017 -0.02229999 -0.03989602
  0.          0.         -0.6         0.51023114 -7.6455374 ]",0.08337492007156869,0,0
51,51,2024-09-16 22:02:18.390270976,TASK_BEGIN,7,-0.5884350639772203,0.4140805774319639,1.1862069194392304,1.1435610279633266,8.613711309778608,-0.1048553091682914,-44.573154173765154,16.534151813751322,1,2024-09-16 22:02:18.027587891,1726524138.0275888,2024-09-16 22:02:18.027588864,1,0.0,-2.461568839021851,-18.474166176252094,[0.34077915 0.30133829 0.12853851 0.22934405],[0.34077915 0.30133829 0.12853851 0.22934405],"[-0.08976889  0.53055847 -0.19887082 -0.47671017 -0.02229999 -0.03989602
  0.          0.         -0.6         0.51023114 -7.6455374 ]",0.08337492007156869,0,0
52,52,2024-09-16 22:02:18.457477120,TASK_BEGIN,7,-0.5878236749925331,0.4002338115491814,1.27050862947132,1.0896788696530255,8.446903830922752,0.0297597524734053,-44.50321011217209,16.598670533424198,1,2024-09-16 22:02:18.027587891,1726524138.0275888,2024-09-16 22:02:18.027588864,1,0.0,-2.461568839021851,-18.474166176252094,[0.34077915 0.30133829 0.12853851 0.22934405],[0.34077915 0.30133829 0.12853851 0.22934405],"[-0.08976889  0.53055847 -0.19887082 -0.47671017 -0.02229999 -0.03989602
  0.          0.         -0.6         0.51023114 -7.6455374 ]",0.08337492007156869,0,0
53,53,2024-09-16 22:02:18.530467072,TASK_BEGIN,7,-0.5836258045433675,0.3856295739408998,1.3467154957474166,1.029993915573305,8.265826894762201,0.1707045519375458,-44.67060425328289,16.69858728501588,1,2024-09-16 22:02:18.027587891,1726524138.0275888,2024-09-16 22:02:18.027588864,1,0.0,-2.461568839021851,-18.474166176252094,[0.34077915 0.30133829 0.12853851 0.22934405],[0.34077915 0.30133829 0.12853851 0.22934405],"[-0.08976889  0.53055847 -0.19887082 -0.47671017 -0.02229999 -0.03989602
  0.          0.         -0.6         0.51023114 -7.6455374 ]",0.08337492007156869,0,0
54,54,2024-09-16 22:02:18.594689024,TASK_BEGIN,7,-0.5753985631820906,0.3704044096508671,1.4105944195771454,0.9675565189898856,8.075112183404315,0.3103266522316248,-45.05485597073495,16.820906761168715,1,2024-09-16 22:02:18.426590820,1726524138.426591,2024-09-16 22:02:18.426590976,1,0.0,-2.4522064591510286,-32.32516886348186,[0.34715217 0.20556477 0.1581854  0.28909766],[0.34715217 0.20556477 0.1581854  0.28909766],"[-0.11849666  0.35889912 -0.23255932 -0.6411261  -0.05563896 -0.03070083
  0.          0.         -0.6         0.48150334 -6.2722626 ]",0.10998624458145607,0,0
55,55,2024-09-16 22:02:19.518332928,TASK_BEGIN,7,-0.5628123356842626,0.3546852118842774,1.457521329877323,0.9054164066086394,7.880504231098916,0.4417705049261931,-45.63144239463687,16.95140030245966,1,2024-09-16 22:02:19.312537842,1726524139.3125381,2024-09-16 22:02:19.312538112,1,0.0,-2.683773423011928,-16.012128515164584,[0.49645899 0.16558649 0.15893468 0.17901983],[0.49645899 0.16558649 0.15893468 0.17901983],"[-0.17221062 -0.08509684 -0.06445905 -0.5588537  -0.13351287 -0.03366221
  0.          0.         -0.6         0.4277894  -2.720295  ]",0.24540940469073907,0,0
56,56,2024-09-16 22:02:19.585349120,TASK_BEGIN,7,-0.5456975461479264,0.3385906122934354,1.4826696944323277,0.8463870853008225,7.68870216114214,0.559380779046972,-46.3707759632873,17.07510255898415,1,2024-09-16 22:02:19.312537842,1726524139.3125381,2024-09-16 22:02:19.312538112,1,0.0,-2.683773423011928,-16.012128515164584,[0.49645899 0.16558649 0.15893468 0.17901983],[0.49645899 0.16558649 0.15893468 0.17901983],"[-0.17221062 -0.08509684 -0.06445905 -0.5588537  -0.13351287 -0.03366221
  0.          0.         -0.6         0.4277894  -2.720295  ]",0.24540940469073907,0,0
57,57,2024-09-16 22:02:19.640633088,TASK_BEGIN,7,-0.5240963266969636,0.3222535717075178,1.4814586482801535,0.7928172344837793,7.50664142236082,0.658887080381564,-47.23814894892044,17.177105067599932,1,2024-09-16 22:02:19.312537842,1726524139.3125381,2024-09-16 22:02:19.312538112,1,0.0,-2.683773423011928,-16.012128515164584,[0.49645899 0.16558649 0.15893468 0.17901983],[0.49645899 0.16558649 0.15893468 0.17901983],"[-0.17221062 -0.08509684 -0.06445905 -0.5588537  -0.13351287 -0.03366221
  0.          0.         -0.6         0.4277894  -2.720295  ]",0.24540940469073907,0,0
58,58,2024-09-16 22:02:19.721580032,TASK_BEGIN,7,-0.4983018921704138,0.3058513370680898,1.450148825253844,0.7464343663286656,7.340832992302007,0.7373756563518481,-48.19583515577504,17.24393632573235,1,2024-09-16 22:02:19.312537842,1726524139.3125381,2024-09-16 22:02:19.312538112,1,0.0,-2.683773423011928,-16.012128515164584,[0.49645899 0.16558649 0.15893468 0.17901983],[0.49645899 0.16558649 0.15893468 0.17901983],"[-0.17221062 -0.08509684 -0.06445905 -0.5588537  -0.13351287 -0.03366221
  0.          0.         -0.6         0.4277894  -2.720295  ]",0.24540940469073907,0,0
59,59,2024-09-16 22:02:19.780281856,TASK_BEGIN,7,-0.4688724112615657,0.2896201418484638,1.3863952014264411,0.7082941854768064,7.197158131440612,0.793118420074766,-49.20708110441861,17.265348831217846,1,2024-09-16 22:02:19.663723877,1726524139.663725,2024-09-16 22:02:19.663724800,1,0.0,-2.6559867609198875,-10.45795694725301,[0.48427892 0.20719534 0.13888803 0.16963771],[0.48427892 0.20719534 0.13888803 0.16963771],"[-0.17268641 -0.22912174  0.08451977 -0.48225698 -0.15922956 -0.02060991
  0.          0.         -0.6         0.4273136  -1.5680958 ]",0.24669596175576847,0,0
60,60,2024-09-16 22:02:19.842301952,TASK_BEGIN,7,-0.4366114827690403,0.2738440288512282,1.289690146770221,0.6788016595998178,7.081100355469631,0.8253415922732812,-50.24099583264313,17.236114568712225,1,2024-09-16 22:02:19.663723877,1726524139.663725,2024-09-16 22:02:19.663724800,1,0.0,-2.6559867609198875,-10.45795694725301,[0.48427892 0.20719534 0.13888803 0.16963771],[0.48427892 0.20719534 0.13888803 0.16963771],"[-0.17268641 -0.22912174  0.08451977 -0.48225698 -0.15922956 -0.02060991
  0.          0.         -0.6         0.4273136  -1.5680958 ]",0.24669596175576847,0,0
61,61,2024-09-16 22:02:19.920408064,TASK_BEGIN,7,-0.402511893853325,0.258827225939336,1.1616889889006452,0.6577597369554543,6.998087212571299,0.8339738466878734,-51.27632419233731,17.157241494034526,1,2024-09-16 22:02:19.663723877,1726524139.663725,2024-09-16 22:02:19.663724800,1,0.0,-2.6559867609198875,-10.45795694725301,[0.48427892 0.20719534 0.13888803 0.16963771],[0.48427892 0.20719534 0.13888803 0.16963771],"[-0.17268641 -0.22912174  0.08451977 -0.48225698 -0.15922956 -0.02060991
  0.          0.         -0.6         0.4273136  -1.5680958 ]",0.24669596175576847,0,0
62,62,2024-09-16 22:02:20.863094016,TASK_BEGIN,7,-0.3676648646997231,0.2448673845910802,1.006335799268735,0.6444416543924002,6.953521519090148,0.8193836396673401,-52.30196383102544,17.03595635302222,1,2024-09-16 22:02:20.257982910,1726524140.2579834,2024-09-16 22:02:20.257983488,1,0.0,4.944542869284376,28.475365382742925,[0.85674013 0.03305358 0.01518229 0.095024  ],[0.85674013 0.03305358 0.01518229 0.095024  ],"[-0.14602716 -0.4164046   0.18755896 -0.08293495 -0.23113003 -0.15872245
  1.          1.         -0.6         0.45397285 -0.06983288]",0.9610037165053018,1,1
63,63,2024-09-16 22:02:20.935770880,TASK_BEGIN,7,-0.3331449035625215,0.2322384901595034,0.8297018121098668,0.6376951970502605,6.952321404363579,0.7821506287997111,-53.31391304089482,16.88424486970808,1,2024-09-16 22:02:20.257982910,1726524140.2579834,2024-09-16 22:02:20.257983488,1,0.0,4.944542869284376,28.475365382742925,[0.85674013 0.03305358 0.01518229 0.095024  ],[0.85674013 0.03305358 0.01518229 0.095024  ],"[-0.14602716 -0.4164046   0.18755896 -0.08293495 -0.23113003 -0.15872245
  1.          1.         -0.6         0.45397285 -0.06983288]",0.9610037165053018,1,1
64,64,2024-09-16 22:02:21.002106880,TASK_BEGIN,7,-0.2998879605609891,0.2211780086529126,0.6395547990189725,0.636058447441886,6.998162100543466,0.7229514488488312,-54.30957835616408,16.71625348022215,1,2024-09-16 22:02:20.257982910,1726524140.2579834,2024-09-16 22:02:20.257983488,1,0.0,4.944542869284376,28.475365382742925,[0.85674013 0.03305358 0.01518229 0.095024  ],[0.85674013 0.03305358 0.01518229 0.095024  ],"[-0.14602716 -0.4164046   0.18755896 -0.08293495 -0.23113003 -0.15872245
  1.          1.         -0.6         0.45397285 -0.06983288]",0.9610037165053018,1,1
65,65,2024-09-16 22:02:21.064116992,TASK_BEGIN,7,-0.2685884547098429,0.2118693581062798,0.4447397038025625,0.6378605241490304,7.092768705754951,0.6425725685847918,-55.28019572097874,16.54508556932228,1,2024-09-16 22:02:20.257982910,1726524140.2579834,2024-09-16 22:02:20.257983488,1,0.0,4.944542869284376,28.475365382742925,[0.85674013 0.03305358 0.01518229 0.095024  ],[0.85674013 0.03305358 0.01518229 0.095024  ],"[-0.14602716 -0.4164046   0.18755896 -0.08293495 -0.23113003 -0.15872245
  1.          1.         -0.6         0.45397285 -0.06983288]",0.9610037165053018,1,1
66,66,2024-09-16 22:02:21.138943744,TASK_BEGIN,7,-0.239645172811381,0.2044219523473431,0.2544435289090748,0.6413140268204268,7.235463212621106,0.5419741193521527,-56.20312017441773,16.379845209320887,1,2024-09-16 22:02:20.257982910,1726524140.2579834,2024-09-16 22:02:20.257983488,1,0.0,4.944542869284376,28.475365382742925,[0.85674013 0.03305358 0.01518229 0.095024  ],[0.85674013 0.03305358 0.01518229 0.095024  ],"[-0.14602716 -0.4164046   0.18755896 -0.08293495 -0.23113003 -0.15872245
  1.          1.         -0.6         0.45397285 -0.06983288]",0.9610037165053018,1,1
67,67,2024-09-16 22:02:21.204391168,TASK_BEGIN,7,-0.2131713314663827,0.1988606440357207,0.0774705807137419,0.644617031648433,7.422939389437905,0.4223586769746656,-57.03737550836016,16.223962372701944,1,2024-09-16 22:02:21.032979004,1726524141.0329792,2024-09-16 22:02:21.032979200,1,0.0,-10.609363444746066,-3.880254056875022,[6.93318780e-01 1.49228569e-01 2.58589109e-04 1.57194062e-01],[6.93318780e-01 1.49228569e-01 2.58589109e-04 1.57194062e-01],"[-0.09578053 -0.41945106  0.19704157 -0.03628211 -0.37654445 -0.03325135
  1.          0.         -0.6         0.5042195  -0.04546125]",0.6657881242447826,1,1
68,68,2024-09-16 22:02:21.266033920,TASK_BEGIN,7,-0.1890571805990016,0.1951324946134926,-0.0782658883509078,0.6460539334908855,7.649179182024093,0.2852913454009732,-57.724774320339336,16.075293081699606,1,2024-09-16 22:02:21.133980957,1726524141.133982,2024-09-16 22:02:21.133981952,1,0.0,-0.953664114743134,2.0278606659895426,[6.94934121e-01 1.23448026e-01 1.97862207e-04 1.81419990e-01],[6.94934121e-01 1.23448026e-01 1.97862207e-04 1.81419990e-01],"[-8.8319860e-02 -4.2421931e-01  2.3255688e-01 -6.0098670e-02
 -3.7341660e-01 -8.0742888e-09  1.0000000e+00  1.0000000e+00
 -6.0000002e-01  5.1168013e-01 -7.3152315e-03]",0.6714364235185808,1,1
69,69,2024-09-16 22:02:22.213015040,TASK_BEGIN,7,-0.1670615003430382,0.1931271452044274,-0.2059151152187282,0.6440720983341304,7.905484192300931,0.1329287493052696,-58.19593418805373,15.927579103041698,1,2024-09-16 22:02:21.477576904,1726524141.4775777,2024-09-16 22:02:21.477577728,1,0.0,-11.08512594283809,-23.91430261294842,[7.31250714e-01 1.57710298e-01 1.25025246e-04 1.10913963e-01],[7.31250714e-01 1.57710298e-01 1.25025246e-04 1.10913963e-01],"[-0.05213801 -0.4453032   0.37185708 -0.09901994 -0.37374747 -0.0066179
  0.          1.         -0.6         0.547862    0.1613559 ]",0.7354591046898749,1,1
70,70,2024-09-16 22:02:22.284550912,TASK_BEGIN,7,-0.1469130679460122,0.1926991872668918,-0.2996159881793162,0.637335090485209,8.180615743656462,-0.0316741340200818,-58.379188001804,15.772396849937453,1,2024-09-16 22:02:21.477576904,1726524141.4775777,2024-09-16 22:02:21.477577728,1,0.0,-11.08512594283809,-23.91430261294842,[7.31250714e-01 1.57710298e-01 1.25025246e-04 1.10913963e-01],[7.31250714e-01 1.57710298e-01 1.25025246e-04 1.10913963e-01],"[-0.05213801 -0.4453032   0.37185708 -0.09901994 -0.37374747 -0.0066179
  0.          1.         -0.6         0.547862    0.1613559 ]",0.7354591046898749,1,1
71,71,2024-09-16 22:02:22.338172160,TASK_BEGIN,7,-0.1284079876475284,0.1936847828255727,-0.3543891316644052,0.6247721723943555,8.461125093406356,-0.2043009355880835,-58.210840435317394,15.600947541959512,1,2024-09-16 22:02:21.477576904,1726524141.4775777,2024-09-16 22:02:21.477577728,1,0.0,-11.08512594283809,-23.91430261294842,[7.31250714e-01 1.57710298e-01 1.25025246e-04 1.10913963e-01],[7.31250714e-01 1.57710298e-01 1.25025246e-04 1.10913963e-01],"[-0.05213801 -0.4453032   0.37185708 -0.09901994 -0.37374747 -0.0066179
  0.          1.         -0.6         0.547862    0.1613559 ]",0.7354591046898749,1,1
72,72,2024-09-16 22:02:22.416380928,TASK_BEGIN,7,-0.1114876690605797,0.1959170913387999,-0.3661806387101557,0.6056393235002986,8.732039269209496,-0.3794866565986893,-57.64545569544461,15.405445179707726,1,2024-09-16 22:02:21.518110107,1726524141.5181103,2024-09-16 22:02:21.518110208,1,0.0,-1.1058705058712803,-25.63383658874313,[5.58122201e-01 2.86451859e-01 4.03159194e-04 1.55022781e-01],[5.58122201e-01 2.86451859e-01 4.03159194e-04 1.55022781e-01],"[-0.04680085 -0.448501    0.38902956 -0.1035942  -0.3744322  -0.00692351
  0.          1.         -0.6         0.5531992   0.18693821]",0.4597469744525938,1,1
73,73,2024-09-16 22:02:22.478379008,TASK_BEGIN,7,-0.0962825888815593,0.1992502316185334,-0.3321573349225133,0.5795959658416884,8.977844568397156,-0.5506775188509027,-56.66447702160392,15.180048085729483,1,2024-09-16 22:02:21.581099121,1726524141.5810997,2024-09-16 22:02:21.581099776,1,0.0,-1.1218570067411235,-28.188739252867762,[5.53298622e-01 2.98240928e-01 3.60195710e-04 1.48100254e-01],[5.53298622e-01 2.98240928e-01 3.60195710e-04 1.48100254e-01],"[-0.03834844 -0.45356542  0.4147891  -0.11045668 -0.37551656 -0.00738191
  0.          1.         -0.6         0.5616516   0.22745363]",0.4531989460072058,1,1
74,74,2024-09-16 22:02:22.556541952,TASK_BEGIN,7,-0.0831148812850383,0.2035902794175869,-0.2512252619035602,0.5467901146031925,9.183501037850132,-0.7106329596524065,-55.28144257131124,14.921494816922047,1,2024-09-16 22:02:22.439865234,1726524142.4398658,2024-09-16 22:02:22.439865856,1,1.0,0.16781223897509334,-47.072629613775455,[0.20549248 0.76388173 0.00156425 0.02906154],[0.20549248 0.76388173 0.00156425 0.02906154],"[ 1.1835686e-01 -5.4767799e-01  5.3042346e-01 -1.4551000e-01
 -3.9419079e-01 -2.2581826e-08  0.0000000e+00  0.0000000e+00
 -6.0000002e-01  7.1835685e-01  9.8035449e-01]",0.48902604207486294,1,1
75,75,2024-09-16 22:02:22.624103936,TASK_BEGIN,7,-0.0724591278448923,0.2089169825745222,-0.1246110181435832,0.5079275578996795,9.335478794458536,-0.8520097676079983,-53.54297855963771,14.629814960821008,1,2024-09-16 22:02:22.500866943,1726524142.5008674,2024-09-16 22:02:22.500867328,1,1.0,0.2568180390396344,-45.289791106295844,[0.19887992 0.7710066  0.00147654 0.02863694],[0.19887992 0.7710066  0.00147654 0.02863694],"[ 1.2925839e-01 -5.5440688e-01  5.1832080e-01 -1.4219011e-01
 -3.9419079e-01  3.5688586e-08  0.0000000e+00  0.0000000e+00
 -6.0000002e-01  7.2925842e-01  1.0341855e+00]",0.5009349841708548,1,1
76,76,2024-09-16 22:02:23.567001344,TASK_BEGIN,7,-0.0648638879250364,0.2152801949015684,0.0437302334555637,0.4642850362049548,9.423067832413064,-0.9680376591646616,-51.52564964232841,14.309099582009685,1,2024-09-16 22:02:22.763864014,1726524142.7638645,2024-09-16 22:02:22.763864576,1,1.0,0.829887957935872,-30.510009253909494,[0.22838869 0.67860432 0.00135127 0.09165571],[0.22838869 0.67860432 0.00135127 0.09165571],"[ 0.17312169 -0.5760976   0.43718937 -0.08209263 -0.35510772  0.08756816
  0.          0.         -0.6         0.7731217   1.2077109 ]",0.3957232726130602,1,1
77,77,2024-09-16 22:02:23.624156928,TASK_BEGIN,7,-0.0608488010671267,0.2227697863309128,0.2470737236825274,0.4176360536369827,9.439986822509264,-1.0531958019430194,-49.32912195059421,13.96778357986255,1,2024-09-16 22:02:22.763864014,1726524142.7638645,2024-09-16 22:02:22.763864576,1,1.0,0.829887957935872,-30.510009253909494,[0.22838869 0.67860432 0.00135127 0.09165571],[0.22838869 0.67860432 0.00135127 0.09165571],"[ 0.17312169 -0.5760976   0.43718937 -0.08209263 -0.35510772  0.08756816
  0.          0.         -0.6         0.7731217   1.2077109 ]",0.3957232726130602,1,1
78,78,2024-09-16 22:02:23.702531072,TASK_BEGIN,7,-0.0608057969643594,0.2314728656838816,0.4762931048848107,0.3700983809151882,9.385938645078909,-1.1038328515533555,-47.06716670354693,13.618313025473771,1,2024-09-16 22:02:22.804864014,1726524142.8048644,2024-09-16 22:02:22.804864512,1,1.0,0.9750604574166937,-28.265434889074974,[0.23895785 0.66600444 0.00169435 0.09334336],[0.23895785 0.66600444 0.00169435 0.09334336],"[ 0.1791528  -0.5786621   0.4245106  -0.0800216  -0.3465381   0.08497763
  0.          0.         -0.6         0.7791528   1.228227  ]",0.3874351864488801,1,1
79,79,2024-09-16 22:02:23.764142080,TASK_BEGIN,7,-0.0649298147242142,0.2414369305819955,0.7205577143103044,0.323953061695323,9.26758795966524,-1.1186735023611531,-44.8591707262012,13.27680454163509,1,2024-09-16 22:02:22.866864014,1726524142.8668647,2024-09-16 22:02:22.866864640,1,1.0,0.8093508928920323,-24.70893757811308,[0.24082555 0.65922266 0.00174555 0.09820623],[0.24082555 0.65922266 0.00174555 0.09820623],"[ 0.1878113  -0.5823592   0.4025055  -0.07629126 -0.3342401   0.08052299
  0.          0.         -0.6         0.7878113   1.257804  ]",0.38121129963947165,1,1
80,80,2024-09-16 22:02:23.838007808,TASK_BEGIN,7,-0.0731826833645672,0.2526471458200576,0.9682557873325984,0.2814827748632167,9.098462137890236,-1.0990925599830466,-42.82357857729864,12.962975394651863,1,2024-09-16 22:02:22.987894043,1726524142.9878948,2024-09-16 22:02:22.987894784,1,1.0,1.0658199643904902,-18.09340407512144,[0.2464244  0.64941025 0.00164551 0.10251984],[0.2464244  0.64941025 0.00164551 0.10251984],"[ 0.2038265  -0.5892439   0.3595869  -0.06883811 -0.31150132  0.0719028
  0.          0.         -0.6         0.8038265   1.3128811 ]",0.37834314939030833,1,1
81,81,2024-09-16 22:02:23.905417984,TASK_BEGIN,7,-0.085272696795667,0.2650103061297345,1.2080233551149466,0.2448380305742589,8.897531568001396,-1.049021010842566,-41.07193240103612,12.699759585115183,1,2024-09-16 22:02:23.047895020,1726524143.0478952,2024-09-16 22:02:23.047895296,1,1.0,0.9354522102550697,-14.790889660600753,[0.25140775 0.64295291 0.00156844 0.10407089],[0.25140775 0.64295291 0.00156844 0.10407089],"[ 0.21108715 -0.5923847   0.33620012 -0.06464872 -0.3011928   0.06722853
  0.          0.         -0.6         0.81108713  1.3380076 ]",0.37783089078007703,1,1
82,82,2024-09-16 22:02:23.965367808,TASK_BEGIN,7,-0.1006427840243904,0.2783393583271498,1.4296968702059476,0.2159225431220181,8.686695456287925,-0.9744564884397592,-39.70199456228048,12.51193441872216,1,2024-09-16 22:02:23.067910889,1726524143.0679114,2024-09-16 22:02:23.067911424,1,1.0,1.10903878166666,-13.533941982328084,[0.25308723 0.64081131 0.00154455 0.10455691],[0.25308723 0.64081131 0.00154455 0.10455691],"[ 0.21338661 -0.5933819   0.32658452 -0.06288873 -0.2979278   0.06530837
  0.          0.         -0.6         0.8133866   1.3459853 ]",0.37779520805523537,1,1
83,83,2024-09-16 22:02:24.904028928,TASK_BEGIN,7,-0.1184910959463787,0.292349171065618,1.6250004911746196,0.1963043619936091,8.48780512536255,-0.8826986477589112,-38.79139423848092,12.423716509677378,1,2024-09-16 22:02:24.779614990,1726524144.7796152,2024-09-16 22:02:24.779615232,1,0.0,-0.48896520197493487,11.125726869761035,[0.35124873 0.34463898 0.00269527 0.30141702],[0.35124873 0.34463898 0.00269527 0.30141702],"[ 0.272338   -0.6193588   0.04011892 -0.00800733 -0.21406248  0.00806538
  0.          0.         -0.6         0.872338    1.5538002 ]",0.32540532986407217,1,1
84,84,2024-09-16 22:02:24.984845056,TASK_BEGIN,7,-0.1378386989143349,0.3066774288860238,1.787916419819353,0.187148726630226,8.319889883295744,-0.7814771439828844,-38.39469114933435,12.455916829402131,1,2024-09-16 22:02:24.843617920,1726524144.8436189,2024-09-16 22:02:24.843618816,1,0.0,-0.4880655955363977,10.513221861052145,[0.35032758 0.34545456 0.00269087 0.30152699],[0.35032758 0.34545456 0.00269087 0.30152699],"[ 0.27323103 -0.61975837  0.04334177 -0.00865497 -0.21278778  0.00871444
  0.          0.         -0.6         0.87323105  1.5569974 ]",0.32559735198433776,1,1
85,85,2024-09-16 22:02:25.052680960,TASK_BEGIN,7,-0.1576121799514924,0.3209264562021042,1.9148527817555172,0.1891391997882079,8.197011725186963,-0.6780756807636965,-38.54436798645886,12.623462000609743,1,2024-09-16 22:02:24.905615967,1726524144.9056163,2024-09-16 22:02:24.905616384,1,0.0,-0.48840336833092124,10.204813817041575,[0.35012398 0.34491153 0.00270553 0.30225897],[0.35012398 0.34491153 0.00270553 0.30225897],"[ 0.2741526  -0.620171    0.04374909 -0.00874098 -0.21147226  0.00879757
  0.          0.         -0.6         0.8741526   1.5602983 ]",0.32599499371601093,1,1
86,86,2024-09-16 22:02:25.105676032,TASK_BEGIN,7,-0.1767051189312062,0.3347083598991665,2.004722851745132,0.202369538177482,8.127006106207428,-0.5785119545020007,-39.25322526711279,12.933735991148316,1,2024-09-16 22:02:24.969618164,1726524144.9696188,2024-09-16 22:02:24.969618688,1,0.0,-0.488098508993545,9.751656590776522,[0.3496579  0.34548408 0.00270188 0.30215614],[0.3496579  0.34548408 0.00270188 0.30215614],"[ 0.27510452 -0.62059736  0.04569872 -0.00913551 -0.21011329  0.00919095
  0.          0.         -0.6         0.87510455  1.5637094 ]",0.32629237693846547,1,1
87,87,2024-09-16 22:02:25.183781888,TASK_BEGIN,7,-0.1940263393126461,0.3476811378650155,2.058896585929731,0.2262409959328233,8.111260569438501,-0.486877559908746,-40.51523304279194,13.385624718269671,1,2024-09-16 22:02:25.049916016,1726524145.0499165,2024-09-16 22:02:25.049916416,1,1.0,0.7432034749081049,10.086937465524795,[0.34851027 0.34886142 0.00266091 0.2999674 ],[0.34851027 0.34886142 0.00266091 0.2999674 ],"[ 0.2763563  -0.62115836  0.03918971 -0.00784025 -0.20832601  0.00788348
  0.          0.         -0.6         0.8763563   1.5681971 ]",0.32685461382137004,1,1
88,88,2024-09-16 22:02:25.245337856,TASK_BEGIN,7,-0.2085596377364667,0.359574998150945,2.080882995518564,0.2594257098361391,8.14546206178232,-0.4049980233600091,-42.30406740273168,13.968971644360623,1,2024-09-16 22:02:25.129885986,1726524145.1298864,2024-09-16 22:02:25.129886464,1,0.0,-0.4880725568389721,8.771756130115294,[0.34882121 0.34673569 0.00270626 0.30173684],[0.34882121 0.34673569 0.00270626 0.30173684],"[ 0.27766958 -0.6217473   0.04905126 -0.00982023 -0.2064505   0.00986922
  0.          0.         -0.6         0.8776696   1.5729088 ]",0.32709137826996326,1,1
89,89,2024-09-16 22:02:25.323447040,TASK_BEGIN,7,-0.2194408739649567,0.370215594039662,2.07565846025263,0.2999368586440861,8.220973634987995,-0.332532038962891,-44.57127294120064,14.664454586838987,1,2024-09-16 22:02:25.190885010,1726524145.1908855,2024-09-16 22:02:25.190885632,1,1.0,0.8787315112111196,9.524857776506334,[0.34854422 0.35029301 0.00266385 0.29849892],[0.34854422 0.35029301 0.00266385 0.29849892],"[ 0.2785871  -0.622159    0.03938213 -0.00788898 -0.20513996  0.00792504
  0.          0.         -0.6         0.8785871   1.576202  ]",0.32777387148855175,1,1
90,90,2024-09-16 22:02:26.241434112,TASK_BEGIN,7,-0.2260435615393574,0.3795504196260409,2.048700958498177,0.3453117473267533,8.326355374742116,-0.2674596410700143,-47.24728950196035,15.444327103198896,1,2024-09-16 22:02:26.096887207,1726524146.0968874,2024-09-16 22:02:26.096887296,1,1.0,0.7495228585499569,6.6416800995046295,[0.34969195 0.3539112  0.00284638 0.29355047],[0.34969195 0.3539112  0.00284638 0.29355047],"[ 0.2927513  -0.62853855  0.04081969 -0.00824456 -0.18488365  0.00823509
  0.          0.         -0.6         0.89275134  1.6272386 ]",0.3321306856650116,1,1
91,91,2024-09-16 22:02:26.309345024,TASK_BEGIN,7,-0.228056081093743,0.3876723756853502,2.004949225032504,0.3928800265403955,8.44865025549198,-0.2067453750446263,-50.24724475234456,16.274505235244156,1,2024-09-16 22:02:26.178534912,1726524146.1785352,2024-09-16 22:02:26.178535168,1,1.0,0.720804872710479,6.6448255844580055,[0.35027036 0.35308221 0.00290289 0.29374453],[0.35027036 0.35308221 0.00290289 0.29374453],"[ 0.2939582  -0.6290842   0.03882869 -0.007848   -0.18315537  0.00783528
  0.          0.         -0.6         0.8939582   1.6316038 ]",0.3324249653668544,1,1
92,92,2024-09-16 22:02:26.370213120,TASK_BEGIN,7,-0.2255319966928145,0.3948224936405917,1.9480132199952207,0.4400417102283765,8.574347413202894,-0.1469704554271893,-53.47967564169012,17.11780721748175,1,2024-09-16 22:02:26.220500000,1726524146.2205005,2024-09-16 22:02:26.220500480,1,1.0,0.5208109770450073,6.5389667287356374,[0.35087467 0.35193098 0.00294303 0.29425132],[0.35087467 0.35193098 0.00294303 0.29425132],"[ 0.29454127 -0.629348    0.03886458 -0.00785792 -0.18232024  0.00784341
  0.          0.         -0.6         0.89454126  1.6337141 ]",0.3325264735463303,1,1
93,93,2024-09-16 22:02:26.432698112,TASK_BEGIN,7,-0.2189107027767186,0.4013620072709914,1.8798954597116255,0.4844613652802845,8.690099552861207,-0.0848442881388574,-56.85396122424746,17.937542390878534,1,2024-09-16 22:02:26.305502930,1726524146.3055031,2024-09-16 22:02:26.305503232,1,1.0,0.4654131840876994,6.18303404730935,[0.35107987 0.35389822 0.00294767 0.29207424],[0.35107987 0.35389822 0.00294767 0.29207424],"[ 0.2957332  -0.62988734  0.04044552 -0.00818319 -0.18061277  0.00816439
  0.          0.         -0.6         0.89573324  1.638029  ]",0.33283778675869435,1,1
94,94,2024-09-16 22:02:26.510375936,TASK_BEGIN,7,-0.209017743402361,0.4077254069871127,1.8012385479410211,0.5241566451330126,8.783213987727265,-0.0175599717232649,-60.28437890349276,18.70085800356052,1,2024-09-16 22:02:26.346522949,1726524146.346523,2024-09-16 22:02:26.346523136,1,1.0,1.2787103790062042,17.095002028052175,[0.36697754 0.39476817 0.00048641 0.23776788],[0.36697754 0.39476817 0.00048641 0.23776788],"[ 2.9622898e-01 -6.3001901e-01  2.9214509e-02 -3.4459576e-03
 -1.8061328e-01 -1.0026834e-05  0.0000000e+00  1.0000000e+00
 -6.0000002e-01  8.9622897e-01  1.6390823e+00]",0.4025565434355138,1,1
95,95,2024-09-16 22:02:26.580215808,TASK_BEGIN,7,-0.1970379030328424,0.4143750824711551,1.7118819769921718,0.5575488657862155,8.84191504936776,0.0570383028818559,-63.69187876968803,19.381502974229573,1,2024-09-16 22:02:26.346522949,1726524146.346523,2024-09-16 22:02:26.346523136,1,1.0,1.2787103790062042,17.095002028052175,[0.36697754 0.39476817 0.00048641 0.23776788],[0.36697754 0.39476817 0.00048641 0.23776788],"[ 2.9622898e-01 -6.3001901e-01  2.9214509e-02 -3.4459576e-03
 -1.8061328e-01 -1.0026834e-05  0.0000000e+00  1.0000000e+00
 -6.0000002e-01  8.9622897e-01  1.6390823e+00]",0.4025565434355138,1,1
96,96,2024-09-16 22:02:26.635984896,TASK_BEGIN,7,-0.184431404457621,0.4217665664459147,1.6114669412415592,0.5835305729490226,8.855454922899781,0.1404615129714615,-67.00474920467843,19.96144776026019,1,2024-09-16 22:02:26.346522949,1726524146.346523,2024-09-16 22:02:26.346523136,1,1.0,1.2787103790062042,17.095002028052175,[0.36697754 0.39476817 0.00048641 0.23776788],[0.36697754 0.39476817 0.00048641 0.23776788],"[ 2.9622898e-01 -6.3001901e-01  2.9214509e-02 -3.4459576e-03
 -1.8061328e-01 -1.0026834e-05  0.0000000e+00  1.0000000e+00
 -6.0000002e-01  8.9622897e-01  1.6390823e+00]",0.4025565434355138,1,1
97,97,2024-09-16 22:02:27.591588864,TASK_BEGIN,7,-0.1727734859389955,0.430316733108843,1.4999409414684868,0.6015233777566372,8.814202085018085,0.2336668810638871,-70.15801897691887,20.43099555038268,1,2024-09-16 22:02:27.308039062,1726524147.3080392,2024-09-16 22:02:27.308039168,1,1.0,1.328397069803051,4.620572158020499,[0.35337515 0.35408763 0.00292572 0.2896115 ],[0.35337515 0.35408763 0.00292572 0.2896115 ],"[ 3.0373916e-01 -6.3201439e-01  1.9149801e-02 -2.2612417e-03
 -1.8061367e-01 -8.7806589e-09  0.0000000e+00  0.0000000e+00
 -6.0000002e-01  9.0373915e-01  1.6550452e+00]",0.3367133270167955,1,1
98,98,2024-09-16 22:02:27.649230848,TASK_BEGIN,7,-0.163545162162158,0.4403662839132691,1.377909319604627,0.6114750154294424,8.709847486372286,0.3371172875234376,-73.09139293485889,20.787704628951385,1,2024-09-16 22:02:27.308039062,1726524147.3080392,2024-09-16 22:02:27.308039168,1,1.0,1.328397069803051,4.620572158020499,[0.35337515 0.35408763 0.00292572 0.2896115 ],[0.35337515 0.35408763 0.00292572 0.2896115 ],"[ 3.0373916e-01 -6.3201439e-01  1.9149801e-02 -2.2612417e-03
 -1.8061367e-01 -8.7806589e-09  0.0000000e+00  0.0000000e+00
 -6.0000002e-01  9.0373915e-01  1.6550452e+00]",0.3367133270167955,1,1
99,99,2024-09-16 22:02:27.727041024,TASK_BEGIN,7,-0.1579453704218924,0.4521432331187377,1.2468220199320712,0.6137945260194305,8.535821300399384,0.4507478823037328,-75.74620358103371,21.03469900528616,1,2024-09-16 22:02:27.308039062,1726524147.3080392,2024-09-16 22:02:27.308039168,1,1.0,1.328397069803051,4.620572158020499,[0.35337515 0.35408763 0.00292572 0.2896115 ],[0.35337515 0.35408763 0.00292572 0.2896115 ],"[ 3.0373916e-01 -6.3201439e-01  1.9149801e-02 -2.2612417e-03
 -1.8061367e-01 -8.7806589e-09  0.0000000e+00  0.0000000e+00
 -6.0000002e-01  9.0373915e-01  1.6550452e+00]",0.3367133270167955,1,1
100,100,2024-09-16 22:02:27.789527808,TASK_BEGIN,7,-0.1567836463450346,0.4657437311337246,1.10905378926953,0.6092549116832497,8.287942389398163,0.5738671365672684,-78.06247080558354,21.178786107518363,1,2024-09-16 22:02:27.644037109,1726524147.6440375,2024-09-16 22:02:27.644037376,1,1.0,1.2764874526913184,4.127703062815666,[0.35265938 0.35300932 0.00299067 0.29134063],[0.35265938 0.35300932 0.00299067 0.29134063],"[ 3.0651784e-01 -6.3275260e-01  1.5813112e-02 -1.8672619e-03
 -1.8061391e-01  1.2900803e-09  0.0000000e+00  0.0000000e+00
 -6.0000002e-01  9.0651786e-01  1.6609510e+00]",0.3376011869686795,1,1
101,101,2024-09-16 22:02:27.851934720,TASK_BEGIN,7,-0.1604599044510478,0.4811382783313714,0.9679585226855598,0.598875201133436,7.965324322253612,0.7050627818243399,-79.97833064914379,21.228833931320704,1,2024-09-16 22:02:27.644037109,1726524147.6440375,2024-09-16 22:02:27.644037376,1,1.0,1.2764874526913184,4.127703062815666,[0.35265938 0.35300932 0.00299067 0.29134063],[0.35265938 0.35300932 0.00299067 0.29134063],"[ 3.0651784e-01 -6.3275260e-01  1.5813112e-02 -1.8672619e-03
 -1.8061391e-01  1.2900803e-09  0.0000000e+00  0.0000000e+00
 -6.0000002e-01  9.0651786e-01  1.6609510e+00]",0.3376011869686795,1,1
102,102,2024-09-16 22:02:27.929097984,TASK_BEGIN,7,-0.1689983911518321,0.4981962382632501,0.8278667127050333,0.5837930578531082,7.571517493373998,0.842175493848774,-81.43461181910466,21.19490778919909,1,2024-09-16 22:02:27.644037109,1726524147.6440375,2024-09-16 22:02:27.644037376,1,1.0,1.2764874526913184,4.127703062815666,[0.35265938 0.35300932 0.00299067 0.29134063],[0.35265938 0.35300932 0.00299067 0.29134063],"[ 3.0651784e-01 -6.3275260e-01  1.5813112e-02 -1.8672619e-03
 -1.8061391e-01  1.2900803e-09  0.0000000e+00  0.0000000e+00
 -6.0000002e-01  9.0651786e-01  1.6609510e+00]",0.3376011869686795,1,1
103,103,2024-09-16 22:02:27.996258048,TASK_BEGIN,7,-0.1820974565178739,0.5167124999423258,0.6938965463107118,0.5651660939658713,7.115600886002884,0.9823784423712862,-82.38460562123323,21.08823585916852,1,2024-09-16 22:02:27.854039062,1726524147.854039,2024-09-16 22:02:27.854039040,1,1.0,1.2092361802931657,3.6844219629084813,[0.35240275 0.35346366 0.00300051 0.29113307],[0.35240275 0.35346366 0.00300051 0.29113307],"[ 3.0802974e-01 -6.3315427e-01  1.5578597e-02 -1.8395690e-03
 -1.8061410e-01 -1.3787097e-09  0.0000000e+00  0.0000000e+00
 -6.0000002e-01  9.0802974e-01  1.6641644e+00]",0.33796846906080413,1,1
104,104,2024-09-16 22:02:28.941061120,TASK_BEGIN,7,-0.199167454753921,0.5364218958936918,0.5715330205874102,0.5441374710181465,6.612661008379943,1.122361769656694,-82.80471820669425,20.92151843608309,1,2024-09-16 22:02:28.817190918,1726524148.8171914,2024-09-16 22:02:28.817191424,1,1.0,1.1592114272372862,2.4945215177828035,[0.35154576 0.35260409 0.00309366 0.2927565 ],[0.35154576 0.35260409 0.00309366 0.2927565 ],"[ 3.1399712e-01 -6.3473970e-01  1.0640908e-02 -1.2565150e-03
 -1.8061434e-01 -1.6771076e-09  0.0000000e+00  0.0000000e+00
 -6.0000002e-01  9.1399711e-01  1.6768478e+00]",0.3396100143020906,1,1
105,105,2024-09-16 22:02:29.002644992,TASK_BEGIN,7,-0.2193482290277925,0.5569992978098586,0.4660993134480312,0.5218626463299525,6.083261577429866,1.2585580017150153,-82.70055007620537,20.70903927954961,1,2024-09-16 22:02:28.817190918,1726524148.8171914,2024-09-16 22:02:28.817191424,1,1.0,1.1592114272372862,2.4945215177828035,[0.35154576 0.35260409 0.00309366 0.2927565 ],[0.35154576 0.35260409 0.00309366 0.2927565 ],"[ 3.1399712e-01 -6.3473970e-01  1.0640908e-02 -1.2565150e-03
 -1.8061434e-01 -1.6771076e-09  0.0000000e+00  0.0000000e+00
 -6.0000002e-01  9.1399711e-01  1.6768478e+00]",0.3396100143020906,1,1
106,106,2024-09-16 22:02:29.065131776,TASK_BEGIN,7,-0.2415271473150253,0.5780587064155656,0.3822674982681627,0.4995619298512632,5.552025396933737,1.3873083429170328,-82.10629657939093,20.46636636831736,1,2024-09-16 22:02:28.817190918,1726524148.8171914,2024-09-16 22:02:28.817191424,1,1.0,1.1592114272372862,2.4945215177828035,[0.35154576 0.35260409 0.00309366 0.2927565 ],[0.35154576 0.35260409 0.00309366 0.2927565 ],"[ 3.1399712e-01 -6.3473970e-01  1.0640908e-02 -1.2565150e-03
 -1.8061434e-01 -1.6771076e-09  0.0000000e+00  0.0000000e+00
 -6.0000002e-01  9.1399711e-01  1.6768478e+00]",0.3396100143020906,1,1
107,107,2024-09-16 22:02:29.142558208,TASK_BEGIN,7,-0.2643906957659431,0.5991682551542796,0.3236740128127038,0.4785436620844225,5.045686214285979,1.5049339002859548,-81.07955280090194,20.20972746500096,1,2024-09-16 22:02:29.001993896,1726524149.001994,2024-09-16 22:02:29.001993984,1,1.0,1.2868977018338137,2.467835560676352,[0.35156029 0.35226372 0.00311239 0.2930636 ],[0.35156029 0.35226372 0.00311239 0.2930636 ],"[ 3.1497851e-01 -6.3500047e-01  8.3473492e-03 -9.8568713e-04
 -1.8061441e-01 -2.1607802e-09  0.0000000e+00  0.0000000e+00
 -6.0000002e-01  9.1497850e-01  1.6789340e+00]",0.3401152406858997,1,1
108,108,2024-09-16 22:02:29.206460928,TASK_BEGIN,7,-0.2865161832332025,0.619883420636409,0.2927113694733994,0.4601360110207809,4.590785511022953,1.6077885504539664,-79.6951153140922,19.955309496529143,1,2024-09-16 22:02:29.001993896,1726524149.001994,2024-09-16 22:02:29.001993984,1,1.0,1.2868977018338137,2.467835560676352,[0.35156029 0.35226372 0.00311239 0.2930636 ],[0.35156029 0.35226372 0.00311239 0.2930636 ],"[ 3.1497851e-01 -6.3500047e-01  8.3473492e-03 -9.8568713e-04
 -1.8061441e-01 -2.1607802e-09  0.0000000e+00  0.0000000e+00
 -6.0000002e-01  9.1497850e-01  1.6789340e+00]",0.3401152406858997,1,1
109,109,2024-09-16 22:02:29.267328768,TASK_BEGIN,7,-0.306483147610837,0.6397839994411327,0.2905394334459692,0.4455098697466124,4.211096485788802,1.6924076257242266,-78.03997683105518,19.71870924244917,1,2024-09-16 22:02:29.001993896,1726524149.001994,2024-09-16 22:02:29.001993984,1,1.0,1.2868977018338137,2.467835560676352,[0.35156029 0.35226372 0.00311239 0.2930636 ],[0.35156029 0.35226372 0.00311239 0.2930636 ],"[ 3.1497851e-01 -6.3500047e-01  8.3473492e-03 -9.8568713e-04
 -1.8061441e-01 -2.1607802e-09  0.0000000e+00  0.0000000e+00
 -6.0000002e-01  9.1497850e-01  1.6789340e+00]",0.3401152406858997,1,1
110,110,2024-09-16 22:02:29.348035072,TASK_BEGIN,7,-0.3229879362255278,0.6584998577592905,0.317175357345813,0.4354641211648849,3.925063589715032,1.7558059068386214,-76.20893798868829,19.514362656513335,1,2024-09-16 22:02:29.001993896,1726524149.001994,2024-09-16 22:02:29.001993984,1,1.0,1.2868977018338137,2.467835560676352,[0.35156029 0.35226372 0.00311239 0.2930636 ],[0.35156029 0.35226372 0.00311239 0.2930636 ],"[ 3.1497851e-01 -6.3500047e-01  8.3473492e-03 -9.8568713e-04
 -1.8061441e-01 -2.1607802e-09  0.0000000e+00  0.0000000e+00
 -6.0000002e-01  9.1497850e-01  1.6789340e+00]",0.3401152406858997,1,1
111,111,2024-09-16 22:02:30.292290048,TASK_BEGIN,7,-0.3349577089660118,0.6757232407601892,0.3714336337572422,0.4302942129615319,3.743743725271409,1.7958761627616104,-74.29875853590262,19.354407309788684,1,2024-09-16 22:02:29.966006104,1726524149.9660068,2024-09-16 22:02:29.966006784,1,1.0,1.443985008422876,1.9558803947805306,[0.35112266 0.35182523 0.00318083 0.29387128],[0.35112266 0.35182523 0.00318083 0.29387128],"[ 3.1923890e-01 -6.3613236e-01  2.9949723e-03 -3.5366393e-04
 -1.8061458e-01  9.0316332e-09  0.0000000e+00  0.0000000e+00
 -6.0000002e-01  9.1923892e-01  1.6879889e+00]",0.341405010715803,1,1
112,112,2024-09-16 22:02:30.360187136,TASK_BEGIN,7,-0.3416610054694235,0.6912178544929821,0.4506655491693174,0.4298187967294865,3.6697186486597344,1.811744085803081,-72.40041236369582,19.246887275504072,1,2024-09-16 22:02:29.966006104,1726524149.9660068,2024-09-16 22:02:29.966006784,1,1.0,1.443985008422876,1.9558803947805306,[0.35112266 0.35182523 0.00318083 0.29387128],[0.35112266 0.35182523 0.00318083 0.29387128],"[ 3.1923890e-01 -6.3613236e-01  2.9949723e-03 -3.5366393e-04
 -1.8061458e-01  9.0316332e-09  0.0000000e+00  0.0000000e+00
 -6.0000002e-01  9.1923892e-01  1.6879889e+00]",0.341405010715803,1,1
113,113,2024-09-16 22:02:30.427840000,TASK_BEGIN,7,-0.3427997188664874,0.704834327127372,0.5504643670755176,0.4335415923862313,3.69723005754058,1.803914306581668,-70.59153638058913,19.19404590484443,1,2024-09-16 22:02:29.966006104,1726524149.9660068,2024-09-16 22:02:29.966006784,1,1.0,1.443985008422876,1.9558803947805306,[0.35112266 0.35182523 0.00318083 0.29387128],[0.35112266 0.35182523 0.00318083 0.29387128],"[ 3.1923890e-01 -6.3613236e-01  2.9949723e-03 -3.5366393e-04
 -1.8061458e-01  9.0316332e-09  0.0000000e+00  0.0000000e+00
 -6.0000002e-01  9.1923892e-01  1.6879889e+00]",0.341405010715803,1,1
114,114,2024-09-16 22:02:30.488576000,TASK_BEGIN,7,-0.3385553342869789,0.7165268847847218,0.6645311296895202,0.440869280980403,3.8134406944061383,1.7741404662656168,-68.93116276839237,19.191510126683305,1,2024-09-16 22:02:29.966006104,1726524149.9660068,2024-09-16 22:02:29.966006784,1,1.0,1.443985008422876,1.9558803947805306,[0.35112266 0.35182523 0.00318083 0.29387128],[0.35112266 0.35182523 0.00318083 0.29387128],"[ 3.1923890e-01 -6.3613236e-01  2.9949723e-03 -3.5366393e-04
 -1.8061458e-01  9.0316332e-09  0.0000000e+00  0.0000000e+00
 -6.0000002e-01  9.1923892e-01  1.6879889e+00]",0.341405010715803,1,1
115,115,2024-09-16 22:02:30.554426880,TASK_BEGIN,7,-0.3295768201269756,0.7263570797315598,0.7848272795922618,0.4513167943479854,4.000490552657023,1.7250674001024846,-67.45657437999408,19.228574191632227,1,2024-09-16 22:02:30.404546875,1726524150.404547,2024-09-16 22:02:30.404547072,1,1.0,1.5013280474027704,1.703388241244424,[0.35074893 0.35250879 0.0031838  0.29355849],[0.35074893 0.35250879 0.0031838  0.29355849],"[ 3.2081875e-01 -6.3655210e-01  1.9491396e-03 -2.3014928e-04
 -1.8061465e-01 -1.1944668e-08  0.0000000e+00  0.0000000e+00
 -6.0000002e-01  9.2081875e-01  1.6913470e+00]",0.3417910333214683,1,1
116,116,2024-09-16 22:02:30.616314880,TASK_BEGIN,7,-0.3169253907692496,0.7344793971633731,0.9020965133978726,0.4646519218458143,4.238012244519487,1.6597226294976664,-66.18081606307702,19.289316982328906,1,2024-09-16 22:02:30.404546875,1726524150.404547,2024-09-16 22:02:30.404547072,1,1.0,1.5013280474027704,1.703388241244424,[0.35074893 0.35250879 0.0031838  0.29355849],[0.35074893 0.35250879 0.0031838  0.29355849],"[ 3.2081875e-01 -6.3655210e-01  1.9491396e-03 -2.3014928e-04
 -1.8061465e-01 -1.1944668e-08  0.0000000e+00  0.0000000e+00
 -6.0000002e-01  9.2081875e-01  1.6913470e+00]",0.3417910333214683,1,1
117,117,2024-09-16 22:02:30.694202880,TASK_BEGIN,7,-0.3019868422208406,0.7411150550776776,1.0067421768311178,0.4809368347382604,4.505718365145865,1.5809717077835073,-65.09082860928999,19.35408041597908,1,2024-09-16 22:02:30.404546875,1726524150.404547,2024-09-16 22:02:30.404547072,1,1.0,1.5013280474027704,1.703388241244424,[0.35074893 0.35250879 0.0031838  0.29355849],[0.35074893 0.35250879 0.0031838  0.29355849],"[ 3.2081875e-01 -6.3655210e-01  1.9491396e-03 -2.3014928e-04
 -1.8061465e-01 -1.1944668e-08  0.0000000e+00  0.0000000e+00
 -6.0000002e-01  9.2081875e-01  1.6913470e+00]",0.3417910333214683,1,1
118,118,2024-09-16 22:02:31.616930048,TASK_BEGIN,7,-0.2863383433446138,0.7465222682693551,1.0898975866252227,0.5004578341007364,4.785503217373795,1.4911390982509525,-64.14795104545169,19.40092979418441,1,2024-09-16 22:02:31.233443115,1726524151.2324448,2024-09-16 22:02:31.232444672,1,1.0,1.280709185598729,1.2842023338592863,[0.3508259  0.3508259  0.00325207 0.29509614],[0.3508259  0.3508259  0.00325207 0.29509614],"[ 3.2315597e-01 -6.3717306e-01  7.3168310e-04 -8.6387641e-05
 -1.8061462e-01 -7.6413471e-09  0.0000000e+00  0.0000000e+00
 -6.0000002e-01  9.2315596e-01  1.6963149e+00]",0.3421175549908227,1,1
119,119,2024-09-16 22:02:31.678009088,TASK_BEGIN,7,-0.2715707266000859,0.7509679591909799,1.144449658112901,0.5235954204344749,5.062570528103871,1.3919655283093957,-63.29185494958327,19.407079509102925,1,2024-09-16 22:02:31.233443115,1726524151.2324448,2024-09-16 22:02:31.232444672,1,1.0,1.280709185598729,1.2842023338592863,[0.3508259  0.3508259  0.00325207 0.29509614],[0.3508259  0.3508259  0.00325207 0.29509614],"[ 3.2315597e-01 -6.3717306e-01  7.3168310e-04 -8.6387641e-05
 -1.8061462e-01 -7.6413471e-09  0.0000000e+00  0.0000000e+00
 -6.0000002e-01  9.2315596e-01  1.6963149e+00]",0.3421175549908227,1,1
120,120,2024-09-16 22:02:31.752407040,TASK_BEGIN,7,-0.25910752286132,0.754699870958527,1.1658042018679888,0.5507032298958955,5.32551018128627,1.2848823018899775,-62.44726186285317,19.350418430006037,1,2024-09-16 22:02:31.631244873,1726524151.6312456,2024-09-16 22:02:31.631245568,1,1.0,1.3396979897101653,1.1612825360711776,[0.35055978 0.35161514 0.0032496  0.29457548],[0.35055978 0.35161514 0.0032496  0.29457548],"[ 3.2420167e-01 -6.3745093e-01 -2.3348908e-05  2.7013066e-06
 -1.8061446e-01  4.7705594e-06  0.0000000e+00  0.0000000e+00
 -6.0000002e-01  9.2420167e-01  1.6985377e+00]",0.34238491606207233,1,1
121,121,2024-09-16 22:02:31.820155904,TASK_BEGIN,7,-0.2500628877944663,0.7579131558981587,1.1522914610406507,0.5820146135004752,5.565668917051138,1.1714238703753104,-61.53226871925878,19.21102057398869,1,2024-09-16 22:02:31.631244873,1726524151.6312456,2024-09-16 22:02:31.631245568,1,1.0,1.3396979897101653,1.1612825360711776,[0.35055978 0.35161514 0.0032496  0.29457548],[0.35055978 0.35161514 0.0032496  0.29457548],"[ 3.2420167e-01 -6.3745093e-01 -2.3348908e-05  2.7013066e-06
 -1.8061446e-01  4.7705594e-06  0.0000000e+00  0.0000000e+00
 -6.0000002e-01  9.2420167e-01  1.6985377e+00]",0.34238491606207233,1,1
122,122,2024-09-16 22:02:31.887929856,TASK_BEGIN,7,-0.2451482780035514,0.7607119203830763,1.1052333837556274,0.6175503868685136,5.776345699635246,1.0535919956555115,-60.46725434192796,18.97241161870908,1,2024-09-16 22:02:31.631244873,1726524151.6312456,2024-09-16 22:02:31.631245568,1,1.0,1.3396979897101653,1.1612825360711776,[0.35055978 0.35161514 0.0032496  0.29457548],[0.35055978 0.35161514 0.0032496  0.29457548],"[ 3.2420167e-01 -6.3745093e-01 -2.3348908e-05  2.7013066e-06
 -1.8061446e-01  4.7705594e-06  0.0000000e+00  0.0000000e+00
 -6.0000002e-01  9.2420167e-01  1.6985377e+00]",0.34238491606207233,1,1
123,123,2024-09-16 22:02:31.941399808,TASK_BEGIN,7,-0.244631497788735,0.7630828994763881,1.028721775251696,0.6570177226598716,5.952233900631042,0.9340702835231876,-59.18354184305773,18.62265097609143,1,2024-09-16 22:02:31.631244873,1726524151.6312456,2024-09-16 22:02:31.631245568,1,1.0,1.3396979897101653,1.1612825360711776,[0.35055978 0.35161514 0.0032496  0.29457548],[0.35055978 0.35161514 0.0032496  0.29457548],"[ 3.2420167e-01 -6.3745093e-01 -2.3348908e-05  2.7013066e-06
 -1.8061446e-01  4.7705594e-06  0.0000000e+00  0.0000000e+00
 -6.0000002e-01  9.2420167e-01  1.6985377e+00]",0.34238491606207233,1,1
124,124,2024-09-16 22:02:32.018055936,TASK_BEGIN,7,-0.2483632242852781,0.7649063512219548,0.929135757375276,0.6997314206418528,6.08922262663951,0.8162670398440464,-57.63112472681796,18.15541639247554,1,2024-09-16 22:02:31.631244873,1726524151.6312456,2024-09-16 22:02:31.631245568,1,1.0,1.3396979897101653,1.1612825360711776,[0.35055978 0.35161514 0.0032496  0.29457548],[0.35055978 0.35161514 0.0032496  0.29457548],"[ 3.2420167e-01 -6.3745093e-01 -2.3348908e-05  2.7013066e-06
 -1.8061446e-01  4.7705594e-06  0.0000000e+00  0.0000000e+00
 -6.0000002e-01  9.2420167e-01  1.6985377e+00]",0.34238491606207233,1,1
125,125,2024-09-16 22:02:32.957175040,TASK_BEGIN,7,-0.2558709860552985,0.7660125916765759,0.8144730842862974,0.7445890384609286,6.184461164117889,0.7041881516523171,-55.78437881324168,17.570991076686646,1,2024-09-16 22:02:32.282246094,1726524152.2822466,2024-09-16 22:02:32.282246656,1,0.0,0.0007097701634108944,9.989193420026114,[0.20562778 0.06452618 0.00274304 0.727103  ],[0.20562778 0.06452618 0.00274304 0.727103  ],"[ 3.2605204e-01 -6.3772535e-01 -5.5549364e-05  5.8701316e-06
 -1.7898171e-01  1.2787864e-05  1.0000000e+00  0.0000000e+00
 -6.0000002e-01  9.2605203e-01  1.7007331e+00]",0.795044301498763,1,1
126,126,2024-09-16 22:02:33.034780928,TASK_BEGIN,7,-0.2664948381715809,0.7662621593577188,0.6936275258109044,0.7900975080893985,6.236572750716145,0.6021548607042843,-53.645006923430095,16.87695826738844,1,2024-09-16 22:02:32.282246094,1726524152.2822466,2024-09-16 22:02:32.282246656,1,0.0,0.0007097701634108944,9.989193420026114,[0.20562778 0.06452618 0.00274304 0.727103  ],[0.20562778 0.06452618 0.00274304 0.727103  ],"[ 3.2605204e-01 -6.3772535e-01 -5.5549364e-05  5.8701316e-06
 -1.7898171e-01  1.2787864e-05  1.0000000e+00  0.0000000e+00
 -6.0000002e-01  9.2605203e-01  1.7007331e+00]",0.795044301498763,1,1
127,127,2024-09-16 22:02:33.096324864,TASK_BEGIN,7,-0.2795334211700522,0.7656124195876888,0.5757079004186313,0.8344377770984002,6.245890438377575,0.5144349815536386,-51.24302104831456,16.08860739563629,1,2024-09-16 22:02:32.282246094,1726524152.2822466,2024-09-16 22:02:32.282246656,1,0.0,0.0007097701634108944,9.989193420026114,[0.20562778 0.06452618 0.00274304 0.727103  ],[0.20562778 0.06452618 0.00274304 0.727103  ],"[ 3.2605204e-01 -6.3772535e-01 -5.5549364e-05  5.8701316e-06
 -1.7898171e-01  1.2787864e-05  1.0000000e+00  0.0000000e+00
 -6.0000002e-01  9.2605203e-01  1.7007331e+00]",0.795044301498763,1,1
128,128,2024-09-16 22:02:33.157927936,TASK_BEGIN,7,-0.2943754067324957,0.764147172582652,0.4693844545662768,0.8755737814979075,6.214590036114257,0.4448751836796806,-48.63633016070504,15.228911235714612,1,2024-09-16 22:02:32.282246094,1726524152.2822466,2024-09-16 22:02:32.282246656,1,0.0,0.0007097701634108944,9.989193420026114,[0.20562778 0.06452618 0.00274304 0.727103  ],[0.20562778 0.06452618 0.00274304 0.727103  ],"[ 3.2605204e-01 -6.3772535e-01 -5.5549364e-05  5.8701316e-06
 -1.7898171e-01  1.2787864e-05  1.0000000e+00  0.0000000e+00
 -6.0000002e-01  9.2605203e-01  1.7007331e+00]",0.795044301498763,1,1
129,129,2024-09-16 22:02:33.235559936,TASK_BEGIN,7,-0.31060105518382,0.762072539425695,0.3821781387572342,0.9114149557056348,6.146671704591903,0.3965626093598647,-45.90743596473097,14.3275664776397,1,2024-09-16 22:02:32.345244873,1726524152.3452451,2024-09-16 22:02:32.345245184,1,0.0,0.00012842379203448218,9.69797470243635,[0.20578984 0.06451302 0.00274248 0.72695466],[0.20578984 0.06451302 0.00274248 0.72695466],"[ 3.2605204e-01 -6.3772535e-01  9.6085991e-08 -9.7123412e-09
 -1.7898168e-01 -1.9862972e-08  1.0000000e+00  0.0000000e+00
 -6.0000002e-01  9.2605203e-01  1.7007331e+00]",0.7948740724056318,1,1
130,130,2024-09-16 22:02:33.297111040,TASK_BEGIN,7,-0.3280480052464472,0.7596953440055623,0.3196810053574778,0.9400134520928176,6.047835928934815,0.3715187311062634,-43.15611222692396,13.418746618440704,1,2024-09-16 22:02:32.638300781,1726524152.6383011,2024-09-16 22:02:32.638301184,1,0.0,1.091411547804455e-07,8.425084626608442,[0.20578984 0.06451302 0.00274248 0.72695466],[0.20578984 0.06451302 0.00274248 0.72695466],"[ 3.2605204e-01 -6.3772535e-01  1.1076938e-09  9.3528563e-10
 -1.7898166e-01 -1.9865627e-09  1.0000000e+00  0.0000000e+00
 -6.0000002e-01  9.2605203e-01  1.7007331e+00]",0.7948740184792047,1,1
131,131,2024-09-16 22:02:33.359596800,TASK_BEGIN,7,-0.346831622050579,0.7573898949218741,0.284875080013056,0.9597579719040088,5.925374915200782,0.3704849182218337,-40.48920121097436,12.53782102497054,1,2024-09-16 22:02:32.638300781,1726524152.6383011,2024-09-16 22:02:32.638301184,1,0.0,1.091411547804455e-07,8.425084626608442,[0.20578984 0.06451302 0.00274248 0.72695466],[0.20578984 0.06451302 0.00274248 0.72695466],"[ 3.2605204e-01 -6.3772535e-01  1.1076938e-09  9.3528563e-10
 -1.7898166e-01 -1.9865627e-09  1.0000000e+00  0.0000000e+00
 -6.0000002e-01  9.2605203e-01  1.7007331e+00]",0.7948740184792047,1,1
132,135,2024-09-16 22:02:34.516550144,TASK_BEGIN,7,-0.4436370398788969,0.7553820371810651,0.3843554251501754,0.9374472424311624,5.392827590613404,0.5792163141346232,-32.40399571013214,9.845927127531704,1,2024-09-16 22:02:34.327601074,1726524154.3276012,2024-09-16 22:02:34.327601152,2,1.0,1.628949816141249,1.628949816141249,[0.36645901 0.3840941  0.08095459 0.1684923 ],[0.36645901 0.3840941  0.08095459 0.1684923 ],"[ 1.8444061e-03  1.0038486e+00  1.2975590e-01  1.7046873e-02
 -4.1359193e-03 -2.6773503e-02  0.0000000e+00  0.0000000e+00
  4.0000001e-01 -3.9815560e-01 -1.2457210e+01]",0.13540255090635692,0,0
133,136,2024-09-16 22:02:34.587926016,TASK_BEGIN,7,-0.4751005709691221,0.7571882052130761,0.4406912089816732,0.9090994656192398,5.302343324930457,0.6704287117411611,-31.229873247508674,9.446567829494928,1,2024-09-16 22:02:34.471587891,1726524154.4715886,2024-09-16 22:02:34.471588608,2,0.0,-2.003344193623576,-6.521618945848909,[0.4432745  0.25702955 0.10151334 0.19818262],[0.4432745  0.25702955 0.10151334 0.19818262],"[ 8.0606146e-03  9.9451351e-01  1.2987936e-01 -1.6218472e-01
 -1.3493436e-02 -2.6719486e-02  0.0000000e+00  0.0000000e+00
  4.0000001e-01 -3.9193937e-01 -1.2382529e+01]",0.13778657184677584,0,0
134,137,2024-09-16 22:02:34.643618048,TASK_BEGIN,7,-0.5093909897562182,0.7595588540146517,0.4949934565403341,0.8747524351665315,5.247443213667253,0.7700636857504142,-30.365801906794065,9.153110046669164,1,2024-09-16 22:02:34.513614990,1726524154.5136158,2024-09-16 22:02:34.513615872,2,0.0,-2.2209448730050667,-10.718960145935837,[0.46453946 0.23416948 0.1091851  0.19210596],[0.46453946 0.23416948 0.1091851  0.19210596],"[ 9.8378658e-03  9.8824537e-01  1.2991413e-01 -2.1340232e-01
 -1.6163405e-02 -2.6703611e-02  0.0000000e+00  0.0000000e+00
  4.0000001e-01 -3.9016214e-01 -1.2332384e+01]",0.15280911974902062,0,0
135,138,2024-09-16 22:02:34.723481856,TASK_BEGIN,7,-0.5458149361502443,0.7621255201467363,0.540747491799252,0.836589112511067,5.233545674108395,0.8744321669039576,-29.75755747797108,8.954726717259945,1,2024-09-16 22:02:34.597584961,1726524154.5975854,2024-09-16 22:02:34.597585408,2,0.0,-2.4255081516905364,-19.614170737581702,[0.50962277 0.20208236 0.10816648 0.18012839],[0.50962277 0.20208236 0.10816648 0.18012839],"[  0.0133938    0.97090757   0.12998295  -0.31583974  -0.02149873
  -0.02667381   0.           0.           0.4         -0.3866062
 -12.193682  ]",0.20410559870586784,0,0
136,139,2024-09-16 22:02:35.659501056,TASK_BEGIN,7,-0.5832905182353787,0.7644977459206126,0.5729890638836339,0.7968131531761712,5.262962579877888,0.9801213711761304,-29.343145100990768,8.839288263351612,1,2024-09-16 22:02:34.765585938,1726524154.7655864,2024-09-16 22:02:34.765586432,2,0.0,-2.5531043553383483,-37.50759994288701,[0.48071647 0.21235859 0.15054688 0.15637806],[0.48071647 0.21235859 0.15054688 0.15637806],"[  0.02051139   0.9170252    0.13011731  -0.5207235   -0.03215222
  -0.02661751   0.           0.           0.4         -0.37948862
 -11.762623  ]",0.16773268098103233,0,0
137,140,2024-09-16 22:02:35.721548032,TASK_BEGIN,7,-0.6204374078575405,0.766314981132287,0.5885572715459905,0.7574552076920373,5.334710654329623,1.0841698860647713,-29.06049098442534,8.79450760013541,1,2024-09-16 22:02:34.807585938,1726524154.8075862,2024-09-16 22:02:34.807586304,2,0.0,-2.79145277446068,-42.373795415250385,[0.46485447 0.22740224 0.16981687 0.13792643],[0.46485447 0.22740224 0.16981687 0.13792643],"[  0.02227441   0.8994539    0.12992297  -0.57622725  -0.03581657
  -0.02661215   0.           0.           0.4         -0.37772557
 -11.622052  ]",0.15588925322843766,0,0
138,141,2024-09-16 22:02:35.799169024,TASK_BEGIN,7,-0.6557180007552408,0.7672978939550454,0.5861464540092957,0.7202321782402368,5.444531129713942,1.1841868823646209,-28.853040429080107,8.808685399248787,1,2024-09-16 22:02:35.600783203,1726524155.6007838,2024-09-16 22:02:35.600783872,2,0.0,-2.3837286664971202,-36.19334210104959,[0.36745663 0.34709763 0.20146333 0.08398241],[0.36745663 0.34709763 0.20146333 0.08398241],"[ 0.06425206  0.5105691   0.23571658 -0.6001569  -0.09027999 -0.02251854
  0.          0.          0.4        -0.33574793 -8.510974  ]",0.1357721812916549,0,0
139,142,2024-09-16 22:02:35.861210112,TASK_BEGIN,7,-0.6875944367474213,0.7672906852949963,0.5662157389135349,0.6864700536676033,5.58505480244184,1.2783920097311765,-28.673906870547054,8.871544918460522,1,2024-09-16 22:02:35.600783203,1726524155.6007838,2024-09-16 22:02:35.600783872,2,0.0,-2.3837286664971202,-36.19334210104959,[0.36745663 0.34709763 0.20146333 0.08398241],[0.36745663 0.34709763 0.20146333 0.08398241],"[ 0.06425206  0.5105691   0.23571658 -0.6001569  -0.09027999 -0.02251854
  0.          0.          0.4        -0.33574793 -8.510974  ]",0.1357721812916549,0,0
140,143,2024-09-16 22:02:35.938129920,TASK_BEGIN,7,-0.7146686926556598,0.7662783989039276,0.5307520582071107,0.657080359841838,5.746068488876095,1.3656278756112334,-28.48871555370738,8.974781123877726,1,2024-09-16 22:02:35.600783203,1726524155.6007838,2024-09-16 22:02:35.600783872,2,0.0,-2.3837286664971202,-36.19334210104959,[0.36745663 0.34709763 0.20146333 0.08398241],[0.36745663 0.34709763 0.20146333 0.08398241],"[ 0.06425206  0.5105691   0.23571658 -0.6001569  -0.09027999 -0.02251854
  0.          0.          0.4        -0.33574793 -8.510974  ]",0.1357721812916549,0,0
141,144,2024-09-16 22:02:36.001225728,TASK_BEGIN,7,-0.7357863329186706,0.7643696499818964,0.4828855664139935,0.6325709639969611,5.9150367407333215,1.4453734800323956,-28.277197008312235,9.11180305155748,1,2024-09-16 22:02:35.600783203,1726524155.6007838,2024-09-16 22:02:35.600783872,2,0.0,-2.3837286664971202,-36.19334210104959,[0.36745663 0.34709763 0.20146333 0.08398241],[0.36745663 0.34709763 0.20146333 0.08398241],"[ 0.06425206  0.5105691   0.23571658 -0.6001569  -0.09027999 -0.02251854
  0.          0.          0.4        -0.33574793 -8.510974  ]",0.1357721812916549,0,0
142,145,2024-09-16 22:02:36.063368192,TASK_BEGIN,7,-0.7500949951936625,0.761750279121958,0.4263814412627855,0.6130848921980152,6.07812955535293,1.517664866694005,-28.034127205384696,9.276978802511325,1,2024-09-16 22:02:35.600783203,1726524155.6007838,2024-09-16 22:02:35.600783872,2,0.0,-2.3837286664971202,-36.19334210104959,[0.36745663 0.34709763 0.20146333 0.08398241],[0.36745663 0.34709763 0.20146333 0.08398241],"[ 0.06425206  0.5105691   0.23571658 -0.6001569  -0.09027999 -0.02251854
  0.          0.          0.4        -0.33574793 -8.510974  ]",0.1357721812916549,0,0
143,146,2024-09-16 22:02:36.992781056,TASK_BEGIN,7,-0.7570614691438854,0.7586259592824937,0.365087122960219,0.5984711349794328,6.221667111058109,1.5828381559595062,-27.77043437619624,9.46521760114992,1,2024-09-16 22:02:36.532972168,1726524156.5329723,2024-09-16 22:02:36.532972288,2,0.0,-2.2977250813067087,-35.66655061182372,[0.49150119 0.14195005 0.14124138 0.22530738],[0.49150119 0.14195005 0.14124138 0.22530738],"[ 0.14506888 -0.05859852  0.3309213  -0.76934046 -0.11439412 -0.01516159
  0.          0.          0.4        -0.25493112 -3.9576328 ]",0.17366677728466368,0,0
144,147,2024-09-16 22:02:37.058193920,TASK_BEGIN,7,-0.756467493251878,0.7551744524705639,0.3024845800685243,0.5883764332846081,6.33351379724697,1.6411738085102343,-27.51442198470388,9.672322161519238,1,2024-09-16 22:02:36.532972168,1726524156.5329723,2024-09-16 22:02:36.532972288,2,0.0,-2.2977250813067087,-35.66655061182372,[0.49150119 0.14195005 0.14124138 0.22530738],[0.49150119 0.14195005 0.14124138 0.22530738],"[ 0.14506888 -0.05859852  0.3309213  -0.76934046 -0.11439412 -0.01516159
  0.          0.          0.4        -0.25493112 -3.9576328 ]",0.17366677728466368,0,0
145,148,2024-09-16 22:02:37.120875008,TASK_BEGIN,7,-0.7484026142980047,0.7515184157681618,0.2414848663675589,0.5823209316140794,6.404063700316642,1.692622001588581,-27.311745276330228,9.895879339342796,1,2024-09-16 22:02:36.532972168,1726524156.5329723,2024-09-16 22:02:36.532972288,2,0.0,-2.2977250813067087,-35.66655061182372,[0.49150119 0.14195005 0.14124138 0.22530738],[0.49150119 0.14195005 0.14124138 0.22530738],"[ 0.14506888 -0.05859852  0.3309213  -0.76934046 -0.11439412 -0.01516159
  0.          0.          0.4        -0.25493112 -3.9576328 ]",0.17366677728466368,0,0
146,149,2024-09-16 22:02:37.182924032,TASK_BEGIN,7,-0.7332511025085637,0.7477141244325274,0.1844772830245568,0.5797209333448784,6.426833443252851,1.736728107892903,-27.222612963286423,10.13612105940478,1,2024-09-16 22:02:36.532972168,1726524156.5329723,2024-09-16 22:02:36.532972288,2,0.0,-2.2977250813067087,-35.66655061182372,[0.49150119 0.14195005 0.14124138 0.22530738],[0.49150119 0.14195005 0.14124138 0.22530738],"[ 0.14506888 -0.05859852  0.3309213  -0.76934046 -0.11439412 -0.01516159
  0.          0.          0.4        -0.25493112 -3.9576328 ]",0.17366677728466368,0,0
147,150,2024-09-16 22:02:37.260546816,TASK_BEGIN,7,-0.7116621800074734,0.7437446573442337,0.1335223539117225,0.579865663033842,6.398870485222084,1.7727358214079552,-27.315764097102477,10.396192168728067,1,2024-09-16 22:02:36.532972168,1726524156.5329723,2024-09-16 22:02:36.532972288,2,0.0,-2.2977250813067087,-35.66655061182372,[0.49150119 0.14195005 0.14124138 0.22530738],[0.49150119 0.14195005 0.14124138 0.22530738],"[ 0.14506888 -0.05859852  0.3309213  -0.76934046 -0.11439412 -0.01516159
  0.          0.          0.4        -0.25493112 -3.9576328 ]",0.17366677728466368,0,0
148,151,2024-09-16 22:02:37.323475968,TASK_BEGIN,7,-0.684505737247814,0.7395130281776696,0.0905615718728816,0.5818969326015502,6.321140745346843,1.7997394533349875,-27.65977445924518,10.681564269754189,1,2024-09-16 22:02:36.532972168,1726524156.5329723,2024-09-16 22:02:36.532972288,2,0.0,-2.2977250813067087,-35.66655061182372,[0.49150119 0.14195005 0.14124138 0.22530738],[0.49150119 0.14195005 0.14124138 0.22530738],"[ 0.14506888 -0.05859852  0.3309213  -0.76934046 -0.11439412 -0.01516159
  0.          0.          0.4        -0.25493112 -3.9576328 ]",0.17366677728466368,0,0
149,152,2024-09-16 22:02:37.385146112,TASK_BEGIN,7,-0.6528202845033251,0.7348425887133532,0.0575562556301398,0.5848354297849798,6.198847531005224,1.8167730036701903,-28.31317879772296,10.998932489329851,1,2024-09-16 22:02:36.532972168,1726524156.5329723,2024-09-16 22:02:36.532972288,2,0.0,-2.2977250813067087,-35.66655061182372,[0.49150119 0.14195005 0.14124138 0.22530738],[0.49150119 0.14195005 0.14124138 0.22530738],"[ 0.14506888 -0.05859852  0.3309213  -0.76934046 -0.11439412 -0.01516159
  0.          0.          0.4        -0.25493112 -3.9576328 ]",0.17366677728466368,0,0
150,153,2024-09-16 22:02:38.330100224,TASK_BEGIN,7,-0.6177546567532454,0.7294966010917332,0.0364810969960169,0.5876650153256037,6.0413371945064505,1.8228517583977528,-29.31641002586724,11.355401384570015,1,2024-09-16 22:02:37.963972168,1726524157.9639728,2024-09-16 22:02:37.963972864,2,0.0,4.98016919474334,38.29391641119664,[0.76506385 0.11149244 0.02436044 0.09908327],[0.76506385 0.11149244 0.02436044 0.09908327],"[ 0.42620453 -0.55216277  0.48498046 -0.0543718  -0.0205206  -0.12091102
  1.          1.          0.4         0.02620452 -0.00911887]",0.722107799010218,0,0
151,154,2024-09-16 22:02:38.408371200,TASK_BEGIN,7,-0.5805157031556663,0.7232206802540824,0.029155807626006,0.5894408082268635,5.861193972075877,1.8170765982281725,-30.688450403603348,11.758431512740058,1,2024-09-16 22:02:37.963972168,1726524157.9639728,2024-09-16 22:02:37.963972864,2,0.0,4.98016919474334,38.29391641119664,[0.76506385 0.11149244 0.02436044 0.09908327],[0.76506385 0.11149244 0.02436044 0.09908327],"[ 0.42620453 -0.55216277  0.48498046 -0.0543718  -0.0205206  -0.12091102
  1.          1.          0.4         0.02620452 -0.00911887]",0.722107799010218,0,0
152,155,2024-09-16 22:02:38.470855936,TASK_BEGIN,7,-0.5423474672060997,0.7157981756907821,0.0370425809934214,0.5893446620072488,5.672567144891622,1.7988457721402833,-32.42758666070582,12.216040273084108,1,2024-09-16 22:02:37.963972168,1726524157.9639728,2024-09-16 22:02:37.963972864,2,0.0,4.98016919474334,38.29391641119664,[0.76506385 0.11149244 0.02436044 0.09908327],[0.76506385 0.11149244 0.02436044 0.09908327],"[ 0.42620453 -0.55216277  0.48498046 -0.0543718  -0.0205206  -0.12091102
  1.          1.          0.4         0.02620452 -0.00911887]",0.722107799010218,0,0
153,156,2024-09-16 22:02:38.533693184,TASK_BEGIN,7,-0.5045445109618824,0.707101405662016,0.0611720281702166,0.586647500262316,5.489329718387191,1.768073804746544,-34.51313577652179,12.736272273779187,1,2024-09-16 22:02:37.963972168,1726524157.9639728,2024-09-16 22:02:37.963972864,2,0.0,4.98016919474334,38.29391641119664,[0.76506385 0.11149244 0.02436044 0.09908327],[0.76506385 0.11149244 0.02436044 0.09908327],"[ 0.42620453 -0.55216277  0.48498046 -0.0543718  -0.0205206  -0.12091102
  1.          1.          0.4         0.02620452 -0.00911887]",0.722107799010218,0,0
154,157,2024-09-16 22:02:38.609624064,TASK_BEGIN,7,-0.4684574996087244,0.6971254507284516,0.1021865950287752,0.5806376277700455,5.323709295649585,1.7252828090090966,-36.90709005142779,13.325517853845444,1,2024-09-16 22:02:37.963972168,1726524157.9639728,2024-09-16 22:02:37.963972864,2,0.0,4.98016919474334,38.29391641119664,[0.76506385 0.11149244 0.02436044 0.09908327],[0.76506385 0.11149244 0.02436044 0.09908327],"[ 0.42620453 -0.55216277  0.48498046 -0.0543718  -0.0205206  -0.12091102
  1.          1.          0.4         0.02620452 -0.00911887]",0.722107799010218,0,0
155,158,2024-09-16 22:02:38.681054208,TASK_BEGIN,7,-0.4354376863966421,0.686000883920337,0.1603610810195301,0.5706014757546112,5.185552886417887,1.6715501151622103,-39.55740109488868,13.986217779683765,1,2024-09-16 22:02:37.963972168,1726524157.9639728,2024-09-16 22:02:37.963972864,2,0.0,4.98016919474334,38.29391641119664,[0.76506385 0.11149244 0.02436044 0.09908327],[0.76506385 0.11149244 0.02436044 0.09908327],"[ 0.42620453 -0.55216277  0.48498046 -0.0543718  -0.0205206  -0.12091102
  1.          1.          0.4         0.02620452 -0.00911887]",0.722107799010218,0,0
156,159,2024-09-16 22:02:38.733686016,TASK_BEGIN,7,-0.406707513427235,0.6739865974922604,0.2355364558862114,0.5558746474071726,5.082002129330879,1.6084093320896375,-42.40443414139086,14.71516366615368,1,2024-09-16 22:02:37.963972168,1726524157.9639728,2024-09-16 22:02:37.963972864,2,0.0,4.98016919474334,38.29391641119664,[0.76506385 0.11149244 0.02436044 0.09908327],[0.76506385 0.11149244 0.02436044 0.09908327],"[ 0.42620453 -0.55216277  0.48498046 -0.0543718  -0.0205206  -0.12091102
  1.          1.          0.4         0.02620452 -0.00911887]",0.722107799010218,0,0
157,160,2024-09-16 22:02:39.686052096,TASK_BEGIN,7,-0.3832003996704304,0.6614411243529444,0.3269976726788837,0.5359334955712559,5.017448963092137,1.5377610222241709,-45.38990680019892,15.503476195187194,1,2024-09-16 22:02:38.919565918,1726524158.9195669,2024-09-16 22:02:38.919566848,2,0.0,2.900915205827914e-06,60.49851279841123,[0.43408365 0.31774113 0.04127432 0.2069009 ],[0.43408365 0.31774113 0.04127432 0.2069009 ],"[ 4.7039747e-01 -5.4967558e-01 -1.9850452e-08  1.1615096e-09
 -1.9192747e-03  3.5742239e-08  1.0000000e+00  1.0000000e+00
  4.0000001e-01  7.0397474e-02 -2.9016567e-02]",0.11565573510483348,0,0
158,161,2024-09-16 22:02:39.747675136,TASK_BEGIN,7,-0.3654322590929068,0.6487708815258968,0.433329965648676,0.5105012407176397,4.993925487810771,1.461730503176625,-48.464829880436,16.338107564993326,1,2024-09-16 22:02:38.919565918,1726524158.9195669,2024-09-16 22:02:38.919566848,2,0.0,2.900915205827914e-06,60.49851279841123,[0.43408365 0.31774113 0.04127432 0.2069009 ],[0.43408365 0.31774113 0.04127432 0.2069009 ],"[ 4.7039747e-01 -5.4967558e-01 -1.9850452e-08  1.1615096e-09
 -1.9192747e-03  3.5742239e-08  1.0000000e+00  1.0000000e+00
  4.0000001e-01  7.0397474e-02 -2.9016567e-02]",0.11565573510483348,0,0
159,162,2024-09-16 22:02:39.825347840,TASK_BEGIN,7,-0.3534442599832036,0.6363623704055505,0.5523389701870037,0.4796342024027989,5.012088586376394,1.382412969733601,-51.59193544246284,17.20341583677313,1,2024-09-16 22:02:38.919565918,1726524158.9195669,2024-09-16 22:02:38.919566848,2,0.0,2.900915205827914e-06,60.49851279841123,[0.43408365 0.31774113 0.04127432 0.2069009 ],[0.43408365 0.31774113 0.04127432 0.2069009 ],"[ 4.7039747e-01 -5.4967558e-01 -1.9850452e-08  1.1615096e-09
 -1.9192747e-03  3.5742239e-08  1.0000000e+00  1.0000000e+00
  4.0000001e-01  7.0397474e-02 -2.9016567e-02]",0.11565573510483348,0,0
160,163,2024-09-16 22:02:39.895507200,TASK_BEGIN,7,-0.3468240945450503,0.624514850420033,0.6811961007851355,0.4437480824884481,5.072610677502636,1.301576495462614,-54.74114298037605,18.081648918265422,1,2024-09-16 22:02:39.087565918,1726524159.0875661,2024-09-16 22:02:39.087566080,2,0.0,-5.643188885073869e-07,55.82469322623524,[0.43408365 0.31774113 0.04127432 0.2069009 ],[0.43408365 0.31774113 0.04127432 0.2069009 ],"[ 4.7039747e-01 -5.4967558e-01 -3.7301054e-10  2.0958577e-09
 -1.9191727e-03  3.3565457e-09  1.0000000e+00  1.0000000e+00
  4.0000001e-01  7.0397474e-02 -2.9016567e-02]",0.11565572907007268,0,0
161,164,2024-09-16 22:02:39.949729024,TASK_BEGIN,7,-0.3447846510695809,0.6133898257976976,0.8168338879740045,0.4035855686315826,5.1773574685547095,1.220467505789818,-57.88121149651281,18.95263092056545,1,2024-09-16 22:02:39.087565918,1726524159.0875661,2024-09-16 22:02:39.087566080,2,0.0,-5.643188885073869e-07,55.82469322623524,[0.43408365 0.31774113 0.04127432 0.2069009 ],[0.43408365 0.31774113 0.04127432 0.2069009 ],"[ 4.7039747e-01 -5.4967558e-01 -3.7301054e-10  2.0958577e-09
 -1.9191727e-03  3.3565457e-09  1.0000000e+00  1.0000000e+00
  4.0000001e-01  7.0397474e-02 -2.9016567e-02]",0.11565572907007268,0,0
162,165,2024-09-16 22:02:40.031053056,TASK_BEGIN,7,-0.3462597545617938,0.6029833765892381,0.9563373580836438,0.360161811367593,5.329666171304472,1.1397937499143962,-60.97170902200982,19.793479408857998,1,2024-09-16 22:02:39.129562988,1726524159.129563,2024-09-16 22:02:39.129563136,2,0.0,-1.8654416393815154e-06,54.71378641880518,[0.43408365 0.31774113 0.04127432 0.2069009 ],[0.43408365 0.31774113 0.04127432 0.2069009 ],"[ 4.7039747e-01 -5.4967558e-01 -1.0311832e-08  2.3162432e-10
 -1.9191180e-03  2.2461695e-08  1.0000000e+00  1.0000000e+00
  4.0000001e-01  7.0397474e-02 -2.9016567e-02]",0.11565572791332387,0,0
163,167,2024-09-16 22:02:41.027931904,TASK_BEGIN,7,-0.3545715181193504,0.5834519966281398,1.2364345415695135,0.2685641612119432,5.792728451939503,0.9805366626981512,-66.76312302139979,21.28011289490629,1,2024-09-16 22:02:40.706125000,1726524160.7061024,2024-09-16 22:02:40.706102272,3,0.0,-2.024089179336926,-2.024089179336926,[0.41463352 0.20693306 0.07432098 0.30411244],[0.41463352 0.20693306 0.07432098 0.30411244],"[-9.2506409e-04  9.9768698e-01 -6.8623833e-02 -1.8013512e-01
  2.7636869e-03  2.6090685e-02  0.0000000e+00  0.0000000e+00
 -6.0000002e-01  5.9907496e-01 -1.2473178e+01]",0.15618723355547584,0,0
164,168,2024-09-16 22:02:41.109724160,TASK_BEGIN,7,-0.3585725108767052,0.5735037867298329,1.3716695955812757,0.223163561239786,6.109252392011241,0.9015982951498576,-69.29793606199722,21.86922788964766,1,2024-09-16 22:02:40.706125000,1726524160.7061024,2024-09-16 22:02:40.706102272,3,0.0,-2.024089179336926,-2.024089179336926,[0.41463352 0.20693306 0.07432098 0.30411244],[0.41463352 0.20693306 0.07432098 0.30411244],"[-9.2506409e-04  9.9768698e-01 -6.8623833e-02 -1.8013512e-01
  2.7636869e-03  2.6090685e-02  0.0000000e+00  0.0000000e+00
 -6.0000002e-01  5.9907496e-01 -1.2473178e+01]",0.15618723355547584,0,0
165,169,2024-09-16 22:02:41.167208960,TASK_BEGIN,7,-0.3605985860407822,0.5627022430216087,1.499428994749949,0.1799414926394103,6.483239234856442,0.8224847844945945,-71.45768961481981,22.31889409175428,1,2024-09-16 22:02:40.706125000,1726524160.7061024,2024-09-16 22:02:40.706102272,3,0.0,-2.024089179336926,-2.024089179336926,[0.41463352 0.20693306 0.07432098 0.30411244],[0.41463352 0.20693306 0.07432098 0.30411244],"[-9.2506409e-04  9.9768698e-01 -6.8623833e-02 -1.8013512e-01
  2.7636869e-03  2.6090685e-02  0.0000000e+00  0.0000000e+00
 -6.0000002e-01  5.9907496e-01 -1.2473178e+01]",0.15618723355547584,0,0
166,170,2024-09-16 22:02:41.245172992,TASK_BEGIN,7,-0.3594413060472917,0.5504564029055456,1.6157368775229324,0.1403615219399203,6.9117445524892265,0.7425801470432124,-73.13879385666166,22.607429708170688,1,2024-09-16 22:02:40.706125000,1726524160.7061024,2024-09-16 22:02:40.706102272,3,0.0,-2.024089179336926,-2.024089179336926,[0.41463352 0.20693306 0.07432098 0.30411244],[0.41463352 0.20693306 0.07432098 0.30411244],"[-9.2506409e-04  9.9768698e-01 -6.8623833e-02 -1.8013512e-01
  2.7636869e-03  2.6090685e-02  0.0000000e+00  0.0000000e+00
 -6.0000002e-01  5.9907496e-01 -1.2473178e+01]",0.15618723355547584,0,0
167,171,2024-09-16 22:02:41.306529024,TASK_BEGIN,7,-0.3542008122096853,0.5362376554758534,1.7161744269665555,0.1058842481155796,7.387658655632189,0.6613917626756971,-74.2534697533767,22.722302064949456,1,2024-09-16 22:02:40.706125000,1726524160.7061024,2024-09-16 22:02:40.706102272,3,0.0,-2.024089179336926,-2.024089179336926,[0.41463352 0.20693306 0.07432098 0.30411244],[0.41463352 0.20693306 0.07432098 0.30411244],"[-9.2506409e-04  9.9768698e-01 -6.8623833e-02 -1.8013512e-01
  2.7636869e-03  2.6090685e-02  0.0000000e+00  0.0000000e+00
 -6.0000002e-01  5.9907496e-01 -1.2473178e+01]",0.15618723355547584,0,0
168,172,2024-09-16 22:02:41.380601856,TASK_BEGIN,7,-0.3443814329498717,0.5196572446512278,1.79633467374711,0.0778821871603592,7.898994592925595,0.5787153867125235,-74.74468215554343,22.662926288075173,1,2024-09-16 22:02:40.706125000,1726524160.7061024,2024-09-16 22:02:40.706102272,3,0.0,-2.024089179336926,-2.024089179336926,[0.41463352 0.20693306 0.07432098 0.30411244],[0.41463352 0.20693306 0.07432098 0.30411244],"[-9.2506409e-04  9.9768698e-01 -6.8623833e-02 -1.8013512e-01
  2.7636869e-03  2.6090685e-02  0.0000000e+00  0.0000000e+00
 -6.0000002e-01  5.9907496e-01 -1.2473178e+01]",0.15618723355547584,0,0
169,173,2024-09-16 22:02:41.448445184,TASK_BEGIN,7,-0.3299400838239545,0.5005309965984199,1.8524088305865951,0.0574947166162705,8.429216205402541,0.494675354272684,-74.59672947464111,22.44171579314744,1,2024-09-16 22:02:40.706125000,1726524160.7061024,2024-09-16 22:02:40.706102272,3,0.0,-2.024089179336926,-2.024089179336926,[0.41463352 0.20693306 0.07432098 0.30411244],[0.41463352 0.20693306 0.07432098 0.30411244],"[-9.2506409e-04  9.9768698e-01 -6.8623833e-02 -1.8013512e-01
  2.7636869e-03  2.6090685e-02  0.0000000e+00  0.0000000e+00
 -6.0000002e-01  5.9907496e-01 -1.2473178e+01]",0.15618723355547584,0,0
170,174,2024-09-16 22:02:42.364358912,TASK_BEGIN,7,-0.3112817892047166,0.4789317262409009,1.8817980280061493,0.0454523812875557,8.958604339529332,0.4096566214031759,-73.8400242825082,22.083357083692302,1,2024-09-16 22:02:41.553985107,1726524161.5539858,2024-09-16 22:02:41.553985792,3,0.0,-2.5023171276914127,-24.326329495071576,[0.37769003 0.22544472 0.13309652 0.26376873],[0.37769003 0.22544472 0.13309652 0.26376873],"[ -0.0242389    0.6909478   -0.12750356  -0.45112306   0.05659918
   0.0209669    0.           0.          -0.6          0.5757611
 -10.019264  ]",0.09036895009765952,0,0
171,175,2024-09-16 22:02:42.426407936,TASK_BEGIN,7,-0.2892049277921309,0.4552286919052922,1.88363616993552,0.0419209383110515,9.46624828871552,0.3242036593410415,-72.54985667521365,21.622721209061847,1,2024-09-16 22:02:41.553985107,1726524161.5539858,2024-09-16 22:02:41.553985792,3,0.0,-2.5023171276914127,-24.326329495071576,[0.37769003 0.22544472 0.13309652 0.26376873],[0.37769003 0.22544472 0.13309652 0.26376873],"[ -0.0242389    0.6909478   -0.12750356  -0.45112306   0.05659918
   0.0209669    0.           0.          -0.6          0.5757611
 -10.019264  ]",0.09036895009765952,0,0
172,176,2024-09-16 22:02:42.488540160,TASK_BEGIN,7,-0.2648065719766724,0.4301055420996247,1.85907371267966,0.0464118253498583,9.932161951901948,0.2389514984238482,-70.83857178454949,21.10175176953252,1,2024-09-16 22:02:42.312979004,1726524162.3129797,2024-09-16 22:02:42.312979712,3,0.0,-2.463372002361723,-23.206991699895244,[0.33282289 0.29108281 0.11870063 0.25739367],[0.33282289 0.29108281 0.11870063 0.25739367],"[-0.08159033  0.3721614  -0.29325342 -0.5238503  -0.02778461 -0.07568423
  0.          0.         -0.6         0.51840967 -7.468973  ]",0.09907896003233761,0,0
173,177,2024-09-16 22:02:42.570318848,TASK_BEGIN,7,-0.2393660591888793,0.4045467040933345,1.8112140518952955,0.0577805699985293,10.339082903586606,0.1546103446405522,-68.84129284645029,20.565501678760093,1,2024-09-16 22:02:42.312979004,1726524162.3129797,2024-09-16 22:02:42.312979712,3,0.0,-2.463372002361723,-23.206991699895244,[0.33282289 0.29108281 0.11870063 0.25739367],[0.33282289 0.29108281 0.11870063 0.25739367],"[-0.08159033  0.3721614  -0.29325342 -0.5238503  -0.02778461 -0.07568423
  0.          0.         -0.6         0.51840967 -7.468973  ]",0.09907896003233761,0,0
174,178,2024-09-16 22:02:42.636360192,TASK_BEGIN,7,-0.2142294040251456,0.3797913787373787,1.74471615074779,0.0743275974695066,10.673720403474574,0.0719854039852684,-66.69882308660726,20.05779096334573,1,2024-09-16 22:02:42.312979004,1726524162.3129797,2024-09-16 22:02:42.312979712,3,0.0,-2.463372002361723,-23.206991699895244,[0.33282289 0.29108281 0.11870063 0.25739367],[0.33282289 0.29108281 0.11870063 0.25739367],"[-0.08159033  0.3721614  -0.29325342 -0.5238503  -0.02778461 -0.07568423
  0.          0.         -0.6         0.51840967 -7.468973  ]",0.09907896003233761,0,0
175,179,2024-09-16 22:02:42.705814016,TASK_BEGIN,7,-0.1907115767128114,0.3572654784098267,1.6651795059162935,0.0940159442860892,10.927459030080833,-0.0080072282869871,-64.54355953257708,19.617389935933275,1,2024-09-16 22:02:42.312979004,1726524162.3129797,2024-09-16 22:02:42.312979712,3,0.0,-2.463372002361723,-23.206991699895244,[0.33282289 0.29108281 0.11870063 0.25739367],[0.33282289 0.29108281 0.11870063 0.25739367],"[-0.08159033  0.3721614  -0.29325342 -0.5238503  -0.02778461 -0.07568423
  0.          0.         -0.6         0.51840967 -7.468973  ]",0.09907896003233761,0,0
176,180,2024-09-16 22:02:42.761049088,TASK_BEGIN,7,-0.170026837847879,0.33851012071333,1.5784889171911338,0.1147681379418245,11.096596111988005,-0.0843467203007138,-62.49151501093313,19.27545223735185,1,2024-09-16 22:02:42.312979004,1726524162.3129797,2024-09-16 22:02:42.312979712,3,0.0,-2.463372002361723,-23.206991699895244,[0.33282289 0.29108281 0.11870063 0.25739367],[0.33282289 0.29108281 0.11870063 0.25739367],"[-0.08159033  0.3721614  -0.29325342 -0.5238503  -0.02778461 -0.07568423
  0.          0.         -0.6         0.51840967 -7.468973  ]",0.09907896003233761,0,0
177,181,2024-09-16 22:02:43.716177920,TASK_BEGIN,7,-0.1532495398795092,0.3251239018847458,1.490308019622763,0.1347402554724839,11.182176170384109,-0.1558987056784834,-60.638793459006685,19.054262242195563,1,2024-09-16 22:02:43.587455078,1726524163.5874555,2024-09-16 22:02:43.587455488,3,3.0,-8.169638986814457,33.44256280152019,[1.33024862e-03 3.44366640e-05 3.01128592e-03 9.95624029e-01],[1.33024862e-03 3.44366640e-05 3.01128592e-03 9.95624029e-01],"[-0.14070606 -0.2709971   0.02494994 -0.15636565  0.06518403  1.0699831
  0.          0.         -0.6         0.45929393 -2.3237052 ]",1.2062521935042434,0,0
178,182,2024-09-16 22:02:43.784829952,TASK_BEGIN,7,-0.1412909093949853,0.3187187249077637,1.4057840062402085,0.1524958996687833,11.189518847029657,-0.2213302934688036,-59.05918193410854,18.966921664344135,1,2024-09-16 22:02:43.650132812,1726524163.6501338,2024-09-16 22:02:43.650133760,3,3.0,2.707446114926219,29.353170619825192,[8.79550546e-03 9.31295912e-05 5.51922488e-03 9.85592140e-01],[8.79550546e-03 9.31295912e-05 5.51922488e-03 9.85592140e-01],"[-0.13874221 -0.27964312  0.02697727 -0.1740642   0.17823936  0.24387825
  0.          1.         -0.6         0.4612578  -2.254537  ]",1.4153158092239844,1,1
179,183,2024-09-16 22:02:43.852681984,TASK_BEGIN,7,-0.1348747066263989,0.3208729309065894,1.329341581287044,0.1670847041190787,11.12760249519393,-0.278938389649824,-57.80199393002557,19.017734461347967,1,2024-09-16 22:02:43.650132812,1726524163.6501338,2024-09-16 22:02:43.650133760,3,3.0,2.707446114926219,29.353170619825192,[8.79550546e-03 9.31295912e-05 5.51922488e-03 9.85592140e-01],[8.79550546e-03 9.31295912e-05 5.51922488e-03 9.85592140e-01],"[-0.13874221 -0.27964312  0.02697727 -0.1740642   0.17823936  0.24387825
  0.          1.         -0.6         0.4612578  -2.254537  ]",1.4153158092239844,1,1
180,184,2024-09-16 22:02:43.917488896,TASK_BEGIN,7,-0.1345156582123862,0.3330705766457935,1.264447777641208,0.178057896180307,11.00851586730919,-0.3264794020145189,-56.891432594145805,19.20329907087315,1,2024-09-16 22:02:43.650132812,1726524163.6501338,2024-09-16 22:02:43.650133760,3,3.0,2.707446114926219,29.353170619825192,[8.79550546e-03 9.31295912e-05 5.51922488e-03 9.85592140e-01],[8.79550546e-03 9.31295912e-05 5.51922488e-03 9.85592140e-01],"[-0.13874221 -0.27964312  0.02697727 -0.1740642   0.17823936  0.24387825
  0.          1.         -0.6         0.4612578  -2.254537  ]",1.4153158092239844,1,1
181,185,2024-09-16 22:02:43.979975936,TASK_BEGIN,7,-0.1405146083541499,0.3566313061185325,1.213414084088092,0.1854209975098687,10.84705476473047,-0.3611458473867642,-56.32786781032581,19.514156032116635,1,2024-09-16 22:02:43.650132812,1726524163.6501338,2024-09-16 22:02:43.650133760,3,3.0,2.707446114926219,29.353170619825192,[8.79550546e-03 9.31295912e-05 5.51922488e-03 9.85592140e-01],[8.79550546e-03 9.31295912e-05 5.51922488e-03 9.85592140e-01],"[-0.13874221 -0.27964312  0.02697727 -0.1740642   0.17823936  0.24387825
  0.          1.         -0.6         0.4612578  -2.254537  ]",1.4153158092239844,1,1
182,186,2024-09-16 22:02:44.041516032,TASK_BEGIN,7,-0.1529701431018853,0.3926401739241961,1.1774032209779146,0.1895061882192136,10.66018965485847,-0.3797736247069869,-56.09097735102716,19.93668237318528,1,2024-09-16 22:02:43.650132812,1726524163.6501338,2024-09-16 22:02:43.650133760,3,3.0,2.707446114926219,29.353170619825192,[8.79550546e-03 9.31295912e-05 5.51922488e-03 9.85592140e-01],[8.79550546e-03 9.31295912e-05 5.51922488e-03 9.85592140e-01],"[-0.13874221 -0.27964312  0.02697727 -0.1740642   0.17823936  0.24387825
  0.          1.         -0.6         0.4612578  -2.254537  ]",1.4153158092239844,1,1
183,187,2024-09-16 22:02:44.118722816,TASK_BEGIN,7,-0.1717933992824621,0.4418786503407417,1.156688759157127,0.190779430722591,10.466026319567648,-0.3792319430262645,-56.14504588312579,20.455058060229486,1,2024-09-16 22:02:43.650132812,1726524163.6501338,2024-09-16 22:02:43.650133760,3,3.0,2.707446114926219,29.353170619825192,[8.79550546e-03 9.31295912e-05 5.51922488e-03 9.85592140e-01],[8.79550546e-03 9.31295912e-05 5.51922488e-03 9.85592140e-01],"[-0.13874221 -0.27964312  0.02697727 -0.1740642   0.17823936  0.24387825
  0.          1.         -0.6         0.4612578  -2.254537  ]",1.4153158092239844,1,1
184,188,2024-09-16 22:02:45.067227904,TASK_BEGIN,7,-0.1967182963430278,0.5047514711072494,1.1509902181309226,0.1896517597467525,10.282284925554832,-0.3568843914044088,-56.44513900197005,21.05302837002763,1,2024-09-16 22:02:44.275798096,1726524164.275798,2024-09-16 22:02:44.275798016,3,3.0,0.6776028115374879,35.34527580396216,[0.21457014 0.14615008 0.09272516 0.54655462],[0.21457014 0.14615008 0.09272516 0.54655462],"[-0.1417299  -0.28551024  0.03668566  0.02829219  0.10613221 -0.06305402
  1.          0.         -0.6         0.4582701  -2.2076    ]",0.2927926308491171,1,1
185,189,2024-09-16 22:02:45.125493248,TASK_BEGIN,7,-0.2273101524031827,0.5812085867421651,1.159610696593306,0.1863828346464697,10.124717029555187,-0.3110509822190458,-56.94176971988043,21.714822069701693,1,2024-09-16 22:02:44.275798096,1726524164.275798,2024-09-16 22:02:44.275798016,3,3.0,0.6776028115374879,35.34527580396216,[0.21457014 0.14615008 0.09272516 0.54655462],[0.21457014 0.14615008 0.09272516 0.54655462],"[-0.1417299  -0.28551024  0.03668566  0.02829219  0.10613221 -0.06305402
  1.          0.         -0.6         0.4582701  -2.2076    ]",0.2927926308491171,1,1
186,190,2024-09-16 22:02:45.202689024,TASK_BEGIN,7,-0.2629734148213185,0.6706703651339688,1.1812746721554537,0.1811122277980982,10.005836344965996,-0.2414549772878316,-57.58314021909891,22.42467230578113,1,2024-09-16 22:02:44.296793945,1726524164.2967944,2024-09-16 22:02:44.296794368,3,3.0,-0.18920681568411113,34.80261623023843,[0.19952494 0.13361175 0.11850267 0.54836064],[0.19952494 0.13361175 0.11850267 0.54836064],"[-0.14141369 -0.28530902  0.04759775  0.01302525  0.10471254 -0.02839351
  1.          0.         -0.6         0.4585863  -2.20921   ]",0.29235268001954207,1,1
187,191,2024-09-16 22:02:45.270440192,TASK_BEGIN,7,-0.3029518998761533,0.771968186120023,1.2138413863685171,0.1739688914130293,9.934105307255315,-0.1496441437658448,-58.31589753206843,23.165277547536625,1,2024-09-16 22:02:44.360800049,1726524164.3608,2024-09-16 22:02:44.360800000,3,3.0,-1.7690216786065867,29.55018938976046,[0.15281515 0.10263987 0.26672769 0.47781729],[0.15281515 0.10263987 0.26672769 0.47781729],"[-0.13993867 -0.28616947  0.07647595 -0.0350882   0.1112501   0.08108227
  1.          0.         -0.6         0.46006134 -2.2023263 ]",0.23085453817295223,1,1
188,192,2024-09-16 22:02:45.338164992,TASK_BEGIN,7,-0.3463174176794619,0.8833107107766136,1.254161972471661,0.1651763876834664,9.913565440533532,-0.0393641176029793,-59.08612243651408,23.91646287275484,1,2024-09-16 22:02:44.527800049,1726524164.5278003,2024-09-16 22:02:44.527800320,3,3.0,0.12885793046152627,43.0901520430351,[0.24926258 0.17269076 0.14167057 0.43637608],[0.24926258 0.17269076 0.14167057 0.43637608],"[-0.13847423 -0.28534836  0.01875272  0.00454168  0.10549513 -0.00985246
  1.          1.         -0.6         0.46152577 -2.2088952 ]",0.10572854436752813,1,1
189,193,2024-09-16 22:02:45.403579904,TASK_BEGIN,7,-0.3919542087216196,1.0022815863330043,1.2981989043001796,0.1551110564459099,9.943874800169077,0.0831517621619189,-59.84140323651936,24.655095157723885,1,2024-09-16 22:02:44.527800049,1726524164.5278003,2024-09-16 22:02:44.527800320,3,3.0,0.12885793046152627,43.0901520430351,[0.24926258 0.17269076 0.14167057 0.43637608],[0.24926258 0.17269076 0.14167057 0.43637608],"[-0.13847423 -0.28534836  0.01875272  0.00454168  0.10549513 -0.00985246
  1.          1.         -0.6         0.46152577 -2.2088952 ]",0.10572854436752813,1,1
190,194,2024-09-16 22:02:45.465161984,TASK_BEGIN,7,-0.4385594134548551,1.125875058241538,1.3413435477355689,0.1443178957108193,10.020772825722176,0.2091026667587008,-60.53280922671061,25.356240265027072,1,2024-09-16 22:02:44.568795898,1726524164.5687966,2024-09-16 22:02:44.568796672,3,3.0,0.09112429141680935,42.945935135910176,[0.24726997 0.1665814  0.14715457 0.43899405],[0.24726997 0.1665814  0.14715457 0.43899405],"[-0.13830765 -0.28525513  0.01210292  0.00293046  0.10484015 -0.00636031
  1.          1.         -0.6         0.46169236 -2.209641  ]",0.10505433696654962,1,1
191,202,2024-09-16 22:02:47.743972864,TASK_BEGIN,7,-0.6998182911804043,1.8659967785289413,1.2131661751405214,0.1349012921289721,10.917990414663944,0.2857485233925288,-59.90905312220266,27.494660074949632,1,2024-09-16 22:02:46.943343018,1726524166.9433432,2024-09-16 22:02:46.943343104,4,0.0,-2.132402569998277,-10.556750162513275,[0.43726669 0.19746179 0.04711288 0.31815864],[0.43726669 0.19746179 0.04711288 0.31815864],"[ -0.01283654   0.99040246  -0.17303091  -0.2009253    0.03633111
   0.06545747   0.           0.          -0.6          0.58716345
 -10.110569  ]",0.20409754031799468,0,0
192,203,2024-09-16 22:02:47.811688960,TASK_BEGIN,7,-0.7128621483890103,1.893468215769129,1.1223106202666358,0.1551249231595731,10.83984696201757,0.1737782099734809,-59.03444119482476,27.284833425157515,1,2024-09-16 22:02:46.943343018,1726524166.9433432,2024-09-16 22:02:46.943343104,4,0.0,-2.132402569998277,-10.556750162513275,[0.43726669 0.19746179 0.04711288 0.31815864],[0.43726669 0.19746179 0.04711288 0.31815864],"[ -0.01283654   0.99040246  -0.17303091  -0.2009253    0.03633111
   0.06545747   0.           0.          -0.6          0.58716345
 -10.110569  ]",0.20409754031799468,0,0
193,204,2024-09-16 22:02:47.867774976,TASK_BEGIN,7,-0.7236468720427054,1.9061415306028084,1.0205335562782714,0.1808839396353469,10.686692377268637,0.0632552926622563,-58.0703225915629,27.00242544325643,1,2024-09-16 22:02:46.964342041,1726524166.9643428,2024-09-16 22:02:46.964342784,4,0.0,-2.2377822538666265,-12.688964914754768,[0.42455771 0.18698871 0.05314612 0.33530746],[0.42455771 0.18698871 0.05314612 0.33530746],"[ -0.01400542   0.9868648   -0.17307323  -0.22653797   0.03960208
   0.0654382    0.           0.          -0.6          0.5859946
 -10.082268  ]",0.1978733495439466,0,0
194,205,2024-09-16 22:02:47.945394944,TASK_BEGIN,7,-0.7331120433888056,1.905784662681621,0.911590156804593,0.2115934065307695,10.464555810024423,-0.0374402405451919,-57.05025365658119,26.663406231399254,1,2024-09-16 22:02:47.048342041,1726524167.0483427,2024-09-16 22:02:47.048342784,4,0.0,-2.493301476951302,-21.70226832661485,[0.37303935 0.17358797 0.09460234 0.35877033],[0.37303935 0.17358797 0.09460234 0.35877033],"[-0.01868423  0.9687128  -0.17324077 -0.32899153  0.0526766   0.06536353
  0.          0.         -0.6         0.58131576 -9.937052  ]",0.1477249358852116,0,0
195,206,2024-09-16 22:02:48.007723264,TASK_BEGIN,7,-0.7419077687499482,1.8944053624944823,0.7997656256814109,0.2463555322028334,10.18670556683765,-0.124157676460686,-56.00708205511855,26.284388614200186,1,2024-09-16 22:02:47.111343018,1726524167.1113431,2024-09-16 22:02:47.111343104,4,0.0,-2.4345513433287636,-27.649290899461473,[0.3544209  0.20986891 0.15270108 0.28300911],[0.3544209  0.20986891 0.15270108 0.28300911],"[-0.02199674  0.950896   -0.15609892 -0.4057864   0.05850892  0.02566679
  0.          0.         -0.6         0.5780033  -9.7945175 ]",0.0712845020552221,0,0
196,207,2024-09-16 22:02:48.082632192,TASK_BEGIN,7,-0.7503242650393198,1.8740458591701985,0.6897817833053526,0.283975019503886,9.87218179240542,-0.1976157111253726,-54.97265427528896,25.882509746088274,1,2024-09-16 22:02:47.902684082,1726524167.9026842,2024-09-16 22:02:47.902684160,4,3.0,-1.4578428096440723,-25.66769191907565,[0.16976551 0.16394854 0.1709713  0.49531466],[0.26868124 0.23381575 0.27575883 0.22174418],"[-0.06690073  0.6750815  -0.17237677 -0.5248355   0.0247469  -0.08403669
  0.          0.         -0.6         0.5330993  -7.588001  ]",0.22438414128865522,0,0
197,208,2024-09-16 22:02:48.146555904,TASK_BEGIN,7,-0.7582955376642065,1.8466235002823843,0.586702706126649,0.3229713951370219,9.543606676080444,-0.2632338606616419,-53.976981493427765,25.4751360407021,1,2024-09-16 22:02:47.902684082,1726524167.9026842,2024-09-16 22:02:47.902684160,4,3.0,-1.4578428096440723,-25.66769191907565,[0.16976551 0.16394854 0.1709713  0.49531466],[0.26868124 0.23381575 0.27575883 0.22174418],"[-0.06690073  0.6750815  -0.17237677 -0.5248355   0.0247469  -0.08403669
  0.          0.         -0.6         0.5330993  -7.588001  ]",0.22438414128865522,0,0
198,209,2024-09-16 22:02:49.087698944,TASK_BEGIN,7,-0.7654471175182257,1.813827743474774,0.4957020023087611,0.3616096200654212,9.224850976731988,-0.3303072016750462,-53.0478437669939,25.07927176304161,1,2024-09-16 22:02:48.968111084,1726524168.9681115,2024-09-16 22:02:48.968111616,4,1.0,-3.2861798146692056,-74.38337851530463,[0.12833856 0.24280706 0.17048392 0.45837047],[2.61241187e-02 6.63719476e-01 3.10093311e-01 6.30941803e-05],"[-0.09529567  0.08587599  0.16849306 -0.9016739  -0.38667658 -0.24998207
  0.          0.         -0.6         0.50470436 -2.874357  ]",0.2514906963899293,0,0
199,210,2024-09-16 22:02:49.159659008,TASK_BEGIN,7,-0.7711629507148134,1.7770667006276668,0.4215850858973737,0.3979802930200808,8.939061786170852,-0.4107707464027904,-52.21160442339646,24.710771193672965,1,2024-09-16 22:02:48.968111084,1726524168.9681115,2024-09-16 22:02:48.968111616,4,1.0,-3.2861798146692056,-74.38337851530463,[0.12833856 0.24280706 0.17048392 0.45837047],[2.61241187e-02 6.63719476e-01 3.10093311e-01 6.30941803e-05],"[-0.09529567  0.08587599  0.16849306 -0.9016739  -0.38667658 -0.24998207
  0.          0.         -0.6         0.50470436 -2.874357  ]",0.2514906963899293,0,0
200,211,2024-09-16 22:02:49.225649920,TASK_BEGIN,7,-0.774658723415578,1.737451220589045,0.3682044652198772,0.4301125952397318,8.707093615252885,-0.5177600486522116,-51.49452421329208,24.38343212117433,1,2024-09-16 22:02:48.968111084,1726524168.9681115,2024-09-16 22:02:48.968111616,4,1.0,-3.2861798146692056,-74.38337851530463,[0.12833856 0.24280706 0.17048392 0.45837047],[2.61241187e-02 6.63719476e-01 3.10093311e-01 6.30941803e-05],"[-0.09529567  0.08587599  0.16849306 -0.9016739  -0.38667658 -0.24998207
  0.          0.         -0.6         0.50470436 -2.874357  ]",0.2514906963899293,0,0
