,Unnamed: 0,time,MARKER,pid,L_O_DSI,L_D_DSI,L_O_DSphi,L_D_DSphi,R_O_DSI,R_D_DSI,R_O_DSphi,R_D_DSphi,trial_id,dateTimestamps,floatTimestamps,timestamps,episode,actions,rewards,discounted_rewards,chosen_actions,optimal_actions,states,continuous_optimal,binary_optimal,discrete_optimal
1,1,2024-09-17 12:33:04.949667072,TASK_BEGIN,8,-0.5858486215221572,0.1249198438599766,-3.5540276400985844,0.9367817835988984,-1.7588897224652706,-0.1798394161196954,-4.01122799675824,-0.0120236835075014,0,2024-09-17 12:33:06.509018066,1726576386.5090184,2024-09-17 12:33:06.509018368,0,1.0,0.1,0.9561792499119549,[0.28822894 0.71177106],[0.28822894 0.71177106],"[ 0.86111111  0.29296875  0.48828125  1.          0.          1.
  1.          0.          1.          0.3203125  -0.8         0.5       ]",0.0795502613745023,0,0
2,2,2024-09-17 12:33:05.026902784,TASK_BEGIN,8,-0.5845630989286704,0.1660801030028003,-4.249494557673089,1.132230018295852,-1.743757895013479,-0.1493288959282943,-3.533925020864273,-0.5470033491591901,0,2024-09-17 12:33:06.509018066,1726576386.5090184,2024-09-17 12:33:06.509018368,0,1.0,0.1,0.9561792499119549,[0.28822894 0.71177106],[0.28822894 0.71177106],"[ 0.86111111  0.29296875  0.48828125  1.          0.          1.
  1.          0.          1.          0.3203125  -0.8         0.5       ]",0.0795502613745023,0,0
3,3,2024-09-17 12:33:05.088519168,TASK_BEGIN,8,-0.586022409276872,0.2040550386039736,-4.919408250542317,1.3230239033725426,-1.724066345583151,-0.1231335991493598,-3.0839657164485037,-1.055197350994476,0,2024-09-17 12:33:06.509018066,1726576386.5090184,2024-09-17 12:33:06.509018368,0,1.0,0.1,0.9561792499119549,[0.28822894 0.71177106],[0.28822894 0.71177106],"[ 0.86111111  0.29296875  0.48828125  1.          0.          1.
  1.          0.          1.          0.3203125  -0.8         0.5       ]",0.0795502613745023,0,0
4,4,2024-09-17 12:33:05.150803968,TASK_BEGIN,8,-0.59065771317996,0.2374753282449807,-5.551743172149326,1.5069261414770392,-1.6988578166089332,-0.1026211265502852,-2.6606508317644977,-1.5271837179899082,0,2024-09-17 12:33:06.509018066,1726576386.5090184,2024-09-17 12:33:06.509018368,0,1.0,0.1,0.9561792499119549,[0.28822894 0.71177106],[0.28822894 0.71177106],"[ 0.86111111  0.29296875  0.48828125  1.          0.          1.
  1.          0.          1.          0.3203125  -0.8         0.5       ]",0.0795502613745023,0,0
5,5,2024-09-17 12:33:05.228461056,TASK_BEGIN,8,-0.5990715206026628,0.2653299323732544,-6.137968747552444,1.682299205528345,-1.666756298450773,-0.088911750596396,-2.249918650524932,-1.9579286053401463,0,2024-09-17 12:33:06.509018066,1726576386.5090184,2024-09-17 12:33:06.509018368,0,1.0,0.1,0.9561792499119549,[0.28822894 0.71177106],[0.28822894 0.71177106],"[ 0.86111111  0.29296875  0.48828125  1.          0.          1.
  1.          0.          1.          0.3203125  -0.8         0.5       ]",0.0795502613745023,0,0
6,6,2024-09-17 12:33:05.290945024,TASK_BEGIN,8,-0.611968475221505,0.2869855694096829,-6.672716074166639,1.847990553485452,-1.626184872075866,-0.0827710733812466,-1.8284822451407756,-2.3465003875323283,0,2024-09-17 12:33:06.509018066,1726576386.5090184,2024-09-17 12:33:06.509018368,0,1.0,0.1,0.9561792499119549,[0.28822894 0.71177106],[0.28822894 0.71177106],"[ 0.86111111  0.29296875  0.48828125  1.          0.          1.
  1.          0.          1.          0.3203125  -0.8         0.5       ]",0.0795502613745023,0,0
7,7,2024-09-17 12:33:06.213472000,TASK_BEGIN,8,-0.6301093505558647,0.302175422039128,-7.152991900385537,2.003113057676736,-1.5759287073191874,-0.0844768691553067,-1.3701777055523932,-2.6952814654065893,0,2024-09-17 12:33:07.167016112,1726576387.1670163,2024-09-17 12:33:07.167016192,0,0.0,0.1,2.0638571635634455,[9.99211035e-01 7.88965175e-04],[9.99211035e-01 7.88965175e-04],"[ 0.68055556  0.29296875  0.48828125  1.          0.          1.
  1.          0.          1.          0.15820312 -0.2         0.3       ]",0.32801891328905824,0,0
8,8,2024-09-17 12:33:06.275558912,TASK_BEGIN,8,-0.6543133488142447,0.3109718338416071,-7.577264399308036,2.146811770876087,-1.515904788835056,-0.0936884036315073,-0.8519258642286488,-3.009094115430195,0,2024-09-17 12:33:07.167016112,1726576387.1670163,2024-09-17 12:33:07.167016192,0,0.0,0.1,2.0638571635634455,[9.99211035e-01 7.88965175e-04],[9.99211035e-01 7.88965175e-04],"[ 0.68055556  0.29296875  0.48828125  1.          0.          1.
  1.          0.          1.          0.15820312 -0.2         0.3       ]",0.32801891328905824,0,0
9,9,2024-09-17 12:33:06.352871936,TASK_BEGIN,8,-0.6854494506374177,0.3137501357487879,-7.944881624896916,2.27813329341756,-1.4478531298583026,-0.1093765304519244,-0.2574389821763833,-3.2944766764706306,0,2024-09-17 12:33:07.167016112,1726576387.1670163,2024-09-17 12:33:07.167016192,0,0.0,0.1,2.0638571635634455,[9.99211035e-01 7.88965175e-04],[9.99211035e-01 7.88965175e-04],"[ 0.68055556  0.29296875  0.48828125  1.          0.          1.
  1.          0.          1.          0.15820312 -0.2         0.3       ]",0.32801891328905824,0,0
10,10,2024-09-17 12:33:06.422474240,TASK_BEGIN,8,-0.7243312934418593,0.3111386574376124,-8.256264047339744,2.3961299750547456,-1.3756278559139226,-0.1298607029953085,0.4216591910087269,-3.5591479296205004,0,2024-09-17 12:33:07.779047119,1726576387.7790473,2024-09-17 12:33:07.779047168,0,0.0,0.1,2.965523050004307,[1.00000000e+00 4.05459193e-10],[1.00000000e+00 4.05459193e-10],"[ 0.51388889  0.29296875  0.48828125  1.          0.          1.
  1.          0.          1.          0.26367188  1.         -0.1       ]",0.3263827287955084,0,0
11,11,2024-09-17 12:33:06.490300160,TASK_BEGIN,8,-0.77148244947609,0.303943485248061,-8.513686779279528,2.5001791929665,-1.3049397167881345,-0.1529554525563427,1.1865156142890148,-3.811570227022664,0,2024-09-17 12:33:08.081476807,1726576388.0814779,2024-09-17 12:33:08.081477888,0,0.0,0.1,3.377179590160165,[9.99992313e-01 7.68679408e-06],[9.99992313e-01 7.68679408e-06],"[ 0.43055556  0.29296875  0.48828125  0.93055556  0.29296875  0.48828125
  1.          0.          1.          0.38085938  1.         -0.3       ]",0.4579477878289816,0,0
12,12,2024-09-17 12:33:06.557939968,TASK_BEGIN,8,-0.8268452699344054,0.2930505384460558,-8.72186568808382,2.5903154113668267,-1.2426797118982265,-0.1761983370633675,2.0326058893072263,-4.06045555986933,0,2024-09-17 12:33:08.132478027,1726576388.132479,2024-09-17 12:33:08.132478976,0,0.0,0.1,3.4434077942585635,[0.99887292 0.00112708],[0.99887292 0.00112708],"[ 0.41666667  0.29296875  0.48828125  0.91666667  0.29296875  0.48828125
  1.          0.          1.          0.40039062  1.         -0.33333333]",0.6033664366461797,0,0
13,13,2024-09-17 12:33:06.622903040,TASK_BEGIN,8,-0.8895567356372818,0.2793299311700508,-8.88778190782441,2.667408617570078,-1.196052927504106,-0.1971180638853399,2.951431559261082,-4.314083873862823,0,2024-09-17 12:33:08.183479980,1726576388.1834805,2024-09-17 12:33:08.183480576,0,0.0,0.1,3.5089737163159778,[0.95910531 0.04089469],[0.95910531 0.04089469],"[ 0.40277778  0.29296875  0.48828125  0.90277778  0.29296875  0.48828125
  1.          0.          1.          0.41992188  1.         -0.36666667]",0.621575568433078,0,0
14,14,2024-09-17 12:33:07.563292928,TASK_BEGIN,8,-0.9578428006577828,0.2635721298415491,-9.019723517022566,2.733124389714792,-1.171674220735168,-0.2134851823100469,3.931622761706295,-4.579413745655161,0,2024-09-17 12:33:08.943711914,1726576388.943712,2024-09-17 12:33:08.943712000,0,0.0,0.1,4.417338614521361,[0.99206103 0.00793897],[0.99206103 0.00793897],"[0.19444444 0.29296875 0.48828125 0.69444444 0.29296875 0.48828125
 1.         0.         1.         0.390625   0.6        0.03333333]",0.6428640581123722,0,0
15,15,2024-09-17 12:33:07.626625024,TASK_BEGIN,8,-1.0290208996342995,0.2464716479691884,-9.125762637920818,2.7896069662183343,-1.174691531555725,-0.2235001114893267,4.95883227683605,-4.861086652905994,0,2024-09-17 12:33:08.943711914,1726576388.943712,2024-09-17 12:33:08.943712000,0,0.0,0.1,4.417338614521361,[0.99206103 0.00793897],[0.99206103 0.00793897],"[0.19444444 0.29296875 0.48828125 0.69444444 0.29296875 0.48828125
 1.         0.         1.         0.390625   0.6        0.03333333]",0.6428640581123722,0,0
16,16,2024-09-17 12:33:07.699112704,TASK_BEGIN,8,-1.0996402390268754,0.2286537039631918,-9.212057159449724,2.838911699701052,-1.20801647985712,-0.2259113910627009,6.014295540913706,-5.160486637971409,0,2024-09-17 12:33:08.943711914,1726576388.943712,2024-09-17 12:33:08.943712000,0,0.0,0.1,4.417338614521361,[0.99206103 0.00793897],[0.99206103 0.00793897],"[0.19444444 0.29296875 0.48828125 0.69444444 0.29296875 0.48828125
 1.         0.         1.         0.390625   0.6        0.03333333]",0.6428640581123722,0,0
17,17,2024-09-17 12:33:07.760716032,TASK_BEGIN,8,-1.1658013964837046,0.2107176738977578,-9.281575890566826,2.882407362793496,-1.2718508801929311,-0.2200601979128869,7.072807358759855,-5.475060137125026,0,2024-09-17 12:33:08.943711914,1726576388.943712,2024-09-17 12:33:08.943712000,0,0.0,0.1,4.417338614521361,[0.99206103 0.00793897],[0.99206103 0.00793897],"[0.19444444 0.29296875 0.48828125 0.69444444 0.29296875 0.48828125
 1.         0.         1.         0.390625   0.6        0.03333333]",0.6428640581123722,0,0
18,18,2024-09-17 12:33:07.838332928,TASK_BEGIN,8,-1.2235950216075082,0.1932635437394762,-9.33375711425247,2.9204315397236216,-1.3636819437461778,-0.2058410764727253,8.101854796519634,-5.798194964857279,0,2024-09-17 12:33:08.943711914,1726576388.943712,2024-09-17 12:33:08.943712000,0,0.0,0.1,4.417338614521361,[0.99206103 0.00793897],[0.99206103 0.00793897],"[0.19444444 0.29296875 0.48828125 0.69444444 0.29296875 0.48828125
 1.         0.         1.         0.390625   0.6        0.03333333]",0.6428640581123722,0,0
19,19,2024-09-17 12:33:07.907152128,TASK_BEGIN,8,-1.2695110252945014,0.1768860542833914,-9.365166626025037,2.952329953838373,-1.478692393697889,-0.1836069857770385,9.06344771043891,-6.119862598743988,0,2024-09-17 12:33:08.943711914,1726576388.943712,2024-09-17 12:33:08.943712000,0,0.0,0.1,4.417338614521361,[0.99206103 0.00793897],[0.99206103 0.00793897],"[0.19444444 0.29296875 0.48828125 0.69444444 0.29296875 0.48828125
 1.         0.         1.         0.390625   0.6        0.03333333]",0.6428640581123722,0,0
20,20,2024-09-17 12:33:07.962676992,TASK_BEGIN,8,-1.3007166668120735,0.162146845671211,-9.370823509508238,2.9768014912042235,-1.6103640472562566,-0.1540775857721853,9.91821986222268,-6.427800681923695,0,2024-09-17 12:33:08.943711914,1726576388.943712,2024-09-17 12:33:08.943712000,0,0.0,0.1,4.417338614521361,[0.99206103 0.00793897],[0.99206103 0.00793897],"[0.19444444 0.29296875 0.48828125 0.69444444 0.29296875 0.48828125
 1.         0.         1.         0.390625   0.6        0.03333333]",0.6428640581123722,0,0
21,21,2024-09-17 12:33:08.917994752,TASK_BEGIN,8,-1.31522366256652,0.1495425106917532,-9.34578514235348,2.9923633061295214,-1.7510993113921287,-0.1182799475817897,10.629758421940798,-6.708755582417348,0,2024-09-17 12:33:10.163335205,1726576390.1633353,2024-09-17 12:33:10.163335424,0,1.0,0.1,6.342580063300015,[0.03201536 0.96798464],[0.03201536 0.96798464],"[-0.13888889  0.29296875  0.48828125  0.36111111  0.29296875  0.48828125
  0.86111111  0.3125      0.5078125   0.37890625 -0.8         0.5       ]",0.7957187479916051,0,0
22,22,2024-09-17 12:33:08.970621184,TASK_BEGIN,8,-1.3120177670803643,0.1394795363947475,-9.286633904471476,2.9977866957416746,-1.8927890125962097,-0.0775011859473242,11.167828930257272,-6.949552229690404,0,2024-09-17 12:33:10.163335205,1726576390.1633353,2024-09-17 12:33:10.163335424,0,1.0,0.1,6.342580063300015,[0.03201536 0.96798464],[0.03201536 0.96798464],"[-0.13888889  0.29296875  0.48828125  0.36111111  0.29296875  0.48828125
  0.86111111  0.3125      0.5078125   0.37890625 -0.8         0.5       ]",0.7957187479916051,0,0
23,23,2024-09-17 12:33:09.049073920,TASK_BEGIN,8,-1.291164198618194,0.1322618357475755,-9.192562881435444,2.9924577934935157,-2.0272891038583727,-0.0332215836447501,11.510778324556178,-7.138067234325193,0,2024-09-17 12:33:10.163335205,1726576390.1633353,2024-09-17 12:33:10.163335424,0,1.0,0.1,6.342580063300015,[0.03201536 0.96798464],[0.03201536 0.96798464],"[-0.13888889  0.29296875  0.48828125  0.36111111  0.29296875  0.48828125
  0.86111111  0.3125      0.5078125   0.37890625 -0.8         0.5       ]",0.7957187479916051,0,0
24,24,2024-09-17 12:33:09.111748096,TASK_BEGIN,8,-1.2538310796936545,0.128094640166645,-9.065898532393636,2.9766500561400404,-2.146782101411389,0.0129739801445579,11.647732351022212,-7.264186500927408,0,2024-09-17 12:33:10.163335205,1726576390.1633353,2024-09-17 12:33:10.163335424,0,1.0,0.1,6.342580063300015,[0.03201536 0.96798464],[0.03201536 0.96798464],"[-0.13888889  0.29296875  0.48828125  0.36111111  0.29296875  0.48828125
  0.86111111  0.3125      0.5078125   0.37890625 -0.8         0.5       ]",0.7957187479916051,0,0
25,25,2024-09-17 12:33:09.189296896,TASK_BEGIN,8,-1.2021951253811722,0.1271006567340135,-8.91200400230061,2.951637856906665,-2.244068157389309,0.0594856789938865,11.580581885948126,-7.320723501895185,0,2024-09-17 12:33:10.163335205,1726576390.1633353,2024-09-17 12:33:10.163335424,0,1.0,0.1,6.342580063300015,[0.03201536 0.96798464],[0.03201536 0.96798464],"[-0.13888889  0.29296875  0.48828125  0.36111111  0.29296875  0.48828125
  0.86111111  0.3125      0.5078125   0.37890625 -0.8         0.5       ]",0.7957187479916051,0,0
26,26,2024-09-17 12:33:09.257097984,TASK_BEGIN,8,-1.1392631523026255,0.1293328010570348,-8.738600904335298,2.9195766300904875,-2.312883063716863,0.1047743696356591,11.325366906876155,-7.304270603993584,0,2024-09-17 12:33:10.163335205,1726576390.1633353,2024-09-17 12:33:10.163335424,0,1.0,0.1,6.342580063300015,[0.03201536 0.96798464],[0.03201536 0.96798464],"[-0.13888889  0.29296875  0.48828125  0.36111111  0.29296875  0.48828125
  0.86111111  0.3125      0.5078125   0.37890625 -0.8         0.5       ]",0.7957187479916051,0,0
27,27,2024-09-17 12:33:09.313113088,TASK_BEGIN,8,-1.0686558406508777,0.1347703787021366,-8.554820036095624,2.8831968593259143,-2.348229547765869,0.1474129131395795,10.912495381043504,-7.215938608170834,0,2024-09-17 12:33:10.163335205,1726576390.1633353,2024-09-17 12:33:10.163335424,0,1.0,0.1,6.342580063300015,[0.03201536 0.96798464],[0.03201536 0.96798464],"[-0.13888889  0.29296875  0.48828125  0.36111111  0.29296875  0.48828125
  0.86111111  0.3125      0.5078125   0.37890625 -0.8         0.5       ]",0.7957187479916051,0,0
28,28,2024-09-17 12:33:10.243179264,TASK_BEGIN,8,-0.9943642993359016,0.1433048304813118,-8.370427959003232,2.8454590942421407,-2.346558842101596,0.1861007920865837,10.384999860114869,-7.061763686132755,0,2024-09-17 12:33:11.073976074,1726576391.073976,2024-09-17 12:33:11.073976064,0,0.0,0.1,7.821101831421947,[0.9921472 0.0078528],[0.9921472 0.0078528],"[ 0.11111111  0.29296875  0.48828125  0.61111111  0.3125      0.5078125
  1.          0.          1.          0.39648438  0.9        -0.06666667]",0.6937169608002179,0,0
29,29,2024-09-17 12:33:10.308445952,TASK_BEGIN,8,-0.920469742841846,0.15473077268014,-8.19535270580164,2.8092565898966635,-2.305762837719424,0.2196515158029208,9.794313255956355,-6.852440274396602,0,2024-09-17 12:33:11.881974854,1726576391.881975,2024-09-17 12:33:11.881975040,0,0.0,0.1,8.144760221939821,[9.99815191e-01 1.84809407e-04],[9.99815191e-01 1.84809407e-04],"[-0.11111111  0.29296875  0.48828125  0.38888889  0.3125      0.5078125
  0.96388889  0.33203125  0.52734375  0.38671875  0.6         0.03333333]",0.40747318225998014,0,0
30,30,2024-09-17 12:33:10.378860032,TASK_BEGIN,8,-0.8508174544956087,0.1687428527599931,-8.039290994145157,2.7771500460172343,-2.2252138287361443,0.2470003469386215,9.194224532706563,-6.602255516698372,0,2024-09-17 12:33:11.982976074,1726576391.9829762,2024-09-17 12:33:11.982976256,0,0.0,0.1,8.181679493523218,[0.98021795 0.01978205],[0.98021795 0.01978205],"[-0.13888889  0.29296875  0.48828125  0.36111111  0.3125      0.5078125
  0.93611111  0.33203125  0.52734375  0.41601562  0.8        -0.03333333]",0.47784791903488033,0,0
31,31,2024-09-17 12:33:10.432983808,TASK_BEGIN,8,-0.7886459820750338,0.1849249325301285,-7.911257304449139,2.75114299717071,-2.1060379563437066,0.2672790295642344,8.634767779568525,-6.327500590710682,0,2024-09-17 12:33:11.982976074,1726576391.9829762,2024-09-17 12:33:11.982976256,0,0.0,0.1,8.181679493523218,[0.98021795 0.01978205],[0.98021795 0.01978205],"[-0.13888889  0.29296875  0.48828125  0.36111111  0.3125      0.5078125
  0.93611111  0.33203125  0.52734375  0.41601562  0.8        -0.03333333]",0.47784791903488033,0,0
32,32,2024-09-17 12:33:10.514458880,TASK_BEGIN,8,-0.7361991986728982,0.2027313428710063,-7.819132716637678,2.73257607877952,-1.9514333359050795,0.2799452716926658,8.157609944347818,-6.044835763304906,0,2024-09-17 12:33:12.085010010,1726576392.0850108,2024-09-17 12:33:12.085010688,0,1.0,0.1,8.217864071602104,[0.08627415 0.91372585],[0.08627415 0.91372585],"[-0.16666667  0.29296875  0.48828125  0.33333333  0.3125      0.5078125
  0.90833333  0.33203125  0.52734375  0.41796875 -0.8         0.5       ]",0.5619432615101663,0,0
33,33,2024-09-17 12:33:10.582263808,TASK_BEGIN,8,-0.6944011955814813,0.2214830290994054,-7.769232167409628,2.7221778759656794,-1.7666851689343606,0.2848988207752966,7.793320030515405,-5.769941508336316,0,2024-09-17 12:33:12.085010010,1726576392.0850108,2024-09-17 12:33:12.085010688,0,1.0,0.1,8.217864071602104,[0.08627415 0.91372585],[0.08627415 0.91372585],"[-0.16666667  0.29296875  0.48828125  0.33333333  0.3125      0.5078125
  0.90833333  0.33203125  0.52734375  0.41796875 -0.8         0.5       ]",0.5619432615101663,0,0
34,34,2024-09-17 12:33:10.649327104,TASK_BEGIN,8,-0.662722422722856,0.2404018300617115,-7.765819340913243,2.7201935704808244,-1.5588018852127277,0.2825260829855792,7.560030483000786,-5.5164950293571575,0,2024-09-17 12:33:12.085010010,1726576392.0850108,2024-09-17 12:33:12.085010688,0,1.0,0.1,8.217864071602104,[0.08627415 0.91372585],[0.08627415 0.91372585],"[-0.16666667  0.29296875  0.48828125  0.33333333  0.3125      0.5078125
  0.90833333  0.33203125  0.52734375  0.41796875 -0.8         0.5       ]",0.5619432615101663,0,0
35,35,2024-09-17 12:33:11.593204992,TASK_BEGIN,8,-0.6393115529064397,0.2586784350666973,-7.810681395178846,2.7264812066098005,-1.335989797819336,0.2736644671659001,7.463097769364298,-5.295382350101367,0,2024-09-17 12:33:12.943279053,1726576392.943279,2024-09-17 12:33:12.943279104,0,0.0,0.1,9.362297058472041,[0.99090596 0.00909404],[0.99090596 0.00909404],"[ 0.09722222  0.3125      0.5078125   0.67222222  0.33203125  0.52734375
  1.          0.          1.          0.41796875  0.8        -0.03333333]",0.656610405072208,0,0
36,36,2024-09-17 12:33:11.648231936,TASK_BEGIN,8,-0.6213248430632324,0.275545204358829,-7.90312721834825,2.7405727758254432,-1.107116653920132,0.2594990834045384,7.495931975340939,-5.11415518646982,0,2024-09-17 12:33:12.943279053,1726576392.943279,2024-09-17 12:33:12.943279104,0,0.0,0.1,9.362297058472041,[0.99090596 0.00909404],[0.99090596 0.00909404],"[ 0.09722222  0.3125      0.5078125   0.67222222  0.33203125  0.52734375
  1.          0.          1.          0.41796875  0.8        -0.03333333]",0.656610405072208,0,0
37,37,2024-09-17 12:33:11.726364928,TASK_BEGIN,8,-0.6053368983367108,0.2903357824956345,-8.040564774116307,2.7617815742874976,-0.8810973720303089,0.2414041451510374,7.642248384994444,-4.976866165936122,0,2024-09-17 12:33:12.943279053,1726576392.943279,2024-09-17 12:33:12.943279104,0,0.0,0.1,9.362297058472041,[0.99090596 0.00909404],[0.99090596 0.00909404],"[ 0.09722222  0.3125      0.5078125   0.67222222  0.33203125  0.52734375
  1.          0.          1.          0.41796875  0.8        -0.03333333]",0.656610405072208,0,0
38,38,2024-09-17 12:33:11.789146880,TASK_BEGIN,8,-0.5877764619542752,0.3025357303352249,-8.219307720103542,2.789367628223684,-0.666177073093709,0.2207651265438465,7.879324155598241,-4.88439924924619,0,2024-09-17 12:33:12.943279053,1726576392.943279,2024-09-17 12:33:12.943279104,0,0.0,0.1,9.362297058472041,[0.99090596 0.00909404],[0.99090596 0.00909404],"[ 0.09722222  0.3125      0.5078125   0.67222222  0.33203125  0.52734375
  1.          0.          1.          0.41796875  0.8        -0.03333333]",0.656610405072208,0,0
39,39,2024-09-17 12:33:11.851633152,TASK_BEGIN,8,-0.565331362284926,0.3118208184177838,-8.43512238962864,2.8226627205523696,-0.4692935478253255,0.1988407158856749,8.181499660743048,-4.83528042132847,0,2024-09-17 12:33:12.943279053,1726576392.943279,2024-09-17 12:33:12.943279104,0,0.0,0.1,9.362297058472041,[0.99090596 0.00909404],[0.99090596 0.00909404],"[ 0.09722222  0.3125      0.5078125   0.67222222  0.33203125  0.52734375
  1.          0.          1.          0.41796875  0.8        -0.03333333]",0.656610405072208,0,0
40,40,2024-09-17 12:33:11.930267136,TASK_BEGIN,8,-0.5352299811817688,0.3180615312373369,-8.683282744465878,2.861055901262651,-0.2957207525605676,0.1767002386203162,8.523824021466869,-4.826791477964947,0,2024-09-17 12:33:12.943279053,1726576392.943279,2024-09-17 12:33:12.943279104,0,0.0,0.1,9.362297058472041,[0.99090596 0.00909404],[0.99090596 0.00909404],"[ 0.09722222  0.3125      0.5078125   0.67222222  0.33203125  0.52734375
  1.          0.          1.          0.41796875  0.8        -0.03333333]",0.656610405072208,0,0
41,41,2024-09-17 12:33:12.000184064,TASK_BEGIN,8,-0.4953714319497809,0.3212905598475654,-8.958239604240978,2.9038443130915463,-0.1490321478386271,0.1552304167650572,8.885969020828403,-4.856034751257797,0,2024-09-17 12:33:12.943279053,1726576392.943279,2024-09-17 12:33:12.943279104,0,0.0,0.1,9.362297058472041,[0.99090596 0.00909404],[0.99090596 0.00909404],"[ 0.09722222  0.3125      0.5078125   0.67222222  0.33203125  0.52734375
  1.          0.          1.          0.41796875  0.8        -0.03333333]",0.656610405072208,0,0
42,42,2024-09-17 12:33:12.939862016,TASK_BEGIN,8,-0.4443862930905087,0.3216711277692004,-9.253293991473,2.9500428433893555,-0.0312826362585098,0.1351835322845411,9.255494997202764,-4.920530457442254,0,2024-09-17 12:33:14.008752197,1726576394.0087523,2024-09-17 12:33:14.008752384,0,1.0,0.1,9.48363415659813,[0.06568158 0.93431842],[0.06568158 0.93431842],"[ 0.38055556  0.33203125  0.52734375  0.88055556  0.3125      0.5078125
  1.          0.          1.          0.421875   -0.8         0.5       ]",0.8050927977577838,0,0
43,43,2024-09-17 12:33:13.003834880,TASK_BEGIN,8,-0.381705678400385,0.3195068695941017,-9.56059680346232,2.9982183407869,0.0567595959474905,0.1172280679798991,9.629173345216918,-5.018192037375865,0,2024-09-17 12:33:14.008752197,1726576394.0087523,2024-09-17 12:33:14.008752384,0,1.0,0.1,9.48363415659813,[0.06568158 0.93431842],[0.06568158 0.93431842],"[ 0.38055556  0.33203125  0.52734375  0.88055556  0.3125      0.5078125
  1.          0.          1.          0.421875   -0.8         0.5       ]",0.8050927977577838,0,0
44,44,2024-09-17 12:33:13.064702976,TASK_BEGIN,8,-0.3076281364026512,0.3152893812742228,-9.87136469700662,3.0463532177990884,0.1154774553868254,0.1019649881227547,10.012304862249952,-5.146961859066919,0,2024-09-17 12:33:14.008752197,1726576394.0087523,2024-09-17 12:33:14.008752384,0,1.0,0.1,9.48363415659813,[0.06568158 0.93431842],[0.06568158 0.93431842],"[ 0.38055556  0.33203125  0.52734375  0.88055556  0.3125      0.5078125
  1.          0.          1.          0.421875   -0.8         0.5       ]",0.8050927977577838,0,0
45,45,2024-09-17 12:33:13.142369024,TASK_BEGIN,8,-0.2233473394878813,0.3097444055296331,-10.176000070830364,3.0917857088496463,0.1463674226119571,0.0899054904809213,10.416801781021888,-5.304532346453185,0,2024-09-17 12:33:14.008752197,1726576394.0087523,2024-09-17 12:33:14.008752384,0,1.0,0.1,9.48363415659813,[0.06568158 0.93431842],[0.06568158 0.93431842],"[ 0.38055556  0.33203125  0.52734375  0.88055556  0.3125      0.5078125
  1.          0.          1.          0.421875   -0.8         0.5       ]",0.8050927977577838,0,0
46,46,2024-09-17 12:33:13.204389888,TASK_BEGIN,8,-0.1309171171851206,0.3038425188753201,-10.464123925851178,3.131324159371131,0.1519770805596812,0.0814378962066416,10.858429633473325,-5.488346302647623,0,2024-09-17 12:33:14.772265869,1726576394.7722661,2024-09-17 12:33:14.772266240,0,0.0,0.1,9.555895242330818,[9.99129872e-01 8.70128171e-04],[9.99129872e-01 8.70128171e-04],"[0.17222222 0.33203125 0.52734375 0.67222222 0.3125     0.5078125
 1.         0.         1.         0.421875   0.7        0.        ]",0.5734128987427373,0,0
47,47,2024-09-17 12:33:13.266421248,TASK_BEGIN,8,-0.0331000940120893,0.2987629830258914,-10.724877501242776,3.1615336868598654,0.1357376066032876,0.0768048676363322,11.353536184304607,-5.695767974682134,0,2024-09-17 12:33:14.822769043,1726576394.8227692,2024-09-17 12:33:14.822769152,0,0.0,0.1,9.560336289907509,[0.93732103 0.06267897],[0.93732103 0.06267897],"[ 0.15833333  0.33203125  0.52734375  0.65833333  0.3125      0.5078125
  1.          0.          1.          0.4375      0.8        -0.03333333]",0.640707360627325,0,0
48,48,2024-09-17 12:33:13.344058112,TASK_BEGIN,8,0.0669444253915895,0.2958171654410608,-10.947658481373656,3.179048253920984,0.1016867645797092,0.0760957263273808,11.91596986837495,-5.924174659947032,0,2024-09-17 12:33:14.822769043,1726576394.8227692,2024-09-17 12:33:14.822769152,0,0.0,0.1,9.560336289907509,[0.93732103 0.06267897],[0.93732103 0.06267897],"[ 0.15833333  0.33203125  0.52734375  0.65833333  0.3125      0.5078125
  1.          0.          1.          0.4375      0.8        -0.03333333]",0.640707360627325,0,0
49,49,2024-09-17 12:33:14.288936960,TASK_BEGIN,8,0.1660712464450937,0.2963447735195203,-11.122987341633314,3.1807679810361504,0.0540527119941844,0.0792573526489292,12.554627319480376,-6.170803570347361,0,2024-09-17 12:33:15.623187988,1726576395.6231887,2024-09-17 12:33:15.623188736,0,0.0,0.1,10.399697436550497,[0.98901306 0.01098694],[0.98901306 0.01098694],"[-0.06388889  0.33203125  0.52734375  0.43611111  0.3125      0.5078125
  0.93611111  0.21484375  0.41015625  0.421875    0.7         0.        ]",0.4637166126881563,0,0
50,50,2024-09-17 12:33:14.347938048,TASK_BEGIN,8,0.2615159487793085,0.3015967095885082,-11.24313854858799,3.16393350540412,-0.0033060265690478,0.0861183359251183,13.271451995371724,-6.432377329179228,0,2024-09-17 12:33:15.623187988,1726576395.6231887,2024-09-17 12:33:15.623188736,0,0.0,0.1,10.399697436550497,[0.98901306 0.01098694],[0.98901306 0.01098694],"[-0.06388889  0.33203125  0.52734375  0.43611111  0.3125      0.5078125
  0.93611111  0.21484375  0.41015625  0.421875    0.7         0.        ]",0.4637166126881563,0,0
51,51,2024-09-17 12:33:14.428432896,TASK_BEGIN,8,0.3511095669007186,0.3126211830074603,-11.302481162227329,3.126162087720445,-0.0674689620790033,0.0964132154861673,14.05971670507401,-6.704636126329311,0,2024-09-17 12:33:15.623187988,1726576395.6231887,2024-09-17 12:33:15.623188736,0,0.0,0.1,10.399697436550497,[0.98901306 0.01098694],[0.98901306 0.01098694],"[-0.06388889  0.33203125  0.52734375  0.43611111  0.3125      0.5078125
  0.93611111  0.21484375  0.41015625  0.421875    0.7         0.        ]",0.4637166126881563,0,0
52,52,2024-09-17 12:33:14.485995008,TASK_BEGIN,8,0.4333251279548171,0.3301713626891713,-11.297639733726712,3.065543115450095,-0.1368160890198095,0.1098055379875279,14.90280576878598,-6.981877824251962,0,2024-09-17 12:33:15.623187988,1726576395.6231887,2024-09-17 12:33:15.623188736,0,0.0,0.1,10.399697436550497,[0.98901306 0.01098694],[0.98901306 0.01098694],"[-0.06388889  0.33203125  0.52734375  0.43611111  0.3125      0.5078125
  0.93611111  0.21484375  0.41015625  0.421875    0.7         0.        ]",0.4637166126881563,0,0
53,53,2024-09-17 12:33:14.564087040,TASK_BEGIN,8,0.5071972922142672,0.3546415294340744,-11.227560612064972,2.980864762163508,-0.2110266407708797,0.1259049182869669,15.77365946710108,-7.256565720305355,0,2024-09-17 12:33:15.623187988,1726576395.6231887,2024-09-17 12:33:15.623188736,0,0.0,0.1,10.399697436550497,[0.98901306 0.01098694],[0.98901306 0.01098694],"[-0.06388889  0.33203125  0.52734375  0.43611111  0.3125      0.5078125
  0.93611111  0.21484375  0.41015625  0.421875    0.7         0.        ]",0.4637166126881563,0,0
54,54,2024-09-17 12:33:14.631938048,TASK_BEGIN,8,0.5721640771159655,0.3860191978398355,-11.093587246546983,2.871975604664352,-0.2906851503173037,0.144252346495769,16.63502795849127,-7.519181960329723,0,2024-09-17 12:33:15.623187988,1726576395.6231887,2024-09-17 12:33:15.623188736,0,0.0,0.1,10.399697436550497,[0.98901306 0.01098694],[0.98901306 0.01098694],"[-0.06388889  0.33203125  0.52734375  0.43611111  0.3125      0.5078125
  0.93611111  0.21484375  0.41015625  0.421875    0.7         0.        ]",0.4637166126881563,0,0
55,55,2024-09-17 12:33:14.693196032,TASK_BEGIN,8,0.6278868451041202,0.4238371921758622,-10.89972709885614,2.740205598327353,-0.3766429908667272,0.1642688433734736,17.44132264346501,-7.758650760532218,0,2024-09-17 12:33:15.623187988,1726576395.6231887,2024-09-17 12:33:15.623188736,0,0.0,0.1,10.399697436550497,[0.98901306 0.01098694],[0.98901306 0.01098694],"[-0.06388889  0.33203125  0.52734375  0.43611111  0.3125      0.5078125
  0.93611111  0.21484375  0.41015625  0.421875    0.7         0.        ]",0.4637166126881563,0,0
56,56,2024-09-17 12:33:15.632436992,TASK_BEGIN,8,0.6741260723338064,0.467131994724873,-10.65314341331937,2.588719701790691,-0.4694227435599099,0.1852164789323603,18.142983239792777,-7.963450046525535,0,2024-09-17 12:33:16.723186035,1726576396.723187,2024-09-17 12:33:16.723186944,0,0.0,0.1,11.21140969169921,[0.96820086 0.03179914],[0.96820086 0.03179914],"[ 0.13055556  0.3125      0.5078125   0.63055556  0.21484375  0.41015625
  1.          0.          1.          0.40820312  0.8        -0.03333333]",0.6227992888491082,0,0
57,57,2024-09-17 12:33:15.708466176,TASK_BEGIN,8,0.7107340889723744,0.514435246896432,-10.364419962699149,2.422639043133427,-0.5688801932264789,0.2062257085026283,18.69291593405188,-8.123076666764451,0,2024-09-17 12:33:16.723186035,1726576396.723187,2024-09-17 12:33:16.723186944,0,0.0,0.1,11.21140969169921,[0.96820086 0.03179914],[0.96820086 0.03179914],"[ 0.13055556  0.3125      0.5078125   0.63055556  0.21484375  0.41015625
  1.          0.          1.          0.40820312  0.8        -0.03333333]",0.6227992888491082,0,0
58,58,2024-09-17 12:33:15.770479872,TASK_BEGIN,8,0.7377349668578344,0.5638181586770805,-10.04694641778454,2.248800863699565,-0.6741189954800676,0.2263898224547048,19.05315049330273,-8.229372337202943,0,2024-09-17 12:33:16.723186035,1726576396.723187,2024-09-17 12:33:16.723186944,0,0.0,0.1,11.21140969169921,[0.96820086 0.03179914],[0.96820086 0.03179914],"[ 0.13055556  0.3125      0.5078125   0.63055556  0.21484375  0.41015625
  1.          0.          1.          0.40820312  0.8        -0.03333333]",0.6227992888491082,0,0
59,59,2024-09-17 12:33:15.832966144,TASK_BEGIN,8,0.7553587424611595,0.6129928010319443,-9.715290219238788,2.075169481413904,-0.7835627705382785,0.2448905913547334,19.20000587835145,-8.277447515744862,0,2024-09-17 12:33:16.723186035,1726576396.723187,2024-09-17 12:33:16.723186944,0,0.0,0.1,11.21140969169921,[0.96820086 0.03179914],[0.96820086 0.03179914],"[ 0.13055556  0.3125      0.5078125   0.63055556  0.21484375  0.41015625
  1.          0.          1.          0.40820312  0.8        -0.03333333]",0.6227992888491082,0,0
60,60,2024-09-17 12:33:15.914802944,TASK_BEGIN,8,0.7639152406029348,0.6594728388104758,-9.383058224506264,1.9100172955992056,-0.8951435802993157,0.2611206906609131,19.127003795663114,-8.266142095712762,0,2024-09-17 12:33:17.480364014,1726576397.480364,2024-09-17 12:33:17.480364032,0,0.0,0.1,11.041883026239326,[9.99996949e-01 3.05111974e-06],[9.99996949e-01 3.05111974e-06],"[-0.07777778  0.3125      0.5078125   0.42222222  0.21484375  0.41015625
  0.99166667  0.33203125  0.52734375  0.37890625  0.6         0.03333333]",0.6879111695192707,0,0
61,61,2024-09-17 12:33:15.982669312,TASK_BEGIN,8,0.7635477444322362,0.7007910205745371,-9.06094253031388,1.7610416926968449,-1.006550761344038,0.2747673970300534,18.84533581260473,-8.197994395311476,0,2024-09-17 12:33:17.582382080,1726576397.5823824,2024-09-17 12:33:17.582382336,0,1.0,0.1,11.021149554017162,[0.01698993 0.98301007],[0.01698993 0.98301007],"[-0.10555556  0.3125      0.5078125   0.39444444  0.21484375  0.41015625
  0.96388889  0.33203125  0.52734375  0.34765625 -0.8         0.5       ]",0.8499761998095623,1,2
62,62,2024-09-17 12:33:16.049609984,TASK_BEGIN,8,0.754036001679546,0.7347449066126809,-8.755506284801717,1.6346302726322637,-1.1154124617407613,0.2858207394661787,18.38216182179964,-8.078783955859267,0,2024-09-17 12:33:17.582382080,1726576397.5823824,2024-09-17 12:33:17.582382336,0,1.0,0.1,11.021149554017162,[0.01698993 0.98301007],[0.01698993 0.98301007],"[-0.10555556  0.3125      0.5078125   0.39444444  0.21484375  0.41015625
  0.96388889  0.33203125  0.52734375  0.34765625 -0.8         0.5       ]",0.8499761998095623,1,2
63,63,2024-09-17 12:33:16.958663168,TASK_BEGIN,8,0.7347953116241249,0.7596201906350684,-8.468952676237505,1.535417675754828,-1.219349012661246,0.2944984234092754,17.77750215069979,-7.916850645560517,0,2024-09-17 12:33:18.500345947,1726576398.5003467,2024-09-17 12:33:18.500346624,0,0.0,1.0,11.752163355325933,[0.9612089 0.0387911],[0.9612089 0.0387911],"[ 0.14444444  0.21484375  0.41015625  0.71388889  0.33203125  0.52734375
  1.          0.          1.          0.33203125  0.8        -0.03333333]",0.6604079884960435,1,2
64,64,2024-09-17 12:33:17.021594880,TASK_BEGIN,8,0.7050802405802792,0.7743522074613812,-8.199756157312924,1.4660917114122356,-1.3159923153311732,0.3011265232930897,17.080289996838573,-7.72234630891725,0,2024-09-17 12:33:18.500345947,1726576398.5003467,2024-09-17 12:33:18.500346624,0,0.0,1.0,11.752163355325933,[0.9612089 0.0387911],[0.9612089 0.0387911],"[ 0.14444444  0.21484375  0.41015625  0.71388889  0.33203125  0.52734375
  1.          0.          1.          0.33203125  0.8        -0.03333333]",0.6604079884960435,1,2
65,65,2024-09-17 12:33:17.103259904,TASK_BEGIN,8,0.6642816133991141,0.7786187136539913,-7.943871960354668,1.4273420280658302,-1.4030702808268978,0.3060406753567853,16.343790811788487,-7.506469973766628,0,2024-09-17 12:33:18.500345947,1726576398.5003467,2024-09-17 12:33:18.500346624,0,0.0,1.0,11.752163355325933,[0.9612089 0.0387911],[0.9612089 0.0387911],"[ 0.14444444  0.21484375  0.41015625  0.71388889  0.33203125  0.52734375
  1.          0.          1.          0.33203125  0.8        -0.03333333]",0.6604079884960435,1,2
66,66,2024-09-17 12:33:17.171080960,TASK_BEGIN,8,0.6122082341144301,0.7728723192926193,-7.696252170702604,1.417937377578131,-1.478520546800124,0.3095484619089368,15.62093116849884,-7.280779475326397,0,2024-09-17 12:33:18.500345947,1726576398.5003467,2024-09-17 12:33:18.500346624,0,0.0,1.0,11.752163355325933,[0.9612089 0.0387911],[0.9612089 0.0387911],"[ 0.14444444  0.21484375  0.41015625  0.71388889  0.33203125  0.52734375
  1.          0.          1.          0.33203125  0.8        -0.03333333]",0.6604079884960435,1,2
67,67,2024-09-17 12:33:17.237852160,TASK_BEGIN,8,0.549298427833442,0.7583112049260897,-7.452367159081189,1.43497100233596,-1.5405281408362073,0.3119301742824582,14.960270920983229,-7.056668324428972,0,2024-09-17 12:33:18.500345947,1726576398.5003467,2024-09-17 12:33:18.500346624,0,0.0,1.0,11.752163355325933,[0.9612089 0.0387911],[0.9612089 0.0387911],"[ 0.14444444  0.21484375  0.41015625  0.71388889  0.33203125  0.52734375
  1.          0.          1.          0.33203125  0.8        -0.03333333]",0.6604079884960435,1,2
68,68,2024-09-17 12:33:17.300335872,TASK_BEGIN,8,0.4766919160263923,0.7367784608231653,-7.20938901090764,1.474259039181551,-1.5874501261113985,0.3134222321485978,14.402801682168368,-6.844931506450621,0,2024-09-17 12:33:18.500345947,1726576398.5003467,2024-09-17 12:33:18.500346624,0,0.0,1.0,11.752163355325933,[0.9612089 0.0387911],[0.9612089 0.0387911],"[ 0.14444444  0.21484375  0.41015625  0.71388889  0.33203125  0.52734375
  1.          0.          1.          0.33203125  0.8        -0.03333333]",0.6604079884960435,1,2
69,69,2024-09-17 12:33:17.374607104,TASK_BEGIN,8,0.3960865901861348,0.7105900479868599,-6.9667264298270615,1.530796114644415,-1.617734421614219,0.3141729954075349,13.97945404822833,-6.655294508861676,0,2024-09-17 12:33:18.500345947,1726576398.5003467,2024-09-17 12:33:18.500346624,0,0.0,1.0,11.752163355325933,[0.9612089 0.0387911],[0.9612089 0.0387911],"[ 0.14444444  0.21484375  0.41015625  0.71388889  0.33203125  0.52734375
  1.          0.          1.          0.33203125  0.8        -0.03333333]",0.6604079884960435,1,2
70,70,2024-09-17 12:33:18.317605888,TASK_BEGIN,8,0.3094136535177668,0.6823115653065857,-6.725819267414785,1.5991644779559098,-1.629999855215974,0.3142161781192301,13.70948911097205,-6.495940567408852,0,2024-09-17 12:33:19.658116943,1726576399.6581173,2024-09-17 12:33:19.658117376,0,0.0,0.1,11.390541866063645,[0.99826844 0.00173156],[0.99826844 0.00173156],"[-0.175       0.21484375  0.41015625  0.39444444  0.33203125  0.52734375
  0.89444444  0.3125      0.5078125   0.44726562  1.         -0.23333333]",0.7002704567804959,1,2
71,71,2024-09-17 12:33:18.385467904,TASK_BEGIN,8,0.2185095689081987,0.6545137679465204,-6.489529609464451,1.6738778670998853,-1.6232733110653197,0.3134840939855487,13.600060171297304,-6.373170417940117,0,2024-09-17 12:33:19.658116943,1726576399.6581173,2024-09-17 12:33:19.658117376,0,0.0,0.1,11.390541866063645,[0.99826844 0.00173156],[0.99826844 0.00173156],"[-0.175       0.21484375  0.41015625  0.39444444  0.33203125  0.52734375
  0.89444444  0.3125      0.5078125   0.44726562  1.         -0.23333333]",0.7002704567804959,1,2
72,72,2024-09-17 12:33:18.441304064,TASK_BEGIN,8,0.1249877323093472,0.629530679071623,-6.261579627701748,1.749682844764674,-1.597177165215903,0.3118279974002004,13.64697379360579,-6.291244114974816,0,2024-09-17 12:33:19.658116943,1726576399.6581173,2024-09-17 12:33:19.658117376,0,0.0,0.1,11.390541866063645,[0.99826844 0.00173156],[0.99826844 0.00173156],"[-0.175       0.21484375  0.41015625  0.39444444  0.33203125  0.52734375
  0.89444444  0.3125      0.5078125   0.44726562  1.         -0.23333333]",0.7002704567804959,1,2
73,73,2024-09-17 12:33:18.521067008,TASK_BEGIN,8,0.030348348917578,0.6092473453225261,-6.046041054560159,1.8217792594804676,-1.5519822905052,0.3090249226440062,13.8363137349228,-6.25232761252303,0,2024-09-17 12:33:19.658116943,1726576399.6581173,2024-09-17 12:33:19.658117376,0,0.0,0.1,11.390541866063645,[0.99826844 0.00173156],[0.99826844 0.00173156],"[-0.175       0.21484375  0.41015625  0.39444444  0.33203125  0.52734375
  0.89444444  0.3125      0.5078125   0.44726562  1.         -0.23333333]",0.7002704567804959,1,2
74,74,2024-09-17 12:33:18.588888832,TASK_BEGIN,8,-0.0638420050659743,0.5949597134092778,-5.846607709712792,1.8859233298702267,-1.4887127429736893,0.3048024884619562,14.146308015518226,-6.256417217264784,0,2024-09-17 12:33:19.658116943,1726576399.6581173,2024-09-17 12:33:19.658117376,0,0.0,0.1,11.390541866063645,[0.99826844 0.00173156],[0.99826844 0.00173156],"[-0.175       0.21484375  0.41015625  0.39444444  0.33203125  0.52734375
  0.89444444  0.3125      0.5078125   0.44726562  1.         -0.23333333]",0.7002704567804959,1,2
75,75,2024-09-17 12:33:18.642321152,TASK_BEGIN,8,-0.15587625535514,0.5873405239780481,-5.66570167181127,1.9384922157122175,-1.4093810230497652,0.2989087169578108,14.54902391671956,-6.301184531713068,0,2024-09-17 12:33:19.658116943,1726576399.6581173,2024-09-17 12:33:19.658117376,0,0.0,0.1,11.390541866063645,[0.99826844 0.00173156],[0.99826844 0.00173156],"[-0.175       0.21484375  0.41015625  0.39444444  0.33203125  0.52734375
  0.89444444  0.3125      0.5078125   0.44726562  1.         -0.23333333]",0.7002704567804959,1,2
76,76,2024-09-17 12:33:18.720331776,TASK_BEGIN,8,-0.2439364032849933,0.5865032260184213,-5.503869546849199,1.976649634486069,-1.3170528799148826,0.2911990460093566,15.011975505106328,-6.381837282383598,0,2024-09-17 12:33:19.658116943,1726576399.6581173,2024-09-17 12:33:19.658117376,0,0.0,0.1,11.390541866063645,[0.99826844 0.00173156],[0.99826844 0.00173156],"[-0.175       0.21484375  0.41015625  0.39444444  0.33203125  0.52734375
  0.89444444  0.3125      0.5078125   0.44726562  1.         -0.23333333]",0.7002704567804959,1,2
77,77,2024-09-17 12:33:19.658868224,TASK_BEGIN,8,-0.3261131676239266,0.592116906800878,-5.359912231332131,1.998671720530564,-1.2154406628599854,0.281696322849314,15.499946493460143,-6.491223652805802,0,2024-09-17 12:33:20.465064941,1726576400.4650655,2024-09-17 12:33:20.465065472,0,0.0,0.1,11.183987677892654,[0.93773103 0.06226897],[0.93773103 0.06226897],"[0.17222222 0.33203125 0.52734375 0.67222222 0.3125     0.5078125
 1.         0.         1.         0.4375     0.6        0.03333333]",0.5971489039056668,1,2
78,78,2024-09-17 12:33:19.735603968,TASK_BEGIN,8,-0.4003648524542228,0.6035237377285677,-5.231791086408942,2.004339500341122,-1.1081737913984744,0.2706186114956775,15.977291724412856,-6.620391219387433,0,2024-09-17 12:33:21.319063964,1726576401.3190649,2024-09-17 12:33:21.319064832,0,0.0,0.1,11.772086873307204,[0.97650057 0.02349943],[0.97650057 0.02349943],"[-0.06388889  0.33203125  0.52734375  0.43611111  0.3125      0.5078125
  0.93611111  0.21484375  0.41015625  0.4375      0.8        -0.03333333]",0.5150519819251528,1,2
79,79,2024-09-17 12:33:19.799555840,TASK_BEGIN,8,-0.464490990385932,0.6198424677459621,-5.117973744983026,1.9952047829729669,-0.9981749068600848,0.2583934205256662,16.410516293771728,-6.759527416773536,0,2024-09-17 12:33:21.319063964,1726576401.3190649,2024-09-17 12:33:21.319064832,0,0.0,0.1,11.772086873307204,[0.97650057 0.02349943],[0.97650057 0.02349943],"[-0.06388889  0.33203125  0.52734375  0.43611111  0.3125      0.5078125
  0.93611111  0.21484375  0.41015625  0.4375      0.8        -0.03333333]",0.5150519819251528,1,2
80,80,2024-09-17 12:33:19.861604096,TASK_BEGIN,8,-0.5162311146961304,0.6400655787908297,-5.018762280438486,1.9745886057509576,-0.8873851824521383,0.2456587175037212,16.77020091103915,-6.898846694826068,0,2024-09-17 12:33:21.319063964,1726576401.3190649,2024-09-17 12:33:21.319064832,0,0.0,0.1,11.772086873307204,[0.97650057 0.02349943],[0.97650057 0.02349943],"[-0.06388889  0.33203125  0.52734375  0.43611111  0.3125      0.5078125
  0.93611111  0.21484375  0.41015625  0.4375      0.8        -0.03333333]",0.5150519819251528,1,2
81,81,2024-09-17 12:33:19.939096064,TASK_BEGIN,8,-0.5534982864263616,0.6631485761450778,-4.937114227812787,1.9473021880633905,-0.7767832042069287,0.2332352853377615,17.031754100694748,-7.029054600966925,0,2024-09-17 12:33:21.319063964,1726576401.3190649,2024-09-17 12:33:21.319064832,0,0.0,0.1,11.772086873307204,[0.97650057 0.02349943],[0.97650057 0.02349943],"[-0.06388889  0.33203125  0.52734375  0.43611111  0.3125      0.5078125
  0.93611111  0.21484375  0.41015625  0.4375      0.8        -0.03333333]",0.5150519819251528,1,2
82,82,2024-09-17 12:33:20.002458880,TASK_BEGIN,8,-0.5746458176895674,0.6880756462481862,-4.878528594711272,1.9191352872188268,-0.6665857515611584,0.2220659399149925,17.176028283061108,-7.14155879403408,0,2024-09-17 12:33:21.319063964,1726576401.3190649,2024-09-17 12:33:21.319064832,0,0.0,0.1,11.772086873307204,[0.97650057 0.02349943],[0.97650057 0.02349943],"[-0.06388889  0.33203125  0.52734375  0.43611111  0.3125      0.5078125
  0.93611111  0.21484375  0.41015625  0.4375      0.8        -0.03333333]",0.5150519819251528,1,2
83,83,2024-09-17 12:33:20.074734848,TASK_BEGIN,8,-0.5786709441201143,0.7138944827187925,-4.850015270320431,1.8961818996891289,-0.5566341842123913,0.2131406812771586,17.191211915284246,-7.228925675550811,0,2024-09-17 12:33:21.319063964,1726576401.3190649,2024-09-17 12:33:21.319064832,0,0.0,0.1,11.772086873307204,[0.97650057 0.02349943],[0.97650057 0.02349943],"[-0.06388889  0.33203125  0.52734375  0.43611111  0.3125      0.5078125
  0.93611111  0.21484375  0.41015625  0.4375      0.8        -0.03333333]",0.5150519819251528,1,2
84,84,2024-09-17 12:33:21.004775936,TASK_BEGIN,8,-0.5653303411977068,0.7397293672522218,-4.858746887153055,1.8841611111766416,-0.4469739080061543,0.2074400876510356,17.07587856593749,-7.285745625432322,0,2024-09-17 12:33:22.379657959,1726576402.3796585,2024-09-17 12:33:22.379658496,0,0.0,1.0,12.334908126225912,[0.92810916 0.07189084],[0.92810916 0.07189084],"[0.14444444 0.3125     0.5078125  0.64444444 0.21484375 0.41015625
 1.         0.         1.         0.41210938 0.7        0.        ]",0.550818894037689,1,2
85,85,2024-09-17 12:33:21.085571072,TASK_BEGIN,8,-0.5351821965825301,0.7647874984424231,-4.910954661702785,1.8878883176776755,-0.3384669935638296,0.2059062987714746,16.841589160343627,-7.309507992468234,0,2024-09-17 12:33:22.379657959,1726576402.3796585,2024-09-17 12:33:22.379658496,0,0.0,1.0,12.334908126225912,[0.92810916 0.07189084],[0.92810916 0.07189084],"[0.14444444 0.3125     0.5078125  0.64444444 0.21484375 0.41015625
 1.         0.         1.         0.41210938 0.7        0.        ]",0.550818894037689,1,2
86,86,2024-09-17 12:33:21.153501952,TASK_BEGIN,8,-0.4895815398545415,0.7883716957786374,-5.010975496964626,1.910863027412454,-0.2331693579592191,0.2094095122061596,16.513337685189338,-7.300965705695506,0,2024-09-17 12:33:22.379657959,1726576402.3796585,2024-09-17 12:33:22.379658496,0,0.0,1.0,12.334908126225912,[0.92810916 0.07189084],[0.92810916 0.07189084],"[0.14444444 0.3125     0.5078125  0.64444444 0.21484375 0.41015625
 1.         0.         1.         0.41210938 0.7        0.        ]",0.550818894037689,1,2
87,87,2024-09-17 12:33:21.207003136,TASK_BEGIN,8,-0.4306498972621823,0.8099051324760755,-5.160027538269355,1.9548239492862625,-0.1343000493238075,0.2186801133263441,16.127074380667096,-7.263836492009807,0,2024-09-17 12:33:22.379657959,1726576402.3796585,2024-09-17 12:33:22.379658496,0,0.0,1.0,12.334908126225912,[0.92810916 0.07189084],[0.92810916 0.07189084],"[0.14444444 0.3125     0.5078125  0.64444444 0.21484375 0.41015625
 1.         0.         1.         0.41210938 0.7        0.        ]",0.550818894037689,1,2
88,88,2024-09-17 12:33:21.289233920,TASK_BEGIN,8,-0.3612010705741487,0.8289620543407455,-5.35476488909,2.019294906687319,-0.045842830103465,0.2342187950194088,15.724848256268013,-7.204066022609351,0,2024-09-17 12:33:22.379657959,1726576402.3796585,2024-09-17 12:33:22.379658496,0,0.0,1.0,12.334908126225912,[0.92810916 0.07189084],[0.92810916 0.07189084],"[0.14444444 0.3125     0.5078125  0.64444444 0.21484375 0.41015625
 1.         0.         1.         0.41210938 0.7        0.        ]",0.550818894037689,1,2
89,89,2024-09-17 12:33:21.346184960,TASK_BEGIN,8,-0.2845789852771829,0.845291594619562,-5.586310806747097,2.1013788440371552,0.028006064515341,0.2562142518657032,15.34922440848642,-7.1289823551491525,0,2024-09-17 12:33:22.379657959,1726576402.3796585,2024-09-17 12:33:22.379658496,0,0.0,1.0,12.334908126225912,[0.92810916 0.07189084],[0.92810916 0.07189084],"[0.14444444 0.3125     0.5078125  0.64444444 0.21484375 0.41015625
 1.         0.         1.         0.41210938 0.7        0.        ]",0.550818894037689,1,2
90,90,2024-09-17 12:33:21.423878912,TASK_BEGIN,8,-0.2044013485585692,0.8588251365077739,-5.840461327119889,2.196007549588048,0.0833170189768751,0.2844895365952657,15.03905255571414,-7.046622365170166,0,2024-09-17 12:33:22.379657959,1726576402.3796585,2024-09-17 12:33:22.379658496,0,0.0,1.0,12.334908126225912,[0.92810916 0.07189084],[0.92810916 0.07189084],"[0.14444444 0.3125     0.5078125  0.64444444 0.21484375 0.41015625
 1.         0.         1.         0.41210938 0.7        0.        ]",0.550818894037689,1,2
91,91,2024-09-17 12:33:22.336167936,TASK_BEGIN,8,-0.1242556491502992,0.8696668765310905,-6.099129244053206,2.296596110971373,0.1167192768656652,0.3185019290174591,14.827852951983422,-6.965374220002,0,2024-09-17 12:33:23.194666992,1726576403.1946676,2024-09-17 12:33:23.194667520,0,0.0,0.1,11.988075668867623,[9.99903898e-01 9.61024155e-05],[9.99903898e-01 9.61024155e-05],"[-0.07777778  0.3125      0.5078125   0.42222222  0.21484375  0.41015625
  0.99166667  0.234375    0.4296875   0.39648438  0.7         0.        ]",0.7914789668822448,1,2
92,92,2024-09-17 12:33:22.397815808,TASK_BEGIN,8,-0.0473980688591563,0.8780742896109585,-6.342646371622196,2.3959155918191346,0.1255192845343682,0.3574105478802797,14.744139575040492,-6.89378141535889,0,2024-09-17 12:33:23.296673096,1726576403.2966733,2024-09-17 12:33:23.296673280,0,1.0,0.1,11.948512963057157,[0.0528 0.9472],[0.0528 0.9472],"[-0.10555556  0.3125      0.5078125   0.39444444  0.21484375  0.41015625
  0.96388889  0.234375    0.4296875   0.36523438 -0.8         0.5       ]",0.6593655920155121,1,2
93,93,2024-09-17 12:33:22.479590912,TASK_BEGIN,8,0.0235140490153114,0.8844344896526989,-6.552495724734882,2.487012051045961,0.1077622028977278,0.4001797797569176,14.811551400376944,-6.84011914778264,0,2024-09-17 12:33:23.296673096,1726576403.2966733,2024-09-17 12:33:23.296673280,0,1.0,0.1,11.948512963057157,[0.0528 0.9472],[0.0528 0.9472],"[-0.10555556  0.3125      0.5078125   0.39444444  0.21484375  0.41015625
  0.96388889  0.234375    0.4296875   0.36523438 -0.8         0.5       ]",0.6593655920155121,1,2
94,94,2024-09-17 12:33:22.537814016,TASK_BEGIN,8,0.0866198855659244,0.8892369054194569,-6.713968646077362,2.563994301744084,0.0623500726061852,0.4456675512824305,15.047181475657236,-6.811523976834184,0,2024-09-17 12:33:24.108423828,1726576404.108424,2024-09-17 12:33:24.108423936,0,0.0,0.1,11.659076504474115,[0.97620044 0.02379956],[0.97620044 0.02379956],"[0.17222222 0.21484375 0.41015625 0.74166667 0.234375   0.4296875
 1.         0.         1.         0.3203125  0.6        0.03333333]",0.6216070452867265,1,2
95,95,2024-09-17 12:33:22.607384064,TASK_BEGIN,8,0.1409276768897681,0.8930412932316104,-6.818155454600195,2.622536160780075,-0.0107758609347038,0.4926826383375822,15.458148375020638,-6.812872867484527,0,2024-09-17 12:33:24.108423828,1726576404.108424,2024-09-17 12:33:24.108423936,0,0.0,0.1,11.659076504474115,[0.97620044 0.02379956],[0.97620044 0.02379956],"[0.17222222 0.21484375 0.41015625 0.74166667 0.234375   0.4296875
 1.         0.         1.         0.3203125  0.6        0.03333333]",0.6216070452867265,1,2
96,96,2024-09-17 12:33:22.669446144,TASK_BEGIN,8,0.1862270801963978,0.896442336589308,-6.862837809334523,2.660065766015458,-0.1104194800224862,0.5400230054547512,16.037573540360185,-6.845816675904078,0,2024-09-17 12:33:24.108423828,1726576404.108424,2024-09-17 12:33:24.108423936,0,0.0,0.1,11.659076504474115,[0.97620044 0.02379956],[0.97620044 0.02379956],"[0.17222222 0.21484375 0.41015625 0.74166667 0.234375   0.4296875
 1.         0.         1.         0.3203125  0.6        0.03333333]",0.6216070452867265,1,2
97,97,2024-09-17 12:33:22.750940160,TASK_BEGIN,8,0.2228873023958536,0.9000271444805252,-6.852160253853628,2.6757273029606137,-0.2339232433964968,0.5865059474811871,16.761322447203018,-6.908240815521503,0,2024-09-17 12:33:24.108423828,1726576404.108424,2024-09-17 12:33:24.108423936,0,0.0,0.1,11.659076504474115,[0.97620044 0.02379956],[0.97620044 0.02379956],"[0.17222222 0.21484375 0.41015625 0.74166667 0.234375   0.4296875
 1.         0.         1.         0.3203125  0.6        0.03333333]",0.6216070452867265,1,2
98,98,2024-09-17 12:33:23.684756224,TASK_BEGIN,8,0.2516606365621293,0.9043167747717148,-6.795298449214032,2.670219491300128,-0.3770863962180065,0.6310010409248397,17.586690457794337,-6.994202799577051,0,2024-09-17 12:33:25.124691895,1726576405.124692,2024-09-17 12:33:25.124691968,0,0.0,0.1,12.108032568319011,[0.9779037 0.0220963],[0.9779037 0.0220963],"[-0.10555556  0.21484375  0.41015625  0.46388889  0.234375    0.4296875
  0.96388889  0.234375    0.4296875   0.37109375  1.         -0.1       ]",0.6553619316933204,1,2
99,99,2024-09-17 12:33:23.761272064,TASK_BEGIN,8,0.273588561750993,0.9096967651847522,-6.704584265889287,2.6455870152130783,-0.5342743534590384,0.6724698261584218,18.45402120625637,-7.094354966786023,0,2024-09-17 12:33:25.124691895,1726576405.124692,2024-09-17 12:33:25.124691968,0,0.0,0.1,12.108032568319011,[0.9779037 0.0220963],[0.9779037 0.0220963],"[-0.10555556  0.21484375  0.41015625  0.46388889  0.234375    0.4296875
  0.96388889  0.234375    0.4296875   0.37109375  1.         -0.1       ]",0.6553619316933204,1,2
100,100,2024-09-17 12:33:23.824819968,TASK_BEGIN,8,0.2900166999298212,0.9163629521156902,-6.593530764793001,2.6050020412980235,-0.6986041270015041,0.7099911908164493,19.291844706555388,-7.19692964670608,0,2024-09-17 12:33:25.124691895,1726576405.124692,2024-09-17 12:33:25.124691968,0,0.0,0.1,12.108032568319011,[0.9779037 0.0220963],[0.9779037 0.0220963],"[-0.10555556  0.21484375  0.41015625  0.46388889  0.234375    0.4296875
  0.96388889  0.234375    0.4296875   0.37109375  1.         -0.1       ]",0.6553619316933204,1,2
101,101,2024-09-17 12:33:23.886356224,TASK_BEGIN,8,0.3026552650067232,0.9243084115550028,-6.475008674467687,2.552524291383784,-0.8621022506749861,0.7427467457010363,20.02515791721957,-7.2892705791538575,0,2024-09-17 12:33:25.124691895,1726576405.124692,2024-09-17 12:33:25.124691968,0,0.0,0.1,12.108032568319011,[0.9779037 0.0220963],[0.9779037 0.0220963],"[-0.10555556  0.21484375  0.41015625  0.46388889  0.234375    0.4296875
  0.96388889  0.234375    0.4296875   0.37109375  1.         -0.1       ]",0.6553619316933204,1,2
102,102,2024-09-17 12:33:23.964221952,TASK_BEGIN,8,0.3135887568709926,0.9333581340614544,-6.359736938718565,2.492794697607529,-1.0159616872610095,0.769973780570214,20.585083231817787,-7.359617659332291,0,2024-09-17 12:33:25.124691895,1726576405.124692,2024-09-17 12:33:25.124691968,0,0.0,0.1,12.108032568319011,[0.9779037 0.0220963],[0.9779037 0.0220963],"[-0.10555556  0.21484375  0.41015625  0.46388889  0.234375    0.4296875
  0.96388889  0.234375    0.4296875   0.37109375  1.         -0.1       ]",0.6553619316933204,1,2
103,103,2024-09-17 12:33:24.026221824,TASK_BEGIN,8,0.3251389158888704,0.9432435704815704,-6.255291615844435,2.430625802591787,-1.1511121926278611,0.7909275301203347,20.91743454943633,-7.39866721539087,0,2024-09-17 12:33:25.124691895,1726576405.124692,2024-09-17 12:33:25.124691968,0,0.0,0.1,12.108032568319011,[0.9779037 0.0220963],[0.9779037 0.0220963],"[-0.10555556  0.21484375  0.41015625  0.46388889  0.234375    0.4296875
  0.96388889  0.234375    0.4296875   0.37109375  1.         -0.1       ]",0.6553619316933204,1,2
104,104,2024-09-17 12:33:24.100471040,TASK_BEGIN,8,0.3395586781191199,0.9537010081981352,-6.165741699709005,2.3704942339383543,-1.259127168757628,0.8048910070925982,20.98848828005227,-7.400502479979284,0,2024-09-17 12:33:25.124691895,1726576405.124692,2024-09-17 12:33:25.124691968,0,0.0,0.1,12.108032568319011,[0.9779037 0.0220963],[0.9779037 0.0220963],"[-0.10555556  0.21484375  0.41015625  0.46388889  0.234375    0.4296875
  0.96388889  0.234375    0.4296875   0.37109375  1.         -0.1       ]",0.6553619316933204,1,2
105,105,2024-09-17 12:33:25.042414080,TASK_BEGIN,8,0.358662296665465,0.9645643621402428,-6.091875783810522,2.316011618455521,-1.3332145839211866,0.8112304698380278,20.787384461481256,-7.362718466128866,0,2024-09-17 12:33:25.940660889,1726576405.940662,2024-09-17 12:33:25.940662016,0,1.0,0.1,11.794900712016307,[0.14691553 0.85308447],[0.14691553 0.85308447],"[ 0.24166667  0.234375    0.4296875   0.74166667  0.234375    0.4296875
  1.          0.          1.          0.33398438 -0.8         0.5       ]",0.40184157985463226,1,2
106,106,2024-09-17 12:33:25.110285056,TASK_BEGIN,8,0.3835596512728762,0.9758161274747762,-6.03201929259402,2.2695151754162586,-1.3689420081601562,0.8094637736575887,20.324986043986044,-7.285851652909843,0,2024-09-17 12:33:26.701559082,1726576406.701559,2024-09-17 12:33:26.701559040,0,0.0,0.1,12.374189578106346,[9.99387287e-01 6.12712849e-04],[9.99387287e-01 6.12712849e-04],"[0.03333333 0.234375   0.4296875  0.53333333 0.234375   0.4296875
 1.         0.         1.         0.33398438 0.7        0.        ]",0.5638598348254126,1,2
107,107,2024-09-17 12:33:25.178126848,TASK_BEGIN,8,0.4146011945860007,0.9875785754791062,-5.983378465904097,2.231906291569937,-1.3645293847646398,0.7993206365034052,19.629591944651807,-7.172463431339015,0,2024-09-17 12:33:26.752558838,1726576406.7525597,2024-09-17 12:33:26.752559616,0,0.0,0.1,12.350447682325282,[0.99544969 0.00455031],[0.99544969 0.00455031],"[ 0.01944444  0.234375    0.4296875   0.51944444  0.234375    0.4296875
  1.          0.          1.          0.34960938  0.8        -0.03333333]",0.7011955405802779,1,2
108,108,2024-09-17 12:33:25.245846016,TASK_BEGIN,8,0.4515307003840824,1.0000565134684938,-5.943592735177159,2.202777537034525,-1.320778277534684,0.7807897790080333,18.741171591237777,-7.026251570174017,0,2024-09-17 12:33:26.803975098,1726576406.803975,2024-09-17 12:33:26.803975168,0,0.0,0.1,12.326943205502028,[0.96767327 0.03232673],[0.96767327 0.03232673],"[ 0.00555556  0.234375    0.4296875   0.50555556  0.234375    0.4296875
  1.          0.          1.          0.3671875   0.9        -0.06666667]",0.7707037467120907,1,2
109,109,2024-09-17 12:33:25.308331008,TASK_BEGIN,8,0.4937664989516644,1.013455547966289,-5.91205987961602,2.180757369695921,-1.2407612831053465,0.754132693761243,17.70632962023418,-6.851420137219607,0,2024-09-17 12:33:26.803975098,1726576406.803975,2024-09-17 12:33:26.803975168,0,0.0,0.1,12.326943205502028,[0.96767327 0.03232673],[0.96767327 0.03232673],"[ 0.00555556  0.234375    0.4296875   0.50555556  0.234375    0.4296875
  1.          0.          1.          0.3671875   0.9        -0.06666667]",0.7707037467120907,1,2
110,110,2024-09-17 12:33:25.370407936,TASK_BEGIN,8,0.5407095657523818,1.0278925675103394,-5.89062828078754,2.163909973275861,-1.1293595857132694,0.719840914837892,16.574899323906408,-6.652389717887699,0,2024-09-17 12:33:26.803975098,1726576406.803975,2024-09-17 12:33:26.803975168,0,0.0,0.1,12.326943205502028,[0.96767327 0.03232673],[0.96767327 0.03232673],"[ 0.00555556  0.234375    0.4296875   0.50555556  0.234375    0.4296875
  1.          0.          1.          0.3671875   0.9        -0.06666667]",0.7707037467120907,1,2
111,111,2024-09-17 12:33:25.447598848,TASK_BEGIN,8,0.5919999478209419,1.0433058605611245,-5.883399284089455,2.1500453602212675,-0.9927408387331438,0.6785631225144376,15.39711821280282,-6.433778074905355,0,2024-09-17 12:33:26.803975098,1726576406.803975,2024-09-17 12:33:26.803975168,0,0.0,0.1,12.326943205502028,[0.96767327 0.03232673],[0.96767327 0.03232673],"[ 0.00555556  0.234375    0.4296875   0.50555556  0.234375    0.4296875
  1.          0.          1.          0.3671875   0.9        -0.06666667]",0.7707037467120907,1,2
112,112,2024-09-17 12:33:26.386748160,TASK_BEGIN,8,0.647658685594984,1.0593758193418712,-5.89579494217801,2.136937032310928,-0.8378853557527328,0.6310768443002669,14.220098563353718,-6.20046059035474,0,2024-09-17 12:33:27.262391113,1726576407.262391,2024-09-17 12:33:27.262391040,0,1.0,0.1,12.125702752140969,[0.14529363 0.85470637],[0.14529363 0.85470637],"[-0.11944444  0.234375    0.4296875   0.38055556  0.234375    0.4296875
  0.88055556  0.25390625  0.44921875  0.33398438 -0.8         0.5       ]",0.46000865464854135,1,2
113,113,2024-09-17 12:33:26.450748160,TASK_BEGIN,8,0.7080492135911803,1.0754742437539129,-5.933413089822594,2.1225453925191875,-0.6722186285934464,0.5783476779003052,13.083944787882334,-5.957548367887557,0,2024-09-17 12:33:27.262391113,1726576407.262391,2024-09-17 12:33:27.262391040,0,1.0,0.1,12.125702752140969,[0.14529363 0.85470637],[0.14529363 0.85470637],"[-0.11944444  0.234375    0.4296875   0.38055556  0.234375    0.4296875
  0.88055556  0.25390625  0.44921875  0.33398438 -0.8         0.5       ]",0.46000865464854135,1,2
114,114,2024-09-17 12:33:26.528051968,TASK_BEGIN,8,0.7736284073741323,1.090653474863289,-6.001079279940449,2.105302799048843,-0.5033047654796855,0.5216326171930777,12.018887017498546,-5.710231569039973,0,2024-09-17 12:33:28.129343018,1726576408.1293435,2024-09-17 12:33:28.129343488,0,0.0,1.0,12.691846666074703,[0.99531176 0.00468824],[0.99531176 0.00468824],"[ 0.14444444  0.234375    0.4296875   0.64444444  0.25390625  0.44921875
  1.          0.          1.          0.33398438  0.8        -0.03333333]",0.6673196261390975,1,2
115,115,2024-09-17 12:33:26.596585984,TASK_BEGIN,8,0.8445297097186687,1.1036748652414317,-6.102158600575804,2.0844288643011475,-0.3385318964942951,0.4625507424164131,11.044109657360387,-5.463523658547311,0,2024-09-17 12:33:28.129343018,1726576408.1293435,2024-09-17 12:33:28.129343488,0,0.0,1.0,12.691846666074703,[0.99531176 0.00468824],[0.99531176 0.00468824],"[ 0.14444444  0.234375    0.4296875   0.64444444  0.25390625  0.44921875
  1.          0.          1.          0.33398438  0.8        -0.03333333]",0.6673196261390975,1,2
116,116,2024-09-17 12:33:26.654221056,TASK_BEGIN,8,0.9200829676496702,1.1130779782353075,-6.238092910428198,2.0602086273864635,-0.1848068577020042,0.4030889873030335,10.168147530142026,-5.222025180428369,0,2024-09-17 12:33:28.129343018,1726576408.1293435,2024-09-17 12:33:28.129343488,0,0.0,1.0,12.691846666074703,[0.99531176 0.00468824],[0.99531176 0.00468824],"[ 0.14444444  0.234375    0.4296875   0.64444444  0.25390625  0.44921875
  1.          0.          1.          0.33398438  0.8        -0.03333333]",0.6673196261390975,1,2
117,117,2024-09-17 12:33:26.729378048,TASK_BEGIN,8,0.9984084793541972,1.117303027804864,-6.4082616299806325,2.0341741253526453,-0.0483079383211571,0.3455464762380269,9.39062911572196,-4.989843019223881,0,2024-09-17 12:33:28.129343018,1726576408.1293435,2024-09-17 12:33:28.129343488,0,0.0,1.0,12.691846666074703,[0.99531176 0.00468824],[0.99531176 0.00468824],"[ 0.14444444  0.234375    0.4296875   0.64444444  0.25390625  0.44921875
  1.          0.          1.          0.33398438  0.8        -0.03333333]",0.6673196261390975,1,2
118,118,2024-09-17 12:33:26.791408896,TASK_BEGIN,8,1.0762179734308628,1.1148739292193424,-6.610274002112053,2.009143909703066,0.065731428618681,0.2924074264514734,8.705092584873208,-4.77068789033532,0,2024-09-17 12:33:28.129343018,1726576408.1293435,2024-09-17 12:33:28.129343488,0,0.0,1.0,12.691846666074703,[0.99531176 0.00468824],[0.99531176 0.00468824],"[ 0.14444444  0.234375    0.4296875   0.64444444  0.25390625  0.44921875
  1.          0.          1.          0.33398438  0.8        -0.03333333]",0.6673196261390975,1,2
119,119,2024-09-17 12:33:27.718720000,TASK_BEGIN,8,1.1489191833893586,1.1046124212517905,-6.840563521138442,1.989060930711872,0.153272461179861,0.2461265044196938,8.102188901403277,-4.567985367981555,0,2024-09-17 12:33:29.092143066,1726576409.0921438,2024-09-17 12:33:29.092143872,0,0.0,0.1,12.223919255687344,[0.9869393 0.0130607],[0.9869393 0.0130607],"[-0.11944444  0.234375    0.4296875   0.38055556  0.25390625  0.44921875
  0.95        0.1953125   0.390625    0.36914062  0.9        -0.06666667]",0.5977356691573956,1,2
120,120,2024-09-17 12:33:27.786563072,TASK_BEGIN,8,1.211037368187834,1.085819714630187,-7.095013958095832,1.978563772512945,0.2117494370107794,0.20884893795614,7.572071192043561,-4.384718432297559,0,2024-09-17 12:33:29.092143066,1726576409.0921438,2024-09-17 12:33:29.092143872,0,0.0,0.1,12.223919255687344,[0.9869393 0.0130607],[0.9869393 0.0130607],"[-0.11944444  0.234375    0.4296875   0.38055556  0.25390625  0.44921875
  0.95        0.1953125   0.390625    0.36914062  0.9        -0.06666667]",0.5977356691573956,1,2
121,121,2024-09-17 12:33:27.854371072,TASK_BEGIN,8,1.256850164115166,1.0583763553602406,-7.369522972319732,1.9823346230194605,0.240253682510251,0.1821411440677273,7.104941931634629,-4.222896738453154,0,2024-09-17 12:33:29.092143066,1726576409.0921438,2024-09-17 12:33:29.092143872,0,0.0,0.1,12.223919255687344,[0.9869393 0.0130607],[0.9869393 0.0130607],"[-0.11944444  0.234375    0.4296875   0.38055556  0.25390625  0.44921875
  0.95        0.1953125   0.390625    0.36914062  0.9        -0.06666667]",0.5977356691573956,1,2
122,122,2024-09-17 12:33:27.922184192,TASK_BEGIN,8,1.2810893534635384,1.0227495989084705,-7.660493899900394,2.0044162796115765,0.2394614005802044,0.1668227180704915,6.689920549252581,-4.082952883870318,0,2024-09-17 12:33:29.092143066,1726576409.0921438,2024-09-17 12:33:29.092143872,0,0.0,0.1,12.223919255687344,[0.9869393 0.0130607],[0.9869393 0.0130607],"[-0.11944444  0.234375    0.4296875   0.38055556  0.25390625  0.44921875
  0.95        0.1953125   0.390625    0.36914062  0.9        -0.06666667]",0.5977356691573956,1,2
123,123,2024-09-17 12:33:27.976961024,TASK_BEGIN,8,1.2796060124261213,0.979917372732052,-7.965050894566546,2.047666746313352,0.2112984550902286,0.1629357639447238,6.313542417801178,-3.9635096607989584,0,2024-09-17 12:33:29.092143066,1726576409.0921438,2024-09-17 12:33:29.092143872,0,0.0,0.1,12.223919255687344,[0.9869393 0.0130607],[0.9869393 0.0130607],"[-0.11944444  0.234375    0.4296875   0.38055556  0.25390625  0.44921875
  0.95        0.1953125   0.390625    0.36914062  0.9        -0.06666667]",0.5977356691573956,1,2
124,124,2024-09-17 12:33:28.054500096,TASK_BEGIN,8,1.2498977191754348,0.9312322197290708,-8.280845844434666,2.113387724322163,0.1584994530956663,0.1698135294155704,5.95931971143873,-3.861680318467426,0,2024-09-17 12:33:29.092143066,1726576409.0921438,2024-09-17 12:33:29.092143872,0,0.0,0.1,12.223919255687344,[0.9869393 0.0130607],[0.9869393 0.0130607],"[-0.11944444  0.234375    0.4296875   0.38055556  0.25390625  0.44921875
  0.95        0.1953125   0.390625    0.36914062  0.9        -0.06666667]",0.5977356691573956,1,2
125,125,2024-09-17 12:33:28.125725952,TASK_BEGIN,8,1.191361289090797,0.8782697853047873,-8.605759978411227,2.201138565281013,0.08416438791857,0.1862000665912583,5.609069878472584,-3.773753267815278,0,2024-09-17 12:33:29.092143066,1726576409.0921438,2024-09-17 12:33:29.092143872,0,0.0,0.1,12.223919255687344,[0.9869393 0.0130607],[0.9869393 0.0130607],"[-0.11944444  0.234375    0.4296875   0.38055556  0.25390625  0.44921875
  0.95        0.1953125   0.390625    0.36914062  0.9        -0.06666667]",0.5977356691573956,1,2
126,126,2024-09-17 12:33:29.065325056,TASK_BEGIN,8,1.1051964406915464,0.8227076085585466,-8.937856052874052,2.3087681728408693,-0.0086584698206725,0.2104073381481062,5.245721430778752,-3.696010978474455,0,2024-09-17 12:33:29.906511962,1726576409.9065118,2024-09-17 12:33:29.906511872,0,0.0,0.1,11.893573332542514,[0.90525263 0.09474737],[0.90525263 0.09474737],"[0.15833333 0.25390625 0.44921875 0.72777778 0.1953125  0.390625
 1.         0.         1.         0.359375   0.6        0.03333333]",0.48346742087706457,1,2
127,127,2024-09-17 12:33:29.123682816,TASK_BEGIN,8,0.9940350277409448,0.76625315934221,-9.275413708843589,2.432636202297491,-0.1172310929646438,0.2404951431410624,4.856610189028286,-3.6254244225660983,0,2024-09-17 12:33:30.713109131,1726576410.7131095,2024-09-17 12:33:30.713109504,0,0.0,0.1,12.386350248308498,[9.99953824e-01 4.61762030e-05],[9.99953824e-01 4.61762030e-05],"[-0.06388889  0.25390625  0.44921875  0.50555556  0.1953125   0.390625
  1.          0.          1.          0.34375     0.7         0.        ]",0.4757046985338893,1,2
128,128,2024-09-17 12:33:29.201363968,TASK_BEGIN,8,0.8614482626608791,0.7106101880468529,-9.616498440798471,2.5679326287355217,-0.2390515258942797,0.2744268186086122,4.43641376963503,-3.560032952720805,0,2024-09-17 12:33:30.763113037,1726576410.7631137,2024-09-17 12:33:30.763113728,0,0.0,0.1,12.362486745825413,[9.99397006e-01 6.02994017e-04],[9.99397006e-01 6.02994017e-04],"[-0.07777778  0.25390625  0.44921875  0.49166667  0.1953125   0.390625
  0.99166667  0.1953125   0.390625    0.359375    0.8        -0.03333333]",0.6777953216878949,1,2
129,129,2024-09-17 12:33:29.262940928,TASK_BEGIN,8,0.7114432957438881,0.6574597541710364,-9.957811571370598,2.7090108333465777,-0.3714975863255225,0.3101645949159762,3.98948397181654,-3.499032628880812,0,2024-09-17 12:33:30.763113037,1726576410.7631137,2024-09-17 12:33:30.763113728,0,0.0,0.1,12.362486745825413,[9.99397006e-01 6.02994017e-04],[9.99397006e-01 6.02994017e-04],"[-0.07777778  0.25390625  0.44921875  0.49166667  0.1953125   0.390625
  0.99166667  0.1953125   0.390625    0.359375    0.8        -0.03333333]",0.6777953216878949,1,2
130,130,2024-09-17 12:33:29.339632128,TASK_BEGIN,8,0.5480124106748471,0.6084374423144017,-10.293300620232426,2.849678141791135,-0.5114779147256241,0.345729754623626,3.531226975393845,-3.4427779187304703,0,2024-09-17 12:33:30.763113037,1726576410.7631137,2024-09-17 12:33:30.763113728,0,0.0,0.1,12.362486745825413,[9.99397006e-01 6.02994017e-04],[9.99397006e-01 6.02994017e-04],"[-0.07777778  0.25390625  0.44921875  0.49166667  0.1953125   0.390625
  0.99166667  0.1953125   0.390625    0.359375    0.8        -0.03333333]",0.6777953216878949,1,2
131,131,2024-09-17 12:33:29.402913024,TASK_BEGIN,8,0.3748019904780375,0.5650979332020759,-10.613443444253216,2.983431130616189,-0.6553279591168782,0.3792836575864842,3.087446067096027,-3.39281110336451,0,2024-09-17 12:33:30.763113037,1726576410.7631137,2024-09-17 12:33:30.763113728,0,0.0,0.1,12.362486745825413,[9.99397006e-01 6.02994017e-04],[9.99397006e-01 6.02994017e-04],"[-0.07777778  0.25390625  0.44921875  0.49166667  0.1953125   0.390625
  0.99166667  0.1953125   0.390625    0.359375    0.8        -0.03333333]",0.6777953216878949,1,2
132,132,2024-09-17 12:33:29.465400832,TASK_BEGIN,8,0.1949675656397698,0.5288593847653856,-10.905799968850824,3.103695499308514,-0.798943431624685,0.4092420519103439,2.690793882530361,-3.351776194466697,0,2024-09-17 12:33:30.763113037,1726576410.7631137,2024-09-17 12:33:30.763113728,0,0.0,0.1,12.362486745825413,[9.99397006e-01 6.02994017e-04],[9.99397006e-01 6.02994017e-04],"[-0.07777778  0.25390625  0.44921875  0.49166667  0.1953125   0.390625
  0.99166667  0.1953125   0.390625    0.359375    0.8        -0.03333333]",0.6777953216878949,1,2
133,133,2024-09-17 12:33:30.411142144,TASK_BEGIN,8,0.0112438133833073,0.5009164643796078,-11.156656584085432,3.2041584453401346,-0.9379830927167432,0.4343749053210241,2.37508229192292,-3.323027034305674,0,2024-09-17 12:33:31.815171875,1726576411.8151722,2024-09-17 12:33:31.815172096,0,0.0,0.1,11.912971356398181,[0.94422298 0.05577702],[0.94422298 0.05577702],"[0.2        0.1953125  0.390625   0.7        0.1953125  0.390625
 1.         0.         1.         0.29882812 0.7        0.        ]",0.6044211310630306,1,2
134,134,2024-09-17 12:33:30.486680832,TASK_BEGIN,8,-0.1738062411839489,0.4821208536627667,-11.353009893344128,3.27920440367131,-1.0680162370052382,0.4538472991497715,2.16988931829974,-3.3100189652060417,0,2024-09-17 12:33:31.815171875,1726576411.8151722,2024-09-17 12:33:31.815172096,0,0.0,0.1,11.912971356398181,[0.94422298 0.05577702],[0.94422298 0.05577702],"[0.2        0.1953125  0.390625   0.7        0.1953125  0.390625
 1.         0.         1.         0.29882812 0.7        0.        ]",0.6044211310630306,1,2
135,135,2024-09-17 12:33:30.554590208,TASK_BEGIN,8,-0.3574960768813134,0.4728590927045473,-11.484111966888136,3.324361823409529,-1.1846635078282062,0.4672178309781441,2.09811224627551,-3.3157934316965068,0,2024-09-17 12:33:31.815171875,1726576411.8151722,2024-09-17 12:33:31.815172096,0,0.0,0.1,11.912971356398181,[0.94422298 0.05577702],[0.94422298 0.05577702],"[0.2        0.1953125  0.390625   0.7        0.1953125  0.390625
 1.         0.         1.         0.29882812 0.7        0.        ]",0.6044211310630306,1,2
136,136,2024-09-17 12:33:30.622368256,TASK_BEGIN,8,-0.536869676245148,0.4729819733101537,-11.542302158636607,3.33665963539891,-1.2838509899247863,0.4744423805471824,2.1770136450964865,-3.342700119577708,0,2024-09-17 12:33:31.815171875,1726576411.8151722,2024-09-17 12:33:31.815172096,0,0.0,0.1,11.912971356398181,[0.94422298 0.05577702],[0.94422298 0.05577702],"[0.2        0.1953125  0.390625   0.7        0.1953125  0.390625
 1.         0.         1.         0.29882812 0.7        0.        ]",0.6044211310630306,1,2
137,137,2024-09-17 12:33:30.690209024,TASK_BEGIN,8,-0.7088072417788123,0.4818200527391148,-11.52344945314544,3.314874133387145,-1.3621548594772406,0.4758894859871577,2.420515970917678,-3.392236999806703,0,2024-09-17 12:33:31.815171875,1726576411.8151722,2024-09-17 12:33:31.815172096,0,0.0,0.1,11.912971356398181,[0.94422298 0.05577702],[0.94422298 0.05577702],"[0.2        0.1953125  0.390625   0.7        0.1953125  0.390625
 1.         0.         1.         0.29882812 0.7        0.        ]",0.6044211310630306,1,2
138,138,2024-09-17 12:33:30.742852096,TASK_BEGIN,8,-0.8702936388374047,0.4982675388052028,-11.42743661798868,3.2596900650718643,-1.4170764509891458,0.4723217463320057,2.840042851740061,-3.4649085111201026,0,2024-09-17 12:33:31.815171875,1726576411.8151722,2024-09-17 12:33:31.815172096,0,0.0,0.1,11.912971356398181,[0.94422298 0.05577702],[0.94422298 0.05577702],"[0.2        0.1953125  0.390625   0.7        0.1953125  0.390625
 1.         0.         1.         0.29882812 0.7        0.        ]",0.6044211310630306,1,2
139,139,2024-09-17 12:33:30.820590080,TASK_BEGIN,8,-1.0186769342503672,0.5208905468701585,-11.258730096978676,3.173749334967044,-1.4471435903941907,0.4648049085092915,3.44319588781364,-3.5601563355006216,0,2024-09-17 12:33:31.815171875,1726576411.8151722,2024-09-17 12:33:31.815172096,0,0.0,0.1,11.912971356398181,[0.94422298 0.05577702],[0.94422298 0.05577702],"[0.2        0.1953125  0.390625   0.7        0.1953125  0.390625
 1.         0.         1.         0.29882812 0.7        0.        ]",0.6044211310630306,1,2
140,147,2024-09-17 12:33:33.091923968,TASK_BEGIN,8,-1.6163684168030903,0.7413730964916054,-8.904041014849966,2.0556738263708376,-0.8308247004529251,0.3706020333845903,12.740243124453546,-4.786528658149079,0,2024-09-17 12:33:34.480546875,1726576414.4805472,2024-09-17 12:33:34.480547072,1,1.0,0.1,1.312541872310217,[0.27031992 0.72968008],[0.27031992 0.72968008],"[ 0.80555556  0.234375    0.4296875   1.          0.          1.
  1.          0.          1.          0.2578125  -0.8         0.5       ]",0.10709068478373458,0,0
141,148,2024-09-17 12:33:33.152988928,TASK_BEGIN,8,-1.6265287472588683,0.7595543039792026,-8.674649267952026,1.9400702055529384,-0.6555611929391313,0.3567171767687775,13.753889965098544,-4.918691144459923,0,2024-09-17 12:33:34.480546875,1726576414.4805472,2024-09-17 12:33:34.480547072,1,1.0,0.1,1.312541872310217,[0.27031992 0.72968008],[0.27031992 0.72968008],"[ 0.80555556  0.234375    0.4296875   1.          0.          1.
  1.          0.          1.          0.2578125  -0.8         0.5       ]",0.10709068478373458,0,0
142,149,2024-09-17 12:33:33.229114112,TASK_BEGIN,8,-1.6265605507096583,0.7747876766471103,-8.478332750286514,1.8392418858252533,-0.4610361267520798,0.3410099838717715,14.540265566729545,-5.025318515259227,0,2024-09-17 12:33:34.480546875,1726576414.4805472,2024-09-17 12:33:34.480547072,1,1.0,0.1,1.312541872310217,[0.27031992 0.72968008],[0.27031992 0.72968008],"[ 0.80555556  0.234375    0.4296875   1.          0.          1.
  1.          0.          1.          0.2578125  -0.8         0.5       ]",0.10709068478373458,0,0
143,150,2024-09-17 12:33:33.292229888,TASK_BEGIN,8,-1.617197487461009,0.7871743556740467,-8.313892749076913,1.753616621362414,-0.250610955918562,0.3233581929587277,15.062323862473823,-5.103023342807735,0,2024-09-17 12:33:34.480546875,1726576414.4805472,2024-09-17 12:33:34.480547072,1,1.0,0.1,1.312541872310217,[0.27031992 0.72968008],[0.27031992 0.72968008],"[ 0.80555556  0.234375    0.4296875   1.          0.          1.
  1.          0.          1.          0.2578125  -0.8         0.5       ]",0.10709068478373458,0,0
144,151,2024-09-17 12:33:33.354748160,TASK_BEGIN,8,-1.5988912746172712,0.7968273382429946,-8.178583328395382,1.6829067814058098,-0.0292334439925207,0.3039548983692699,15.299690941921074,-5.15031932990096,0,2024-09-17 12:33:34.939656006,1726576414.939656,2024-09-17 12:33:34.939655936,1,0.0,0.1,2.0638571635634455,[0.93111858 0.06888142],[0.93111858 0.06888142],"[ 0.68055556  0.234375    0.4296875   1.          0.          1.
  1.          0.          1.          0.171875   -0.1         0.26666667]",0.17369737963014248,0,0
145,152,2024-09-17 12:33:33.431977984,TASK_BEGIN,8,-1.5719023179061646,0.8038599115084247,-8.067821049988916,1.6260396865204272,0.19681240289567,0.2832778681137213,15.249961195347614,-5.167431781324402,0,2024-09-17 12:33:34.990656006,1726576414.990657,2024-09-17 12:33:34.990657024,1,0.0,0.1,2.1432185919278113,[0.98035323 0.01964677],[0.98035323 0.01964677],"[0.66666667 0.234375   0.4296875  1.         0.         1.
 1.         0.         1.         0.171875   0.         0.23333333]",0.2736475128545692,0,0
146,153,2024-09-17 12:33:33.494484736,TASK_BEGIN,8,-1.5363522693175475,0.8083780600124196,-7.974529917439694,1.5810857143846644,0.4201000887182346,0.2620705130580206,14.929168088251782,-5.156076353923558,0,2024-09-17 12:33:35.091053955,1726576415.091055,2024-09-17 12:33:35.091054848,1,0.0,0.1,2.299568541948448,[0.99894167 0.00105833],[0.99894167 0.00105833],"[0.63888889 0.234375   0.4296875  1.         0.         1.
 1.         0.         1.         0.17773438 0.2        0.16666667]",0.33409263590469623,0,0
147,154,2024-09-17 12:33:34.441268992,TASK_BEGIN,8,-1.4922257290208083,0.8104772917068418,-7.888735190352252,1.5452974027161104,0.6322461812267623,0.2413355275259567,14.371251730089009,-5.1193048051093175,0,2024-09-17 12:33:35.647740967,1726576415.6477416,2024-09-17 12:33:35.647741440,1,0.0,0.1,3.1055091413092217,[0.9961545 0.0038455],[0.9961545 0.0038455],"[ 0.48611111  0.234375    0.4296875   0.98611111  0.25390625  0.44921875
  1.          0.          1.          0.33789062  1.         -0.2       ]",0.46578520740422513,1,2
148,155,2024-09-17 12:33:34.510813952,TASK_BEGIN,8,-1.4393478416298204,0.8102505803443312,-7.797994318482855,1.515329128497945,0.8242600528840888,0.222297215967777,13.6258148048913,-5.061398082694023,0,2024-09-17 12:33:35.647740967,1726576415.6477416,2024-09-17 12:33:35.647741440,1,0.0,0.1,3.1055091413092217,[0.9961545 0.0038455],[0.9961545 0.0038455],"[ 0.48611111  0.234375    0.4296875   0.98611111  0.25390625  0.44921875
  1.          0.          1.          0.33789062  1.         -0.2       ]",0.46578520740422513,1,2
149,156,2024-09-17 12:33:34.578648320,TASK_BEGIN,8,-1.377413525056709,0.8078080028117538,-7.688765315830431,1.4876212406757046,0.9871124080594286,0.2062990426878821,12.75349765609115,-4.9877408903515725,0,2024-09-17 12:33:35.647740967,1726576415.6477416,2024-09-17 12:33:35.647741440,1,0.0,0.1,3.1055091413092217,[0.9961545 0.0038455],[0.9961545 0.0038455],"[ 0.48611111  0.234375    0.4296875   0.98611111  0.25390625  0.44921875
  1.          0.          1.          0.33789062  1.         -0.2       ]",0.46578520740422513,1,2
150,157,2024-09-17 12:33:34.645636864,TASK_BEGIN,8,-1.3061380459252645,0.8032997670514704,-7.548404105377709,1.4588850576045047,1.11245226823345,0.1946507289626547,11.819463567680032,-4.90457338811615,0,2024-09-17 12:33:35.647740967,1726576415.6477416,2024-09-17 12:33:35.647741440,1,0.0,0.1,3.1055091413092217,[0.9961545 0.0038455],[0.9961545 0.0038455],"[ 0.48611111  0.234375    0.4296875   0.98611111  0.25390625  0.44921875
  1.          0.          1.          0.33789062  1.         -0.2       ]",0.46578520740422513,1,2
151,158,2024-09-17 12:33:34.714274816,TASK_BEGIN,8,-1.225501023674398,0.796929678702493,-7.367284962975511,1.4265944340199097,1.19343750244235,0.1884602956747779,10.886384226997292,-4.8184838392166345,0,2024-09-17 12:33:35.647740967,1726576415.6477416,2024-09-17 12:33:35.647741440,1,0.0,0.1,3.1055091413092217,[0.9961545 0.0038455],[0.9961545 0.0038455],"[ 0.48611111  0.234375    0.4296875   0.98611111  0.25390625  0.44921875
  1.          0.          1.          0.33789062  1.         -0.2       ]",0.46578520740422513,1,2
152,159,2024-09-17 12:33:34.770193152,TASK_BEGIN,8,-1.135950174927398,0.7889429885381612,-7.14033881823284,1.3893282706175325,1.225633458863245,0.1884837121777013,10.00775796250247,-4.735597504585289,0,2024-09-17 12:33:35.647740967,1726576415.6477416,2024-09-17 12:33:35.647741440,1,0.0,0.1,3.1055091413092217,[0.9961545 0.0038455],[0.9961545 0.0038455],"[ 0.48611111  0.234375    0.4296875   0.98611111  0.25390625  0.44921875
  1.          0.          1.          0.33789062  1.         -0.2       ]",0.46578520740422513,1,2
153,160,2024-09-17 12:33:34.847370240,TASK_BEGIN,8,-1.0384397667444396,0.7795796770460474,-6.867482836009882,1.3468370661552305,1.2077581918498197,0.195035670315883,9.222214422781144,-4.66067792817954,0,2024-09-17 12:33:35.698364990,1726576415.6983654,2024-09-17 12:33:35.698365440,1,0.0,0.1,3.17445404989613,[0.91967945 0.08032055],[0.91967945 0.08032055],"[ 0.47222222  0.234375    0.4296875   0.97222222  0.25390625  0.44921875
  1.          0.          1.          0.35742188  1.         -0.23333333]",0.36533916604151473,1,2
154,168,2024-09-17 12:33:37.138397952,TASK_BEGIN,8,-0.1593576369340278,0.6521503278689232,-4.364548909748923,1.0879807510902602,0.0510019026190401,0.4099575599592474,6.654046875173887,-4.427610432996183,0,2024-09-17 12:33:38.313135986,1726576418.3131363,2024-09-17 12:33:38.313136384,2,1.0,0.1,0.9561792499119549,[0.28822894 0.71177106],[0.28822894 0.71177106],"[ 0.86111111  0.29296875  0.48828125  1.          0.          1.
  1.          0.          1.          0.3203125  -0.8         0.5       ]",0.0795502613745023,0,0
155,169,2024-09-17 12:33:37.204756992,TASK_BEGIN,8,-0.0647796050223841,0.6272241441379118,-4.264587143129706,1.1175821749159016,-0.0715556746968535,0.4389083674924688,6.707275444631473,-4.427306035021386,0,2024-09-17 12:33:38.313135986,1726576418.3131363,2024-09-17 12:33:38.313136384,2,1.0,0.1,0.9561792499119549,[0.28822894 0.71177106],[0.28822894 0.71177106],"[ 0.86111111  0.29296875  0.48828125  1.          0.          1.
  1.          0.          1.          0.3203125  -0.8         0.5       ]",0.0795502613745023,0,0
156,170,2024-09-17 12:33:37.278292992,TASK_BEGIN,8,0.0191783760102612,0.600481849669132,-4.250920912103948,1.1677778666803145,-0.1640621897303247,0.4636668196984428,6.845928691849151,-4.428485965847848,0,2024-09-17 12:33:38.867033936,1726576418.8670347,2024-09-17 12:33:38.867034624,2,0.0,0.1,1.902721317787415,[0.95937891 0.04062109],[0.95937891 0.04062109],"[ 0.70833333  0.29296875  0.48828125  1.          0.          1.
  1.          0.          1.          0.16796875 -0.4         0.36666667]",0.2242432457165781,0,0
157,171,2024-09-17 12:33:37.342295808,TASK_BEGIN,8,0.0903665225618238,0.5724806121374012,-4.320725604617614,1.2369824252931776,-0.2262339381805292,0.4834014012102498,7.0768249945612745,-4.430085135128982,0,2024-09-17 12:33:38.917035156,1726576418.9170356,2024-09-17 12:33:38.917035520,2,0.0,0.1,1.9836941046095409,[0.99486742 0.00513258],[0.99486742 0.00513258],"[ 0.69444444  0.29296875  0.48828125  1.          0.          1.
  1.          0.          1.          0.16210938 -0.3         0.33333333]",0.316804230287813,0,0
158,172,2024-09-17 12:33:37.401670912,TASK_BEGIN,8,0.1470323815726202,0.5439168030675365,-4.465329586531712,1.3223810354431724,-0.2608282290877997,0.4976461155334603,7.404919755479543,-4.431452104945543,0,2024-09-17 12:33:38.967035156,1726576418.9670353,2024-09-17 12:33:38.967035392,2,0.0,0.1,2.0638571635634455,[9.99211035e-01 7.88965175e-04],[9.99211035e-01 7.88965175e-04],"[ 0.68055556  0.29296875  0.48828125  1.          0.          1.
  1.          0.          1.          0.15820312 -0.2         0.3       ]",0.32801891328905824,0,0
159,173,2024-09-17 12:33:37.479779072,TASK_BEGIN,8,0.1880171972283963,0.5155583789089765,-4.670577377883173,1.420234081696794,-0.2729046010594043,0.5062146097536488,7.830762897721774,-4.432406010711069,0,2024-09-17 12:33:38.967035156,1726576418.9670353,2024-09-17 12:33:38.967035392,2,0.0,0.1,2.0638571635634455,[9.99211035e-01 7.88965175e-04],[9.99211035e-01 7.88965175e-04],"[ 0.68055556  0.29296875  0.48828125  1.          0.          1.
  1.          0.          1.          0.15820312 -0.2         0.3       ]",0.32801891328905824,0,0
160,174,2024-09-17 12:33:37.546902016,TASK_BEGIN,8,0.2128676824078907,0.4882007398794397,-4.917373240721059,1.5261432687665255,-0.2688343008809317,0.5090615705785042,8.348452085899712,-4.433248944574046,0,2024-09-17 12:33:38.967035156,1726576418.9670353,2024-09-17 12:33:38.967035392,2,0.0,0.1,2.0638571635634455,[9.99211035e-01 7.88965175e-04],[9.99211035e-01 7.88965175e-04],"[ 0.68055556  0.29296875  0.48828125  1.          0.          1.
  1.          0.          1.          0.15820312 -0.2         0.3       ]",0.32801891328905824,0,0
161,175,2024-09-17 12:33:38.493753856,TASK_BEGIN,8,0.2218437561895848,0.4626403165352448,-5.182845619959425,1.6353711349714617,-0.2553662359851763,0.506164631150814,8.944628896280646,-4.434674834108889,0,2024-09-17 12:33:39.929264160,1726576419.9292643,2024-09-17 12:33:39.929264384,2,0.0,0.1,3.4434077942585635,[0.99858753 0.00141247],[0.99858753 0.00141247],"[ 0.41666667  0.29296875  0.48828125  0.91666667  0.234375    0.4296875
  1.          0.          1.          0.40039062  1.         -0.33333333]",0.6199363232642514,0,0
162,176,2024-09-17 12:33:38.561644032,TASK_BEGIN,8,0.2158737907040718,0.4396443973226523,-5.44230377938444,1.7432826966596748,-0.2389530356122643,0.4974739316686843,9.598621033096167,-4.4374402975123886,0,2024-09-17 12:33:39.929264160,1726576419.9292643,2024-09-17 12:33:39.929264384,2,0.0,0.1,3.4434077942585635,[0.99858753 0.00141247],[0.99858753 0.00141247],"[ 0.41666667  0.29296875  0.48828125  0.91666667  0.234375    0.4296875
  1.          0.          1.          0.40039062  1.         -0.33333333]",0.6199363232642514,0,0
163,177,2024-09-17 12:33:38.625488896,TASK_BEGIN,8,0.1965265839746892,0.419911145417944,-5.671724143256168,1.845841331834662,-0.2252962276770519,0.482927516493509,10.283379500616633,-4.441803429763525,0,2024-09-17 12:33:39.929264160,1726576419.9292643,2024-09-17 12:33:39.929264384,2,0.0,0.1,3.4434077942585635,[0.99858753 0.00141247],[0.99858753 0.00141247],"[ 0.41666667  0.29296875  0.48828125  0.91666667  0.234375    0.4296875
  1.          0.          1.          0.40039062  1.         -0.33333333]",0.6199363232642514,0,0
164,178,2024-09-17 12:33:38.687974144,TASK_BEGIN,8,0.1659875388179537,0.4040329980776512,-5.850154286642893,1.9400156522774208,-0.2190019690860589,0.4625213930480197,10.967100668841352,-4.447004169270202,0,2024-09-17 12:33:39.929264160,1726576419.9292643,2024-09-17 12:33:39.929264384,2,0.0,0.1,3.4434077942585635,[0.99858753 0.00141247],[0.99858753 0.00141247],"[ 0.41666667  0.29296875  0.48828125  0.91666667  0.234375    0.4296875
  1.          0.          1.          0.40039062  1.         -0.33333333]",0.6199363232642514,0,0
165,179,2024-09-17 12:33:38.749578752,TASK_BEGIN,8,0.1269556648937385,0.3924729041883179,-5.961350800370494,2.023966676480887,-0.223385962132306,0.4364390826000333,11.61591765771414,-4.451129005991776,0,2024-09-17 12:33:39.929264160,1726576419.9292643,2024-09-17 12:33:39.929264384,2,0.0,0.1,3.4434077942585635,[0.99858753 0.00141247],[0.99858753 0.00141247],"[ 0.41666667  0.29296875  0.48828125  0.91666667  0.234375    0.4296875
  1.          0.          1.          0.40039062  1.         -0.33333333]",0.6199363232642514,0,0
166,180,2024-09-17 12:33:38.832887040,TASK_BEGIN,8,0.0824449391847264,0.3855426658678083,-5.994402051850262,2.096954993118312,-0.2405319932172564,0.40523311455306,12.1975434605,-4.451477543657862,0,2024-09-17 12:33:39.929264160,1726576419.9292643,2024-09-17 12:33:39.929264384,2,0.0,0.1,3.4434077942585635,[0.99858753 0.00141247],[0.99858753 0.00141247],"[ 0.41666667  0.29296875  0.48828125  0.91666667  0.234375    0.4296875
  1.          0.          1.          0.40039062  1.         -0.33333333]",0.6199363232642514,0,0
167,181,2024-09-17 12:33:38.900731904,TASK_BEGIN,8,0.0355741627909371,0.38337029337512,-5.943655333448844,2.15902346372536,-0.2715484028907902,0.370002599451315,12.684706883556691,-4.445272046120432,0,2024-09-17 12:33:39.929264160,1726576419.9292643,2024-09-17 12:33:39.929264384,2,0.0,0.1,3.4434077942585635,[0.99858753 0.00141247],[0.99858753 0.00141247],"[ 0.41666667  0.29296875  0.48828125  0.91666667  0.234375    0.4296875
  1.          0.          1.          0.40039062  1.         -0.33333333]",0.6199363232642514,0,0
168,182,2024-09-17 12:33:39.816241920,TASK_BEGIN,8,-0.0106024724609251,0.3858691191276726,-5.808338032863048,2.210612735989021,-0.316773471226741,0.332470684462384,13.057268412960122,-4.430433152835729,0,2024-09-17 12:33:40.743240234,1726576420.7432406,2024-09-17 12:33:40.743240704,2,0.0,0.1,4.417338614521361,[0.98677066 0.01322934],[0.98677066 0.01322934],"[0.19444444 0.29296875 0.48828125 0.69444444 0.234375   0.4296875
 1.         0.         1.         0.390625   0.6        0.03333333]",0.6707503970707096,0,0
169,183,2024-09-17 12:33:39.879892992,TASK_BEGIN,8,-0.0532585864445182,0.3927353367093852,-5.5920282878201855,2.2522909294562337,-0.3757140229040493,0.2948864381252179,13.30282480041575,-4.406153178827591,0,2024-09-17 12:33:40.743240234,1726576420.7432406,2024-09-17 12:33:40.743240704,2,0.0,0.1,4.417338614521361,[0.98677066 0.01322934],[0.98677066 0.01322934],"[0.19444444 0.29296875 0.48828125 0.69444444 0.234375   0.4296875
 1.         0.         1.         0.390625   0.6        0.03333333]",0.6707503970707096,0,0
170,184,2024-09-17 12:33:39.940825856,TASK_BEGIN,8,-0.0899795336751524,0.403479448047677,-5.302103303691731,2.2846991113307324,-0.4467690921181501,0.2597599452628354,13.416255890773702,-4.373128139880623,0,2024-09-17 12:33:40.843949951,1726576420.8439505,2024-09-17 12:33:40.843950592,2,1.0,0.1,4.528433576092385,[0.08416947 0.91583053],[0.08416947 0.91583053],"[ 0.16666667  0.29296875  0.48828125  0.66666667  0.234375    0.4296875
  1.          0.          1.          0.38867188 -0.8         0.5       ]",0.5246000740580016,0,0
171,185,2024-09-17 12:33:40.019449088,TASK_BEGIN,8,-0.1189415391583438,0.4174757148156114,-4.9492563731399954,2.30863432402004,-0.5269924108818781,0.2295147313396235,13.39887542669348,-4.3335243094270695,0,2024-09-17 12:33:40.843949951,1726576420.8439505,2024-09-17 12:33:40.843950592,2,1.0,0.1,4.528433576092385,[0.08416947 0.91583053],[0.08416947 0.91583053],"[ 0.16666667  0.29296875  0.48828125  0.66666667  0.234375    0.4296875
  1.          0.          1.          0.38867188 -0.8         0.5       ]",0.5246000740580016,0,0
172,186,2024-09-17 12:33:40.090073088,TASK_BEGIN,8,-0.139056758048343,0.4340163609300993,-4.546976718618411,2.325063658039728,-0.6120845583909275,0.2061576459438529,13.25779438441926,-4.290863919016299,0,2024-09-17 12:33:41.551701904,1726576421.5517025,2024-09-17 12:33:41.551702528,2,0.0,0.1,6.036368500641994,[0.99190195 0.00809805],[0.99190195 0.00809805],"[-0.02777778  0.29296875  0.48828125  0.47222222  0.234375    0.4296875
  0.97222222  0.2734375   0.46875     0.375       0.6         0.03333333]",0.5057466977100236,0,0
173,187,2024-09-17 12:33:40.157916928,TASK_BEGIN,8,-0.1500649804081864,0.4523626514793221,-4.110896310324828,2.334966667330355,-0.6966366910797724,0.1910432317715266,13.00571428745379,-4.2499434341016125,0,2024-09-17 12:33:41.754738037,1726576421.754739,2024-09-17 12:33:41.754738944,2,1.0,0.1,6.1925513966063805,[0.06939638 0.93060362],[0.06939638 0.93060362],"[-0.08333333  0.29296875  0.48828125  0.41666667  0.234375    0.4296875
  0.91666667  0.2734375   0.46875     0.37304688 -0.8         0.5       ]",0.566038733406395,0,0
174,188,2024-09-17 12:33:40.225733120,TASK_BEGIN,8,-0.1525360261641539,0.4717808166542159,-3.658054584661399,2.33911551409472,-0.7745488659794558,0.1847657424524515,12.66063694888082,-4.216695708313004,0,2024-09-17 12:33:41.805706055,1726576421.805707,2024-09-17 12:33:41.805707008,2,1.0,0.1,6.230625882640316,[0.04093391 0.95906609],[0.04093391 0.95906609],"[-0.09722222  0.29296875  0.48828125  0.40277778  0.234375    0.4296875
  0.90277778  0.2734375   0.46875     0.35742188 -0.8         0.5       ]",0.7257458107785346,1,2
175,189,2024-09-17 12:33:41.162897152,TASK_BEGIN,8,-0.1477456516178098,0.4915545574810149,-3.206170974299215,2.3379619963748035,-0.8395186942730088,0.187162619637353,12.24467257502054,-4.197731429189315,0,2024-09-17 12:33:42.263732910,1726576422.2637334,2024-09-17 12:33:42.263733504,2,0.0,-1.0,5.4566117315735,[0.41540002 0.58459998],[0.32915706 0.67084294],"[ 0.27777778  0.234375    0.4296875   0.77777778  0.2734375   0.46875
  1.          0.          1.          0.22851562 -0.6         0.43333333]",0.10754466529613296,1,2
176,190,2024-09-17 12:33:41.224423936,TASK_BEGIN,8,-0.1374327595756838,0.5109838113990923,-2.7730592232507094,2.3316963515358693,-0.8855179707335034,0.1973881073342406,11.78192778608357,-4.199406599102604,0,2024-09-17 12:33:42.263732910,1726576422.2637334,2024-09-17 12:33:42.263733504,2,0.0,-1.0,5.4566117315735,[0.41540002 0.58459998],[0.32915706 0.67084294],"[ 0.27777778  0.234375    0.4296875   0.77777778  0.2734375   0.46875
  1.          0.          1.          0.22851562 -0.6         0.43333333]",0.10754466529613296,1,2
177,191,2024-09-17 12:33:41.302076160,TASK_BEGIN,8,-0.123496712110838,0.529389616225256,-2.3762942852371274,2.3204286530037064,-0.9072142881211972,0.2140202597814031,11.296406837855171,-4.226648892201397,0,2024-09-17 12:33:42.263732910,1726576422.2637334,2024-09-17 12:33:42.263733504,2,0.0,-1.0,5.4566117315735,[0.41540002 0.58459998],[0.32915706 0.67084294],"[ 0.27777778  0.234375    0.4296875   0.77777778  0.2734375   0.46875
  1.          0.          1.          0.22851562 -0.6         0.43333333]",0.10754466529613296,1,2
178,192,2024-09-17 12:33:41.363642112,TASK_BEGIN,8,-0.1077070576979876,0.5461314706492014,-2.03305162914339,2.3044012476310147,-0.9003287663468315,0.2351867249374442,10.811050269693824,-4.282099389933411,0,2024-09-17 12:33:42.263732910,1726576422.2637334,2024-09-17 12:33:42.263733504,2,0.0,-1.0,5.4566117315735,[0.41540002 0.58459998],[0.32915706 0.67084294],"[ 0.27777778  0.234375    0.4296875   0.77777778  0.2734375   0.46875
  1.          0.          1.          0.22851562 -0.6         0.43333333]",0.10754466529613296,1,2
179,193,2024-09-17 12:33:41.440283904,TASK_BEGIN,8,-0.0914894184752798,0.5606246681181698,-1.7598890102281235,2.284164579478491,-0.8619620466766954,0.2587170653653901,10.348725750021414,-4.3660643882830925,0,2024-09-17 12:33:42.263732910,1726576422.2637334,2024-09-17 12:33:42.263733504,2,0.0,-1.0,5.4566117315735,[0.41540002 0.58459998],[0.32915706 0.67084294],"[ 0.27777778  0.234375    0.4296875   0.77777778  0.2734375   0.46875
  1.          0.          1.          0.22851562 -0.6         0.43333333]",0.10754466529613296,1,2
180,196,2024-09-17 12:33:42.518009088,TASK_BEGIN,8,-0.0482370192436062,0.5857839557683622,-1.5011264395272452,2.2098701048075164,-0.5564986493782579,0.321397860415923,9.3790216442711,-4.773773600888672,0,2024-09-17 12:33:44.120471924,1726576424.1204727,2024-09-17 12:33:44.120472576,3,1.0,0.1,0.6793465209301,[0.3580128 0.6419872],[0.3580128 0.6419872],"[ 0.90277778  0.2734375   0.46875     1.          0.          1.
  1.          0.          1.          0.3671875  -0.8         0.5       ]",0.036598937532804736,0,0
181,197,2024-09-17 12:33:42.585889280,TASK_BEGIN,8,-0.0364238893424082,0.5869403821678205,-1.6300625908126107,2.185950361682332,-0.4016144985997297,0.3336234344985399,9.307347341880376,-4.954969268759974,0,2024-09-17 12:33:44.171473145,1726576424.1714737,2024-09-17 12:33:44.171473664,3,1.0,0.1,0.7725530557207989,[0.3416387 0.6583613],[0.3416387 0.6583613],"[ 0.88888889  0.2734375   0.46875     1.          0.          1.
  1.          0.          1.          0.3515625  -0.8         0.5       ]",0.04524629437796464,0,0
182,198,2024-09-17 12:33:42.639472896,TASK_BEGIN,8,-0.0254117406768297,0.5843014109822895,-1.8668441503032067,2.165164554199987,-0.2308309814548622,0.339763495513654,9.414511575341164,-5.154567760263085,0,2024-09-17 12:33:44.222472900,1726576424.2224731,2024-09-17 12:33:44.222473216,3,1.0,0.1,0.8648275251635908,[0.30917035 0.69082965],[0.30917035 0.69082965],"[ 0.875      0.2734375  0.46875    1.         0.         1.
  1.         0.         1.         0.3359375 -0.8        0.5      ]",0.06672163324114155,0,0
183,199,2024-09-17 12:33:42.717197056,TASK_BEGIN,8,-0.0143794947333814,0.5780596749672973,-2.202747450949326,2.148737308647592,-0.0530297597623529,0.3396833390848957,9.718505033132626,-5.368632574788634,0,2024-09-17 12:33:44.273473877,1726576424.2734745,2024-09-17 12:33:44.273474560,3,1.0,0.1,0.9561792499119549,[0.28659101 0.71340899],[0.28659101 0.71340899],"[ 0.86111111  0.2734375   0.46875     1.          0.          1.
  1.          0.          1.          0.3203125  -0.8         0.5       ]",0.0838984185355093,0,0
184,200,2024-09-17 12:33:42.779753984,TASK_BEGIN,8,-0.0023111856910714,0.56862383405099,-2.624378046830116,2.137413170901642,0.1222005219207479,0.3337948749727733,10.223057952383078,-5.592097549508942,0,2024-09-17 12:33:44.273473877,1726576424.2734745,2024-09-17 12:33:44.273474560,3,1.0,0.1,0.9561792499119549,[0.28659101 0.71340899],[0.28659101 0.71340899],"[ 0.86111111  0.2734375   0.46875     1.          0.          1.
  1.          0.          1.          0.3203125  -0.8         0.5       ]",0.0838984185355093,0,0
185,201,2024-09-17 12:33:42.842242048,TASK_BEGIN,8,0.0118453100077254,0.5566080974748194,-3.115135345866743,2.131361513380229,0.2855027447038339,0.3229073235708202,10.917922404039414,-5.819103671105221,0,2024-09-17 12:33:44.273473877,1726576424.2734745,2024-09-17 12:33:44.273474560,3,1.0,0.1,0.9561792499119549,[0.28659101 0.71340899],[0.28659101 0.71340899],"[ 0.86111111  0.2734375   0.46875     1.          0.          1.
  1.          0.          1.          0.3203125  -0.8         0.5       ]",0.0838984185355093,0,0
186,202,2024-09-17 12:33:42.921195008,TASK_BEGIN,8,0.02905358586418,0.5428065167424696,-3.6568678947351065,2.130251219807493,0.4287031241863927,0.3080518805672489,11.780792955710057,-6.043548959331462,0,2024-09-17 12:33:44.273473877,1726576424.2734745,2024-09-17 12:33:44.273474560,3,1.0,0.1,0.9561792499119549,[0.28659101 0.71340899],[0.28659101 0.71340899],"[ 0.86111111  0.2734375   0.46875     1.          0.          1.
  1.          0.          1.          0.3203125  -0.8         0.5       ]",0.0838984185355093,0,0
187,203,2024-09-17 12:33:43.841917952,TASK_BEGIN,8,0.0500773538815501,0.5281453575536329,-4.2316770424230095,2.13354064754265,0.5454177463272321,0.2903506262462367,12.779638574237666,-6.259651088648684,0,2024-09-17 12:33:44.986846924,1726576424.986847,2024-09-17 12:33:44.986846976,3,0.0,0.1,2.1432185919278113,[9.99733801e-01 2.66199314e-04],[9.99733801e-01 2.66199314e-04],"[ 0.66666667  0.2734375   0.46875     1.          0.          1.
  1.          0.          1.          0.15625    -0.1         0.26666667]",0.32814407392957334,0,0
188,204,2024-09-17 12:33:43.904382208,TASK_BEGIN,8,0.0753289591366853,0.5136180715010674,-4.823478290481525,2.1408079917245573,0.6311726779527989,0.2709608398434049,13.874865755726525,-6.462370273639656,0,2024-09-17 12:33:44.986846924,1726576424.986847,2024-09-17 12:33:44.986846976,3,0.0,0.1,2.1432185919278113,[9.99733801e-01 2.66199314e-04],[9.99733801e-01 2.66199314e-04],"[ 0.66666667  0.2734375   0.46875     1.          0.          1.
  1.          0.          1.          0.15625    -0.1         0.26666667]",0.32814407392957334,0,0
189,205,2024-09-17 12:33:43.966447104,TASK_BEGIN,8,0.1046684853849996,0.5002245481275883,-5.418612021532842,2.151854288267401,0.6833632801309207,0.2510526009730893,15.02115583738309,-6.64763854596657,0,2024-09-17 12:33:45.539477051,1726576425.5394776,2024-09-17 12:33:45.539477504,3,0.0,0.1,2.965523050004307,[9.99999994e-01 5.79077320e-09],[9.99999994e-01 5.79077320e-09],"[ 0.51388889  0.2734375   0.46875     1.          0.          1.
  1.          0.          1.          0.26367188  1.         -0.1       ]",0.342297560480901,0,0
190,206,2024-09-17 12:33:44.046572032,TASK_BEGIN,8,0.1372274500080928,0.4889261809178199,-6.005227086385846,2.166497339805672,0.7014224992269894,0.2317685886093045,16.16908191754054,-6.812342510755851,0,2024-09-17 12:33:45.539477051,1726576425.5394776,2024-09-17 12:33:45.539477504,3,0.0,0.1,2.965523050004307,[9.99999994e-01 5.79077320e-09],[9.99999994e-01 5.79077320e-09],"[ 0.51388889  0.2734375   0.46875     1.          0.          1.
  1.          0.          1.          0.26367188  1.         -0.1       ]",0.342297560480901,0,0
191,207,2024-09-17 12:33:44.106257920,TASK_BEGIN,8,0.1713611761455596,0.4806001222679195,-6.572058005097525,2.184256988497706,0.687171558092814,0.2141629839145796,17.266689747657445,-6.953956241704125,0,2024-09-17 12:33:45.539477051,1726576425.5394776,2024-09-17 12:33:45.539477504,3,0.0,0.1,2.965523050004307,[9.99999994e-01 5.79077320e-09],[9.99999994e-01 5.79077320e-09],"[ 0.51388889  0.2734375   0.46875     1.          0.          1.
  1.          0.          1.          0.26367188  1.         -0.1       ]",0.342297560480901,0,0
192,208,2024-09-17 12:33:44.168297216,TASK_BEGIN,8,0.2047743466480193,0.4759717360752314,-7.107609602732591,2.20421149477208,0.6450369968836271,0.199143495852357,18.26108907389864,-7.069838287477977,0,2024-09-17 12:33:45.738979980,1726576425.7389803,2024-09-17 12:33:45.738980352,3,0.0,0.1,3.2427095093971685,[9.99999714e-01 2.86364526e-07],[9.99999714e-01 2.86364526e-07],"[ 0.45833333  0.2734375   0.46875     0.95833333  0.234375    0.4296875
  1.          0.          1.          0.34179688  1.         -0.23333333]",0.3513499247380911,0,0
193,209,2024-09-17 12:33:44.245469952,TASK_BEGIN,8,0.2347963060889693,0.4755287152188152,-7.600314169921388,2.2251368364421307,0.5818675979241109,0.1874342522609071,19.10009530439258,-7.1564526936451225,0,2024-09-17 12:33:45.841239990,1726576425.841241,2024-09-17 12:33:45.841240832,3,0.0,0.1,3.377179590160165,[0.99816157 0.00183843],[0.99816157 0.00183843],"[ 0.43055556  0.2734375   0.46875     0.93055556  0.234375    0.4296875
  1.          0.          1.          0.38085938  1.         -0.3       ]",0.5865550449634382,0,0
194,210,2024-09-17 12:33:45.193218048,TASK_BEGIN,8,0.2587638930828169,0.4794414221530185,-8.039413287175666,2.245818042419513,0.5063097871941578,0.1795539938827768,19.73409799180375,-7.208917016813148,0,2024-09-17 12:33:46.650509032,1726576426.6505096,2024-09-17 12:33:46.650509568,3,0.0,0.1,4.360948095476123,[0.98922825 0.01077175],[0.98922825 0.01077175],"[0.20833333 0.2734375  0.46875    0.70833333 0.234375   0.4296875
 1.         0.         1.         0.37109375 0.6        0.03333333]",0.6714318186318033,0,0
195,211,2024-09-17 12:33:45.254631168,TASK_BEGIN,8,0.2744339556574061,0.4875155507967556,-8.415904555589577,2.2653176504791483,0.4278850647504444,0.1757836953284823,20.11817989024707,-7.22118400842048,0,2024-09-17 12:33:46.650509032,1726576426.6505096,2024-09-17 12:33:46.650509568,3,0.0,0.1,4.360948095476123,[0.98922825 0.01077175],[0.98922825 0.01077175],"[0.20833333 0.2734375  0.46875    0.70833333 0.234375   0.4296875
 1.         0.         1.         0.37109375 0.6        0.03333333]",0.6714318186318033,0,0
196,212,2024-09-17 12:33:45.328919808,TASK_BEGIN,8,0.2802792134271955,0.4991944364093116,-8.723248999659234,2.2830644562127755,0.3559601797543048,0.1761160614059305,20.214393765025125,-7.186882988090357,0,2024-09-17 12:33:46.650509032,1726576426.6505096,2024-09-17 12:33:46.650509568,3,0.0,0.1,4.360948095476123,[0.98922825 0.01077175],[0.98922825 0.01077175],"[0.20833333 0.2734375  0.46875    0.70833333 0.234375   0.4296875
 1.         0.         1.         0.37109375 0.6        0.03333333]",0.6714318186318033,0,0
197,213,2024-09-17 12:33:45.396723200,TASK_BEGIN,8,0.2755491724490512,0.513615702286013,-8.958042345101083,2.298801176462512,0.298757762804948,0.1802183819377045,19.994394149383567,-7.100602600188795,0,2024-09-17 12:33:46.650509032,1726576426.6505096,2024-09-17 12:33:46.650509568,3,0.0,0.1,4.360948095476123,[0.98922825 0.01077175],[0.98922825 0.01077175],"[0.20833333 0.2734375  0.46875    0.70833333 0.234375   0.4296875
 1.         0.         1.         0.37109375 0.6        0.03333333]",0.6714318186318033,0,0
198,214,2024-09-17 12:33:45.455843072,TASK_BEGIN,8,0.2601392728038053,0.5297097790557914,-9.120768803519208,2.312518087059759,0.2625359227428422,0.187444507531911,19.442654121749385,-6.959311742265956,0,2024-09-17 12:33:46.650509032,1726576426.6505096,2024-09-17 12:33:46.650509568,3,0.0,0.1,4.360948095476123,[0.98922825 0.01077175],[0.98922825 0.01077175],"[0.20833333 0.2734375  0.46875    0.70833333 0.234375   0.4296875
 1.         0.         1.         0.37109375 0.6        0.03333333]",0.6714318186318033,0,0
199,215,2024-09-17 12:33:45.532313856,TASK_BEGIN,8,0.2344396960560357,0.5463123190746526,-9.216329872593752,2.3244277354374776,0.2510874564755672,0.1969045875369103,18.559938584692,-6.763619525764863,0,2024-09-17 12:33:46.650509032,1726576426.6505096,2024-09-17 12:33:46.650509568,3,0.0,0.1,4.360948095476123,[0.98922825 0.01077175],[0.98922825 0.01077175],"[0.20833333 0.2734375  0.46875    0.70833333 0.234375   0.4296875
 1.         0.         1.         0.37109375 0.6        0.03333333]",0.6714318186318033,0,0
200,216,2024-09-17 12:33:45.588001024,TASK_BEGIN,8,0.1992994640453714,0.5622596342976393,-9.253899681040464,2.3349341735844296,0.2656408668771,0.2075792431165429,17.366178924652573,-6.518606221814284,0,2024-09-17 12:33:46.650509032,1726576426.6505096,2024-09-17 12:33:46.650509568,3,0.0,0.1,4.360948095476123,[0.98922825 0.01077175],[0.98922825 0.01077175],"[0.20833333 0.2734375  0.46875    0.70833333 0.234375   0.4296875
 1.         0.         1.         0.37109375 0.6        0.03333333]",0.6714318186318033,0,0
201,217,2024-09-17 12:33:46.535568896,TASK_BEGIN,8,0.1560980496076381,0.57645251473163,-9.245897987077576,2.3445667314312324,0.3050917697001203,0.2184484099430787,15.901812720458617,-6.234008971005349,0,2024-09-17 12:33:47.817010010,1726576427.8170102,2024-09-17 12:33:47.817010176,3,1.0,0.1,6.2683196238139125,[0.03379704 0.96620296],[0.03379704 0.96620296],"[-0.11111111  0.2734375   0.46875     0.38888889  0.234375    0.4296875
  0.88888889  0.2734375   0.46875     0.33984375 -0.8         0.5       ]",0.7976946857600213,0,0
202,218,2024-09-17 12:33:46.602073088,TASK_BEGIN,8,0.1068091230447115,0.587900585385775,-9.206254744822571,2.353918691492884,0.3664596587013802,0.2285965907211835,14.227002292377692,-5.923678029060832,0,2024-09-17 12:33:47.817010010,1726576427.8170102,2024-09-17 12:33:47.817010176,3,1.0,0.1,6.2683196238139125,[0.03379704 0.96620296],[0.03379704 0.96620296],"[-0.11111111  0.2734375   0.46875     0.38888889  0.234375    0.4296875
  0.88888889  0.2734375   0.46875     0.33984375 -0.8         0.5       ]",0.7976946857600213,0,0
203,219,2024-09-17 12:33:46.665009152,TASK_BEGIN,8,0.0539513927006879,0.5957714029020398,-9.148505970998343,2.363628069435046,0.4455264183094383,0.2372817469587143,12.41873570775852,-5.604444863488703,0,2024-09-17 12:33:47.817010010,1726576427.8170102,2024-09-17 12:33:47.817010176,3,1.0,0.1,6.2683196238139125,[0.03379704 0.96620296],[0.03379704 0.96620296],"[-0.11111111  0.2734375   0.46875     0.38888889  0.234375    0.4296875
  0.88888889  0.2734375   0.46875     0.33984375 -0.8         0.5       ]",0.7976946857600213,0,0
204,220,2024-09-17 12:33:46.745183744,TASK_BEGIN,8,0.0004050615022391,0.5994542147024113,-9.084379782772446,2.3743935388101005,0.5375620409130929,0.2439907881017038,10.566013398664838,-5.294631323474158,0,2024-09-17 12:33:47.817010010,1726576427.8170102,2024-09-17 12:33:47.817010176,3,1.0,0.1,6.2683196238139125,[0.03379704 0.96620296],[0.03379704 0.96620296],"[-0.11111111  0.2734375   0.46875     0.38888889  0.234375    0.4296875
  0.88888889  0.2734375   0.46875     0.33984375 -0.8         0.5       ]",0.7976946857600213,0,0
205,221,2024-09-17 12:33:46.813990912,TASK_BEGIN,8,-0.050855021017917,0.5986251055107394,-9.023108060464477,2.386970329104096,0.6379465729132432,0.2484949408321888,8.763189797339509,-5.012317499742094,0,2024-09-17 12:33:47.817010010,1726576427.8170102,2024-09-17 12:33:47.817010176,3,1.0,0.1,6.2683196238139125,[0.03379704 0.96620296],[0.03379704 0.96620296],"[-0.11111111  0.2734375   0.46875     0.38888889  0.234375    0.4296875
  0.88888889  0.2734375   0.46875     0.33984375 -0.8         0.5       ]",0.7976946857600213,0,0
206,222,2024-09-17 12:33:46.881865984,TASK_BEGIN,8,-0.0970322637790857,0.5932871548078872,-8.971101789258599,2.402055050956632,0.7425690904156166,0.2508794077584973,7.102243486646972,-4.7735330790557295,0,2024-09-17 12:33:47.817010010,1726576427.8170102,2024-09-17 12:33:47.817010176,3,1.0,0.1,6.2683196238139125,[0.03379704 0.96620296],[0.03379704 0.96620296],"[-0.11111111  0.2734375   0.46875     0.38888889  0.234375    0.4296875
  0.88888889  0.2734375   0.46875     0.33984375 -0.8         0.5       ]",0.7976946857600213,0,0
207,223,2024-09-17 12:33:46.944635904,TASK_BEGIN,8,-0.1357366917801893,0.5837646514013751,-8.9316294124507,2.420033908840733,0.8480746284567118,0.2515136163267955,5.665863219452352,-4.590789706458457,0,2024-09-17 12:33:47.817010010,1726576427.8170102,2024-09-17 12:33:47.817010176,3,1.0,0.1,6.2683196238139125,[0.03379704 0.96620296],[0.03379704 0.96620296],"[-0.11111111  0.2734375   0.46875     0.38888889  0.234375    0.4296875
  0.88888889  0.2734375   0.46875     0.33984375 -0.8         0.5       ]",0.7976946857600213,0,0
208,224,2024-09-17 12:33:47.878437888,TASK_BEGIN,8,-0.1651615823666924,0.570653453401391,-8.904591217593204,2.440695860532506,0.9520950756865176,0.2509584618654093,4.522797894387051,-4.472358397389862,0,2024-09-17 12:33:48.777817871,1726576428.7778182,2024-09-17 12:33:48.777818112,3,1.0,0.1,7.799092759012068,[0.07202445 0.92797555],[0.07202445 0.92797555],"[ 0.125       0.234375    0.4296875   0.625       0.2734375   0.46875
  1.          0.          1.          0.34179688 -0.8         0.5       ]",0.5595393574955387,0,0
209,225,2024-09-17 12:33:47.960627200,TASK_BEGIN,8,-0.1842004257386297,0.5547514333057517,-8.886686514355363,2.463063323685368,1.0534933230604673,0.2498381242345141,3.72523590112285,-4.4222803261345,0,2024-09-17 12:33:48.777817871,1726576428.7778182,2024-09-17 12:33:48.777818112,3,1.0,0.1,7.799092759012068,[0.07202445 0.92797555],[0.07202445 0.92797555],"[ 0.125       0.234375    0.4296875   0.625       0.2734375   0.46875
  1.          0.          1.          0.34179688 -0.8         0.5       ]",0.5595393574955387,0,0
210,226,2024-09-17 12:33:48.017287168,TASK_BEGIN,8,-0.1924678138402059,0.5369935927323507,-8.872116655076141,2.4854515480985278,1.152518990045247,0.2487160117220565,3.307066704617514,-4.440725354090772,0,2024-09-17 12:33:49.588974854,1726576429.5889757,2024-09-17 12:33:49.588975616,3,0.0,0.1,8.12602042620184,[9.99971139e-01 2.88606961e-05],[9.99971139e-01 2.88606961e-05],"[-0.09722222  0.234375    0.4296875   0.40277778  0.2734375   0.46875
  0.97777778  0.29296875  0.48828125  0.35742188  0.8        -0.03333333]",0.4678263763051027,0,0
211,227,2024-09-17 12:33:48.094902016,TASK_BEGIN,8,-0.1901955649791818,0.5183989459469497,-8.853632562261536,2.5057410468264423,1.2506598622026857,0.2480191933456706,3.2821894896668597,-4.524326192130099,0,2024-09-17 12:33:49.687972168,1726576429.6879723,2024-09-17 12:33:49.687972352,3,0.0,0.1,8.163312619720422,[0.98972792 0.01027208],[0.98972792 0.01027208],"[-0.125       0.234375    0.4296875   0.375       0.2734375   0.46875
  0.95        0.29296875  0.48828125  0.39453125  1.         -0.1       ]",0.6727692496936549,0,0
212,228,2024-09-17 12:33:48.157426944,TASK_BEGIN,8,-0.1780140822286531,0.5000174116213061,-8.82341282295841,2.5216841051044567,1.3499594062769338,0.248051561956021,3.643061570820332,-4.666433661645801,0,2024-09-17 12:33:49.687972168,1726576429.6879723,2024-09-17 12:33:49.687972352,3,0.0,0.1,8.163312619720422,[0.98972792 0.01027208],[0.98972792 0.01027208],"[-0.125       0.234375    0.4296875   0.375       0.2734375   0.46875
  0.95        0.29296875  0.48828125  0.39453125  1.         -0.1       ]",0.6727692496936549,0,0
213,229,2024-09-17 12:33:48.219422208,TASK_BEGIN,8,-0.1566721656887932,0.4828639750863572,-8.773389432227164,2.531072174110785,1.4518427155019658,0.2490955981906547,4.360762677264911,-4.857536768945354,0,2024-09-17 12:33:49.687972168,1726576429.6879723,2024-09-17 12:33:49.687972352,3,0.0,0.1,8.163312619720422,[0.98972792 0.01027208],[0.98972792 0.01027208],"[-0.125       0.234375    0.4296875   0.375       0.2734375   0.46875
  0.95        0.29296875  0.48828125  0.39453125  1.         -0.1       ]",0.6727692496936549,0,0
214,230,2024-09-17 12:33:48.297566976,TASK_BEGIN,8,-0.1267936719608035,0.4678478509655028,-8.695254603312812,2.5318246084525686,1.5558790811589134,0.2515446329985747,5.387668304502291,-5.086055873539317,0,2024-09-17 12:33:49.687972168,1726576429.6879723,2024-09-17 12:33:49.687972352,3,0.0,0.1,8.163312619720422,[0.98972792 0.01027208],[0.98972792 0.01027208],"[-0.125       0.234375    0.4296875   0.375       0.2734375   0.46875
  0.95        0.29296875  0.48828125  0.39453125  1.         -0.1       ]",0.6727692496936549,0,0
215,231,2024-09-17 12:33:49.236903936,TASK_BEGIN,8,-0.0887618616834129,0.4557139101699144,-8.580753031175405,2.5222136562684887,1.6590281828524418,0.2559847570808573,6.662334344766326,-5.339397766508921,0,2024-09-17 12:33:50.601015137,1726576430.6010158,2024-09-17 12:33:50.601015808,3,0.0,0.1,9.349349105674975,[0.96180106 0.03819894],[0.96180106 0.03819894],"[0.125      0.2734375  0.46875    0.7        0.29296875 0.48828125
 1.         0.         1.         0.3828125  0.7        0.        ]",0.627205114346715,0,0
216,232,2024-09-17 12:33:49.296467968,TASK_BEGIN,8,-0.0427486018311164,0.4469985752566675,-8.422569451392206,2.501277075590084,1.755736957541957,0.2631641231328046,8.115257625629724,-5.604970221326257,0,2024-09-17 12:33:50.601015137,1726576430.6010158,2024-09-17 12:33:50.601015808,3,0.0,0.1,9.349349105674975,[0.96180106 0.03819894],[0.96180106 0.03819894],"[0.125      0.2734375  0.46875    0.7        0.29296875 0.48828125
 1.         0.         1.         0.3828125  0.7        0.        ]",0.627205114346715,0,0
217,233,2024-09-17 12:33:49.373715968,TASK_BEGIN,8,0.0111452031158989,0.4419979118369284,-8.215609047849204,2.4692183437674657,1.838928712668256,0.2738370466943176,9.674488003441704,-5.870987901926379,0,2024-09-17 12:33:50.601015137,1726576430.6010158,2024-09-17 12:33:50.601015808,3,0.0,0.1,9.349349105674975,[0.96180106 0.03819894],[0.96180106 0.03819894],"[0.125      0.2734375  0.46875    0.7        0.29296875 0.48828125
 1.         0.         1.         0.3828125  0.7        0.        ]",0.627205114346715,0,0
218,234,2024-09-17 12:33:49.436646912,TASK_BEGIN,8,0.0726917048423695,0.4407573291463497,-7.9581897129930175,2.4275707220864184,1.9015458939617569,0.2885439588464064,11.27046182900976,-6.12710075436147,0,2024-09-17 12:33:50.601015137,1726576430.6010158,2024-09-17 12:33:50.601015808,3,0.0,0.1,9.349349105674975,[0.96180106 0.03819894],[0.96180106 0.03819894],"[0.125      0.2734375  0.46875    0.7        0.29296875 0.48828125
 1.         0.         1.         0.3828125  0.7        0.        ]",0.627205114346715,0,0
219,235,2024-09-17 12:33:49.499133184,TASK_BEGIN,8,0.1413610713883852,0.4430880158275468,-7.652662390020444,2.3790418256307557,1.9380878847245813,0.3074280458824983,12.839434104525612,-6.364844198381164,0,2024-09-17 12:33:50.601015137,1726576430.6010158,2024-09-17 12:33:50.601015808,3,0.0,0.1,9.349349105674975,[0.96180106 0.03819894],[0.96180106 0.03819894],"[0.125      0.2734375  0.46875    0.7        0.29296875 0.48828125
 1.         0.         1.         0.3828125  0.7        0.        ]",0.627205114346715,0,0
220,236,2024-09-17 12:33:49.582468096,TASK_BEGIN,8,0.2162303570406605,0.4485989000743471,-7.305262925059467,2.32708313222714,1.945680150959348,0.3301521858872802,14.325270958211767,-6.577767329165157,0,2024-09-17 12:33:50.601015137,1726576430.6010158,2024-09-17 12:33:50.601015808,3,0.0,0.1,9.349349105674975,[0.96180106 0.03819894],[0.96180106 0.03819894],"[0.125      0.2734375  0.46875    0.7        0.29296875 0.48828125
 1.         0.         1.         0.3828125  0.7        0.        ]",0.627205114346715,0,0
221,237,2024-09-17 12:33:49.650321152,TASK_BEGIN,8,0.2959773328013105,0.456731785936968,-6.925444120722856,2.2753358204248446,1.9244264993182576,0.3559249760298573,15.680270338867684,-6.761199213303236,0,2024-09-17 12:33:50.601015137,1726576430.6010158,2024-09-17 12:33:50.601015808,3,0.0,0.1,9.349349105674975,[0.96180106 0.03819894],[0.96180106 0.03819894],"[0.125      0.2734375  0.46875    0.7        0.29296875 0.48828125
 1.         0.         1.         0.3828125  0.7        0.        ]",0.627205114346715,0,0
222,238,2024-09-17 12:33:50.567564032,TASK_BEGIN,8,0.3789494433394199,0.4667989623170472,-6.525182539228894,2.2271497457594425,1.8770067835863844,0.3836222849544034,16.86609078530282,-6.911919599783303,0,2024-09-17 12:33:51.513622070,1726576431.5136225,2024-09-17 12:33:51.513622528,3,0.0,0.1,9.45702287478595,[0.99518887 0.00481113],[0.99518887 0.00481113],"[-0.125       0.2734375   0.46875     0.45        0.29296875  0.48828125
  0.95        0.2734375   0.46875     0.3984375   0.8        -0.03333333]",0.5142375517830596,0,0
223,239,2024-09-17 12:33:50.635333888,TASK_BEGIN,8,0.4633212214947816,0.4780276156190774,-6.118607717009359,2.1852831204596503,1.8077847767083892,0.4119623758526231,17.855079337706922,-7.028056343176269,0,2024-09-17 12:33:51.513622070,1726576431.5136225,2024-09-17 12:33:51.513622528,3,0.0,0.1,9.45702287478595,[0.99518887 0.00481113],[0.99518887 0.00481113],"[-0.125       0.2734375   0.46875     0.45        0.29296875  0.48828125
  0.95        0.2734375   0.46875     0.3984375   0.8        -0.03333333]",0.5142375517830596,0,0
224,240,2024-09-17 12:33:50.693792000,TASK_BEGIN,8,0.5473244571748621,0.4896103209362326,-5.721774898302238,2.151737104687661,1.721870819362859,0.4396648333032069,18.63096668691409,-7.109190991010925,0,2024-09-17 12:33:51.513622070,1726576431.5136225,2024-09-17 12:33:51.513622528,3,0.0,0.1,9.45702287478595,[0.99518887 0.00481113],[0.99518887 0.00481113],"[-0.125       0.2734375   0.46875     0.45        0.29296875  0.48828125
  0.95        0.2734375   0.46875     0.3984375   0.8        -0.03333333]",0.5142375517830596,0,0
225,241,2024-09-17 12:33:50.757414912,TASK_BEGIN,8,0.6294780742300303,0.5007542811382739,-5.351911831495333,2.1275884875387163,1.624383015098374,0.4655531495959548,19.18767389525453,-7.156360467063012,0,2024-09-17 12:33:51.564621094,1726576431.564622,2024-09-17 12:33:51.564621824,3,0.0,0.1,9.462452646038091,[0.92635488 0.07364512],[0.92635488 0.07364512],"[-0.13888889  0.2734375   0.46875     0.43611111  0.29296875  0.48828125
  0.93611111  0.2734375   0.46875     0.41601562  0.9        -0.06666667]",0.4281743484955026,0,0
226,242,2024-09-17 12:33:50.838807040,TASK_BEGIN,8,0.7087314065255236,0.5107226138509238,-5.025788856814402,2.112740233231559,1.5198870829324471,0.4886099160358712,19.526499201666685,-7.171795026659648,0,2024-09-17 12:33:52.429665039,1726576432.429665,2024-09-17 12:33:52.429665024,3,0.0,0.1,9.54687811685626,[9.99999285e-01 7.14988210e-07],[9.99999285e-01 7.14988210e-07],"[0.2        0.29296875 0.48828125 0.7        0.2734375  0.46875
 1.         0.         1.         0.36328125 0.5        0.06666667]",0.3543955097145489,0,0
227,243,2024-09-17 12:33:50.895563008,TASK_BEGIN,8,0.7844473105866914,0.5188721099161728,-4.757737008878151,2.1056694525039004,1.4120145086818328,0.5079992378851783,19.65340443864112,-7.158540885261592,0,2024-09-17 12:33:52.479648193,1726576432.4796488,2024-09-17 12:33:52.479648768,3,0.0,0.1,9.551409335687696,[9.99901465e-01 9.85351703e-05],[9.99901465e-01 9.85351703e-05],"[0.18611111 0.29296875 0.48828125 0.68611111 0.2734375  0.46875
