,Unnamed: 0,time,MARKER,pid,L_O_DSI,L_D_DSI,L_O_DSphi,L_D_DSphi,R_O_DSI,R_D_DSI,R_O_DSphi,R_D_DSphi,trial_id,dateTimestamps,floatTimestamps,timestamps,episode,actions,rewards,discounted_rewards,chosen_actions,optimal_actions,states,continuous_optimal,binary_optimal,discrete_optimal
1,1,2024-09-17 12:38:15.331291136,TASK_BEGIN,8,-0.4730981422664891,0.2139294784205609,6.059765505874441,-0.5849987890632561,-1.373365560363656,0.352399992582282,9.50017544858087,1.9965105019132436,1,2024-09-17 12:38:17.096427002,1726576697.096427,2024-09-17 12:38:17.096427008,0,0.0,-3.0515141994114003,-63.87552124937193,[0.44919147 0.14351546 0.30534664 0.10194643],[0.44919147 0.14351546 0.30534664 0.10194643],"[-0.04948711  0.47207284 -0.09883357 -0.8491381  -0.11012267 -0.09093246
  0.          0.          0.6        -0.64948714 -6.8246455 ]",0.17648035542736357,0,0
2,2,2024-09-17 12:38:15.412529152,TASK_BEGIN,8,-0.5406383438892409,0.2132159991139371,5.353957730643831,-0.2323614739516581,-1.5209116533357434,0.3973436567137217,12.560805947095387,1.9613918198335252,1,2024-09-17 12:38:17.096427002,1726576697.096427,2024-09-17 12:38:17.096427008,0,0.0,-3.0515141994114003,-63.87552124937193,[0.44919147 0.14351546 0.30534664 0.10194643],[0.44919147 0.14351546 0.30534664 0.10194643],"[-0.04948711  0.47207284 -0.09883357 -0.8491381  -0.11012267 -0.09093246
  0.          0.          0.6        -0.64948714 -6.8246455 ]",0.17648035542736357,0,0
3,3,2024-09-17 12:38:15.470178048,TASK_BEGIN,8,-0.6002930973920189,0.2122774282178195,4.689816485351712,0.1010720475376531,-1.6503306550043102,0.4379647489699445,15.48691319005476,1.9003702498092487,1,2024-09-17 12:38:17.286340088,1726576697.28634,2024-09-17 12:38:17.286340096,0,0.0,-2.984929422757858,-70.59369858467885,[0.45337011 0.10351368 0.34093954 0.10217666],[0.45337011 0.10351368 0.34093954 0.10217666],"[-0.05491757  0.34071982 -0.04116024 -0.9354613  -0.1494373  -0.08056381
  0.          0.          0.6        -0.6549176  -5.7738214 ]",0.19241717600856284,0,0
4,4,2024-09-17 12:38:15.547639808,TASK_BEGIN,8,-0.6491556698245392,0.2113016540787455,4.0822913391817925,0.4086299058886556,-1.7583838453468403,0.4737034527071749,18.222059630685244,1.802424959052291,1,2024-09-17 12:38:17.327326172,1726576697.327326,2024-09-17 12:38:17.327325952,0,0.0,-3.0058477923531086,-63.67298829353661,[0.48493832 0.12298073 0.29149388 0.10058706],[0.48493832 0.12298073 0.29149388 0.10058706],"[-0.05539529  0.3140161  -0.02821185 -0.8679573  -0.15801594 -0.08578619
  0.          0.          0.6        -0.65539527 -5.5601916 ]",0.22453299054048728,0,0
5,5,2024-09-17 12:38:15.615926016,TASK_BEGIN,8,-0.685362848748704,0.2106055622404528,3.5420723254756745,0.6855758946692974,-1.844164780248588,0.5045356135765231,20.714868117353703,1.6616216776881376,1,2024-09-17 12:38:17.411324951,1726576697.411325,2024-09-17 12:38:17.411324928,0,0.0,-3.0462901963472007,-60.67084559361495,[0.50809059 0.12062134 0.2695239  0.10176417],[0.50809059 0.12062134 0.2695239  0.10176417],"[-0.05623452  0.25982046 -0.01923656 -0.8421519  -0.17605041 -0.09455883
  0.          0.          0.6        -0.6562345  -5.1266265 ]",0.2572683734406156,0,0
6,6,2024-09-17 12:38:15.683720960,TASK_BEGIN,8,-0.7080598189725469,0.2105720731577486,3.0760433226467883,0.9289894712716652,-1.9088382399947927,0.5308571661202177,22.918090601267785,1.4782181549700677,1,2024-09-17 12:38:17.411324951,1726576697.411325,2024-09-17 12:38:17.411324928,0,0.0,-3.0462901963472007,-60.67084559361495,[0.50809059 0.12062134 0.2695239  0.10176417],[0.50809059 0.12062134 0.2695239  0.10176417],"[-0.05623452  0.25982046 -0.01923656 -0.8421519  -0.17605041 -0.09455883
  0.          0.          0.6        -0.6562345  -5.1266265 ]",0.2572683734406156,0,0
7,7,2024-09-17 12:38:15.751525888,TASK_BEGIN,8,-0.7172715124846388,0.2115625803039487,2.688132158706716,1.1374941096297364,-1.9551199731927007,0.5532783426408899,24.78866086546579,1.2589206351161146,1,2024-09-17 12:38:17.538325928,1726576697.5383267,2024-09-17 12:38:17.538326784,0,0.0,-2.903647105663282,-55.32536527467623,[0.53399814 0.1001227  0.24186626 0.12401291],[0.53399814 0.1001227  0.24186626 0.12401291],"[-0.05545632  0.18157983  0.08175363 -0.78920037 -0.2025676  -0.07923039
  0.          0.          0.6        -0.6554563  -4.5007014 ]",0.291897140366176,0,0
8,8,2024-09-17 12:38:16.691596800,TASK_BEGIN,8,-0.7137530383245797,0.2138395029581987,2.3799490696663645,1.3109656920114003,-1.9867766344209592,0.5724005000516718,26.289483422808612,1.0161789121382816,1,2024-09-17 12:38:18.481920898,1726576698.4819217,2024-09-17 12:38:18.481921792,0,2.0,11.214176136181845,-37.86468284917886,[0.02839201 0.01830387 0.95061527 0.00268885],[0.02839201 0.01830387 0.95061527 0.00268885],"[ 0.06925742 -0.19883806  0.80330217 -0.12451673 -0.3604586   0.6303433
  1.          0.          0.6        -0.5307426  -1.4573585 ]",1.0417435660020407,0,0
9,9,2024-09-17 12:38:16.753678080,TASK_BEGIN,8,-0.6988351273819734,0.2175287145533442,2.1508583788073534,1.450294593180312,-2.0082910735385067,0.5886626852198102,27.39212487975687,0.7668041778000861,1,2024-09-17 12:38:18.481920898,1726576698.4819217,2024-09-17 12:38:18.481921792,0,2.0,11.214176136181845,-37.86468284917886,[0.02839201 0.01830387 0.95061527 0.00268885],[0.02839201 0.01830387 0.95061527 0.00268885],"[ 0.06925742 -0.19883806  0.80330217 -0.12451673 -0.3604586   0.6303433
  1.          0.          0.6        -0.5307426  -1.4573585 ]",1.0417435660020407,0,0
10,10,2024-09-17 12:38:16.815736064,TASK_BEGIN,8,-0.6742695544295441,0.2226371138589155,1.9976487410788215,1.557236357708891,-2.02463056402843,0.6023158247890829,28.07957680205643,0.5301178101518769,1,2024-09-17 12:38:18.481920898,1726576698.4819217,2024-09-17 12:38:18.481921792,0,2.0,11.214176136181845,-37.86468284917886,[0.02839201 0.01830387 0.95061527 0.00268885],[0.02839201 0.01830387 0.95061527 0.00268885],"[ 0.06925742 -0.19883806  0.80330217 -0.12451673 -0.3604586   0.6303433
  1.          0.          0.6        -0.5307426  -1.4573585 ]",1.0417435660020407,0,0
11,11,2024-09-17 12:38:16.893402112,TASK_BEGIN,8,-0.6420951043047406,0.2291108750122027,1.9143000127104477,1.6343109233475994,-2.041004580347848,0.6135222070517039,28.34905161330895,0.325629240585248,1,2024-09-17 12:38:18.481920898,1726576698.4819217,2024-09-17 12:38:18.481921792,0,2.0,11.214176136181845,-37.86468284917886,[0.02839201 0.01830387 0.95061527 0.00268885],[0.02839201 0.01830387 0.95061527 0.00268885],"[ 0.06925742 -0.19883806  0.80330217 -0.12451673 -0.3604586   0.6303433
  1.          0.          0.6        -0.5307426  -1.4573585 ]",1.0417435660020407,0,0
12,12,2024-09-17 12:38:16.965986048,TASK_BEGIN,8,-0.6045524011282932,0.2368954710860331,1.8922201254647792,1.6846747620287172,-2.062603990674522,0.6225231006711276,28.214639512094465,0.1704765019332938,1,2024-09-17 12:38:18.481920898,1726576698.4819217,2024-09-17 12:38:18.481921792,0,2.0,11.214176136181845,-37.86468284917886,[0.02839201 0.01830387 0.95061527 0.00268885],[0.02839201 0.01830387 0.95061527 0.00268885],"[ 0.06925742 -0.19883806  0.80330217 -0.12451673 -0.3604586   0.6303433
  1.          0.          0.6        -0.5307426  -1.4573585 ]",1.0417435660020407,0,0
13,13,2024-09-17 12:38:17.033353984,TASK_BEGIN,8,-0.5640412302406644,0.2459662596774334,1.9209040396714856,1.711943316440828,-2.094370426575401,0.6297938696286499,27.708983279922798,0.0772439289347069,1,2024-09-17 12:38:18.481920898,1726576698.4819217,2024-09-17 12:38:18.481921792,0,2.0,11.214176136181845,-37.86468284917886,[0.02839201 0.01830387 0.95061527 0.00268885],[0.02839201 0.01830387 0.95061527 0.00268885],"[ 0.06925742 -0.19883806  0.80330217 -0.12451673 -0.3604586   0.6303433
  1.          0.          0.6        -0.5307426  -1.4573585 ]",1.0417435660020407,0,0
14,14,2024-09-17 12:38:17.101594112,TASK_BEGIN,8,-0.5230374436875684,0.2563250612825158,1.98860483834847,1.720022514516801,-2.140757466393268,0.6361136752511461,26.88299615493859,0.0526960657679915,1,2024-09-17 12:38:18.481920898,1726576698.4819217,2024-09-17 12:38:18.481921792,0,2.0,11.214176136181845,-37.86468284917886,[0.02839201 0.01830387 0.95061527 0.00268885],[0.02839201 0.01830387 0.95061527 0.00268885],"[ 0.06925742 -0.19883806  0.80330217 -0.12451673 -0.3604586   0.6303433
  1.          0.          0.6        -0.5307426  -1.4573585 ]",1.0417435660020407,0,0
15,15,2024-09-17 12:38:18.039958016,TASK_BEGIN,8,-0.4838863059972606,0.2679752822829697,2.082698943006581,1.7130221604217035,-2.205359756824691,0.6425110012434713,25.803073524439085,0.0975091353413372,1,2024-09-17 12:38:19.339651123,1726576699.3396513,2024-09-17 12:38:19.339651328,0,1.0,12.295362122225688,-2.1359510272418536,[3.52142955e-02 9.39594786e-01 2.51398475e-02 5.10705547e-05],[3.52142955e-02 9.39594786e-01 2.51398475e-02 5.10705547e-05],"[ 0.29250097 -0.29214394  0.565505   -0.24566016 -0.45674708 -0.5333248
  1.          1.          0.6        -0.30749902 -0.7109114 ]",1.1262088122096032,0,0
16,16,2024-09-17 12:38:18.112611072,TASK_BEGIN,8,-0.4485302606244273,0.2808949697746356,2.1898789622862656,1.6952364481718416,-2.290371362533148,0.6501032070665123,24.54578448037252,0.2067487185782333,1,2024-09-17 12:38:19.339651123,1726576699.3396513,2024-09-17 12:38:19.339651328,0,1.0,12.295362122225688,-2.1359510272418536,[3.52142955e-02 9.39594786e-01 2.51398475e-02 5.10705547e-05],[3.52142955e-02 9.39594786e-01 2.51398475e-02 5.10705547e-05],"[ 0.29250097 -0.29214394  0.565505   -0.24566016 -0.45674708 -0.5333248
  1.          1.          0.6        -0.30749902 -0.7109114 ]",1.1262088122096032,0,0
17,17,2024-09-17 12:38:18.180071168,TASK_BEGIN,8,-0.4183335994087932,0.2950266391284452,2.296548724213776,1.671090176957015,-2.396037205064121,0.6598971673183205,23.19058140793745,0.3708303708415075,1,2024-09-17 12:38:19.339651123,1726576699.3396513,2024-09-17 12:38:19.339651328,0,1.0,12.295362122225688,-2.1359510272418536,[3.52142955e-02 9.39594786e-01 2.51398475e-02 5.10705547e-05],[3.52142955e-02 9.39594786e-01 2.51398475e-02 5.10705547e-05],"[ 0.29250097 -0.29214394  0.565505   -0.24566016 -0.45674708 -0.5333248
  1.          1.          0.6        -0.30749902 -0.7109114 ]",1.1262088122096032,0,0
18,18,2024-09-17 12:38:18.241629952,TASK_BEGIN,8,-0.3940819011169958,0.3102890612897551,2.389635700892472,1.6449721108255269,-2.520350828589322,0.6726202469684566,21.81188977282086,0.5767668237259089,1,2024-09-17 12:38:19.339651123,1726576699.3396513,2024-09-17 12:38:19.339651328,0,1.0,12.295362122225688,-2.1359510272418536,[3.52142955e-02 9.39594786e-01 2.51398475e-02 5.10705547e-05],[3.52142955e-02 9.39594786e-01 2.51398475e-02 5.10705547e-05],"[ 0.29250097 -0.29214394  0.565505   -0.24566016 -0.45674708 -0.5333248
  1.          1.          0.6        -0.30749902 -0.7109114 ]",1.1262088122096032,0,0
19,19,2024-09-17 12:38:18.304118016,TASK_BEGIN,8,-0.3760850912570629,0.3265987117938701,2.457793190918921,1.62096300672662,-2.659101394127336,0.6886094590244978,20.47257407883516,0.8094930659966463,1,2024-09-17 12:38:19.381650879,1726576699.3816512,2024-09-17 12:38:19.381651200,0,1.0,0.1915358807055918,-1.1517594728363947,[0.44016198 0.54139196 0.01519772 0.00324835],[0.44016198 0.54139196 0.01519772 0.00324835],"[ 0.300287   -0.2950768   0.581975   -0.05245831 -0.48279423 -0.17105259
  1.          1.          0.6        -0.299713   -0.6874486 ]",0.5038178141822569,0,0
20,20,2024-09-17 12:38:18.383770112,TASK_BEGIN,8,-0.3642670025029973,0.3438791753780371,2.4928152116779225,1.602517318787872,-2.806162439073506,0.7077459439801072,19.220118928004798,1.0531470628700024,1,2024-09-17 12:38:19.486655029,1726576699.4866552,2024-09-17 12:38:19.486655232,0,1.0,0.780072541432977,-17.66003851009215,[2.95864585e-01 6.99175985e-01 2.99963246e-04 4.65946619e-03],[2.95864585e-01 6.99175985e-01 2.99963246e-04 4.65946619e-03],"[ 0.3195168  -0.29797107  0.534945   -0.07835156 -0.5025644  -0.03285135
  0.          0.          0.6        -0.2804832  -0.66429436]",0.4266464861572598,0,0
21,21,2024-09-17 12:38:18.443644928,TASK_BEGIN,8,-0.3581845523138728,0.3620418230922824,2.4908945022061624,1.5921777317194998,-2.9538950619198334,0.7294234005548403,18.085505470529483,1.2923446718862424,1,2024-09-17 12:38:19.738653809,1726576699.7386546,2024-09-17 12:38:19.738654720,0,0.0,1.1363131093067125,18.22144739319955,[0.49668328 0.41320939 0.00414108 0.08596625],[0.49668328 0.41320939 0.00414108 0.08596625],"[ 0.36024252 -0.33033794  0.4746582  -0.06300525 -0.43053737  0.21726675
  1.          1.          0.6        -0.23975748 -0.4053594 ]",0.4258272359206187,0,0
22,22,2024-09-17 12:38:19.368968960,TASK_BEGIN,8,-0.3570031714898919,0.3809431345211715,2.4532122881473444,1.5914125225603537,-3.0936701143901733,0.752572257705326,17.084352665626454,1.5134124882328568,1,2024-09-17 12:38:20.431010010,1726576700.4310102,2024-09-17 12:38:20.431010304,0,1.0,1.5672135234269626,59.98518892443073,[0.40532174 0.41021533 0.05853844 0.12592449],[0.40532174 0.41021533 0.05853844 0.12592449],"[ 0.4458491  -0.35970008  0.23769669 -0.03865617 -0.14036922  0.10801102
  1.          1.          0.6        -0.1541509  -0.17046227]",0.16360145827556044,0,0
23,23,2024-09-17 12:38:19.430288128,TASK_BEGIN,8,-0.3594829532714643,0.4003415140295676,2.3856441117376948,1.600612645287279,-3.2165516993957044,0.7757675167832014,16.22025323029788,1.705303763559728,1,2024-09-17 12:38:20.494010010,1726576700.4940102,2024-09-17 12:38:20.494010112,0,1.0,1.3641353214924032,60.28318104708815,[0.39867076 0.41577146 0.06095464 0.12460315],[0.39867076 0.41577146 0.06095464 0.12460315],"[ 0.4509859  -0.36157763  0.2341671  -0.03887035 -0.12407088  0.1066803
  1.          1.          0.6        -0.14901409 -0.1554419 ]",0.15860663573252345,0,0
24,24,2024-09-17 12:38:19.504594944,TASK_BEGIN,8,-0.3640046405513202,0.4198701359325166,2.2979066863348425,1.6191798542115814,-3.3140407165304864,0.7974012340812326,15.490088534038978,1.8599195261593784,1,2024-09-17 12:38:20.557010010,1726576700.557011,2024-09-17 12:38:20.557010944,0,1.0,1.2450575282267857,61.65559828182142,[0.39691483 0.40372245 0.06842417 0.13093856],[0.39691483 0.40372245 0.06842417 0.13093856],"[ 0.4557724  -0.3633576   0.21843989 -0.03696296 -0.10884602  0.09978355
  1.          1.          0.6        -0.1442276  -0.1412021 ]",0.13928956023807007,0,0
25,25,2024-09-17 12:38:19.572371968,TASK_BEGIN,8,-0.3686532219779745,0.4390290723684586,2.202567874335185,1.6456227004912192,-3.37867285771068,0.8158570535921356,14.890088644814217,1.9718945885302128,1,2024-09-17 12:38:20.620010986,1726576700.6200116,2024-09-17 12:38:20.620011520,0,1.0,1.353897032555542,62.89146118724088,[0.39349892 0.39705443 0.07594991 0.13349674],[0.39349892 0.39705443 0.07594991 0.13349674],"[ 0.46033302 -0.36508113  0.20307472 -0.0349913  -0.09430122  0.0930255
  1.          1.          0.6        -0.13966697 -0.12741388]",0.12514937363526013,0,0
26,26,2024-09-17 12:38:19.624835840,TASK_BEGIN,8,-0.3713773694811758,0.4571977255814072,2.1140492549660137,1.677669547850405,-3.4043945598913594,0.829643849139554,14.420459948339667,2.038247194007958,1,2024-09-17 12:38:20.683039795,1726576700.683041,2024-09-17 12:38:20.683041024,0,1.0,1.4263060480637841,63.900644066930646,[0.39016737 0.3917303  0.08306129 0.13504105],[0.39016737 0.3917303  0.08306129 0.13504105],"[ 0.46458498 -0.3667124   0.18859945 -0.03304593 -0.08070467  0.08663981
  1.          1.          0.6        -0.13541502 -0.1143638 ]",0.11411889185827098,0,0
27,27,2024-09-17 12:38:19.707958016,TASK_BEGIN,8,-0.3702156332902155,0.4736733105341316,2.047602507747124,1.7124373227361716,-3.386842112733638,0.8375043564198725,14.086977594875927,2.05824770568275,1,2024-09-17 12:38:21.266240967,1726576701.2662413,2024-09-17 12:38:21.266241280,0,0.0,-9.448704489201859,56.41441892917938,[0.39240013 0.31053012 0.05787471 0.23919504],[0.39240013 0.31053012 0.05787471 0.23919504],"[ 4.90902901e-01 -3.76943827e-01  6.61325902e-02  1.13065015e-08
  1.29182800e-03  9.18246990e-09  1.00000000e+00  0.00000000e+00
  6.00000024e-01 -1.09097101e-01 -3.25123183e-02]",0.11141625560229843,0,0
28,28,2024-09-17 12:38:19.763152128,TASK_BEGIN,8,-0.3635511965375299,0.4877380879871541,2.018144369574998,1.746645857950969,-3.323651704425861,0.8385350086667184,13.899855960209184,2.033511985445767,1,2024-09-17 12:38:21.266240967,1726576701.2662413,2024-09-17 12:38:21.266241280,0,0.0,-9.448704489201859,56.41441892917938,[0.39240013 0.31053012 0.05787471 0.23919504],[0.39240013 0.31053012 0.05787471 0.23919504],"[ 4.90902901e-01 -3.76943827e-01  6.61325902e-02  1.13065015e-08
  1.29182800e-03  9.18246990e-09  1.00000000e+00  0.00000000e+00
  6.00000024e-01 -1.09097101e-01 -3.25123183e-02]",0.11141625560229843,0,0
29,29,2024-09-17 12:38:20.704705024,TASK_BEGIN,8,-0.3503532019143618,0.4987380163279893,2.038720969444781,1.7768689744233592,-3.214745766850476,0.8323033032745063,13.871451250425087,1.968088285712104,1,2024-09-17 12:38:21.938251952,1726576701.938252,2024-09-17 12:38:21.938252032,0,0.0,0.5527542336673861,29.06286882534801,[0.42592431 0.40963554 0.06825618 0.09618397],[0.42592431 0.40963554 0.06825618 0.09618397],"[ 5.1566106e-01 -3.7694383e-01  9.9874280e-02 -9.1568522e-09
  1.2909850e-03 -3.2073957e-09  0.0000000e+00  0.0000000e+00
  6.0000002e-01 -8.4338918e-02 -3.2512318e-02]",0.20047014272674996,0,0
30,30,2024-09-17 12:38:20.782321920,TASK_BEGIN,8,-0.3303589601846787,0.5061393165017011,2.1186152796179423,1.7998478553621344,-3.062438630642101,0.818903767475213,14.01383538503233,1.868356602341693,1,2024-09-17 12:38:21.938251952,1726576701.938252,2024-09-17 12:38:21.938252032,0,0.0,0.5527542336673861,29.06286882534801,[0.42592431 0.40963554 0.06825618 0.09618397],[0.42592431 0.40963554 0.06825618 0.09618397],"[ 5.1566106e-01 -3.7694383e-01  9.9874280e-02 -9.1568522e-09
  1.2909850e-03 -3.2073957e-09  0.0000000e+00  0.0000000e+00
  6.0000002e-01 -8.4338918e-02 -3.2512318e-02]",0.20047014272674996,0,0
31,31,2024-09-17 12:38:20.854337024,TASK_BEGIN,8,-0.3041399980063594,0.5095453115381197,2.261533673063925,1.8128795568284763,-2.871303417752689,0.7989254234140479,14.336056736394596,1.7427216477167669,1,2024-09-17 12:38:21.938251952,1726576701.938252,2024-09-17 12:38:21.938252032,0,0.0,0.5527542336673861,29.06286882534801,[0.42592431 0.40963554 0.06825618 0.09618397],[0.42592431 0.40963554 0.06825618 0.09618397],"[ 5.1566106e-01 -3.7694383e-01  9.9874280e-02 -9.1568522e-09
  1.2909850e-03 -3.2073957e-09  0.0000000e+00  0.0000000e+00
  6.0000002e-01 -8.4338918e-02 -3.2512318e-02]",0.20047014272674996,0,0
32,32,2024-09-17 12:38:20.921740032,TASK_BEGIN,8,-0.273015063182362,0.5086906493204134,2.4644399738426137,1.8142191663445493,-2.647892135718207,0.7733640565869028,14.840509821250851,1.6011822626618455,1,2024-09-17 12:38:21.980252930,1726576701.9802532,2024-09-17 12:38:21.980253184,0,0.0,0.5515692798341121,29.582719773440253,[0.43011352 0.39664746 0.07174002 0.101499  ],[0.43011352 0.39664746 0.07174002 0.101499  ],"[ 5.1693505e-01 -3.7694383e-01  8.9013115e-02 -1.5895156e-10
  1.2909303e-03  1.0131578e-09  0.0000000e+00  0.0000000e+00
  6.0000002e-01 -8.3064966e-02 -3.2512318e-02]",0.18920793583237425,0,0
33,33,2024-09-17 12:38:20.983366912,TASK_BEGIN,8,-0.2388411366093327,0.5034461574654827,2.7174127201116787,1.803353443145541,-2.4004648208603427,0.7435313119779802,15.518804424431654,1.4548257358514054,1,2024-09-17 12:38:22.043281982,1726576702.043282,2024-09-17 12:38:22.043281920,0,0.0,0.5498729889433207,30.338910089852416,[0.43524473 0.37876219 0.07693142 0.10906166],[0.43524473 0.37876219 0.07693142 0.10906166],"[ 5.1856327e-01 -3.7694383e-01  7.2721362e-02  8.3768334e-09
  1.2908633e-03  1.2385358e-09  0.0000000e+00  0.0000000e+00
  6.0000002e-01 -8.1436731e-02 -3.2512318e-02]",0.17460919708599418,0,0
34,34,2024-09-17 12:38:21.045454080,TASK_BEGIN,8,-0.2037764696065602,0.4938482160519222,3.004473808421108,1.7810515059786267,-2.1388127620796937,0.7109842643245428,16.348910292947266,1.3151254025519816,1,2024-09-17 12:38:22.106281982,1726576702.106283,2024-09-17 12:38:22.106283008,0,0.0,0.5482604217379361,31.067774497484685,[0.43960793 0.36100242 0.08242425 0.1169654 ],[0.43960793 0.36100242 0.08242425 0.1169654 ],"[ 5.1985198e-01 -3.7694383e-01  5.6429613e-02  4.6595408e-09
  1.2907893e-03  1.3322354e-09  0.0000000e+00  0.0000000e+00
  6.0000002e-01 -8.0147997e-02 -3.2512318e-02]",0.16022871476464934,0,0
35,35,2024-09-17 12:38:21.125495808,TASK_BEGIN,8,-0.1700946000763858,0.4801309577374275,3.3049848109702427,1.7492511562484916,-1.8740876471273729,0.6774571900825923,17.29533584575261,1.192873919316061,1,2024-09-17 12:38:22.191255127,1726576702.1912553,2024-09-17 12:38:22.191255296,0,0.0,0.5462089004094395,31.998841541067822,[0.44440165 0.33755459 0.0900827  0.12796106],[0.44440165 0.33755459 0.0900827  0.12796106],"[ 5.2104235e-01 -3.7694383e-01  3.4707297e-02 -6.2056138e-10
  1.2906961e-03  2.0814435e-10  0.0000000e+00  0.0000000e+00
  6.0000002e-01 -7.8957655e-02 -3.2512318e-02]",0.14284317194424298,0,0
36,43,2024-09-17 12:38:23.392624896,TASK_BEGIN,8,-0.1478719424125646,0.2985036217791471,3.823175406749725,1.5238779495003132,-0.9875782686648568,0.5692064079122015,23.13407044136471,1.2540472854119398,1,2024-09-17 12:38:24.610051025,1726576704.6100512,2024-09-17 12:38:24.610051072,1,3.0,-1.9421719481849726,-23.62658772688929,[0.41492043 0.08975543 0.06776801 0.42755612],[0.41492043 0.08975543 0.06776801 0.42755612],"[ -0.01536163   0.96404886  -0.16396545  -0.34432572   0.04219957
   0.03859495   0.           0.           0.2         -0.21536162
 -10.597364  ]",0.2320687119082852,0,0
37,44,2024-09-17 12:38:23.454668032,TASK_BEGIN,8,-0.1819943446310312,0.279123007956796,3.573631056504829,1.523621436995004,-1.1219565181065956,0.5902140933063023,23.045445090776507,1.3438896986741404,1,2024-09-17 12:38:24.610051025,1726576704.6100512,2024-09-17 12:38:24.610051072,1,3.0,-1.9421719481849726,-23.62658772688929,[0.41492043 0.08975543 0.06776801 0.42755612],[0.41492043 0.08975543 0.06776801 0.42755612],"[ -0.01536163   0.96404886  -0.16396545  -0.34432572   0.04219957
   0.03859495   0.           0.           0.2         -0.21536162
 -10.597364  ]",0.2320687119082852,0,0
38,45,2024-09-17 12:38:23.531373056,TASK_BEGIN,8,-0.2222567316855871,0.2631381666046165,3.2967083494456646,1.5266756631904734,-1.3014288889812118,0.6185702189920115,22.73686105377795,1.4348090635973842,1,2024-09-17 12:38:24.610051025,1726576704.6100512,2024-09-17 12:38:24.610051072,1,3.0,-1.9421719481849726,-23.62658772688929,[0.41492043 0.08975543 0.06776801 0.42755612],[0.41492043 0.08975543 0.06776801 0.42755612],"[ -0.01536163   0.96404886  -0.16396545  -0.34432572   0.04219957
   0.03859495   0.           0.           0.2         -0.21536162
 -10.597364  ]",0.2320687119082852,0,0
39,46,2024-09-17 12:38:23.599206912,TASK_BEGIN,8,-0.267727670408507,0.2509990439702307,3.014939114727808,1.5307956493490948,-1.513842220996644,0.6528175640445433,22.23201043930623,1.5250483418956209,1,2024-09-17 12:38:24.652019043,1726576704.6520193,2024-09-17 12:38:24.652019200,1,3.0,-1.8386936049619271,-27.572364762152798,[0.41012671 0.09373468 0.07939758 0.41674103],[0.41012671 0.09373468 0.07939758 0.41674103],"[-1.75136719e-02  9.52100873e-01 -1.48981497e-01 -3.94816816e-01
  4.43208627e-02  3.84868681e-03  0.00000000e+00  0.00000000e+00
  2.00000003e-01 -2.17513666e-01 -1.05017805e+01]",0.2136043241948699,0,0
40,47,2024-09-17 12:38:23.666206976,TASK_BEGIN,8,-0.3174524308065187,0.2428870153597119,2.750792515288018,1.5336818893069897,-1.7451174064204085,0.6910514854734717,21.561219709467952,1.615406896573095,1,2024-09-17 12:38:24.715017090,1726576704.7150168,2024-09-17 12:38:24.715016960,1,0.0,-2.5313937671487423,-34.227668559712484,[0.4141381  0.11118517 0.10181929 0.37285743],[0.4141381  0.11118517 0.10181929 0.37285743],"[-2.0611683e-02  9.3119347e-01 -1.4898671e-01 -4.7164458e-01
  4.4898219e-02  3.8479320e-03  0.0000000e+00  0.0000000e+00
  2.0000000e-01 -2.2061168e-01 -1.0334521e+01]",0.16819603558218157,0,0
41,48,2024-09-17 12:38:23.728692992,TASK_BEGIN,8,-0.3704352291100365,0.2387117966644713,2.5249942764857267,1.533089164668198,-1.9806030420193148,0.7311105241209052,20.756684718507827,1.7090388868256765,1,2024-09-17 12:38:24.778018066,1726576704.7780182,2024-09-17 12:38:24.778018304,1,3.0,-2.1004198088283292,-40.33317182653629,[0.3741572  0.09488583 0.14733027 0.38362669],[0.3741572  0.09488583 0.14733027 0.38362669],"[ -0.02364039   0.90668786  -0.1369704   -0.54820526   0.04408929
  -0.02387653   0.           0.           0.2         -0.2236404
 -10.138476  ]",0.13339283968742835,0,0
42,49,2024-09-17 12:38:23.790205952,TASK_BEGIN,8,-0.4256847526178985,0.2381582135873995,2.354576567367003,1.5269670885462208,-2.20643723907936,0.7708058545117303,19.847343286766957,1.8108813716418872,1,2024-09-17 12:38:24.841018066,1726576704.8410187,2024-09-17 12:38:24.841018624,1,0.0,-2.4517968418609115,-46.400336425879836,[0.35128327 0.09904696 0.20842719 0.34124258],[0.35128327 0.09904696 0.20842719 0.34124258],"[-0.02652939  0.8785875  -0.13692224 -0.6250355   0.04051122 -0.02385497
  0.          0.          0.2        -0.22652939 -9.913673  ]",0.08471999459915472,0,0
43,50,2024-09-17 12:38:24.744265216,TASK_BEGIN,8,-0.4822849935722383,0.2407584052049606,2.2514677588801653,1.5135503676004267,-2.410650858508699,0.8081258244473586,18.8546033248806,1.9267445949255044,1,2024-09-17 12:38:26.217770020,1726576706.2177703,2024-09-17 12:38:26.217770240,1,0.0,-2.9486622884306257,-45.44013322755829,[0.50677751 0.20460359 0.19895417 0.08966473],[0.50677751 0.20460359 0.19895417 0.08966473],"[-0.07635983  0.1788379  -0.04341884 -0.72221917 -0.15106118 -0.07310959
  0.          0.          0.2        -0.27635983 -4.3156767 ]",0.23468881910366274,0,0
44,51,2024-09-17 12:38:24.812081920,TASK_BEGIN,8,-0.5394028236742917,0.2459570237798828,2.222094091010365,1.4913353607443582,-2.583948349273604,0.8413889819649388,17.79165049366708,2.0620603880884105,1,2024-09-17 12:38:26.217770020,1726576706.2177703,2024-09-17 12:38:26.217770240,1,0.0,-2.9486622884306257,-45.44013322755829,[0.50677751 0.20460359 0.19895417 0.08966473],[0.50677751 0.20460359 0.19895417 0.08966473],"[-0.07635983  0.1788379  -0.04341884 -0.72221917 -0.15106118 -0.07310959
  0.          0.          0.2        -0.27635983 -4.3156767 ]",0.23468881910366274,0,0
45,52,2024-09-17 12:38:24.870978048,TASK_BEGIN,8,-0.5961948954971319,0.2531542913423564,2.2678917573314967,1.4589764540885584,-2.7201607299903774,0.8693302019441582,16.667625906589798,2.2204008620207234,1,2024-09-17 12:38:26.217770020,1726576706.2177703,2024-09-17 12:38:26.217770240,1,0.0,-2.9486622884306257,-45.44013322755829,[0.50677751 0.20460359 0.19895417 0.08966473],[0.50677751 0.20460359 0.19895417 0.08966473],"[-0.07635983  0.1788379  -0.04341884 -0.72221917 -0.15106118 -0.07310959
  0.          0.          0.2        -0.27635983 -4.3156767 ]",0.23468881910366274,0,0
46,53,2024-09-17 12:38:24.933017088,TASK_BEGIN,8,-0.6516618632827657,0.2617319483652048,2.3863337817705603,1.4152138853623533,-2.816373838914608,0.891113134790682,15.494228979091153,2.402102463971473,1,2024-09-17 12:38:26.217770020,1726576706.2177703,2024-09-17 12:38:26.217770240,1,0.0,-2.9486622884306257,-45.44013322755829,[0.50677751 0.20460359 0.19895417 0.08966473],[0.50677751 0.20460359 0.19895417 0.08966473],"[-0.07635983  0.1788379  -0.04341884 -0.72221917 -0.15106118 -0.07310959
  0.          0.          0.2        -0.27635983 -4.3156767 ]",0.23468881910366274,0,0
47,54,2024-09-17 12:38:25.011251968,TASK_BEGIN,8,-0.7045406713531387,0.27107108845002,2.571976912906041,1.3589422415360874,-2.8728117490320884,0.9063021360505792,14.290530436432077,2.6034589126197374,1,2024-09-17 12:38:26.217770020,1726576706.2177703,2024-09-17 12:38:26.217770240,1,0.0,-2.9486622884306257,-45.44013322755829,[0.50677751 0.20460359 0.19895417 0.08966473],[0.50677751 0.20460359 0.19895417 0.08966473],"[-0.07635983  0.1788379  -0.04341884 -0.72221917 -0.15106118 -0.07310959
  0.          0.          0.2        -0.27635983 -4.3156767 ]",0.23468881910366274,0,0
48,55,2024-09-17 12:38:25.083331072,TASK_BEGIN,8,-0.753305061822846,0.2805683703423678,2.817066791463695,1.2894730232585536,-2.8925436692170003,0.914847453430568,13.083604420432996,2.8168516220180364,1,2024-09-17 12:38:26.217770020,1726576706.2177703,2024-09-17 12:38:26.217770240,1,0.0,-2.9486622884306257,-45.44013322755829,[0.50677751 0.20460359 0.19895417 0.08966473],[0.50677751 0.20460359 0.19895417 0.08966473],"[-0.07635983  0.1788379  -0.04341884 -0.72221917 -0.15106118 -0.07310959
  0.          0.          0.2        -0.27635983 -4.3156767 ]",0.23468881910366274,0,0
49,56,2024-09-17 12:38:25.135813888,TASK_BEGIN,8,-0.7962729230161623,0.2896596663241027,3.111480221255845,1.2069665106820286,-2.880992568060391,0.9170992985655448,11.905607535382345,3.0318088769200697,1,2024-09-17 12:38:26.217770020,1726576706.2177703,2024-09-17 12:38:26.217770240,1,0.0,-2.9486622884306257,-45.44013322755829,[0.50677751 0.20460359 0.19895417 0.08966473],[0.50677751 0.20460359 0.19895417 0.08966473],"[-0.07635983  0.1788379  -0.04341884 -0.72221917 -0.15106118 -0.07310959
  0.          0.          0.2        -0.27635983 -4.3156767 ]",0.23468881910366274,0,0
50,57,2024-09-17 12:38:26.088905984,TASK_BEGIN,8,-0.8317449002774014,0.2978579238750353,3.4422890634816232,1.1128751708528408,-2.845261154277208,0.9138159300998062,10.789688782080288,3.2365195181773068,1,2024-09-17 12:38:27.607799072,1726576707.607799,2024-09-17 12:38:27.607799040,1,2.0,5.444318842265528,-30.60589904558218,[0.2630957  0.11774449 0.56992959 0.04923022],[0.2630957  0.11774449 0.56992959 0.04923022],"[ 0.0776391  -0.31895685  0.746281   -0.13730489 -0.3525726   0.5328561
  1.          0.          0.2        -0.1223609  -0.3333186 ]",0.47061250146509853,0,0
51,58,2024-09-17 12:38:26.152146944,TASK_BEGIN,8,-0.8580884793545601,0.3047955517698281,3.793636356243719,1.0101456909834847,-2.793384573691253,0.9061178955578594,9.766934587078644,3.419226213736667,1,2024-09-17 12:38:27.607799072,1726576707.607799,2024-09-17 12:38:27.607799040,1,2.0,5.444318842265528,-30.60589904558218,[0.2630957  0.11774449 0.56992959 0.04923022],[0.2630957  0.11774449 0.56992959 0.04923022],"[ 0.0776391  -0.31895685  0.746281   -0.13730489 -0.3525726   0.5328561
  1.          0.          0.2        -0.1223609  -0.3333186 ]",0.47061250146509853,0,0
52,59,2024-09-17 12:38:26.218454016,TASK_BEGIN,8,-0.8737520562844662,0.3102496282602796,4.14739186292301,0.903047295495684,-2.733563051143297,0.895353988324148,8.864958303785878,3.5692786304021906,1,2024-09-17 12:38:28.035812012,1726576708.0358121,2024-09-17 12:38:28.035812096,1,0.0,4.662908601846425,21.141802934702845,[0.77637241 0.17832926 0.02734768 0.01795065],[0.77637241 0.17832926 0.02734768 0.01795065],"[ 1.9667737e-01 -3.6058378e-01  7.2246736e-01 -7.5988166e-02
 -1.9359065e-02 -2.0679501e-01  1.0000000e+00  1.0000000e+00
  2.0000000e-01 -3.3226332e-03 -3.0315982e-04]",0.7803747351605844,0,0
53,60,2024-09-17 12:38:26.293035776,TASK_BEGIN,8,-0.8772745795100592,0.3141410508002978,4.484468471541304,0.7967299398764859,-2.6733826771514115,0.8828828162625297,8.107298838039803,3.6779403797527146,1,2024-09-17 12:38:28.035812012,1726576708.0358121,2024-09-17 12:38:28.035812096,1,0.0,4.662908601846425,21.141802934702845,[0.77637241 0.17832926 0.02734768 0.01795065],[0.77637241 0.17832926 0.02734768 0.01795065],"[ 1.9667737e-01 -3.6058378e-01  7.2246736e-01 -7.5988166e-02
 -1.9359065e-02 -2.0679501e-01  1.0000000e+00  1.0000000e+00
  2.0000000e-01 -3.3226332e-03 -3.0315982e-04]",0.7803747351605844,0,0
54,61,2024-09-17 12:38:26.355521024,TASK_BEGIN,8,-0.8673636529443969,0.3165190641093666,4.786441251567307,0.6966906116402297,-2.619189426605701,0.8698404850231365,7.512906405417943,3.738987746683191,1,2024-09-17 12:38:28.035812012,1726576708.0358121,2024-09-17 12:38:28.035812096,1,0.0,4.662908601846425,21.141802934702845,[0.77637241 0.17832926 0.02734768 0.01795065],[0.77637241 0.17832926 0.02734768 0.01795065],"[ 1.9667737e-01 -3.6058378e-01  7.2246736e-01 -7.5988166e-02
 -1.9359065e-02 -2.0679501e-01  1.0000000e+00  1.0000000e+00
  2.0000000e-01 -3.3226332e-03 -3.0315982e-04]",0.7803747351605844,0,0
55,62,2024-09-17 12:38:26.433382144,TASK_BEGIN,8,-0.8430580553765009,0.3175461694028885,5.037222809933683,0.6082285142006574,-2.5758325268256947,0.8569854221487078,7.095976811887594,3.7489926191804743,1,2024-09-17 12:38:28.035812012,1726576708.0358121,2024-09-17 12:38:28.035812096,1,0.0,4.662908601846425,21.141802934702845,[0.77637241 0.17832926 0.02734768 0.01795065],[0.77637241 0.17832926 0.02734768 0.01795065],"[ 1.9667737e-01 -3.6058378e-01  7.2246736e-01 -7.5988166e-02
 -1.9359065e-02 -2.0679501e-01  1.0000000e+00  1.0000000e+00
  2.0000000e-01 -3.3226332e-03 -3.0315982e-04]",0.7803747351605844,0,0
56,63,2024-09-17 12:38:26.495203072,TASK_BEGIN,8,-0.803937578486383,0.3174883769237209,5.224516095140735,0.5359285625831862,-2.546735194325004,0.8446522347838191,6.866478756031559,3.707226614979228,1,2024-09-17 12:38:28.035812012,1726576708.0358121,2024-09-17 12:38:28.035812096,1,0.0,4.662908601846425,21.141802934702845,[0.77637241 0.17832926 0.02734768 0.01795065],[0.77637241 0.17832926 0.02734768 0.01795065],"[ 1.9667737e-01 -3.6058378e-01  7.2246736e-01 -7.5988166e-02
 -1.9359065e-02 -2.0679501e-01  1.0000000e+00  1.0000000e+00
  2.0000000e-01 -3.3226332e-03 -3.0315982e-04]",0.7803747351605844,0,0
57,64,2024-09-17 12:38:27.434992896,TASK_BEGIN,8,-0.7503153550032157,0.3167042467635154,5.340626074735175,0.4832908372801964,-2.5340492801719274,0.8327945753036394,6.83076805461062,3.615270999682101,1,2024-09-17 12:38:28.489343018,1726576708.489344,2024-09-17 12:38:28.489344000,1,1.0,1.9933934327956402,55.636666346198844,[0.2442664  0.65672507 0.03731001 0.06169852],[0.2442664  0.65672507 0.03731001 0.06169852],"[ 2.72287846e-01 -3.56216013e-01  2.97722518e-01  1.36676315e-08
 -1.86823052e-03 -1.83121451e-09  1.00000000e+00  1.00000000e+00
  2.00000003e-01  7.22878426e-02 -3.52453105e-02]",0.20859611333133202,0,0
58,65,2024-09-17 12:38:27.512329984,TASK_BEGIN,8,-0.6833508745655571,0.3156242847682258,5.382522737843201,0.45261795108029,-2.538684885313644,0.8210878588733586,6.991010561239653,3.476558806300208,1,2024-09-17 12:38:28.573500000,1726576708.5735009,2024-09-17 12:38:28.573500928,1,1.0,1.910530709902522,60.214567152650226,[0.28607531 0.58420503 0.04181483 0.08790483],[0.28607531 0.58420503 0.04181483 0.08790483],"[ 2.7931580e-01 -3.5621601e-01  2.2610945e-01  9.4434318e-09
 -1.8682030e-03 -1.0484712e-08  1.0000000e+00  1.0000000e+00
  2.0000000e-01  7.9315789e-02 -3.5245311e-02]",0.16406992029262707,0,0
59,66,2024-09-17 12:38:27.580200960,TASK_BEGIN,8,-0.605060843434749,0.3147196089249211,5.351694230857238,0.4450902929826167,-2.560095224426527,0.8090550318714685,7.342654489763916,3.2961123437892814,1,2024-09-17 12:38:28.635499023,1726576708.6354997,2024-09-17 12:38:28.635499776,1,1.0,1.7092672837262108,64.32833023149749,[0.3328659  0.50559846 0.04632768 0.11520796],[0.3328659  0.50559846 0.04632768 0.11520796],"[ 2.8314447e-01 -3.5621601e-01  1.6471119e-01 -1.5376378e-08
 -1.8681986e-03  2.9370914e-10  1.0000000e+00  1.0000000e+00
  2.0000000e-01  8.3144471e-02 -3.5245311e-02]",0.13337976438983595,0,0
60,67,2024-09-17 12:38:27.633825024,TASK_BEGIN,8,-0.5182248310126997,0.3144585235065558,5.25433496202993,0.4608393088499394,-2.5959055292938946,0.7961828727453854,7.870769975835152,3.080535889297481,1,2024-09-17 12:38:28.761596924,1726576708.7615972,2024-09-17 12:38:28.761597184,1,0.0,-9.477883226191505,58.95688596128065,[0.40194678 0.38157894 0.03891255 0.17756173],[0.40194678 0.38157894 0.03891255 0.17756173],"[ 2.8743657e-01 -3.5621619e-01  7.5984791e-02 -1.0745964e-08
 -1.8666976e-03 -7.1112858e-09  1.0000000e+00  0.0000000e+00
  2.0000000e-01  8.7436564e-02 -3.5243880e-02]",0.13242869668881738,0,0
61,68,2024-09-17 12:38:27.715768064,TASK_BEGIN,8,-0.4261749358294761,0.3152468555339595,5.101595531042001,0.4989440736850917,-2.641772661473505,0.7820256891184769,8.547214750008504,2.838085574034754,1,2024-09-17 12:38:28.761596924,1726576708.7615972,2024-09-17 12:38:28.761597184,1,0.0,-9.477883226191505,58.95688596128065,[0.40194678 0.38157894 0.03891255 0.17756173],[0.40194678 0.38157894 0.03891255 0.17756173],"[ 2.8743657e-01 -3.5621619e-01  7.5984791e-02 -1.0745964e-08
 -1.8666976e-03 -7.1112858e-09  1.0000000e+00  0.0000000e+00
  2.0000000e-01  8.7436564e-02 -3.5243880e-02]",0.13242869668881738,0,0
62,69,2024-09-17 12:38:27.774223104,TASK_BEGIN,8,-0.3325065392968099,0.317363816306949,4.909108996575898,0.5574231850105359,-2.691784209996493,0.7662977068205279,9.329997370833478,2.578641081992445,1,2024-09-17 12:38:29.411269043,1726576709.4112692,2024-09-17 12:38:29.411269120,1,3.0,-1.0750801161790824,45.02501521830648,[0.29234607 0.21962799 0.1936274  0.29439854],[0.29234607 0.21962799 0.1936274  0.29439854],"[ 2.9687008e-01 -3.5621619e-01  4.4702221e-02 -8.7494962e-09
 -1.8668202e-03 -7.3405126e-09  1.0000000e+00  0.0000000e+00
  2.0000000e-01  9.6870072e-02 -3.5243880e-02]",0.02932440841594442,0,0
63,70,2024-09-17 12:38:27.836709888,TASK_BEGIN,8,-0.2408152937842612,0.320923763052203,4.6954495022629645,0.6332822965267072,-2.739217226821716,0.748924362223166,10.16504202166841,2.3134595455613303,1,2024-09-17 12:38:29.621599854,1726576709.6216,2024-09-17 12:38:29.621600000,1,3.0,-0.9362030889635078,40.630375454887485,[0.29218197 0.21928711 0.1942954  0.29423553],[0.29218197 0.21928711 0.1942954  0.29423553],"[ 2.9966179e-01 -3.5621619e-01  4.3612402e-02  8.4753573e-09
 -1.8667680e-03  7.7729743e-09  1.0000000e+00  0.0000000e+00
  2.0000000e-01  9.9661797e-02 -3.5243880e-02]",0.029354001326812717,0,0
64,71,2024-09-17 12:38:28.779443968,TASK_BEGIN,8,-0.1545238906016669,0.3258820490714137,4.479920086695259,0.7226284367644938,-2.7772565507375195,0.7300243604306669,10.990112945740336,2.0546024115232924,1,2024-09-17 12:38:30.468489014,1726576710.468489,2024-09-17 12:38:30.468488960,1,3.0,-0.9909675700870599,25.508311870338673,[0.29099603 0.21970896 0.19800801 0.29128701],[0.29099603 0.21970896 0.19800801 0.29128701],"[ 3.1166825e-01 -3.5621619e-01  5.1112317e-02 -9.9867457e-09
 -1.8667779e-03 -5.6017049e-09  1.0000000e+00  0.0000000e+00
  2.0000000e-01  1.1166824e-01 -3.5243880e-02]",0.03062559881127243,0,0
65,72,2024-09-17 12:38:28.857065984,TASK_BEGIN,8,-0.0767505131968891,0.3320689220290067,4.28032465672527,0.8208811492209435,-2.7995846080127995,0.7098492108893799,11.740336171947234,1.8140906349654973,1,2024-09-17 12:38:30.692994141,1726576710.6929944,2024-09-17 12:38:30.692994304,1,0.0,1.057763786317036,16.164569205936807,[0.43548303 0.36666591 0.08652651 0.11132455],[0.43548303 0.36666591 0.08652651 0.11132455],"[ 0.31476355 -0.35611165  0.01706737  0.00138479 -0.0010515   0.00337291
  0.          0.          0.2         0.11476354 -0.03608025]",0.11996560056452217,0,0
66,73,2024-09-17 12:38:28.919069184,TASK_BEGIN,8,-0.0101484523377933,0.3392226559644043,4.111098874116,0.9231105103710888,-2.8010196011922863,0.6887418958769175,12.354568273365778,1.6029838720828864,1,2024-09-17 12:38:30.692994141,1726576710.6929944,2024-09-17 12:38:30.692994304,1,0.0,1.057763786317036,16.164569205936807,[0.43548303 0.36666591 0.08652651 0.11132455],[0.43548303 0.36666591 0.08652651 0.11132455],"[ 0.31476355 -0.35611165  0.01706737  0.00138479 -0.0010515   0.00337291
  0.          0.          0.2         0.11476354 -0.03608025]",0.11996560056452217,0,0
67,74,2024-09-17 12:38:28.996756224,TASK_BEGIN,8,0.0432703733089445,0.3470127511387564,3.9819376223395575,1.024459060741507,-2.7781983006145694,0.6671401078823387,12.782245105003891,1.4304885690240596,1,2024-09-17 12:38:30.692994141,1726576710.6929944,2024-09-17 12:38:30.692994304,1,0.0,1.057763786317036,16.164569205936807,[0.43548303 0.36666591 0.08652651 0.11132455],[0.43548303 0.36666591 0.08652651 0.11132455],"[ 0.31476355 -0.35611165  0.01706737  0.00138479 -0.0010515   0.00337291
  0.          0.          0.2         0.11476354 -0.03608025]",0.11996560056452217,0,0
68,75,2024-09-17 12:38:29.059240960,TASK_BEGIN,8,0.0822631972565047,0.3550581408312209,3.8971982239026968,1.1205401419918322,-2.7300345813526365,0.6455929166298947,12.990032428859944,1.3031729210605716,1,2024-09-17 12:38:30.692994141,1726576710.6929944,2024-09-17 12:38:30.692994304,1,0.0,1.057763786317036,16.164569205936807,[0.43548303 0.36666591 0.08652651 0.11132455],[0.43548303 0.36666591 0.08652651 0.11132455],"[ 0.31476355 -0.35611165  0.01706737  0.00138479 -0.0010515   0.00337291
  0.          0.          0.2         0.11476354 -0.03608025]",0.11996560056452217,0,0
69,76,2024-09-17 12:38:29.120356096,TASK_BEGIN,8,0.1064171475710877,0.3629408500920606,3.8562928981687823,1.207743228984329,-2.657788007495074,0.6247590840380453,12.966359612555737,1.224487260596626,1,2024-09-17 12:38:30.692994141,1726576710.6929944,2024-09-17 12:38:30.692994304,1,0.0,1.057763786317036,16.164569205936807,[0.43548303 0.36666591 0.08652651 0.11132455],[0.43548303 0.36666591 0.08652651 0.11132455],"[ 0.31476355 -0.35611165  0.01706737  0.00138479 -0.0010515   0.00337291
  0.          0.          0.2         0.11476354 -0.03608025]",0.11996560056452217,0,0
70,77,2024-09-17 12:38:29.198226944,TASK_BEGIN,8,0.1161656066843331,0.3702202606358158,3.854724702798583,1.283466826307727,-2.564887359595777,0.6053936811564326,12.72193446662662,1.19472351790942,1,2024-09-17 12:38:30.692994141,1726576710.6929944,2024-09-17 12:38:30.692994304,1,0.0,1.057763786317036,16.164569205936807,[0.43548303 0.36666591 0.08652651 0.11132455],[0.43548303 0.36666591 0.08652651 0.11132455],"[ 0.31476355 -0.35611165  0.01706737  0.00138479 -0.0010515   0.00337291
  0.          0.          0.2         0.11476354 -0.03608025]",0.11996560056452217,0,0
71,78,2024-09-17 12:38:30.110885120,TASK_BEGIN,8,0.1127385440827985,0.3764631275325341,3.8851275062024855,1.3463040814046277,-2.4566845627349703,0.588339143290417,12.286122655546382,1.2113011870173018,1,2024-09-17 12:38:31.212740967,1726576711.2127411,2024-09-17 12:38:31.212741120,1,0.0,1.1009776166304164e-06,13.92784716829559,[0.4429957  0.33048484 0.09573293 0.13078653],[0.4429957  0.33048484 0.09573293 0.13078653],"[ 3.1480742e-01 -3.5610342e-01 -1.1910139e-08 -1.6584997e-09
 -9.8237256e-04  2.5579578e-08  0.0000000e+00  0.0000000e+00
  2.0000000e-01  1.1480741e-01 -3.6146056e-02]",0.10155517187220546,0,0
72,79,2024-09-17 12:38:30.173372160,TASK_BEGIN,8,0.0979983533669156,0.3812919630462621,3.938058167953297,1.3961213270864072,-2.3400801301741163,0.5745179606724397,11.700668272955872,1.2691996447966216,1,2024-09-17 12:38:31.233712891,1726576711.2337134,2024-09-17 12:38:31.233713408,1,0.0,120.00000193592231,133.78857063253494,[0.4429957  0.33048484 0.09573293 0.13078653],[0.4429957  0.33048484 0.09573293 0.13078653],"[ 0.31480742 -0.35610342  0.          0.         -0.00098237  0.
  0.          0.          0.2         0.11480741 -0.03614606]",0.10155514385839157,0,0
73,85,2024-09-17 12:38:31.468417024,TASK_BEGIN,8,-0.1054923117421864,0.3727004862214553,4.2327100569372895,1.5061607148907536,-1.864010686897026,0.6047637240110989,7.4065951922517534,2.0974398898459423,1,2024-09-17 12:38:33.085800781,1726576713.0858011,2024-09-17 12:38:33.085801216,2,0.0,-2.169216353481289,-15.638619056092852,[0.50392529 0.20082419 0.10307223 0.19217828],[0.50392529 0.20082419 0.10307223 0.19217828],"[ 1.9221624e-02  9.6476674e-01  1.6863303e-01 -3.4458151e-01
 -3.5484862e-03  6.4440565e-03  0.0000000e+00  0.0000000e+00
  4.0000001e-01 -3.8077837e-01 -1.1402838e+01]",0.1882927308102429,0,0
74,86,2024-09-17 12:38:31.525038080,TASK_BEGIN,8,-0.1428765626609657,0.3655735804547235,4.253789513836251,1.507051648013005,-1.858082122730088,0.62919661580214,6.8205604152100685,2.270011968038234,1,2024-09-17 12:38:33.085800781,1726576713.0858011,2024-09-17 12:38:33.085801216,2,0.0,-2.169216353481289,-15.638619056092852,[0.50392529 0.20082419 0.10307223 0.19217828],[0.50392529 0.20082419 0.10307223 0.19217828],"[ 1.9221624e-02  9.6476674e-01  1.6863303e-01 -3.4458151e-01
 -3.5484862e-03  6.4440565e-03  0.0000000e+00  0.0000000e+00
  4.0000001e-01 -3.8077837e-01 -1.1402838e+01]",0.1882927308102429,0,0
75,87,2024-09-17 12:38:31.598853888,TASK_BEGIN,8,-0.1786661631361365,0.3572509000854564,4.279090070708866,1.5050768965852488,-1.8705462676236844,0.6561132694545165,6.304894456520505,2.449281150522304,1,2024-09-17 12:38:33.085800781,1726576713.0858011,2024-09-17 12:38:33.085801216,2,0.0,-2.169216353481289,-15.638619056092852,[0.50392529 0.20082419 0.10307223 0.19217828],[0.50392529 0.20082419 0.10307223 0.19217828],"[ 1.9221624e-02  9.6476674e-01  1.6863303e-01 -3.4458151e-01
 -3.5484862e-03  6.4440565e-03  0.0000000e+00  0.0000000e+00
  4.0000001e-01 -3.8077837e-01 -1.1402838e+01]",0.1882927308102429,0,0
76,88,2024-09-17 12:38:31.664899840,TASK_BEGIN,8,-0.2121294781782004,0.3478400136664514,4.316185284837604,1.5005771811284234,-1.8974757684623336,0.6835692274339394,5.863636292458768,2.636533622982605,1,2024-09-17 12:38:33.085800781,1726576713.0858011,2024-09-17 12:38:33.085801216,2,0.0,-2.169216353481289,-15.638619056092852,[0.50392529 0.20082419 0.10307223 0.19217828],[0.50392529 0.20082419 0.10307223 0.19217828],"[ 1.9221624e-02  9.6476674e-01  1.6863303e-01 -3.4458151e-01
 -3.5484862e-03  6.4440565e-03  0.0000000e+00  0.0000000e+00
  4.0000001e-01 -3.8077837e-01 -1.1402838e+01]",0.1882927308102429,0,0
77,89,2024-09-17 12:38:31.738564864,TASK_BEGIN,8,-0.2424551195699295,0.3373566068695383,4.371988122943915,1.4938660406982254,-1.9353401539113029,0.7098585746485078,5.502020905514665,2.832061442271009,1,2024-09-17 12:38:33.085800781,1726576713.0858011,2024-09-17 12:38:33.085801216,2,0.0,-2.169216353481289,-15.638619056092852,[0.50392529 0.20082419 0.10307223 0.19217828],[0.50392529 0.20082419 0.10307223 0.19217828],"[ 1.9221624e-02  9.6476674e-01  1.6863303e-01 -3.4458151e-01
 -3.5484862e-03  6.4440565e-03  0.0000000e+00  0.0000000e+00
  4.0000001e-01 -3.8077837e-01 -1.1402838e+01]",0.1882927308102429,0,0
78,90,2024-09-17 12:38:31.800132096,TASK_BEGIN,8,-0.2688525327112422,0.3257242623979084,4.452542190350652,1.4851887519601068,-1.9815558907876676,0.7338096267474618,5.228269192150129,3.033982930409047,1,2024-09-17 12:38:33.085800781,1726576713.0858011,2024-09-17 12:38:33.085801216,2,0.0,-2.169216353481289,-15.638619056092852,[0.50392529 0.20082419 0.10307223 0.19217828],[0.50392529 0.20082419 0.10307223 0.19217828],"[ 1.9221624e-02  9.6476674e-01  1.6863303e-01 -3.4458151e-01
 -3.5484862e-03  6.4440565e-03  0.0000000e+00  0.0000000e+00
  4.0000001e-01 -3.8077837e-01 -1.1402838e+01]",0.1882927308102429,0,0
79,91,2024-09-17 12:38:31.862096896,TASK_BEGIN,8,-0.2907080024899201,0.312795017656316,4.562889001719102,1.4746434152765933,-2.034603681731155,0.7548787772372575,5.053667138363032,3.2378000231475794,1,2024-09-17 12:38:33.085800781,1726576713.0858011,2024-09-17 12:38:33.085801216,2,0.0,-2.169216353481289,-15.638619056092852,[0.50392529 0.20082419 0.10307223 0.19217828],[0.50392529 0.20082419 0.10307223 0.19217828],"[ 1.9221624e-02  9.6476674e-01  1.6863303e-01 -3.4458151e-01
 -3.5484862e-03  6.4440565e-03  0.0000000e+00  0.0000000e+00
  4.0000001e-01 -3.8077837e-01 -1.1402838e+01]",0.1882927308102429,0,0
80,92,2024-09-17 12:38:32.794789120,TASK_BEGIN,8,-0.3076921209787462,0.2983744421611213,4.706611134286971,1.4621502592600473,-2.093731967938461,0.7730150381350482,4.991120031235303,3.436703044051255,1,2024-09-17 12:38:34.633413086,1726576714.6334133,2024-09-17 12:38:34.633413376,2,2.0,8.165575504207748,-36.152120490129164,[0.3560896  0.07664519 0.43146385 0.13580135],[0.3560896  0.07664519 0.43146385 0.13580135],"[ 0.10548083  0.17330313  0.08185084 -0.8324028   0.0192952  -0.02114518
  0.          0.          0.4        -0.29451916 -5.0711293 ]",0.17229737614035373,0,0
81,93,2024-09-17 12:38:32.850402048,TASK_BEGIN,8,-0.3197552917880433,0.2822449964593942,4.885238146241773,1.4474854552216436,-2.1583977689646248,0.7883845559596783,5.052817917614447,3.6223236281028033,1,2024-09-17 12:38:34.633413086,1726576714.6334133,2024-09-17 12:38:34.633413376,2,2.0,8.165575504207748,-36.152120490129164,[0.3560896  0.07664519 0.43146385 0.13580135],[0.3560896  0.07664519 0.43146385 0.13580135],"[ 0.10548083  0.17330313  0.08185084 -0.8324028   0.0192952  -0.02114518
  0.          0.          0.4        -0.29451916 -5.0711293 ]",0.17229737614035373,0,0
82,94,2024-09-17 12:38:32.928271104,TASK_BEGIN,8,-0.3270401657889178,0.2641990233962092,5.097874857391953,1.430358114743192,-2.227695819944851,0.8010898068778954,5.24776192162239,3.785626082433027,1,2024-09-17 12:38:34.759375977,1726576714.759376,2024-09-17 12:38:34.759376128,2,2.0,2.9437379053556016,-33.20801474030478,[0.36622982 0.07012373 0.42891803 0.13472842],[0.36622982 0.07012373 0.42891803 0.13472842],"[ 0.10881821  0.09413433  0.10559244 -0.82416314  0.0131363  -0.01067238
  0.          0.          0.4        -0.29118177 -4.437779  ]",0.1806479080667291,0,0
83,95,2024-09-17 12:38:32.998110208,TASK_BEGIN,8,-0.3298132316595855,0.2440927480157215,5.340951445723809,1.4105261624037273,-2.300032345511454,0.8109942449824278,5.5796227286954,3.917732734690944,1,2024-09-17 12:38:34.801376953,1726576714.8013778,2024-09-17 12:38:34.801377792,2,2.0,7.905224838487453,-27.061223651219013,[0.323754   0.05908517 0.4762703  0.14089053],[0.323754   0.05908517 0.4762703  0.14089053],"[ 1.10396065e-01  6.89011812e-02  1.22634232e-01 -7.65150666e-01
  1.24320751e-02 -3.41232796e-03  0.00000000e+00  0.00000000e+00
  4.00000006e-01 -2.89603919e-01 -4.23591375e+00]",0.19593816737191572,0,0
84,96,2024-09-17 12:38:33.053481984,TASK_BEGIN,8,-0.3284828946182312,0.2219113891793858,5.607906705786366,1.3879244427189166,-2.373182276815876,0.8177033299117716,6.045239552005321,4.010566721562256,1,2024-09-17 12:38:34.801376953,1726576714.8013778,2024-09-17 12:38:34.801377792,2,2.0,7.905224838487453,-27.061223651219013,[0.323754   0.05908517 0.4762703  0.14089053],[0.323754   0.05908517 0.4762703  0.14089053],"[ 1.10396065e-01  6.89011812e-02  1.22634232e-01 -7.65150666e-01
  1.24320751e-02 -3.41232796e-03  0.00000000e+00  0.00000000e+00
  4.00000006e-01 -2.89603919e-01 -4.23591375e+00]",0.19593816737191572,0,0
85,97,2024-09-17 12:38:33.133678848,TASK_BEGIN,8,-0.3236509945631355,0.197815826420074,5.88913008841349,1.362734960860609,-2.4446408690495067,0.8206775354306995,6.634099636316533,4.057360197563469,1,2024-09-17 12:38:34.801376953,1726576714.8013778,2024-09-17 12:38:34.801377792,2,2.0,7.905224838487453,-27.061223651219013,[0.323754   0.05908517 0.4762703  0.14089053],[0.323754   0.05908517 0.4762703  0.14089053],"[ 1.10396065e-01  6.89011812e-02  1.22634232e-01 -7.65150666e-01
  1.24320751e-02 -3.41232796e-03  0.00000000e+00  0.00000000e+00
  4.00000006e-01 -2.89603919e-01 -4.23591375e+00]",0.19593816737191572,0,0
86,98,2024-09-17 12:38:33.201593088,TASK_BEGIN,8,-0.3160825999332441,0.1721438109807541,6.172708250571971,1.3353384984619254,-2.51201223865875,0.8194009248837626,7.328667980764404,4.053212230632699,1,2024-09-17 12:38:34.801376953,1726576714.8013778,2024-09-17 12:38:34.801377792,2,2.0,7.905224838487453,-27.061223651219013,[0.323754   0.05908517 0.4762703  0.14089053],[0.323754   0.05908517 0.4762703  0.14089053],"[ 1.10396065e-01  6.89011812e-02  1.22634232e-01 -7.65150666e-01
  1.24320751e-02 -3.41232796e-03  0.00000000e+00  0.00000000e+00
  4.00000006e-01 -2.89603919e-01 -4.23591375e+00]",0.19593816737191572,0,0
87,99,2024-09-17 12:38:34.140436736,TASK_BEGIN,8,-0.3065647402078472,0.1453662263382172,6.446066530263587,1.3061384179682884,-2.573243720962853,0.8135246602306673,8.104871634053977,3.995757067682995,1,2024-09-17 12:38:35.283112061,1726576715.283113,2024-09-17 12:38:35.283112960,2,3.0,-2.5281220726847042,-2.2111140163235503,[0.34206491 0.0736265  0.14945647 0.43485211],[0.34206491 0.0736265  0.14945647 0.43485211],"[ 0.12750061 -0.17641217  0.09400114 -0.5539384   0.00288651 -0.04004334
  0.          0.          0.4        -0.27249938 -2.2734067 ]",0.1739877110446498,0,0
88,100,2024-09-17 12:38:34.212701184,TASK_BEGIN,8,-0.2957498966129029,0.1180293159063345,6.69791035873173,1.2753391576299666,-2.6267196096552263,0.8029397794498159,8.932600097448546,3.885743969090846,1,2024-09-17 12:38:35.988876953,1726576715.9888778,2024-09-17 12:38:35.988877824,2,2.0,-1.2645582632634842,9.81567409526772,[0.21633544 0.06457521 0.6921704  0.02691895],[0.21633544 0.06457521 0.6921704  0.02691895],"[ 0.16231926 -0.3968352   0.27738893 -0.20675264 -0.17513564 -0.37755823
  0.          1.          0.4        -0.23768073 -0.51002246]",0.46990347709226443,0,0
89,101,2024-09-17 12:38:34.280489984,TASK_BEGIN,8,-0.2840863425315695,0.0907158259502604,6.919579701145723,1.2428308028392792,-2.671317911216037,0.787787455867616,9.7771698656093,3.727223560112152,1,2024-09-17 12:38:35.988876953,1726576715.9888778,2024-09-17 12:38:35.988877824,2,2.0,-1.2645582632634842,9.81567409526772,[0.21633544 0.06457521 0.6921704  0.02691895],[0.21633544 0.06457521 0.6921704  0.02691895],"[ 0.16231926 -0.3968352   0.27738893 -0.20675264 -0.17513564 -0.37755823
  0.          1.          0.4        -0.23768073 -0.51002246]",0.46990347709226443,0,0
90,102,2024-09-17 12:38:34.341846016,TASK_BEGIN,8,-0.271857245913073,0.0640331165115969,7.105330565196738,1.2082442201757788,-2.706448815175554,0.7684439989318875,10.602373624111394,3.527196542612863,1,2024-09-17 12:38:35.988876953,1726576715.9888778,2024-09-17 12:38:35.988877824,2,2.0,-1.2645582632634842,9.81567409526772,[0.21633544 0.06457521 0.6921704  0.02691895],[0.21633544 0.06457521 0.6921704  0.02691895],"[ 0.16231926 -0.3968352   0.27738893 -0.20675264 -0.17513564 -0.37755823
  0.          1.          0.4        -0.23768073 -0.51002246]",0.46990347709226443,0,0
91,103,2024-09-17 12:38:34.404508160,TASK_BEGIN,8,-0.2593066190271549,0.0386125603955943,7.25176964211759,1.1710856791465782,-2.7320526280495234,0.7455063636987859,11.37421714830613,3.2948941185089184,1,2024-09-17 12:38:35.988876953,1726576715.9888778,2024-09-17 12:38:35.988877824,2,2.0,-1.2645582632634842,9.81567409526772,[0.21633544 0.06457521 0.6921704  0.02691895],[0.21633544 0.06457521 0.6921704  0.02691895],"[ 0.16231926 -0.3968352   0.27738893 -0.20675264 -0.17513564 -0.37755823
  0.          1.          0.4        -0.23768073 -0.51002246]",0.46990347709226443,0,0
92,104,2024-09-17 12:38:34.481720832,TASK_BEGIN,8,-0.2468230495515015,0.0150983704317581,7.357006136895968,1.1308495822133462,-2.748641657056518,0.7197882559555514,12.063908099020814,3.0410307341292646,1,2024-09-17 12:38:35.988876953,1726576715.9888778,2024-09-17 12:38:35.988877824,2,2.0,-1.2645582632634842,9.81567409526772,[0.21633544 0.06457521 0.6921704  0.02691895],[0.21633544 0.06457521 0.6921704  0.02691895],"[ 0.16231926 -0.3968352   0.27738893 -0.20675264 -0.17513564 -0.37755823
  0.          1.          0.4        -0.23768073 -0.51002246]",0.46990347709226443,0,0
93,105,2024-09-17 12:38:34.544208896,TASK_BEGIN,8,-0.2351241803420567,-0.0058854543755005,7.419907910146492,1.087103797747722,-2.757466869862677,0.6923227601717008,12.649413715520406,2.7772558953820194,1,2024-09-17 12:38:35.988876953,1726576715.9888778,2024-09-17 12:38:35.988877824,2,2.0,-1.2645582632634842,9.81567409526772,[0.21633544 0.06457521 0.6921704  0.02691895],[0.21633544 0.06457521 0.6921704  0.02691895],"[ 0.16231926 -0.3968352   0.27738893 -0.20675264 -0.17513564 -0.37755823
  0.          1.          0.4        -0.23768073 -0.51002246]",0.46990347709226443,0,0
94,106,2024-09-17 12:38:35.494919936,TASK_BEGIN,8,-0.2253471511961466,-0.0237877945880944,7.439691780894637,1.0395478213033362,-2.760673647351595,0.6643443415974954,13.115686348208602,2.5157910020276,1,2024-09-17 12:38:36.548876953,1726576716.5488777,2024-09-17 12:38:36.548877824,2,1.0,1.7951249883183118,23.654737392589734,[0.37386413 0.38409613 0.02933831 0.21270143],[0.37386413 0.38409613 0.02933831 0.21270143],"[ 0.22043435 -0.43408203  0.28130424 -0.03866423 -0.19537245  0.11487057
  1.          1.          0.4        -0.17956565 -0.21204786]",0.1687815237787657,0,0
95,107,2024-09-17 12:38:35.562769664,TASK_BEGIN,8,-0.2189569060776578,-0.0381983534786531,7.41613144124582,0.9879866949920476,-2.761217630544892,0.6372213193580465,13.454186037907856,2.2690343420026027,1,2024-09-17 12:38:36.609878174,1726576716.609878,2024-09-17 12:38:36.609878016,2,1.0,1.5165300616382547,26.58264535098407,[0.36638054 0.3794323  0.03196614 0.22222103],[0.36638054 0.3794323  0.03196614 0.22222103],"[ 0.22620185 -0.43588686  0.2632991  -0.03698071 -0.17888647  0.10763332
  1.          1.          0.4        -0.17379814 -0.19760923]",0.15781648816358973,0,0
96,108,2024-09-17 12:38:35.626163200,TASK_BEGIN,8,-0.217471281726487,-0.0489254126153456,7.350411461689737,0.9322215530852896,-2.762490243887543,0.6123457202918301,13.662555695765656,2.048869999213548,1,2024-09-17 12:38:36.730911865,1726576716.7309124,2024-09-17 12:38:36.730912512,2,0.0,0.372073990015366,31.97637942038139,[0.35673787 0.34550377 0.03321497 0.26454339],[0.35673787 0.34550377 0.03321497 0.26454339],"[ 0.23640458 -0.43916166  0.22482638 -0.03278263 -0.14967285  0.0921503
  1.          1.          0.4        -0.16359542 -0.17141084]",0.14923372797053447,0,0
97,109,2024-09-17 12:38:35.688647936,TASK_BEGIN,8,-0.2221263832826298,-0.0560611408844621,7.246061940141645,0.8719877014271751,-2.767775639512005,0.5910216883972509,13.74486195981306,1.8656113531055636,1,2024-09-17 12:38:36.771879883,1726576716.7718804,2024-09-17 12:38:36.771880448,2,0.0,0.347045793383586,33.033137867416166,[0.35481881 0.35234511 0.03518466 0.25765142],[0.35481881 0.35234511 0.03518466 0.25765142],"[ 0.23950727 -0.4401784   0.21774815 -0.03210364 -0.14077282  0.08933681
  1.          1.          0.4        -0.16049272 -0.16327696]",0.1423435689234251,0,0
98,110,2024-09-17 12:38:35.765873920,TASK_BEGIN,8,-0.2336353917299025,-0.0600021303366403,7.10920471056703,0.8070774946251139,-2.779673909647532,0.5743833629754849,13.712177243001989,1.7267906753582845,1,2024-09-17 12:38:36.832912842,1726576716.8329134,2024-09-17 12:38:36.832913408,2,0.0,0.2964155866265088,35.08176944282317,[0.35245905 0.35035178 0.03634072 0.26084845],[0.35245905 0.35035178 0.03634072 0.26084845],"[ 0.24387328 -0.44162548  0.20110548 -0.03011554 -0.12823457  0.08263589
  1.          1.          0.4        -0.15612672 -0.1517003 ]",0.1372461337949469,0,0
99,111,2024-09-17 12:38:35.833960960,TASK_BEGIN,8,-0.2520836574114532,-0.061416796989852,6.947808787279417,0.7376435288310335,-2.799594033231401,0.5633337442495207,13.582937449664028,1.6361734866679751,1,2024-09-17 12:38:36.892879883,1726576716.8928804,2024-09-17 12:38:36.892880384,2,0.0,0.24709039542851485,36.946791454637946,[0.35084993 0.34631823 0.0368686  0.26596325],[0.35084993 0.34631823 0.0368686  0.26596325],"[ 0.24788587 -0.44297242  0.18455744 -0.0280328  -0.1166943   0.07595538
  1.          1.          0.4        -0.15211414 -0.14092474]",0.13355253848462034,0,0
100,112,2024-09-17 12:38:35.890216960,TASK_BEGIN,8,-0.2769084647609757,-0.0611796837788888,6.770265018897461,0.6645419578743078,-2.8274006944750787,0.5584810635891145,13.382163751155725,1.5934191629390198,1,2024-09-17 12:38:36.952876953,1726576716.9528778,2024-09-17 12:38:36.952877824,2,0.0,0.2041429378990216,38.41912918219511,[0.35030731 0.34405896 0.03714419 0.26848954],[0.35030731 0.34405896 0.03714419 0.26848954],"[ 0.2515726  -0.44422454  0.17033026 -0.02620797 -0.10607535  0.07021015
  1.          1.          0.4        -0.1484274  -0.13090782]",0.13126160592033975,0,0
101,113,2024-09-17 12:38:36.845009920,TASK_BEGIN,8,-0.3069383321273136,-0.0602906731762668,6.583862288312722,0.589553279461186,-2.8612759935197327,0.5600729829151962,13.138807569927074,1.5946165615434411,1,2024-09-17 12:38:38.515701904,1726576718.5157027,2024-09-17 12:38:38.515702784,2,0.0,0.12543046289033555,3.160602743158339,[0.4501916  0.4110315  0.05936307 0.07941384],[0.4501916  0.4110315  0.05936307 0.07941384],"[ 3.1776294e-01 -4.5631945e-01  1.9213489e-01 -7.8060627e-03
  3.2817828e-05 -1.8992538e-02  0.0000000e+00  0.0000000e+00
  4.0000001e-01 -8.2237072e-02 -3.4148496e-02]",0.21519511036013714,0,0
102,114,2024-09-17 12:38:36.912868864,TASK_BEGIN,8,-0.340500388937946,-0.0597872450771089,6.393653120138602,0.5153844325987008,-2.897840083735224,0.5679576734337347,12.881809486414284,1.6334651569576446,1,2024-09-17 12:38:38.515701904,1726576718.5157027,2024-09-17 12:38:38.515702784,2,0.0,0.12543046289033555,3.160602743158339,[0.4501916  0.4110315  0.05936307 0.07941384],[0.4501916  0.4110315  0.05936307 0.07941384],"[ 3.1776294e-01 -4.5631945e-01  1.9213489e-01 -7.8060627e-03
  3.2817828e-05 -1.8992538e-02  0.0000000e+00  0.0000000e+00
  4.0000001e-01 -8.2237072e-02 -3.4148496e-02]",0.21519511036013714,0,0
103,115,2024-09-17 12:38:36.980658944,TASK_BEGIN,8,-0.3755666108061035,-0.0606620697403148,6.201867059001736,0.4454756000128336,-2.9325182027955874,0.5816011142993246,12.636358721114904,1.702584363147233,1,2024-09-17 12:38:38.515701904,1726576718.5157027,2024-09-17 12:38:38.515702784,2,0.0,0.12543046289033555,3.160602743158339,[0.4501916  0.4110315  0.05936307 0.07941384],[0.4501916  0.4110315  0.05936307 0.07941384],"[ 3.1776294e-01 -4.5631945e-01  1.9213489e-01 -7.8060627e-03
  3.2817828e-05 -1.8992538e-02  0.0000000e+00  0.0000000e+00
  4.0000001e-01 -8.2237072e-02 -3.4148496e-02]",0.21519511036013714,0,0
104,116,2024-09-17 12:38:37.048435968,TASK_BEGIN,8,-0.4098978491684208,-0.0637994160452364,6.0077846379764,0.3837254684004439,-2.9600301588877262,0.6001552814658727,12.420998976888894,1.7945952201612625,1,2024-09-17 12:38:38.515701904,1726576718.5157027,2024-09-17 12:38:38.515702784,2,0.0,0.12543046289033555,3.160602743158339,[0.4501916  0.4110315  0.05936307 0.07941384],[0.4501916  0.4110315  0.05936307 0.07941384],"[ 3.1776294e-01 -4.5631945e-01  1.9213489e-01 -7.8060627e-03
  3.2817828e-05 -1.8992538e-02  0.0000000e+00  0.0000000e+00
  4.0000001e-01 -8.2237072e-02 -3.4148496e-02]",0.21519511036013714,0,0
105,117,2024-09-17 12:38:37.116254208,TASK_BEGIN,8,-0.4411911944461165,-0.0699340427733632,5.808065928298054,0.3341911305557175,-2.974844016677247,0.6225385475216034,12.245308894193382,1.9028819280870355,1,2024-09-17 12:38:38.515701904,1726576718.5157027,2024-09-17 12:38:38.515702784,2,0.0,0.12543046289033555,3.160602743158339,[0.4501916  0.4110315  0.05936307 0.07941384],[0.4501916  0.4110315  0.05936307 0.07941384],"[ 3.1776294e-01 -4.5631945e-01  1.9213489e-01 -7.8060627e-03
  3.2817828e-05 -1.8992538e-02  0.0000000e+00  0.0000000e+00
  4.0000001e-01 -8.2237072e-02 -3.4148496e-02]",0.21519511036013714,0,0
106,118,2024-09-17 12:38:37.177805056,TASK_BEGIN,8,-0.4672275707769108,-0.0796292965904096,5.597555016736251,0.3007243873808302,-2.971534905834828,0.6475003073459615,12.108439938057328,2.0220035984590665,1,2024-09-17 12:38:38.515701904,1726576718.5157027,2024-09-17 12:38:38.515702784,2,0.0,0.12543046289033555,3.160602743158339,[0.4501916  0.4110315  0.05936307 0.07941384],[0.4501916  0.4110315  0.05936307 0.07941384],"[ 3.1776294e-01 -4.5631945e-01  1.9213489e-01 -7.8060627e-03
  3.2817828e-05 -1.8992538e-02  0.0000000e+00  0.0000000e+00
  4.0000001e-01 -8.2237072e-02 -3.4148496e-02]",0.21519511036013714,0,0
107,119,2024-09-17 12:38:37.251870976,TASK_BEGIN,8,-0.4859501043862854,-0.0932737494774699,5.370334622815215,0.2865585191492036,-2.945075570550997,0.6736696911588065,11.999770807953606,2.147699356219854,1,2024-09-17 12:38:38.515701904,1726576718.5157027,2024-09-17 12:38:38.515702784,2,0.0,0.12543046289033555,3.160602743158339,[0.4501916  0.4110315  0.05936307 0.07941384],[0.4501916  0.4110315  0.05936307 0.07941384],"[ 3.1776294e-01 -4.5631945e-01  1.9213489e-01 -7.8060627e-03
  3.2817828e-05 -1.8992538e-02  0.0000000e+00  0.0000000e+00
  4.0000001e-01 -8.2237072e-02 -3.4148496e-02]",0.21519511036013714,0,0
108,120,2024-09-17 12:38:38.190347008,TASK_BEGIN,8,-0.4954263587438885,-0.1110975203394176,5.120760079590374,0.2939651477867576,-2.89107582825879,0.6995911654033355,11.902636283175068,2.2764488538767256,1,2024-09-17 12:38:39.833169922,1726576719.8331704,2024-09-17 12:38:39.833170432,2,1.0,1.900004952873848,-4.465785304502892,[0.43343471 0.44130617 0.05703934 0.06821978],[0.43343471 0.44130617 0.05703934 0.06821978],"[ 4.1922775e-01 -4.5632851e-01  2.2767700e-01 -1.6247990e-02
  3.5225652e-04  5.1871825e-02  0.0000000e+00  0.0000000e+00
  4.0000001e-01  1.9227760e-02 -3.4076016e-02]",0.20470975941041697,0,0
109,121,2024-09-17 12:38:38.251185664,TASK_BEGIN,8,-0.4937759528072138,-0.133198360812337,4.844503100819148,0.3240818093443754,-2.805996733462766,0.7237570109154681,11.800499046259985,2.404674530435748,1,2024-09-17 12:38:39.833169922,1726576719.8331704,2024-09-17 12:38:39.833170432,2,1.0,1.900004952873848,-4.465785304502892,[0.43343471 0.44130617 0.05703934 0.06821978],[0.43343471 0.44130617 0.05703934 0.06821978],"[ 4.1922775e-01 -4.5632851e-01  2.2767700e-01 -1.6247990e-02
  3.5225652e-04  5.1871825e-02  0.0000000e+00  0.0000000e+00
  4.0000001e-01  1.9227760e-02 -3.4076016e-02]",0.20470975941041697,0,0
110,122,2024-09-17 12:38:38.329584896,TASK_BEGIN,8,-0.4792061411327114,-0.1595560886233753,4.539753795598167,0.3768881479232749,-2.6874367987111167,0.7446702936609838,11.683447745761429,2.5279073776164576,1,2024-09-17 12:38:39.833169922,1726576719.8331704,2024-09-17 12:38:39.833170432,2,1.0,1.900004952873848,-4.465785304502892,[0.43343471 0.44130617 0.05703934 0.06821978],[0.43343471 0.44130617 0.05703934 0.06821978],"[ 4.1922775e-01 -4.5632851e-01  2.2767700e-01 -1.6247990e-02
  3.5225652e-04  5.1871825e-02  0.0000000e+00  0.0000000e+00
  4.0000001e-01  1.9227760e-02 -3.4076016e-02]",0.20470975941041697,0,0
111,123,2024-09-17 12:38:38.392071168,TASK_BEGIN,8,-0.450194248695719,-0.1900261171805877,4.20842667467258,0.4512440159955927,-2.534590210172304,0.7609599629610989,11.55259555923238,2.6403796288755528,1,2024-09-17 12:38:39.833169922,1726576719.8331704,2024-09-17 12:38:39.833170432,2,1.0,1.900004952873848,-4.465785304502892,[0.43343471 0.44130617 0.05703934 0.06821978],[0.43343471 0.44130617 0.05703934 0.06821978],"[ 4.1922775e-01 -4.5632851e-01  2.2767700e-01 -1.6247990e-02
  3.5225652e-04  5.1871825e-02  0.0000000e+00  0.0000000e+00
  4.0000001e-01  1.9227760e-02 -3.4076016e-02]",0.20470975941041697,0,0
112,124,2024-09-17 12:38:38.466313984,TASK_BEGIN,8,-0.4057159971620807,-0.2243271683676594,3.8569851411162985,0.5449664598891305,-2.348823319096875,0.7715114315497201,11.420989452513115,2.735312451925605,1,2024-09-17 12:38:39.833169922,1726576719.8331704,2024-09-17 12:38:39.833170432,2,1.0,1.900004952873848,-4.465785304502892,[0.43343471 0.44130617 0.05703934 0.06821978],[0.43343471 0.44130617 0.05703934 0.06821978],"[ 4.1922775e-01 -4.5632851e-01  2.2767700e-01 -1.6247990e-02
  3.5225652e-04  5.1871825e-02  0.0000000e+00  0.0000000e+00
  4.0000001e-01  1.9227760e-02 -3.4076016e-02]",0.20470975941041697,0,0
113,125,2024-09-17 12:38:38.531426048,TASK_BEGIN,8,-0.3453930622804568,-0.2620427602378257,3.4966263325162354,0.6550036407866237,-2.1341230473491537,0.7755285910958949,11.311172397029509,2.805768327654957,1,2024-09-17 12:38:39.833169922,1726576719.8331704,2024-09-17 12:38:39.833170432,2,1.0,1.900004952873848,-4.465785304502892,[0.43343471 0.44130617 0.05703934 0.06821978],[0.43343471 0.44130617 0.05703934 0.06821978],"[ 4.1922775e-01 -4.5632851e-01  2.2767700e-01 -1.6247990e-02
  3.5225652e-04  5.1871825e-02  0.0000000e+00  0.0000000e+00
  4.0000001e-01  1.9227760e-02 -3.4076016e-02]",0.20470975941041697,0,0
114,126,2024-09-17 12:38:38.592894976,TASK_BEGIN,8,-0.2695064100500798,-0.3026393403863319,3.1426302409300173,0.777773189085143,-1.897180371817307,0.7724676892036797,11.250066758241111,2.8457773581328096,1,2024-09-17 12:38:39.833169922,1726576719.8331704,2024-09-17 12:38:39.833170432,2,1.0,1.900004952873848,-4.465785304502892,[0.43343471 0.44130617 0.05703934 0.06821978],[0.43343471 0.44130617 0.05703934 0.06821978],"[ 4.1922775e-01 -4.5632851e-01  2.2767700e-01 -1.6247990e-02
  3.5225652e-04  5.1871825e-02  0.0000000e+00  0.0000000e+00
  4.0000001e-01  1.9227760e-02 -3.4076016e-02]",0.20470975941041697,0,0
115,127,2024-09-17 12:38:39.542439936,TASK_BEGIN,8,-0.17891413121829,-0.3454875625398557,2.812671743149902,0.909680206853221,-1.6470844845475352,0.7618712876876069,11.26159400067167,2.851614188509892,1,2024-09-17 12:38:40.618062012,1726576720.6180625,2024-09-17 12:38:40.618062592,2,0.0,4.0063049766558834e-08,27.458946109353093,[0.41930316 0.29195354 0.04415008 0.24459323],[0.41930316 0.29195354 0.04415008 0.24459323],"[ 4.3037114e-01 -4.5672065e-01 -5.1363447e-09  1.0853914e-09
 -2.6977069e-03  1.2544232e-08  1.0000000e+00  1.0000000e+00
  4.0000001e-01  3.0371126e-02 -3.0938903e-02]",0.09929442954468869,0,0
116,128,2024-09-17 12:38:39.608408832,TASK_BEGIN,8,-0.0749752689267531,-0.3898733562402655,2.524369890529977,1.047712109506036,-1.3947122232172309,0.7431922282271242,11.358304859823082,2.823150744449591,1,2024-09-17 12:38:40.681029053,1726576720.681029,2024-09-17 12:38:40.681029120,2,0.0,-1.1256704226525471e-06,26.64338530307872,[0.41930316 0.29195354 0.04415008 0.24459323],[0.41930316 0.29195354 0.04415008 0.24459323],"[ 4.3037114e-01 -4.5672065e-01  1.8628784e-08  1.5560675e-10
 -2.6977202e-03 -3.3368650e-08  1.0000000e+00  1.0000000e+00
  4.0000001e-01  3.0371126e-02 -3.0938903e-02]",0.0992944157478459,0,0
117,129,2024-09-17 12:38:39.670479104,TASK_BEGIN,8,0.0404308585500497,-0.4350013407368922,2.2929916018266123,1.1898931673954902,-1.1518538751868053,0.7156843998542514,11.534882810905822,2.7649123376653675,1,2024-09-17 12:38:40.723026123,1726576720.7230265,2024-09-17 12:38:40.723026432,2,0.0,-3.4217026723126764e-07,26.11318090087823,[0.41930316 0.29195354 0.04415008 0.24459323],[0.41930316 0.29195354 0.04415008 0.24459323],"[ 4.3037114e-01 -4.5672065e-01  1.9034356e-08 -3.1362849e-13
 -2.6977302e-03 -3.4080625e-08  1.0000000e+00  1.0000000e+00
  4.0000001e-01  3.0371126e-02 -3.0938903e-02]",0.09929440892695354,0,0
118,134,2024-09-17 12:38:40.863981824,TASK_BEGIN,8,0.6810137551804637,-0.6408023586906584,2.280791708908525,1.9627395687583131,-0.4443173353275074,0.4111822747959776,12.265423786855,2.453611785678665,1,2024-09-17 12:38:42.590967773,1726576722.5909681,2024-09-17 12:38:42.590968064,3,0.0,-2.5815357012322835,-13.51028340005273,[0.42576327 0.34511731 0.05961384 0.16950558],[0.42576327 0.34511731 0.05961384 0.16950558],"[-3.2197635e-03  9.8818076e-01 -3.1857334e-02 -2.4212994e-01
  9.1464268e-03  1.2028748e-02  0.0000000e+00  0.0000000e+00
 -6.0000002e-01  5.9678024e-01 -1.0006547e+01]",0.194723739205874,0,0
119,135,2024-09-17 12:38:40.937568768,TASK_BEGIN,8,0.7946068648969009,-0.6720011726940998,2.528846145621257,2.135064763052403,-0.4546624145693744,0.3120537505830341,12.010411604346109,2.4892409816143126,1,2024-09-17 12:38:42.590967773,1726576722.5909681,2024-09-17 12:38:42.590968064,3,0.0,-2.5815357012322835,-13.51028340005273,[0.42576327 0.34511731 0.05961384 0.16950558],[0.42576327 0.34511731 0.05961384 0.16950558],"[-3.2197635e-03  9.8818076e-01 -3.1857334e-02 -2.4212994e-01
  9.1464268e-03  1.2028748e-02  0.0000000e+00  0.0000000e+00
 -6.0000002e-01  5.9678024e-01 -1.0006547e+01]",0.194723739205874,0,0
120,136,2024-09-17 12:38:41.004478976,TASK_BEGIN,8,0.8941790080578741,-0.6979375979630467,2.8587531386850045,2.3134734452217725,-0.5234246800953888,0.2007535804868405,11.511495849186986,2.5855960271169613,1,2024-09-17 12:38:42.590967773,1726576722.5909681,2024-09-17 12:38:42.590968064,3,0.0,-2.5815357012322835,-13.51028340005273,[0.42576327 0.34511731 0.05961384 0.16950558],[0.42576327 0.34511731 0.05961384 0.16950558],"[-3.2197635e-03  9.8818076e-01 -3.1857334e-02 -2.4212994e-01
  9.1464268e-03  1.2028748e-02  0.0000000e+00  0.0000000e+00
 -6.0000002e-01  5.9678024e-01 -1.0006547e+01]",0.194723739205874,0,0
121,137,2024-09-17 12:38:41.073177856,TASK_BEGIN,8,0.9763357310613694,-0.7175781835818235,3.264837514089488,2.4962289324354714,-0.6500632703413909,0.0790052985649187,10.741941550324494,2.749050342236968,1,2024-09-17 12:38:42.590967773,1726576722.5909681,2024-09-17 12:38:42.590968064,3,0.0,-2.5815357012322835,-13.51028340005273,[0.42576327 0.34511731 0.05961384 0.16950558],[0.42576327 0.34511731 0.05961384 0.16950558],"[-3.2197635e-03  9.8818076e-01 -3.1857334e-02 -2.4212994e-01
  9.1464268e-03  1.2028748e-02  0.0000000e+00  0.0000000e+00
 -6.0000002e-01  5.9678024e-01 -1.0006547e+01]",0.194723739205874,0,0
122,138,2024-09-17 12:38:41.141062912,TASK_BEGIN,8,1.038347056284865,-0.7296655318114486,3.7375777401865182,2.6806135187900617,-0.8325014920985643,-0.0505673004666958,9.691645947578394,2.9819062261978364,1,2024-09-17 12:38:42.590967773,1726576722.5909681,2024-09-17 12:38:42.590968064,3,0.0,-2.5815357012322835,-13.51028340005273,[0.42576327 0.34511731 0.05961384 0.16950558],[0.42576327 0.34511731 0.05961384 0.16950558],"[-3.2197635e-03  9.8818076e-01 -3.1857334e-02 -2.4212994e-01
  9.1464268e-03  1.2028748e-02  0.0000000e+00  0.0000000e+00
 -6.0000002e-01  5.9678024e-01 -1.0006547e+01]",0.194723739205874,0,0
123,139,2024-09-17 12:38:41.205863936,TASK_BEGIN,8,1.078545011136524,-0.7327057712788613,4.263379219499185,2.8631593920004605,-1.0673050606182126,-0.1845085451558444,8.370142195154184,3.2818235636392923,1,2024-09-17 12:38:42.590967773,1726576722.5909681,2024-09-17 12:38:42.590968064,3,0.0,-2.5815357012322835,-13.51028340005273,[0.42576327 0.34511731 0.05961384 0.16950558],[0.42576327 0.34511731 0.05961384 0.16950558],"[-3.2197635e-03  9.8818076e-01 -3.1857334e-02 -2.4212994e-01
  9.1464268e-03  1.2028748e-02  0.0000000e+00  0.0000000e+00
 -6.0000002e-01  5.9678024e-01 -1.0006547e+01]",0.194723739205874,0,0
124,140,2024-09-17 12:38:41.268347904,TASK_BEGIN,8,1.096779182121506,-0.7249991084301168,4.825250978337202,3.0399012750358434,-1.349652224705692,-0.3187478833230022,6.807892700996628,3.641600838766928,1,2024-09-17 12:38:42.590967773,1726576722.5909681,2024-09-17 12:38:42.590968064,3,0.0,-2.5815357012322835,-13.51028340005273,[0.42576327 0.34511731 0.05961384 0.16950558],[0.42576327 0.34511731 0.05961384 0.16950558],"[-3.2197635e-03  9.8818076e-01 -3.1857334e-02 -2.4212994e-01
  9.1464268e-03  1.2028748e-02  0.0000000e+00  0.0000000e+00
 -6.0000002e-01  5.9678024e-01 -1.0006547e+01]",0.194723739205874,0,0
125,141,2024-09-17 12:38:42.222183168,TASK_BEGIN,8,1.094811308872607,-0.7047272305717243,5.40425807945887,3.206624722195876,-1.6732535057951052,-0.4489198375883429,5.055086921998127,4.049557283078251,1,2024-09-17 12:38:43.823695801,1726576723.8236969,2024-09-17 12:38:43.823696896,3,0.0,-2.698768967968803,-16.057923077686823,[0.35618949 0.27601576 0.13747738 0.23031737],[0.35618949 0.27601576 0.13747738 0.23031737],"[-0.02173535  0.5975504  -0.04223294 -0.35009298  0.05542725  0.03552345
  0.          0.         -0.6         0.57826465 -6.881504  ]",0.08219502360094678,0,0
126,142,2024-09-17 12:38:42.281553920,TASK_BEGIN,8,1.0764471140081942,-0.6701039563919292,5.981098134840123,3.3591970717878885,-2.0303770778655457,-0.5707145527295793,3.1777943374011604,4.490581231643801,1,2024-09-17 12:38:44.095097900,1726576724.0950983,2024-09-17 12:38:44.095098368,3,0.0,-2.494992682110194,-15.91735087992328,[0.34597701 0.30047769 0.13774095 0.21580435],[0.34597701 0.30047769 0.13774095 0.21580435],"[-2.6740870e-02  5.1975334e-01 -5.7195552e-02 -3.4996834e-01
  7.1840189e-02 -2.9050879e-04  0.0000000e+00  0.0000000e+00
 -6.0000002e-01  5.7325912e-01 -6.2591276e+00]",0.09385867318471831,0,0
127,143,2024-09-17 12:38:42.343089152,TASK_BEGIN,8,1.0472456641864083,-0.6195640921329496,6.5370965326887776,3.494018327752694,-2.4119752354005453,-0.6802187478028089,1.2521895788079989,4.9475985132455085,1,2024-09-17 12:38:44.095097900,1726576724.0950983,2024-09-17 12:38:44.095098368,3,0.0,-2.494992682110194,-15.91735087992328,[0.34597701 0.30047769 0.13774095 0.21580435],[0.34597701 0.30047769 0.13774095 0.21580435],"[-2.6740870e-02  5.1975334e-01 -5.7195552e-02 -3.4996834e-01
  7.1840189e-02 -2.9050879e-04  0.0000000e+00  0.0000000e+00
 -6.0000002e-01  5.7325912e-01 -6.2591276e+00]",0.09385867318471831,0,0
128,144,2024-09-17 12:38:42.425599232,TASK_BEGIN,8,1.013860022858605,-0.5519373662873303,7.0543199179994485,3.608501214336452,-2.8078360301180023,-0.7742329567917778,-0.6420705620328162,5.403112835525579,1,2024-09-17 12:38:44.095097900,1726576724.0950983,2024-09-17 12:38:44.095098368,3,0.0,-2.494992682110194,-15.91735087992328,[0.34597701 0.30047769 0.13774095 0.21580435],[0.34597701 0.30047769 0.13774095 0.21580435],"[-2.6740870e-02  5.1975334e-01 -5.7195552e-02 -3.4996834e-01
  7.1840189e-02 -2.9050879e-04  0.0000000e+00  0.0000000e+00
 -6.0000002e-01  5.7325912e-01 -6.2591276e+00]",0.09385867318471831,0,0
129,145,2024-09-17 12:38:42.482774784,TASK_BEGIN,8,0.9832551320770015,-0.4665599495794986,7.515060951954942,3.701453416079927,-3.2067512466043744,-0.8505382691360052,-2.4285392672387367,5.840590118077599,1,2024-09-17 12:38:44.305099121,1726576724.3050992,2024-09-17 12:38:44.305099264,3,0.0,-2.5193691528137947,-38.41293231002321,[0.38925676 0.17333891 0.17438149 0.26302284],[0.38925676 0.17333891 0.17438149 0.26302284],"[-3.0714432e-02  4.4307077e-01 -5.7195555e-02 -6.0596842e-01
  7.1695037e-02 -2.9041700e-04  0.0000000e+00  0.0000000e+00
 -6.0000002e-01  5.6928557e-01 -5.6456671e+00]",0.1406508395737818,0,0
130,146,2024-09-17 12:38:42.560710912,TASK_BEGIN,8,0.9620310826695648,-0.3633119773758381,7.9014914445497055,3.773240196246801,-3.5967938735099585,-0.9080639285398536,-4.040160543558978,6.245528687714322,1,2024-09-17 12:38:44.305099121,1726576724.3050992,2024-09-17 12:38:44.305099264,3,0.0,-2.5193691528137947,-38.41293231002321,[0.38925676 0.17333891 0.17438149 0.26302284],[0.38925676 0.17333891 0.17438149 0.26302284],"[-3.0714432e-02  4.4307077e-01 -5.7195555e-02 -6.0596842e-01
  7.1695037e-02 -2.9041700e-04  0.0000000e+00  0.0000000e+00
 -6.0000002e-01  5.6928557e-01 -5.6456671e+00]",0.1406508395737818,0,0
131,147,2024-09-17 12:38:42.629020928,TASK_BEGIN,8,0.9559184848686256,-0.2426042369883993,8.19632287717868,3.825627552587159,-3.965823881751191,-0.9469102363402022,-5.4242034703179565,6.606071337282263,1,2024-09-17 12:38:44.473099854,1726576724.4731,2024-09-17 12:38:44.473100032,3,0.0,-2.556890021718317,-37.55739980103768,[0.40255463 0.15803523 0.13849434 0.30091579],[0.40255463 0.15803523 0.13849434 0.30091579],"[-0.03356171  0.36099052 -0.05789689 -0.6250411   0.07349607  0.00712354
  0.          0.         -0.6         0.5664383  -4.989025  ]",0.20805071404397896,0,0
132,148,2024-09-17 12:38:43.572180992,TASK_BEGIN,8,0.9694154111179905,-0.1053519956781807,8.384592616418246,3.8613376258448207,-4.302198128339223,-0.9682338527548312,-6.545344163602313,6.913168816325411,1,2024-09-17 12:38:45.037159912,1726576725.0371604,2024-09-17 12:38:45.037160448,3,0.0,-2.3875672057407655,-20.97549808501227,[0.47252561 0.06511125 0.09065771 0.37170544],[0.47252561 0.06511125 0.09065771 0.37170544],"[-0.04862563  0.11241066 -0.16241725 -0.48660347  0.09598167  0.00840953
  0.          0.         -0.6         0.5513744  -3.0003865 ]",0.42516537729540954,0,0
133,149,2024-09-17 12:38:43.635823872,TASK_BEGIN,8,1.005553834936834,0.0470327582967587,8.456023191319755,3.8834809195722073,-4.59546968910679,-0.9740656836576423,-7.386906285128474,7.160549447451009,1,2024-09-17 12:38:45.037159912,1726576725.0371604,2024-09-17 12:38:45.037160448,3,0.0,-2.3875672057407655,-20.97549808501227,[0.47252561 0.06511125 0.09065771 0.37170544],[0.47252561 0.06511125 0.09065771 0.37170544],"[-0.04862563  0.11241066 -0.16241725 -0.48660347  0.09598167  0.00840953
  0.          0.         -0.6         0.5513744  -3.0003865 ]",0.42516537729540954,0,0
134,150,2024-09-17 12:38:43.707751936,TASK_BEGIN,8,1.0657933553133292,0.2126244205615475,8.407355685648092,3.8950032717697978,-4.836867453154539,-0.9671213235241262,-7.950729597198215,7.344764587591654,1,2024-09-17 12:38:45.037159912,1726576725.0371604,2024-09-17 12:38:45.037160448,3,0.0,-2.3875672057407655,-20.97549808501227,[0.47252561 0.06511125 0.09065771 0.37170544],[0.47252561 0.06511125 0.09065771 0.37170544],"[-0.04862563  0.11241066 -0.16241725 -0.48660347  0.09598167  0.00840953
  0.          0.         -0.6         0.5513744  -3.0003865 ]",0.42516537729540954,0,0
135,151,2024-09-17 12:38:43.775527168,TASK_BEGIN,8,1.1500058309265055,0.3889633552560689,8.244100550490057,3.898223781509874,-5.019530784062443,-0.9505989660662632,-8.256009947691108,7.465292997622264,1,2024-09-17 12:38:45.037159912,1726576725.0371604,2024-09-17 12:38:45.037160448,3,0.0,-2.3875672057407655,-20.97549808501227,[0.47252561 0.06511125 0.09065771 0.37170544],[0.47252561 0.06511125 0.09065771 0.37170544],"[-0.04862563  0.11241066 -0.16241725 -0.48660347  0.09598167  0.00840953
  0.          0.         -0.6         0.5513744  -3.0003865 ]",0.42516537729540954,0,0
136,152,2024-09-17 12:38:43.837179904,TASK_BEGIN,8,1.2565270005832572,0.5730647285889218,7.98103495454428,3.8945790550422985,-5.138627388782615,-0.927934516710416,-8.337110014646958,7.524470707078834,1,2024-09-17 12:38:45.037159912,1726576725.0371604,2024-09-17 12:38:45.037160448,3,0.0,-2.3875672057407655,-20.97549808501227,[0.47252561 0.06511125 0.09065771 0.37170544],[0.47252561 0.06511125 0.09065771 0.37170544],"[-0.04862563  0.11241066 -0.16241725 -0.48660347  0.09598167  0.00840953
  0.          0.         -0.6         0.5513744  -3.0003865 ]",0.42516537729540954,0,0
137,153,2024-09-17 12:38:43.911180032,TASK_BEGIN,8,1.382298568016944,0.7614876762864924,7.641066173491972,3.884679334715284,-5.191491527761748,-0.9025107409386424,-8.240265060005958,7.527075912184323,1,2024-09-17 12:38:45.037159912,1726576725.0371604,2024-09-17 12:38:45.037160448,3,0.0,-2.3875672057407655,-20.97549808501227,[0.47252561 0.06511125 0.09065771 0.37170544],[0.47252561 0.06511125 0.09065771 0.37170544],"[-0.04862563  0.11241066 -0.16241725 -0.48660347  0.09598167  0.00840953
  0.          0.         -0.6         0.5513744  -3.0003865 ]",0.42516537729540954,0,0
138,154,2024-09-17 12:38:43.978159872,TASK_BEGIN,8,1.523111014910197,0.9504857563935376,7.252788996426438,3.868617833124649,-5.177803568224721,-0.8773493711575512,-8.01935637627702,7.479553297267197,1,2024-09-17 12:38:45.037159912,1726576725.0371604,2024-09-17 12:38:45.037160448,3,0.0,-2.3875672057407655,-20.97549808501227,[0.47252561 0.06511125 0.09065771 0.37170544],[0.47252561 0.06511125 0.09065771 0.37170544],"[-0.04862563  0.11241066 -0.16241725 -0.48660347  0.09598167  0.00840953
  0.          0.         -0.6         0.5513744  -3.0003865 ]",0.42516537729540954,0,0
139,155,2024-09-17 12:38:44.919459840,TASK_BEGIN,8,1.6739065321318,1.1362302926576076,6.847431969242445,3.8463511675203264,-5.099725165633192,-0.854837558452521,-7.731234408523461,7.389000153609535,1,2024-09-17 12:38:46.189209961,1726576726.189211,2024-09-17 12:38:46.189210880,3,2.0,16.068563070994156,26.93250561303592,[0.0523735  0.00320721 0.94049021 0.00392908],[0.0523735  0.00320721 0.94049021 0.00392908],"[-0.15784462 -0.24488658 -0.35540706 -0.14101854  0.0445879  -0.00955296
  1.          1.         -0.6         0.4421554  -0.14200847]",1.0320804853295018,1,1
140,156,2024-09-17 12:38:44.980476928,TASK_BEGIN,8,1.829096746454214,1.315058432577866,6.455669277023915,3.818031150593914,-4.961932572241024,-0.8365457441887972,-7.431063914471523,7.262163191612476,1,2024-09-17 12:38:46.189209961,1726576726.189211,2024-09-17 12:38:46.189210880,3,2.0,16.068563070994156,26.93250561303592,[0.0523735  0.00320721 0.94049021 0.00392908],[0.0523735  0.00320721 0.94049021 0.00392908],"[-0.15784462 -0.24488658 -0.35540706 -0.14101854  0.0445879  -0.00955296
  1.          1.         -0.6         0.4421554  -0.14200847]",1.0320804853295018,1,1
141,157,2024-09-17 12:38:45.055179264,TASK_BEGIN,8,1.9828718124228664,1.4836881312688488,6.104540557967794,3.7842679076329766,-4.771563543061501,-0.8231678206199401,-7.1679494682959,7.104702853841729,1,2024-09-17 12:38:46.189209961,1726576726.189211,2024-09-17 12:38:46.189210880,3,2.0,16.068563070994156,26.93250561303592,[0.0523735  0.00320721 0.94049021 0.00392908],[0.0523735  0.00320721 0.94049021 0.00392908],"[-0.15784462 -0.24488658 -0.35540706 -0.14101854  0.0445879  -0.00955296
  1.          1.         -0.6         0.4421554  -0.14200847]",1.0320804853295018,1,1
142,158,2024-09-17 12:38:45.122906112,TASK_BEGIN,8,2.1294798694812407,1.6393719462318246,5.814805478984941,3.746300085363967,-4.538056742983726,-0.8145733474517299,-6.981137198529838,6.920860027546236,1,2024-09-17 12:38:46.189209961,1726576726.189211,2024-09-17 12:38:46.189210880,3,2.0,16.068563070994156,26.93250561303592,[0.0523735  0.00320721 0.94049021 0.00392908],[0.0523735  0.00320721 0.94049021 0.00392908],"[-0.15784462 -0.24488658 -0.35540706 -0.14101854  0.0445879  -0.00955296
  1.          1.         -0.6         0.4421554  -0.14200847]",1.0320804853295018,1,1
143,159,2024-09-17 12:38:45.181708032,TASK_BEGIN,8,2.2634707099711706,1.7799887604807108,5.599098034687654,3.706021902750898,-4.272780343674904,-0.8099472593504629,-6.897066415802532,6.713528979298087,1,2024-09-17 12:38:46.357284912,1726576726.357285,2024-09-17 12:38:46.357285120,3,3.0,-8.428935918503862,17.056123956858755,[0.43282488 0.09022664 0.02780797 0.4491405 ],[0.43282488 0.09022664 0.02780797 0.4491405 ],"[-0.17458344 -0.23877352 -0.27247885 -0.00798134  0.03762664 -0.05610462
  0.          0.         -0.6         0.42541656 -0.19091289]",0.4370009140072777,1,1
144,160,2024-09-17 12:38:45.244196096,TASK_BEGIN,8,2.3799171106591004,1.9040796116693928,5.461038226440268,3.66584989124018,-3.9883779689536,-0.8080041926993001,-6.92731397746118,6.484627334341591,1,2024-09-17 12:38:46.357284912,1726576726.357285,2024-09-17 12:38:46.357285120,3,3.0,-8.428935918503862,17.056123956858755,[0.43282488 0.09022664 0.02780797 0.4491405 ],[0.43282488 0.09022664 0.02780797 0.4491405 ],"[-0.17458344 -0.23877352 -0.27247885 -0.00798134  0.03762664 -0.05610462
  0.          0.         -0.6         0.42541656 -0.19091289]",0.4370009140072777,1,1
145,161,2024-09-17 12:38:45.326360064,TASK_BEGIN,8,2.4745977963886547,2.010841657918743,5.39538947766931,3.628443015316536,-3.697901923733905,-0.8072434436543671,-7.067772250766781,6.2355867382751,1,2024-09-17 12:38:46.399326172,1726576726.3993263,2024-09-17 12:38:46.399326208,3,0.0,-0.5554594850316477,27.49276098007414,[0.44727575 0.08667529 0.04775939 0.41828957],[0.44727575 0.08667529 0.04775939 0.41828957],"[-0.17810218 -0.23965573 -0.25746953 -0.03836294  0.04293492  0.07732695
  1.          0.         -0.6         0.42189783 -0.18385522]",0.3675296837610088,1,1
146,162,2024-09-17 12:38:46.230413824,TASK_BEGIN,8,2.5440989255200046,2.100099893184191,5.38943177962937,3.59629800218772,-3.413906171874603,-0.806156406271182,-7.299789386487969,5.967836712331459,1,2024-09-17 12:38:47.281438965,1726576727.2814398,2024-09-17 12:38:47.281439744,3,0.0,0.37462575894279837,38.63063408827641,[0.49539168 0.13300064 0.02216145 0.34944623],[0.49539168 0.13300064 0.02216145 0.34944623],"[-0.22969127 -0.2440458  -0.10611391 -0.0035174   0.05447307  0.0020896
  1.          1.         -0.6         0.37030873 -0.14873473]",0.3165647740200605,1,1
147,163,2024-09-17 12:38:46.312335872,TASK_BEGIN,8,2.585817515923083,2.1722626720746536,5.425432113475345,3.5712842572818864,-3.147641540818092,-0.803312297535929,-7.593289890816752,5.683240014771837,1,2024-09-17 12:38:47.362206055,1726576727.3622065,2024-09-17 12:38:47.362206464,3,0.0,0.3707424514759765,38.57496055026752,[0.49500284 0.1349036  0.02161888 0.34847468],[0.49500284 0.1349036  0.02161888 0.34847468],"[-0.23239453 -0.24424738 -0.09226609 -0.00305863  0.05485692  0.00181692
  1.          1.         -0.6         0.36760548 -0.14712207]",0.3124648482730193,1,1
148,164,2024-09-17 12:38:46.370526976,TASK_BEGIN,8,2.5978823141135825,2.2282482157646726,5.483504963685721,3.554238712336125,-2.9084170234793687,-0.7973487238310473,-7.910815865095733,5.384456028224119,1,2024-09-17 12:38:47.425192139,1726576727.4251924,2024-09-17 12:38:47.425192448,3,0.0,0.367888448294039,38.524710240948515,[0.49383608 0.13648306 0.02133194 0.34834892],[0.49383608 0.13648306 0.02133194 0.34834892],"[-0.23416996 -0.24437988 -0.08188054 -0.00271449  0.05510894  0.00161239
  1.          1.         -0.6         0.36583003 -0.14606206]",0.3097230091696856,1,1
149,165,2024-09-17 12:38:46.433011968,TASK_BEGIN,8,2.579041657111124,2.26936839652613,5.54400711675486,3.544734972637725,-2.7031679270857043,-0.7869554482706718,-8.211466079399736,5.075222001677931,1,2024-09-17 12:38:47.487603027,1726576727.4876037,2024-09-17 12:38:47.487603712,3,0.0,0.365067258910571,38.467529550356744,[0.49074333 0.13920209 0.02145428 0.3486003 ],[0.49074333 0.13920209 0.02145428 0.3486003 ],"[-0.23572922 -0.24449617 -0.07149526 -0.00237031  0.05533034  0.00140791
  1.          1.         -0.6         0.36427078 -0.14513175]",0.3050557995644969,1,1
150,166,2024-09-17 12:38:46.515739136,TASK_BEGIN,8,2.528597481832425,2.297177041765518,5.589112540870821,3.54107052234581,-2.536257668784584,-0.7709049644831671,-8.45460223366586,4.76058088308405,1,2024-09-17 12:38:47.571603027,1726576727.5716035,2024-09-17 12:38:47.571603456,3,0.0,0.36135994584095954,38.381072002599204,[0.4888063  0.14474353 0.02164922 0.34480094],[0.4888063  0.14474353 0.02164922 0.34480094],"[-0.2374723  -0.2446261  -0.05764858 -0.00191134  0.05557781  0.00113523
  1.          1.         -0.6         0.3625277  -0.14409225]",0.30010325050065817,1,1
151,167,2024-09-17 12:38:46.583527168,TASK_BEGIN,8,2.4464113848322238,2.3133167126104297,5.603736641272708,3.5404489698870365,-2.4094984584982377,-0.7481262539347209,-8.603638890528899,4.447047204106745,1,2024-09-17 12:38:47.634601074,1726576727.6346009,2024-09-17 12:38:47.634600960,3,0.0,0.3586125302292089,38.308926178064006,[0.48733982 0.14915051 0.02180108 0.34170859],[0.48733982 0.14915051 0.02180108 0.34170859],"[-2.3852754e-01 -2.4470484e-01 -4.7263820e-02 -1.5670799e-03
  5.5727620e-02  9.3072513e-04  1.0000000e+00  1.0000000e+00
 -6.0000002e-01  3.6147246e-01 -1.4346235e-01]",0.29730468538364124,1,1
152,168,2024-09-17 12:38:46.651341824,TASK_BEGIN,8,2.332926652348322,2.319406456036764,5.57612792738121,3.539296767181469,-2.3223704015690827,-0.7177931108317286,-8.629692664727665,4.142587066082587,1,2024-09-17 12:38:47.697601074,1726576727.6976013,2024-09-17 12:38:47.697601280,3,0.0,0.3558916552018445,38.230809864309315,[0.48571403 0.15348757 0.02192484 0.33887356],[0.48571403 0.15348757 0.02192484 0.33887356],"[-2.3936684e-01 -2.4476749e-01 -3.6879208e-02 -1.2227972e-03
  5.5846855e-02  7.2622910e-04  1.0000000e+00  1.0000000e+00
 -6.0000002e-01  3.6063316e-01 -1.4296119e-01]",0.2953718232700765,1,1
153,176,2024-09-17 12:38:48.934031104,TASK_BEGIN,8,0.5842698081639817,2.192246850300468,3.818303179643486,3.1117934740135644,-2.555004808087229,-0.2448617090469016,-4.376007552505899,3.029375061030261,1,2024-09-17 12:38:50.271774902,1726576730.271776,2024-09-17 12:38:50.271776000,4,0.0,-2.5350375749604694,-19.121526324517596,[0.41116858 0.1524759  0.09119559 0.34515993],[0.41116858 0.1524759  0.09119559 0.34515993],"[ -0.01410818   0.97641516  -0.12313011  -0.3046978    0.039773
   0.0464348    0.           0.          -0.4          0.38589182
 -10.406254  ]",0.16440127128717466,0,0
154,177,2024-09-17 12:38:49.012040960,TASK_BEGIN,8,0.3289123696031317,2.1784411124961247,3.5274896794022985,2.9913344873196035,-2.616163706154464,-0.179161755468523,-3.6076877117661295,3.1097312704936826,1,2024-09-17 12:38:50.271774902,1726576730.271776,2024-09-17 12:38:50.271776000,4,0.0,-2.5350375749604694,-19.121526324517596,[0.41116858 0.1524759  0.09119559 0.34515993],[0.41116858 0.1524759  0.09119559 0.34515993],"[ -0.01410818   0.97641516  -0.12313011  -0.3046978    0.039773
   0.0464348    0.           0.          -0.4          0.38589182
 -10.406254  ]",0.16440127128717466,0,0
155,178,2024-09-17 12:38:49.074016000,TASK_BEGIN,8,0.0854435294752319,2.170018048764782,3.24977575976632,2.862934027967472,-2.6660894383159293,-0.1172048233300501,-2.876952607256096,3.220682631459688,1,2024-09-17 12:38:50.271774902,1726576730.271776,2024-09-17 12:38:50.271776000,4,0.0,-2.5350375749604694,-19.121526324517596,[0.41116858 0.1524759  0.09119559 0.34515993],[0.41116858 0.1524759  0.09119559 0.34515993],"[ -0.01410818   0.97641516  -0.12313011  -0.3046978    0.039773
   0.0464348    0.           0.          -0.4          0.38589182
 -10.406254  ]",0.16440127128717466,0,0
156,179,2024-09-17 12:38:49.149681920,TASK_BEGIN,8,-0.1404838083672818,2.167852571625986,2.9900962212188973,2.730819825490427,-2.701013815746032,-0.0594351632209919,-2.201757649577256,3.348239534860197,1,2024-09-17 12:38:50.271774902,1726576730.271776,2024-09-17 12:38:50.271776000,4,0.0,-2.5350375749604694,-19.121526324517596,[0.41116858 0.1524759  0.09119559 0.34515993],[0.41116858 0.1524759  0.09119559 0.34515993],"[ -0.01410818   0.97641516  -0.12313011  -0.3046978    0.039773
   0.0464348    0.           0.          -0.4          0.38589182
 -10.406254  ]",0.16440127128717466,0,0
157,180,2024-09-17 12:38:49.213797120,TASK_BEGIN,8,-0.3442993837744098,2.1724644435437805,2.7519402728888074,2.5994400493168968,-2.717964902749934,-0.0059012220044632,-1.5957249562246956,3.4778365406809653,1,2024-09-17 12:38:50.271774902,1726576730.271776,2024-09-17 12:38:50.271776000,4,0.0,-2.5350375749604694,-19.121526324517596,[0.41116858 0.1524759  0.09119559 0.34515993],[0.41116858 0.1524759  0.09119559 0.34515993],"[ -0.01410818   0.97641516  -0.12313011  -0.3046978    0.039773
   0.0464348    0.           0.          -0.4          0.38589182
 -10.406254  ]",0.16440127128717466,0,0
158,181,2024-09-17 12:38:49.275333888,TASK_BEGIN,8,-0.522743907358662,2.1840227138814594,2.537477347353413,2.4732125042051467,-2.7145708466337286,0.0435594761633313,-1.0688817692953512,3.595518203746443,1,2024-09-17 12:38:50.333775879,1726576730.3337762,2024-09-17 12:38:50.333776128,4,0.0,-2.6043083258546176,-26.229797566616423,[0.37071859 0.14025233 0.1299876  0.35904148],[0.37071859 0.14025233 0.1299876  0.35904148],"[ -0.01660466   0.95973563  -0.12321804  -0.38153416   0.04673261
   0.04639756   0.           0.          -0.4          0.38339534
 -10.272818  ]",0.129175698685217,0,0
159,182,2024-09-17 12:38:49.353079040,TASK_BEGIN,8,-0.6738832051002271,2.202366491217018,2.348024540751314,2.3562508892825127,-2.688975482170424,0.0891552666004218,-0.6281494153503211,3.6890468276911177,1,2024-09-17 12:38:50.476801025,1726576730.4768019,2024-09-17 12:38:50.476801792,4,2.0,4.320032195983242,-34.38478679212544,[0.27140151 0.12794499 0.31817563 0.28247787],[0.27140151 0.12794499 0.31817563 0.28247787],"[-0.02165047  0.9077816  -0.09321284 -0.4939048   0.04966667  0.01425689
  0.          0.         -0.4         0.3783495  -9.857185  ]",0.0675934267568212,0,0
160,183,2024-09-17 12:38:50.283654912,TASK_BEGIN,8,-0.7969540152579697,2.2270328460785445,2.1847898779753803,2.2520657665715307,-2.6399358255360283,0.1310345121327268,-0.2779360819356818,3.749110378857141,1,2024-09-17 12:38:52.040220947,1726576732.0402212,2024-09-17 12:38:52.040221184,4,0.0,-2.5538600959479822,-32.7424226876633,[0.41706131 0.14623707 0.11286884 0.32383278],[0.41706131 0.14623707 0.11286884 0.32383278],"[-0.07088248  0.30479455 -0.09342364 -0.649543    0.04783558  0.01236269
  0.          0.         -0.4         0.3291175  -5.0332894 ]",0.19921236592532,0,0
161,184,2024-09-17 12:38:50.361731072,TASK_BEGIN,8,-0.892125590387665,2.257289626037256,2.0495773762090823,2.163261407541184,-2.567082918546735,0.1692564580157239,-0.0210697669066477,3.770630253373177,1,2024-09-17 12:38:52.040220947,1726576732.0402212,2024-09-17 12:38:52.040221184,4,0.0,-2.5538600959479822,-32.7424226876633,[0.41706131 0.14623707 0.11286884 0.32383278],[0.41706131 0.14623707 0.11286884 0.32383278],"[-0.07088248  0.30479455 -0.09342364 -0.649543    0.04783558  0.01236269
  0.          0.         -0.4         0.3291175  -5.0332894 ]",0.19921236592532,0,0
162,185,2024-09-17 12:38:50.430491904,TASK_BEGIN,8,-0.960259531742576,2.292181851316548,1.9452776390609905,2.091270422518788,-2.4712115680479507,0.2038238316279329,0.1405028898055488,3.7538357240947033,1,2024-09-17 12:38:52.040220947,1726576732.0402212,2024-09-17 12:38:52.040221184,4,0.0,-2.5538600959479822,-32.7424226876633,[0.41706131 0.14623707 0.11286884 0.32383278],[0.41706131 0.14623707 0.11286884 0.32383278],"[-0.07088248  0.30479455 -0.09342364 -0.649543    0.04783558  0.01236269
  0.          0.         -0.4         0.3291175  -5.0332894 ]",0.19921236592532,0,0
163,186,2024-09-17 12:38:50.485308160,TASK_BEGIN,8,-1.002717490770197,2.3306012581419324,1.8760931770048288,2.0361926853590537,-2.354393128038545,0.2347298422881968,0.2061821753696142,3.704574842308959,1,2024-09-17 12:38:52.040220947,1726576732.0402212,2024-09-17 12:38:52.040221184,4,0.0,-2.5538600959479822,-32.7424226876633,[0.41706131 0.14623707 0.11286884 0.32383278],[0.41706131 0.14623707 0.11286884 0.32383278],"[-0.07088248  0.30479455 -0.09342364 -0.649543    0.04783558  0.01236269
  0.          0.         -0.4         0.3291175  -5.0332894 ]",0.19921236592532,0,0
164,187,2024-09-17 12:38:50.565934848,TASK_BEGIN,8,-1.021226097138426,2.371369864344937,1.8474239148298397,1.9967991732652963,-2.219795856275413,0.2619682014915262,0.1785021198597461,3.633505437111301,1,2024-09-17 12:38:52.040220947,1726576732.0402212,2024-09-17 12:38:52.040221184,4,0.0,-2.5538600959479822,-32.7424226876633,[0.41706131 0.14623707 0.11286884 0.32383278],[0.41706131 0.14623707 0.11286884 0.32383278],"[-0.07088248  0.30479455 -0.09342364 -0.649543    0.04783558  0.01236269
  0.          0.         -0.4         0.3291175  -5.0332894 ]",0.19921236592532,0,0
165,188,2024-09-17 12:38:50.633852160,TASK_BEGIN,8,-1.0177875420113778,2.4133151360518306,1.8653945203211872,1.9706900938422716,-2.071323501632306,0.285495780427559,0.0654656678258785,3.5542621325640837,1,2024-09-17 12:38:52.040220947,1726576732.0402212,2024-09-17 12:38:52.040221184,4,0.0,-2.5538600959479822,-32.7424226876633,[0.41706131 0.14623707 0.11286884 0.32383278],[0.41706131 0.14623707 0.11286884 0.32383278],"[-0.07088248  0.30479455 -0.09342364 -0.649543    0.04783558  0.01236269
  0.          0.         -0.4         0.3291175  -5.0332894 ]",0.19921236592532,0,0
166,189,2024-09-17 12:38:50.691928064,TASK_BEGIN,8,-0.9946204685280116,2.4553265723035973,1.936127292175613,1.9545405614490003,-1.9133415193883585,0.3051985852820837,-0.1174459513957745,3.481086713496786,1,2024-09-17 12:38:52.040220947,1726576732.0402212,2024-09-17 12:38:52.040221184,4,0.0,-2.5538600959479822,-32.7424226876633,[0.41706131 0.14623707 0.11286884 0.32383278],[0.41706131 0.14623707 0.11286884 0.32383278],"[-0.07088248  0.30479455 -0.09342364 -0.649543    0.04783558  0.01236269
  0.          0.         -0.4         0.3291175  -5.0332894 ]",0.19921236592532,0,0
167,190,2024-09-17 12:38:51.646403072,TASK_BEGIN,8,-0.9541173685151236,2.496396573388344,2.064903339116967,1.944390478262654,-1.7506308576050231,0.3209181149546369,-0.3463239886561594,3.4265520486839733,1,2024-09-17 12:38:52.965583008,1726576732.9655836,2024-09-17 12:38:52.965583616,4,3.0,-2.461771660537588,-8.769429705902684,[0.38999513 0.03863361 0.1601514  0.41121987],[0.38999513 0.03863361 0.1601514  0.41121987],"[-0.08768582 -0.09624535 -0.00878481 -0.41134876  0.12199645  0.00497328
  0.          0.         -0.4         0.31231418 -1.8249701 ]",0.34063742968515626,0,0
168,191,2024-09-17 12:38:51.707954176,TASK_BEGIN,8,-0.8988155934603623,2.53564555570866,2.2553001497145835,1.935967372455286,-1.5884484914750958,0.3325382381263414,-0.5895762918692599,3.3998802222112667,1,2024-09-17 12:38:52.965583008,1726576732.9655836,2024-09-17 12:38:52.965583616,4,3.0,-2.461771660537588,-8.769429705902684,[0.38999513 0.03863361 0.1601514  0.41121987],[0.38999513 0.03863361 0.1601514  0.41121987],"[-0.08768582 -0.09624535 -0.00878481 -0.41134876  0.12199645  0.00497328
  0.          0.         -0.4         0.31231418 -1.8249701 ]",0.34063742968515626,0,0
169,192,2024-09-17 12:38:51.769556992,TASK_BEGIN,8,-0.8313791914423363,2.5723310834531885,2.5083805292405965,1.9250180910147725,-1.4325249766807466,0.3400922808228583,-0.810216873463637,3.405947035364276,1,2024-09-17 12:38:52.965583008,1726576732.9655836,2024-09-17 12:38:52.965583616,4,3.0,-2.461771660537588,-8.769429705902684,[0.38999513 0.03863361 0.1601514  0.41121987],[0.38999513 0.03863361 0.1601514  0.41121987],"[-0.08768582 -0.09624535 -0.00878481 -0.41134876  0.12199645  0.00497328
  0.          0.         -0.4         0.31231418 -1.8249701 ]",0.34063742968515626,0,0
170,193,2024-09-17 12:38:51.847664128,TASK_BEGIN,8,-0.7545649932716211,2.605849372732421,2.821986381430292,1.9076317367249616,-1.2889186684039733,0.343841814594131,-0.968809991914449,3.444768401468274,1,2024-09-17 12:38:52.965583008,1726576732.9655836,2024-09-17 12:38:52.965583616,4,3.0,-2.461771660537588,-8.769429705902684,[0.38999513 0.03863361 0.1601514  0.41121987],[0.38999513 0.03863361 0.1601514  0.41121987],"[-0.08768582 -0.09624535 -0.00878481 -0.41134876  0.12199645  0.00497328
  0.          0.         -0.4         0.31231418 -1.8249701 ]",0.34063742968515626,0,0
171,194,2024-09-17 12:38:51.909326080,TASK_BEGIN,8,-0.6711452548742112,2.635740224742353,3.190033368302264,1.8805831272899285,-1.1636849064307038,0.3442799204185316,-1.0266654297182298,3.511476592933113,1,2024-09-17 12:38:52.965583008,1726576732.9655836,2024-09-17 12:38:52.965583616,4,3.0,-2.461771660537588,-8.769429705902684,[0.38999513 0.03863361 0.1601514  0.41121987],[0.38999513 0.03863361 0.1601514  0.41121987],"[-0.08768582 -0.09624535 -0.00878481 -0.41134876  0.12199645  0.00497328
  0.          0.         -0.4         0.31231418 -1.8249701 ]",0.34063742968515626,0,0
172,195,2024-09-17 12:38:51.971004928,TASK_BEGIN,8,-0.5838001340716911,2.66169788388476,3.601797101928323,1.8416912246103865,-1.0623996709578447,0.3420511673668236,-0.949532819793702,3.5970319276484943,1,2024-09-17 12:38:53.778294189,1726576733.7782948,2024-09-17 12:38:53.778294784,4,2.0,18.934954594151616,24.651027090716887,[0.11439414 0.04410825 0.83853328 0.00296433],[0.11439414 0.04410825 0.83853328 0.00296433],"[-0.11143581 -0.30982757 -0.10453997 -0.12542348  0.13022819 -0.41619983
  0.          1.         -0.4         0.28856418 -0.11631235]",0.5098166626638844,0,0
173,196,2024-09-17 12:38:52.048393984,TASK_BEGIN,8,-0.4950195970639331,2.683578202292969,4.041641688275781,1.7900669492857222,-0.9896802769342612,0.3378400906979238,-0.7116549140094804,3.689660374535828,1,2024-09-17 12:38:53.778294189,1726576733.7782948,2024-09-17 12:38:53.778294784,4,2.0,18.934954594151616,24.651027090716887,[0.11439414 0.04410825 0.83853328 0.00296433],[0.11439414 0.04410825 0.83853328 0.00296433],"[-0.11143581 -0.30982757 -0.10453997 -0.12542348  0.13022819 -0.41619983
  0.          1.         -0.4         0.28856418 -0.11631235]",0.5098166626638844,0,0
174,197,2024-09-17 12:38:52.965009152,TASK_BEGIN,8,-0.4070325312363013,2.701387627844093,4.489742804050118,1.7261276908203664,-0.9488076069826598,0.3322881960132484,-0.2993550066377637,3.776660529968067,1,2024-09-17 12:38:54.243118164,1726576734.2431188,2024-09-17 12:38:54.243118848,4,3.0,0.9134092451724223,5.976469860998199,[0.43003628 0.04989286 0.00779021 0.51228065],[0.43003628 0.04989286 0.00779021 0.51228065],"[-0.13119085 -0.3415829  -0.06264392 -0.05234746 -0.3571104   0.16023992
  1.          0.         -0.4         0.26880914  0.13773027]",0.665492222988575,0,0
175,198,2024-09-17 12:38:53.027565056,TASK_BEGIN,8,-0.3217568622941305,2.715249909684471,4.923888855071215,1.6513964056862127,-0.9414451055902804,0.3259549918831442,0.2867889034638656,3.846201929269111,1,2024-09-17 12:38:54.243118164,1726576734.2431188,2024-09-17 12:38:54.243118848,4,3.0,0.9134092451724223,5.976469860998199,[0.43003628 0.04989286 0.00779021 0.51228065],[0.43003628 0.04989286 0.00779021 0.51228065],"[-0.13119085 -0.3415829  -0.06264392 -0.05234746 -0.3571104   0.16023992
  1.          0.         -0.4         0.26880914  0.13773027]",0.665492222988575,0,0
176,199,2024-09-17 12:38:53.089167872,TASK_BEGIN,8,-0.2407638359904015,2.72536161793966,5.321946418612672,1.568176587532866,-0.9674216050810148,0.3193026497487566,1.0316292508828648,3.888869541265634,1,2024-09-17 12:38:54.243118164,1726576734.2431188,2024-09-17 12:38:54.243118848,4,3.0,0.9134092451724223,5.976469860998199,[0.43003628 0.04989286 0.00779021 0.51228065],[0.43003628 0.04989286 0.00779021 0.51228065],"[-0.13119085 -0.3415829  -0.06264392 -0.05234746 -0.3571104   0.16023992
  1.          0.         -0.4         0.26880914  0.13773027]",0.665492222988575,0,0
177,200,2024-09-17 12:38:53.167757056,TASK_BEGIN,8,-0.1652346567125703,2.7319460267926643,5.664280001206956,1.4791996262425997,-1.024567531322572,0.3126889961395377,1.906755736837073,3.8987912896908967,1,2024-09-17 12:38:54.243118164,1726576734.2431188,2024-09-17 12:38:54.243118848,4,3.0,0.9134092451724223,5.976469860998199,[0.43003628 0.04989286 0.00779021 0.51228065],[0.43003628 0.04989286 0.00779021 0.51228065],"[-0.13119085 -0.3415829  -0.06264392 -0.05234746 -0.3571104   0.16023992
  1.          0.         -0.4         0.26880914  0.13773027]",0.665492222988575,0,0
178,201,2024-09-17 12:38:53.240158976,TASK_BEGIN,8,-0.0958781725079733,2.7352053484453007,5.935362675084124,1.3873805558821417,-1.108603725781,0.3063645983253918,2.8730415860599345,3.8742131774194046,1,2024-09-17 12:38:54.286120850,1726576734.2861211,2024-09-17 12:38:54.286121216,4,3.0,0.15351876195477643,6.437705823939036,[0.33795513 0.04755632 0.02342777 0.59106079],[0.33795513 0.04755632 0.02342777 0.59106079],"[-0.13161333 -0.3441916  -0.03915797 -0.08921112 -0.3355109   0.23444562
  1.          0.         -0.4         0.26838666  0.1586    ]",0.6579846359719366,0,0
179,202,2024-09-17 12:38:53.307751936,TASK_BEGIN,8,-0.0328314973576059,2.735277316398691,6.124194870279939,1.2957897224932349,-1.2131157078192578,0.3004527383410893,3.8842945151346218,3.817425098617357,1,2024-09-17 12:38:55.137137939,1726576735.1371386,2024-09-17 12:38:55.137138688,4,0.0,-0.3055876403811908,11.246208392724633,[6.47963568e-01 9.09063592e-02 5.70541603e-04 2.60559531e-01],[6.47963568e-01 9.09063592e-02 5.70541603e-04 2.60559531e-01],"[-0.10937866 -0.36111575  0.11010344 -0.01216919 -0.28676254 -0.02473405
  1.          1.         -0.4         0.29062134  0.29399315]",0.6285565441731765,0,0
180,203,2024-09-17 12:38:53.370237952,TASK_BEGIN,8,0.0243635631085579,2.7322141114289424,6.223788897737576,1.2077729962111932,-1.3296845395145973,0.294885733631253,4.8917434162323445,3.734056502587581,1,2024-09-17 12:38:55.200135986,1726576735.200136,2024-09-17 12:38:55.200135936,4,0.0,-0.31353826989318634,9.988793654490003,[6.50260072e-01 9.03213052e-02 5.35997635e-04 2.58882625e-01],[6.50260072e-01 9.03213052e-02 5.35997635e-04 2.58882625e-01],"[-0.10706449 -0.3616848   0.11423355 -0.0126532  -0.2905668  -0.02567646
  1.          1.         -0.4         0.29293552  0.2985455 ]",0.6325658077970154,0,0
181,204,2024-09-17 12:38:54.307833088,TASK_BEGIN,8,0.0766267438641138,2.7259976331650004,6.230338329378969,1.1270028790808932,-1.4482364400996508,0.2893124346679205,5.848659517418405,3.631937579778072,1,2024-09-17 12:38:55.452138916,1726576735.4521396,2024-09-17 12:38:55.452139520,4,0.0,-10.671695652371142,-5.381817414842428,[6.67359929e-01 9.10423816e-02 4.68756393e-04 2.41128933e-01],[6.67359929e-01 9.10423816e-02 4.68756393e-04 2.41128933e-01],"[-9.6874155e-02 -3.6461592e-01  1.3662429e-01 -2.8549433e-02
 -3.0428511e-01 -3.3616770e-10  1.0000000e+00  0.0000000e+00
 -4.0000001e-01  3.0312583e-01  3.2199445e-01]",0.7274720631116883,1,1
182,205,2024-09-17 12:38:54.386390784,TASK_BEGIN,8,0.1250782263276054,2.716584351745768,6.142596847670536,1.0572935206743794,-1.5576686510959636,0.2830306317654962,6.714328805483804,3.5198187588739094,1,2024-09-17 12:38:55.452138916,1726576735.4521396,2024-09-17 12:38:55.452139520,4,0.0,-10.671695652371142,-5.381817414842428,[6.67359929e-01 9.10423816e-02 4.68756393e-04 2.41128933e-01],[6.67359929e-01 9.10423816e-02 4.68756393e-04 2.41128933e-01],"[-9.6874155e-02 -3.6461592e-01  1.3662429e-01 -2.8549433e-02
 -3.0428511e-01 -3.3616770e-10  1.0000000e+00  0.0000000e+00
 -4.0000001e-01  3.0312583e-01  3.2199445e-01]",0.7274720631116883,1,1
183,206,2024-09-17 12:38:54.454628864,TASK_BEGIN,8,0.1707802000803136,2.7039521506530844,5.961665032984329,1.002216231698705,-1.6467972376524684,0.2749849808399505,7.4571529259475,3.4061122260308,1,2024-09-17 12:38:55.515135010,1726576735.5151353,2024-09-17 12:38:55.515135232,4,0.0,-0.679685539167906,-7.23284061546424,[0.5661601  0.10117754 0.00339017 0.32927219],[0.5661601  0.10117754 0.00339017 0.32927219],"[-9.3777180e-02 -3.6607200e-01  1.5466857e-01 -3.2320000e-02
 -3.0428511e-01  7.2225603e-09  1.0000000e+00  0.0000000e+00
 -4.0000001e-01  3.0622283e-01  3.3364311e-01]",0.6222124307317808,1,1
184,207,2024-09-17 12:38:54.522393088,TASK_BEGIN,8,0.2145787621206906,2.688122669334903,5.691068172854849,0.9647042636925188,-1.7055508752871351,0.2638358108652804,8.057346963743491,3.297632439129664,1,2024-09-17 12:38:55.578135986,1726576735.578137,2024-09-17 12:38:55.578136832,4,0.0,-0.6878051007341668,-9.052850103927573,[0.56866362 0.10609167 0.00364842 0.3215963 ],[0.56866362 0.10609167 0.00364842 0.3215963 ],"[-9.0304293e-02 -3.6770481e-01  1.7271285e-01 -3.6090598e-02
 -3.0428511e-01 -2.0733750e-09  1.0000000e+00  0.0000000e+00
 -4.0000001e-01  3.0969569e-01  3.4670559e-01]",0.614018686492017,1,1
185,208,2024-09-17 12:38:54.590225920,TASK_BEGIN,8,0.2570448196551348,2.6691555532402176,5.336935740681754,0.9467893874342798,-1.7261698027712624,0.2480865284456477,8.509388408074852,3.19843850295842,1,2024-09-17 12:38:55.641135986,1726576735.6411362,2024-09-17 12:38:55.641136128,4,0.0,-0.696085536535108,-10.843230763245122,[0.57061944 0.11135461 0.00392249 0.31410345],[0.57061944 0.11135461 0.00392249 0.31410345],"[-8.6455502e-02 -3.6951435e-01  1.9075711e-01 -3.9861172e-02
 -3.0428511e-01 -8.1979029e-10  1.0000000e+00  0.0000000e+00
 -4.0000001e-01  3.1354448e-01  3.6118189e-01]",0.6051918773032179,1,1
186,209,2024-09-17 12:38:54.657351168,TASK_BEGIN,8,0.2984948592101253,2.647127468171066,4.908258276594607,0.9494598051446964,-1.704171505563711,0.226252637947739,8.823153805057776,3.109174244736104,1,2024-09-17 12:38:55.704137207,1726576735.704138,2024-09-17 12:38:55.704137984,4,0.0,-0.7045341735871062,-12.605365262746988,[0.57182296 0.11696083 0.00421999 0.30699622],[0.57182296 0.11696083 0.00421999 0.30699622],"[-8.2230806e-02 -3.7150067e-01  2.0880139e-01 -4.3631773e-02
 -3.0428511e-01 -5.7431349e-09  1.0000000e+00  0.0000000e+00
 -4.0000001e-01  3.1776920e-01  3.7707248e-01]",0.5959796057415554,1,1
187,210,2024-09-17 12:38:54.719410944,TASK_BEGIN,8,0.3390972453927425,2.622106180425817,4.417271897768865,0.97256866650535,-1.6390095682750525,0.1970574639083976,9.022281688055052,3.027233924048938,1,2024-09-17 12:38:55.767135986,1726576735.7671366,2024-09-17 12:38:55.767136512,4,0.0,-0.7131719394256777,-14.340628912625377,[0.57379991 0.12449691 0.00453708 0.2971661 ],[0.57379991 0.12449691 0.00453708 0.2971661 ],"[-7.7630199e-02 -3.7366372e-01  2.2684567e-01 -4.7402348e-02
 -3.0428511e-01  2.5254614e-09  1.0000000e+00  0.0000000e+00
 -4.0000001e-01  3.2236978e-01  3.9437690e-01]",0.5844522034401634,1,1
188,211,2024-09-17 12:38:55.656060928,TASK_BEGIN,8,0.3790142924888927,2.594126228841597,3.879820796920624,1.0147947982338283,-1.5344169892287862,0.1596406975563436,9.139555458463697,2.947625379089468,1,2024-09-17 12:38:56.774595947,1726576736.774597,2024-09-17 12:38:56.774596864,4,0.0,1.3509696827895823e-06,9.066132506592501,[0.5743941  0.20588595 0.00586098 0.21385897],[0.5743941  0.20588595 0.00586098 0.21385897],"[-3.6374807e-02 -3.7943161e-01  1.7798263e-07  2.5232081e-09
 -1.9959484e-01 -1.9440680e-08  0.0000000e+00  0.0000000e+00
 -4.0000001e-01  3.6362520e-01  4.4051996e-01]",0.4646615526765707,1,1
189,212,2024-09-17 12:38:55.736922112,TASK_BEGIN,8,0.4184619847590704,2.563174794107941,3.31531797422814,1.0737411993591113,-1.3983286340224848,0.1137512358088293,9.210909922994466,2.8640318100986795,1,2024-09-17 12:38:56.794595947,1726576736.7945962,2024-09-17 12:38:56.794596096,4,0.0,8.106618565761892e-06,8.975479288145142,[0.57439073 0.20588475 0.00586681 0.21385772],[0.57439073 0.20588475 0.00586681 0.21385772],"[-3.6374807e-02 -3.7943161e-01  2.2293690e-08 -2.4556441e-09
 -1.9959491e-01 -2.9776142e-08  0.0000000e+00  0.0000000e+00
 -4.0000001e-01  3.6362520e-01  4.4051996e-01]",0.4646369717833405,1,1
190,213,2024-09-17 12:38:55.796664064,TASK_BEGIN,8,0.4576344831799491,2.5291911444333386,2.7460815412530364,1.1462151508557332,-1.2422517156136554,0.0598796416239498,9.270284173003889,2.7696604952170194,1,2024-09-17 12:38:56.857598145,1726576736.8575983,2024-09-17 12:38:56.857598208,4,0.0,-4.30206837620517e-06,8.708885553139691,[0.57439073 0.20588475 0.00586681 0.21385772],[0.57439073 0.20588475 0.00586681 0.21385772],"[-3.6374807e-02 -3.7943161e-01 -1.9748695e-08  2.2890085e-09
 -1.9959505e-01  2.9662900e-08  0.0000000e+00  0.0000000e+00
 -4.0000001e-01  3.6362520e-01  4.4051996e-01]",0.4646369261579758,1,1
191,214,2024-09-17 12:38:55.872509952,TASK_BEGIN,8,0.4965684616902098,2.492076502637518,2.1962303739663205,1.228593193053476,-1.080083951644219,-0.0007112392851284,9.346420292232672,2.6578740386106405,1,2024-09-17 12:38:57.108312988,1726576737.1083136,2024-09-17 12:38:57.108313600,4,0.0,-1.7386619788339885e-07,7.719401148861369,[0.57439073 0.20588475 0.00586681 0.21385772],[0.57439073 0.20588475 0.00586681 0.21385772],"[-3.6374807e-02 -3.7943161e-01 -1.4368444e-08  9.9705200e-10
 -1.9959530e-01  2.3130763e-08  0.0000000e+00  0.0000000e+00
 -4.0000001e-01  3.6362520e-01  4.4051996e-01]",0.4646369247091598,1,1
192,215,2024-09-17 12:38:55.936688896,TASK_BEGIN,8,0.5350308163315411,2.4517192021891483,1.6903637948331132,1.3171281674543007,-0.9265626927866282,-0.0660763984016963,9.461238360970436,2.5227815151286825,1,2024-09-17 12:38:57.108312988,1726576737.1083136,2024-09-17 12:38:57.108313600,4,0.0,-1.7386619788339885e-07,7.719401148861369,[0.57439073 0.20588475 0.00586681 0.21385772],[0.57439073 0.20588475 0.00586681 0.21385772],"[-3.6374807e-02 -3.7943161e-01 -1.4368444e-08  9.9705200e-10
 -1.9959530e-01  2.3130763e-08  0.0000000e+00  0.0000000e+00
 -4.0000001e-01  3.6362520e-01  4.4051996e-01]",0.4646369247091598,1,1
193,216,2024-09-17 12:38:55.998686976,TASK_BEGIN,8,0.5724361449140175,2.408043814720699,1.2520401616704444,1.408132268441174,-0.7956975303205768,-0.1337807184712711,9.62895061052199,2.3598148237420853,1,2024-09-17 12:38:57.108312988,1726576737.1083136,2024-09-17 12:38:57.108313600,4,0.0,-1.7386619788339885e-07,7.719401148861369,[0.57439073 0.20588475 0.00586681 0.21385772],[0.57439073 0.20588475 0.00586681 0.21385772],"[-3.6374807e-02 -3.7943161e-01 -1.4368444e-08  9.9705200e-10
 -1.9959530e-01  2.3130763e-08  0.0000000e+00  0.0000000e+00
 -4.0000001e-01  3.6362520e-01  4.4051996e-01]",0.4646369247091598,1,1
194,217,2024-09-17 12:38:56.060743168,TASK_BEGIN,8,0.6078005185287706,2.361074612646367,0.9021343123047008,1.498031551802444,-0.6995520786023827,-0.2011373099187592,9.855427495262784,2.166259904295432,1,2024-09-17 12:38:57.108312988,1726576737.1083136,2024-09-17 12:38:57.108313600,4,0.0,-1.7386619788339885e-07,7.719401148861369,[0.57439073 0.20588475 0.00586681 0.21385772],[0.57439073 0.20588475 0.00586681 0.21385772],"[-3.6374807e-02 -3.7943161e-01 -1.4368444e-08  9.9705200e-10
 -1.9959530e-01  2.3130763e-08  0.0000000e+00  0.0000000e+00
 -4.0000001e-01  3.6362520e-01  4.4051996e-01]",0.4646369247091598,1,1
195,218,2024-09-17 12:38:56.984787968,TASK_BEGIN,8,0.6398089104711603,2.310987754269592,0.6572762547108068,1.5833424361844934,-0.6474697532755218,-0.2654312402289732,10.13784343806312,1.941771612539076,1,2024-09-17 12:38:58.830018066,1726576738.8300183,2024-09-17 12:38:58.830018304,5,0.0,-2.325331697545934,-8.058806037308198,[0.43835393 0.28203534 0.10940167 0.17020907],[0.43835393 0.28203534 0.10940167 0.17020907],"[ 4.18710709e-03  9.90986705e-01  1.24015175e-01 -2.03935266e-01
 -1.18563455e-02 -4.70646024e-02  0.00000000e+00  0.00000000e+00
  6.00000024e-01 -5.95812917e-01 -1.08858824e+01]",0.15276472560003776,0,0
196,219,2024-09-17 12:38:57.061275904,TASK_BEGIN,8,0.6670736757828293,2.258130661273531,0.5285385117886506,1.660675402136032,-0.6455127723553278,-0.324102652819443,10.464916121257115,1.6888215963939026,1,2024-09-17 12:38:58.893560791,1726576738.8935618,2024-09-17 12:38:58.893561856,5,0.0,-2.5008666515280567,-15.10432765707141,[0.46754695 0.27056238 0.10547789 0.15641278],[0.46754695 0.27056238 0.10547789 0.15641278],"[ 6.7010722e-03  9.7902787e-01  1.2410808e-01 -2.8076345e-01
 -1.8909812e-02 -4.7022261e-02  0.0000000e+00  0.0000000e+00
  6.0000002e-01 -5.9329891e-01 -1.0790212e+01]",0.18944698130236165,0,0
197,220,2024-09-17 12:38:57.129554944,TASK_BEGIN,8,0.6885325806937374,2.203001021869116,0.5205455624090358,1.726833405500587,-0.6958832196478612,-0.3749040316524527,10.818084905846527,1.4129414077484563,1,2024-09-17 12:38:58.957564209,1726576738.9575644,2024-09-17 12:38:58.957564416,5,0.0,-2.586343082913473,-22.26543547435099,[0.49314363 0.25488101 0.10269878 0.14927657],[0.49314363 0.25488101 0.10269878 0.14927657],"[ 9.2169447e-03  9.6346807e-01  1.2420005e-01 -3.5759383e-01
 -2.5957091e-02 -4.6981521e-02  0.0000000e+00  0.0000000e+00
  6.0000002e-01 -5.9078306e-01 -1.0665733e+01]",0.22114256814888464,0,0
198,221,2024-09-17 12:38:57.186062080,TASK_BEGIN,8,0.7037892821066837,2.146197692649077,0.6311270581812247,1.7790013083976546,-0.7964324140176869,-0.4160489040249119,11.173923221746143,1.1226521367455506,1,2024-09-17 12:38:58.957564209,1726576738.9575644,2024-09-17 12:38:58.957564416,5,0.0,-2.586343082913473,-22.26543547435099,[0.49314363 0.25488101 0.10269878 0.14927657],[0.49314363 0.25488101 0.10269878 0.14927657],"[ 9.2169447e-03  9.6346807e-01  1.2420005e-01 -3.5759383e-01
 -2.5957091e-02 -4.6981521e-02  0.0000000e+00  0.0000000e+00
  6.0000002e-01 -5.9078306e-01 -1.0665733e+01]",0.22114256814888464,0,0
199,222,2024-09-17 12:38:57.264013056,TASK_BEGIN,8,0.7131942424756287,2.088375816429416,0.8515555023335104,1.814977196355647,-0.9406481937953504,-0.4463340040204054,11.507786621384028,0.8290099350653892,1,2024-09-17 12:38:58.957564209,1726576738.9575644,2024-09-17 12:38:58.957564416,5,0.0,-2.586343082913473,-22.26543547435099,[0.49314363 0.25488101 0.10269878 0.14927657],[0.49314363 0.25488101 0.10269878 0.14927657],"[ 9.2169447e-03  9.6346807e-01  1.2420005e-01 -3.5759383e-01
 -2.5957091e-02 -4.6981521e-02  0.0000000e+00  0.0000000e+00
  6.0000002e-01 -5.9078306e-01 -1.0665733e+01]",0.22114256814888464,0,0
200,223,2024-09-17 12:38:57.328165888,TASK_BEGIN,8,0.7176076885728029,2.030239720567563,1.1674870772774673,1.83334552903346,-1.1183922981136496,-0.4651959991440113,11.798095008667312,0.5447715007383332,1,2024-09-17 12:38:58.957564209,1726576738.9575644,2024-09-17 12:38:58.957564416,5,0.0,-2.586343082913473,-22.26543547435099,[0.49314363 0.25488101 0.10269878 0.14927657],[0.49314363 0.25488101 0.10269878 0.14927657],"[ 9.2169447e-03  9.6346807e-01  1.2420005e-01 -3.5759383e-01
 -2.5957091e-02 -4.6981521e-02  0.0000000e+00  0.0000000e+00
  6.0000002e-01 -5.9078306e-01 -1.0665733e+01]",0.22114256814888464,0,0
201,224,2024-09-17 12:38:57.389032960,TASK_BEGIN,8,0.7179732600912868,1.9725752330531403,1.5606338611544175,1.8335229655560776,-1.317246713571593,-0.4726937824848634,12.030052591659253,0.2833590297582522,1,2024-09-17 12:38:58.957564209,1726576738.9575644,2024-09-17 12:38:58.957564416,5,0.0,-2.586343082913473,-22.26543547435099,[0.49314363 0.25488101 0.10269878 0.14927657],[0.49314363 0.25488101 0.10269878 0.14927657],"[ 9.2169447e-03  9.6346807e-01  1.2420005e-01 -3.5759383e-01
 -2.5957091e-02 -4.6981521e-02  0.0000000e+00  0.0000000e+00
