,Unnamed: 0,time,MARKER,pid,L_O_DSI,L_D_DSI,L_O_DSphi,L_D_DSphi,R_O_DSI,R_D_DSI,R_O_DSphi,R_D_DSphi,trial_id,timestamps,floatTimestamps,dateTimestamps,episode,states,actions,rewards,chosen_actions,optimal_actions,desired_goal,achieved_goal,numDemonstrations,steps,seed,continuous_optimal,binary_optimal,discrete_optimal
1,106,2024-09-18 21:36:29.392369152,TASK_BEGIN,9,-1.5926939366327848,0.4997479047832638,6.459566147491072,-1.607197176973626,-0.705452331395232,0.9510980861339324,-10.11673884931353,3.2100504366877143,3,2024-09-18 21:36:29.391064320,1726695389.3910644,2024-09-18 21:36:29.391063861,0,"[ 1.34201128e+00  7.49129260e-01  5.34498328e-01  1.47974545e+00
  6.18368054e-01  4.24737381e-01  1.37734162e-01 -1.30761206e-01
 -1.09760947e-01  2.07866775e-06  9.53277514e-07 -5.03884423e-08
  7.75206804e-08 -2.36797414e-16 -5.34218104e-05 -2.56005082e-05
  2.12032882e-04  2.85323085e-08 -4.38958592e-08 -1.57210118e-20
  5.34207138e-05  2.55997955e-05 -1.85367323e-04 -1.30639817e-06
  5.68427354e-07]","[0.0009765625, 0.0009765625, -0.0009765625, -0.0625]",-1.0,"[0.0009765625, 0.0009765625, -0.0009765625, -0.0625]",[ 0.8549329  -0.91317517 -0.26031414  0.07967521],[1.30303656 0.83328122 0.58954356],[1.47974545 0.61836805 0.42470209],22,351,1170,0.5198074635665626,0,0
2,107,2024-09-18 21:36:29.455343104,TASK_BEGIN,9,-1.5574479619111314,0.497498416926356,6.296218840060348,-1.6058552072705905,-0.6595324200876387,0.9558289537725956,-9.963253760750929,3.195711468699035,3,2024-09-18 21:36:29.391064320,1726695389.3910644,2024-09-18 21:36:29.391063861,0,"[ 1.34201128e+00  7.49129260e-01  5.34498328e-01  1.47974545e+00
  6.18368054e-01  4.24737381e-01  1.37734162e-01 -1.30761206e-01
 -1.09760947e-01  2.07866775e-06  9.53277514e-07 -5.03884423e-08
  7.75206804e-08 -2.36797414e-16 -5.34218104e-05 -2.56005082e-05
  2.12032882e-04  2.85323085e-08 -4.38958592e-08 -1.57210118e-20
  5.34207138e-05  2.55997955e-05 -1.85367323e-04 -1.30639817e-06
  5.68427354e-07]","[0.0009765625, 0.0009765625, -0.0009765625, -0.0625]",-1.0,"[0.0009765625, 0.0009765625, -0.0009765625, -0.0625]",[ 0.8549329  -0.91317517 -0.26031414  0.07967521],[1.30303656 0.83328122 0.58954356],[1.47974545 0.61836805 0.42470209],22,351,1170,0.5198074635665626,0,0
3,108,2024-09-18 21:36:29.527909888,TASK_BEGIN,9,-1.5231975879597377,0.4953297437704111,6.121490499183963,-1.5961463996252645,-0.6067927524657887,0.9588488271664972,-9.833116286671617,3.1859890130943467,3,2024-09-18 21:36:29.391064320,1726695389.3910644,2024-09-18 21:36:29.391063861,0,"[ 1.34201128e+00  7.49129260e-01  5.34498328e-01  1.47974545e+00
  6.18368054e-01  4.24737381e-01  1.37734162e-01 -1.30761206e-01
 -1.09760947e-01  2.07866775e-06  9.53277514e-07 -5.03884423e-08
  7.75206804e-08 -2.36797414e-16 -5.34218104e-05 -2.56005082e-05
  2.12032882e-04  2.85323085e-08 -4.38958592e-08 -1.57210118e-20
  5.34207138e-05  2.55997955e-05 -1.85367323e-04 -1.30639817e-06
  5.68427354e-07]","[0.0009765625, 0.0009765625, -0.0009765625, -0.0625]",-1.0,"[0.0009765625, 0.0009765625, -0.0009765625, -0.0625]",[ 0.8549329  -0.91317517 -0.26031414  0.07967521],[1.30303656 0.83328122 0.58954356],[1.47974545 0.61836805 0.42470209],22,351,1170,0.5198074635665626,0,0
4,109,2024-09-18 21:36:29.595662080,TASK_BEGIN,9,-1.4901597970028897,0.4930267058592895,5.939504358280506,-1.5792626080013592,-0.5475313096247919,0.9596521480625634,-9.73011195357256,3.18234759270282,3,2024-09-18 21:36:29.391064320,1726695389.3910644,2024-09-18 21:36:29.391063861,0,"[ 1.34201128e+00  7.49129260e-01  5.34498328e-01  1.47974545e+00
  6.18368054e-01  4.24737381e-01  1.37734162e-01 -1.30761206e-01
 -1.09760947e-01  2.07866775e-06  9.53277514e-07 -5.03884423e-08
  7.75206804e-08 -2.36797414e-16 -5.34218104e-05 -2.56005082e-05
  2.12032882e-04  2.85323085e-08 -4.38958592e-08 -1.57210118e-20
  5.34207138e-05  2.55997955e-05 -1.85367323e-04 -1.30639817e-06
  5.68427354e-07]","[0.0009765625, 0.0009765625, -0.0009765625, -0.0625]",-1.0,"[0.0009765625, 0.0009765625, -0.0009765625, -0.0625]",[ 0.8549329  -0.91317517 -0.26031414  0.07967521],[1.30303656 0.83328122 0.58954356],[1.47974545 0.61836805 0.42470209],22,351,1170,0.5198074635665626,0,0
5,110,2024-09-18 21:36:29.663060736,TASK_BEGIN,9,-1.458782824136745,0.4904274176507606,5.753054577936461,-1.5566056835926558,-0.4825982967288809,0.9578606241756524,-9.654745483775235,3.1855603052681984,3,2024-09-18 21:36:29.391064320,1726695389.3910644,2024-09-18 21:36:29.391063861,0,"[ 1.34201128e+00  7.49129260e-01  5.34498328e-01  1.47974545e+00
  6.18368054e-01  4.24737381e-01  1.37734162e-01 -1.30761206e-01
 -1.09760947e-01  2.07866775e-06  9.53277514e-07 -5.03884423e-08
  7.75206804e-08 -2.36797414e-16 -5.34218104e-05 -2.56005082e-05
  2.12032882e-04  2.85323085e-08 -4.38958592e-08 -1.57210118e-20
  5.34207138e-05  2.55997955e-05 -1.85367323e-04 -1.30639817e-06
  5.68427354e-07]","[0.0009765625, 0.0009765625, -0.0009765625, -0.0625]",-1.0,"[0.0009765625, 0.0009765625, -0.0009765625, -0.0625]",[ 0.8549329  -0.91317517 -0.26031414  0.07967521],[1.30303656 0.83328122 0.58954356],[1.47974545 0.61836805 0.42470209],22,351,1170,0.5198074635665626,0,0
6,111,2024-09-18 21:36:29.727555840,TASK_BEGIN,9,-1.4298322062321076,0.487449095903381,5.5639732719981625,-1.5296906487057793,-0.4133875982456352,0.953293887620144,-9.604676460769614,3.1956266521943086,3,2024-09-18 21:36:29.391064320,1726695389.3910644,2024-09-18 21:36:29.391063861,0,"[ 1.34201128e+00  7.49129260e-01  5.34498328e-01  1.47974545e+00
  6.18368054e-01  4.24737381e-01  1.37734162e-01 -1.30761206e-01
 -1.09760947e-01  2.07866775e-06  9.53277514e-07 -5.03884423e-08
  7.75206804e-08 -2.36797414e-16 -5.34218104e-05 -2.56005082e-05
  2.12032882e-04  2.85323085e-08 -4.38958592e-08 -1.57210118e-20
  5.34207138e-05  2.55997955e-05 -1.85367323e-04 -1.30639817e-06
  5.68427354e-07]","[0.0009765625, 0.0009765625, -0.0009765625, -0.0625]",-1.0,"[0.0009765625, 0.0009765625, -0.0009765625, -0.0625]",[ 0.8549329  -0.91317517 -0.26031414  0.07967521],[1.30303656 0.83328122 0.58954356],[1.47974545 0.61836805 0.42470209],22,351,1170,0.5198074635665626,0,0
7,112,2024-09-18 21:36:30.673700864,TASK_BEGIN,9,-1.404407814831946,0.4841132370417967,5.374063507865055,-1.5001100938340273,-0.3417440144849315,0.946015129450672,-9.57566739637564,3.211769698379628,3,2024-09-18 21:36:30.300519936,1726695390.30052,2024-09-18 21:36:30.300518939,0,"[ 1.34289414e+00  7.49631944e-01  5.31043236e-01  1.47974544e+00
  6.18368053e-01  4.24784483e-01  1.36851301e-01 -1.31263891e-01
 -1.06258753e-01  1.79461870e-07  3.83741030e-07 -7.22238874e-12
  1.11113691e-11 -2.18596845e-15 -4.08436782e-05 -2.30019626e-05
  1.55000029e-04  4.04605088e-12 -6.22468387e-12  7.75809820e-19
  4.08436781e-05  2.30019625e-05 -1.54996377e-04  3.32123127e-07
 -3.31698107e-07]","[0.0009765625, 0.0009765625, -0.0009765625, 0.0]",-1.0,"[0.0009765625, 0.0009765625, -0.0009765625, 0.0]",[ 0.8522518  -0.91002655 -0.25316486  0.08673739],[1.30303656 0.83328122 0.58954356],[1.47974545 0.61836805 0.42470209],22,351,1170,0.5160706338902752,0,0
8,113,2024-09-18 21:36:30.729106944,TASK_BEGIN,9,-1.3838710380899106,0.4805579990862346,5.1860038355325,-1.469544130691243,-0.2698266895703948,0.936352333080629,-9.562576694829207,3.232492131663959,3,2024-09-18 21:36:30.358521344,1726695390.3585212,2024-09-18 21:36:30.358520893,0,"[ 1.34294775e+00  7.49663349e-01  5.30830062e-01  1.47974544e+00
  6.18368053e-01  4.24784485e-01  1.36797697e-01 -1.31295296e-01
 -1.06045576e-01  2.00247124e-07  3.63279905e-07 -4.15652710e-12
  6.39465347e-12 -2.18655836e-15 -4.08564964e-05 -2.30029356e-05
  1.55039936e-04  2.32851168e-12 -3.58233747e-12 -2.73314651e-19
  4.08564963e-05  2.30029355e-05 -1.55037840e-04  3.32236468e-07
 -3.32015133e-07]","[0.0009765625, 0.0009765625, -0.0009765625, 0.0]",-1.0,"[0.0009765625, 0.0009765625, -0.0009765625, 0.0]",[ 0.8521351 -0.9098593 -0.252596   0.0871727],[1.30303656 0.83328122 0.58954356],[1.47974545 0.61836805 0.42470209],22,351,1170,0.5159377951190441,0,0
9,114,2024-09-18 21:36:30.807186944,TASK_BEGIN,9,-1.3697043573346648,0.4770261606229106,5.003661379038512,-1.4397575955364748,-0.1999784033948463,0.9248910009923468,-9.560310034260718,3.25572924469534,3,2024-09-18 21:36:30.414521344,1726695390.4145212,2024-09-18 21:36:30.414520893,0,"[ 1.34300136e+00  7.49694755e-01  5.30616829e-01  1.47974544e+00
  6.18368053e-01  4.24784487e-01  1.36744079e-01 -1.31326703e-01
 -1.05832342e-01  2.21116581e-07  3.42579243e-07 -2.39210801e-12
  3.68016038e-12 -2.18664562e-15 -4.08728640e-05 -2.30039357e-05
  1.55087025e-04  1.34007971e-12 -2.06165560e-12 -4.22823455e-18
  4.08728640e-05  2.30039357e-05 -1.55085822e-04  3.32314744e-07
 -3.32199481e-07]","[0.0009765625, 0.0009765625, -0.0009765625, 0.0]",-1.0,"[0.0009765625, 0.0009765625, -0.0009765625, 0.0]",[ 0.85201824 -0.9096917  -0.25202692  0.087608  ],[1.30303656 0.83328122 0.58954356],[1.47974545 0.61836805 0.42470209],22,351,1170,0.5158050954790209,0,0
10,115,2024-09-18 21:36:30.869220096,TASK_BEGIN,9,-1.363341406411307,0.4738273388371589,4.831725301011411,-1.4125356666600493,-0.1346177788563859,0.9124276419411328,-9.564835549172733,3.27912350045183,3,2024-09-18 21:36:30.473037312,1726695390.4730372,2024-09-18 21:36:30.473037006,0,"[ 1.34305500e+00  7.49726163e-01  5.30403527e-01  1.47974544e+00
  6.18368053e-01  4.24784488e-01  1.36690442e-01 -1.31358111e-01
 -1.05619039e-01  2.42043586e-07  3.21740140e-07 -1.37667893e-12
  2.11795549e-12 -2.18615543e-15 -4.08918606e-05 -2.30049569e-05
  1.55139318e-04  7.71218912e-13 -1.18649064e-12  1.19860799e-18
  4.08918606e-05  2.30049569e-05 -1.55138628e-04  3.32373883e-07
 -3.32313857e-07]","[0.0009765625, 0.0009765625, -0.0009765625, 0.0]",-1.0,"[0.0009765625, 0.0009765625, -0.0009765625, 0.0]",[ 0.8519013  -0.90952384 -0.2514574   0.08804353],[1.30303656 0.83328122 0.58954356],[1.47974545 0.61836805 0.42470209],22,351,1170,0.5156727960254642,0,0
11,116,2024-09-18 21:36:30.931715072,TASK_BEGIN,9,-1.365988207637059,0.4712864566285886,4.675015351817382,-1.3895520986755765,-0.0761323909898202,0.899883399386753,-9.574063810301054,3.3003415291826523,3,2024-09-18 21:36:30.590806016,1726695390.590806,2024-09-18 21:36:30.590805072,0,"[ 1.34316235e+00  7.49788983e-01  5.29976693e-01  1.47974544e+00
  6.18368053e-01  4.24784489e-01  1.36583098e-01 -1.31420931e-01
 -1.05192205e-01  2.84018515e-07  2.79834828e-07 -4.55967856e-13
  7.01478154e-13 -2.18506533e-15 -4.09351743e-05 -2.30070447e-05
  1.55254191e-04  2.55434997e-13 -3.92977778e-13 -1.32303803e-18
  4.09351742e-05  2.30070447e-05 -1.55253964e-04  3.32464827e-07
 -3.32448547e-07]","[0.0009765625, 0.0009765625, -0.0009765625, 0.0]",-1.0,"[0.0009765625, 0.0009765625, -0.0009765625, 0.0]",[ 0.8516669  -0.9091869  -0.25031734  0.0889148 ],[1.30303656 0.83328122 0.58954356],[1.47974545 0.61836805 0.42470209],22,351,1170,0.5154115822229126,0,0
12,117,2024-09-18 21:36:31.013636864,TASK_BEGIN,9,-1.3784448645689715,0.4696958928789678,4.537849914270537,-1.3721815583840635,-0.0267517743184793,0.8881988473869558,-9.588151484437956,3.317309211208614,3,2024-09-18 21:36:30.647364864,1726695390.6473649,2024-09-18 21:36:30.647363910,0,"[ 1.34321606e+00  7.49820395e-01  5.29763152e-01  1.47974544e+00
  6.18368053e-01  4.24784489e-01  1.36529388e-01 -1.31452343e-01
 -1.04978663e-01  3.05053738e-07  2.58812019e-07 -2.62408261e-13
  4.03708240e-13 -2.18521374e-15 -4.09586005e-05 -2.30081053e-05
  1.55314970e-04  1.47015132e-13 -2.26153516e-13  1.41273167e-18
  4.09586005e-05  2.30081053e-05 -1.55314840e-04  3.32503725e-07
 -3.32495247e-07]","[0.0009765625, 0.0009765625, -0.0009765625, 0.0]",-1.0,"[0.0009765625, 0.0009765625, -0.0009765625, 0.0]",[ 0.85154957 -0.9090179  -0.24974686  0.08935066],[1.30303656 0.83328122 0.58954356],[1.47974545 0.61836805 0.42470209],22,351,1170,0.5152813531741633,0,0
13,118,2024-09-18 21:36:31.081593088,TASK_BEGIN,9,-1.400943579387822,0.4692823405583645,4.423656560767308,-1.36128454786717,0.0115856608632434,0.8782396585122187,-9.608980790697371,3.328330382905451,3,2024-09-18 21:36:30.703407104,1726695390.703407,2024-09-18 21:36:30.703407123,0,"[ 1.34326979e+00  7.49851809e-01  5.29549524e-01  1.47974544e+00
  6.18368053e-01  4.24784489e-01  1.36475650e-01 -1.31483756e-01
 -1.04765035e-01  3.26116554e-07  2.37755669e-07 -1.51017617e-13
  2.32337700e-13 -2.18434252e-15 -4.09827958e-05 -2.30091741e-05
  1.55377165e-04  8.45947845e-14 -1.30162408e-13  4.65828394e-18
  4.09827958e-05  2.30091741e-05 -1.55377091e-04  3.32540475e-07
 -3.32536059e-07]","[0.0009765625, 0.0009765625, -0.0009765625, 0.0]",-1.0,"[0.0009765625, 0.0009765625, -0.0009765625, 0.0]",[ 0.8514321  -0.9088485  -0.24917588  0.08978669],[1.30303656 0.83328122 0.58954356],[1.47974545 0.61836805 0.42470209],22,351,1170,0.5151514690023745,0,0
14,119,2024-09-18 21:36:31.996879872,TASK_BEGIN,9,-1.4330336058477566,0.4701891367691586,4.334831809532069,-1.3570372485206248,0.0373505854936664,0.8707280465177497,-9.638928930432456,3.3321454357142275,3,2024-09-18 21:36:32.293900032,1726695392.2939,2024-09-18 21:36:32.293899066,0,"[ 1.43945556e+00  6.92708500e-01  5.24877707e-01  1.47974544e+00
  6.18368060e-01  4.24784489e-01  4.02898801e-02 -7.43404401e-02
 -1.00093217e-01  4.64617113e-04  1.31340869e-04 -9.14642441e-08
 -2.94263733e-08 -3.53196553e-15 -1.69406149e-03  5.70637458e-03
  8.60235416e-05  5.12390678e-08  1.64849111e-08 -2.44874059e-18
  1.69406191e-03 -5.70637586e-03 -8.60236833e-05 -9.64262241e-05
  1.00688481e-04]","[0.07744598388671875, -0.24411773681640625, -0.0009765625, 0.0]",-1.0,"[0.07744598388671875, -0.24411773681640625, -0.0009765625, 0.0]",[ 0.31231016 -0.8077027  -0.50394046  0.507467  ],[1.30303656 0.83328122 0.58954356],[1.47974545 0.61836805 0.42470209],22,351,1170,0.46694975635648106,0,0
15,120,2024-09-18 21:36:32.067532032,TASK_BEGIN,9,-1.473555637149946,0.4724687618535769,4.2727211679152095,-1.3588762065453388,0.0495298839049994,0.866195708689429,-9.67933101554823,3.327965908270022,3,2024-09-18 21:36:32.293900032,1726695392.2939,2024-09-18 21:36:32.293899066,0,"[ 1.43945556e+00  6.92708500e-01  5.24877707e-01  1.47974544e+00
  6.18368060e-01  4.24784489e-01  4.02898801e-02 -7.43404401e-02
 -1.00093217e-01  4.64617113e-04  1.31340869e-04 -9.14642441e-08
 -2.94263733e-08 -3.53196553e-15 -1.69406149e-03  5.70637458e-03
  8.60235416e-05  5.12390678e-08  1.64849111e-08 -2.44874059e-18
  1.69406191e-03 -5.70637586e-03 -8.60236833e-05 -9.64262241e-05
  1.00688481e-04]","[0.07744598388671875, -0.24411773681640625, -0.0009765625, 0.0]",-1.0,"[0.07744598388671875, -0.24411773681640625, -0.0009765625, 0.0]",[ 0.31231016 -0.8077027  -0.50394046  0.507467  ],[1.30303656 0.83328122 0.58954356],[1.47974545 0.61836805 0.42470209],22,351,1170,0.46694975635648106,0,0
16,121,2024-09-18 21:36:32.135265024,TASK_BEGIN,9,-1.5207329260877505,0.4760792973654071,4.237606969178991,-1.3655656350784262,0.0477190837410952,0.8649538862004993,-9.72922095102519,3.315467042819217,3,2024-09-18 21:36:32.293900032,1726695392.2939,2024-09-18 21:36:32.293899066,0,"[ 1.43945556e+00  6.92708500e-01  5.24877707e-01  1.47974544e+00
  6.18368060e-01  4.24784489e-01  4.02898801e-02 -7.43404401e-02
 -1.00093217e-01  4.64617113e-04  1.31340869e-04 -9.14642441e-08
 -2.94263733e-08 -3.53196553e-15 -1.69406149e-03  5.70637458e-03
  8.60235416e-05  5.12390678e-08  1.64849111e-08 -2.44874059e-18
  1.69406191e-03 -5.70637586e-03 -8.60236833e-05 -9.64262241e-05
  1.00688481e-04]","[0.07744598388671875, -0.24411773681640625, -0.0009765625, 0.0]",-1.0,"[0.07744598388671875, -0.24411773681640625, -0.0009765625, 0.0]",[ 0.31231016 -0.8077027  -0.50394046  0.507467  ],[1.30303656 0.83328122 0.58954356],[1.47974545 0.61836805 0.42470209],22,351,1170,0.46694975635648106,0,0
17,122,2024-09-18 21:36:32.197027840,TASK_BEGIN,9,-1.5723639451364868,0.4808849387891424,4.228785871612192,-1.3753713362792368,0.0321663575787145,0.8670860952931536,-9.784873125615812,3.2947295153630303,3,2024-09-18 21:36:32.293900032,1726695392.2939,2024-09-18 21:36:32.293899066,0,"[ 1.43945556e+00  6.92708500e-01  5.24877707e-01  1.47974544e+00
  6.18368060e-01  4.24784489e-01  4.02898801e-02 -7.43404401e-02
 -1.00093217e-01  4.64617113e-04  1.31340869e-04 -9.14642441e-08
 -2.94263733e-08 -3.53196553e-15 -1.69406149e-03  5.70637458e-03
  8.60235416e-05  5.12390678e-08  1.64849111e-08 -2.44874059e-18
  1.69406191e-03 -5.70637586e-03 -8.60236833e-05 -9.64262241e-05
  1.00688481e-04]","[0.07744598388671875, -0.24411773681640625, -0.0009765625, 0.0]",-1.0,"[0.07744598388671875, -0.24411773681640625, -0.0009765625, 0.0]",[ 0.31231016 -0.8077027  -0.50394046  0.507467  ],[1.30303656 0.83328122 0.58954356],[1.47974545 0.61836805 0.42470209],22,351,1170,0.46694975635648106,0,0
18,123,2024-09-18 21:36:32.259748096,TASK_BEGIN,9,-1.6260653661994686,0.4866691755179403,4.244852759459189,-1.3863433288299165,0.0037574298136482,0.8724652702372673,-9.84025992079432,3.2661561208944674,3,2024-09-18 21:36:32.293900032,1726695392.2939,2024-09-18 21:36:32.293899066,0,"[ 1.43945556e+00  6.92708500e-01  5.24877707e-01  1.47974544e+00
  6.18368060e-01  4.24784489e-01  4.02898801e-02 -7.43404401e-02
 -1.00093217e-01  4.64617113e-04  1.31340869e-04 -9.14642441e-08
 -2.94263733e-08 -3.53196553e-15 -1.69406149e-03  5.70637458e-03
  8.60235416e-05  5.12390678e-08  1.64849111e-08 -2.44874059e-18
  1.69406191e-03 -5.70637586e-03 -8.60236833e-05 -9.64262241e-05
  1.00688481e-04]","[0.07744598388671875, -0.24411773681640625, -0.0009765625, 0.0]",-1.0,"[0.07744598388671875, -0.24411773681640625, -0.0009765625, 0.0]",[ 0.31231016 -0.8077027  -0.50394046  0.507467  ],[1.30303656 0.83328122 0.58954356],[1.47974545 0.61836805 0.42470209],22,351,1170,0.46694975635648106,0,0
19,124,2024-09-18 21:36:32.335930112,TASK_BEGIN,9,-1.679509076381691,0.4931643784087362,4.284081863794466,-1.396680525745432,-0.036028445449992,0.8807844997533016,-9.888100558953656,3.230397066597021,3,2024-09-18 21:36:32.691330560,1726695392.6913307,2024-09-18 21:36:32.691329975,0,"[ 1.44008523e+00  6.84654367e-01  5.23523406e-01  1.47974544e+00
  6.18368058e-01  4.24784489e-01  3.96602094e-02 -6.62863090e-02
 -9.87389171e-02  2.33556107e-04  4.17940385e-04 -1.91248470e-09
 -6.15294966e-10 -2.18261389e-15 -2.39465525e-05  6.51038517e-03
  7.69936090e-05  1.07139069e-09  3.44693637e-10  1.19283342e-18
  2.39465611e-05 -6.51038520e-03 -7.69936119e-05  1.10841580e-04
 -1.06553354e-04]","[0.0009765625, -0.25, -0.0009765625, 0.0]",-1.0,"[0.0009765625, -0.25, -0.0009765625, 0.0]",[ 0.2935891  -0.77758586 -0.5327635   0.5566201 ],[1.30303656 0.83328122 0.58954356],[1.47974545 0.61836805 0.42470209],22,351,1170,0.48721947547736344,0,0
20,125,2024-09-18 21:36:32.406338816,TASK_BEGIN,9,-1.730620614280122,0.5000872365948511,4.344675956368616,-1.4050961244982547,-0.0851837618711635,0.8915900176941458,-9.92115229251444,3.188316603716929,3,2024-09-18 21:36:32.803954432,1726695392.8039544,2024-09-18 21:36:32.803953998,0,"[ 1.44239917e+00  6.68023303e-01  5.23266751e-01  1.47974544e+00
  6.18368058e-01  4.24784489e-01  3.73462677e-02 -4.96552450e-02
 -9.84822617e-02  4.30998080e-04  2.25471782e-04 -6.33427620e-10
 -2.03789779e-10 -2.18152022e-15 -1.00117889e-03  5.86762402e-03
  8.66766724e-05  3.54851706e-10  1.14164812e-10  5.86239860e-19
  1.00117889e-03 -5.86762403e-03 -8.66766733e-05 -4.77867641e-05
  4.89497367e-05]","[0.04215240478515625, -0.25, -0.0009765625, 0.0]",-1.0,"[0.04215240478515625, -0.25, -0.0009765625, 0.0]",[ 0.3455691  -0.6399273  -0.6068634   0.70404786],[1.30303656 0.83328122 0.58954356],[1.47974545 0.61836805 0.42470209],22,351,1170,0.48831272779196916,0,0
21,126,2024-09-18 21:36:33.349165056,TASK_BEGIN,9,-1.7777260590359265,0.5071676240849665,4.4248243226284085,-1.4110997384815898,-0.1412870391942285,0.9043162502441786,-9.933570172544991,3.1410095657901547,3,2024-09-18 21:36:33.088733696,1726695393.0887337,2024-09-18 21:36:33.088733051,0,"[ 1.44896510e+00  6.26625031e-01  5.22607248e-01  1.47974544e+00
  6.18368058e-01  4.24784489e-01  3.07803448e-02 -8.25697321e-03
 -9.78227589e-02  4.69282608e-04  1.88967206e-04 -3.99893694e-11
 -1.28656002e-11 -2.18215900e-15 -1.51526053e-03  5.86119769e-03
  8.96414799e-05  2.24023957e-11  7.20742645e-12  2.58904503e-18
  1.51526053e-03 -5.86119769e-03 -8.96414799e-05 -9.46889346e-05
  9.47335214e-05]","[0.06175994873046875, -0.25, -0.0009765625, 0.0]",-1.0,"[0.06175994873046875, -0.25, -0.0009765625, 0.0]",[ 0.2904879  -0.19217439 -0.61925876  0.81429505],[1.30303656 0.83328122 0.58954356],[1.47974545 0.61836805 0.42470209],22,351,1170,0.49337514655878645,0,0
22,127,2024-09-18 21:36:33.416960000,TASK_BEGIN,9,-1.8196309005904705,0.5141688294024902,4.522695974548806,-1.4151299049777524,-0.2016656286990184,0.9183276123503494,-9.922058783045744,3.089825908123841,3,2024-09-18 21:36:33.088733696,1726695393.0887337,2024-09-18 21:36:33.088733051,0,"[ 1.44896510e+00  6.26625031e-01  5.22607248e-01  1.47974544e+00
  6.18368058e-01  4.24784489e-01  3.07803448e-02 -8.25697321e-03
 -9.78227589e-02  4.69282608e-04  1.88967206e-04 -3.99893694e-11
 -1.28656002e-11 -2.18215900e-15 -1.51526053e-03  5.86119769e-03
  8.96414799e-05  2.24023957e-11  7.20742645e-12  2.58904503e-18
  1.51526053e-03 -5.86119769e-03 -8.96414799e-05 -9.46889346e-05
  9.47335214e-05]","[0.06175994873046875, -0.25, -0.0009765625, 0.0]",-1.0,"[0.06175994873046875, -0.25, -0.0009765625, 0.0]",[ 0.2904879  -0.19217439 -0.61925876  0.81429505],[1.30303656 0.83328122 0.58954356],[1.47974545 0.61836805 0.42470209],22,351,1170,0.49337514655878645,0,0
23,128,2024-09-18 21:36:33.480300032,TASK_BEGIN,9,-1.8556191686649923,0.5209000827945546,4.636430233833803,-1.41847191531389,-0.2635711622851541,0.9329653887793474,-9.88641127374377,3.036359099544108,3,2024-09-18 21:36:33.088733696,1726695393.0887337,2024-09-18 21:36:33.088733051,0,"[ 1.44896510e+00  6.26625031e-01  5.22607248e-01  1.47974544e+00
  6.18368058e-01  4.24784489e-01  3.07803448e-02 -8.25697321e-03
 -9.78227589e-02  4.69282608e-04  1.88967206e-04 -3.99893694e-11
 -1.28656002e-11 -2.18215900e-15 -1.51526053e-03  5.86119769e-03
  8.96414799e-05  2.24023957e-11  7.20742645e-12  2.58904503e-18
  1.51526053e-03 -5.86119769e-03 -8.96414799e-05 -9.46889346e-05
  9.47335214e-05]","[0.06175994873046875, -0.25, -0.0009765625, 0.0]",-1.0,"[0.06175994873046875, -0.25, -0.0009765625, 0.0]",[ 0.2904879  -0.19217439 -0.61925876  0.81429505],[1.30303656 0.83328122 0.58954356],[1.47974545 0.61836805 0.42470209],22,351,1170,0.49337514655878645,0,0
24,129,2024-09-18 21:36:33.552529920,TASK_BEGIN,9,-1.885394035755941,0.5272167698019237,4.7640653535407935,-1.4229506597522992,-0.3243488465509039,0.9475940660886852,-9.829300647542023,2.9824052388307227,3,2024-09-18 21:36:33.595626752,1726695393.5956268,2024-09-18 21:36:33.595627094,0,"[ 1.49335463e+00  6.35268170e-01  5.20874037e-01  1.47974544e+00
  6.18368058e-01  4.24784489e-01 -1.36091933e-02 -1.69001122e-02
 -9.60895475e-02  5.81518604e-05  8.31695181e-04 -2.76947446e-13
 -8.91008003e-14 -2.17786042e-15 -5.27566467e-03 -2.48137994e-03
  1.37036309e-04  1.55159766e-13  4.99124740e-14 -1.40282414e-19
  5.27566467e-03  2.48137994e-03 -1.37036309e-04 -9.96237933e-06
  1.37013489e-05]","[0.24999237060546875, 0.09705352783203125, -0.0009765625, 0.0]",-1.0,"[0.24999237060546875, 0.09705352783203125, -0.0009765625, 0.0]",[ 0.04385415 -0.2058467  -0.61895645  0.8274479 ],[1.30303656 0.83328122 0.58954356],[1.47974545 0.61836805 0.42470209],22,351,1170,0.48172303559831625,0,0
25,130,2024-09-18 21:36:33.617038080,TASK_BEGIN,9,-1.9090077930483904,0.5330072360397793,4.903431923083016,-1.430498068832823,-0.3815967085171385,0.9616434005293228,-9.755578293246373,2.929922278966715,3,2024-09-18 21:36:34.001692160,1726695394.001692,2024-09-18 21:36:34.001692035,0,"[ 1.50003418e+00  6.39790607e-01  5.19377393e-01  1.47974544e+00
  6.18368058e-01  4.24784489e-01 -2.02887349e-02 -2.14225491e-02
 -9.45929040e-02  7.16878778e-05  8.24047558e-04 -5.79232132e-15
 -1.87090115e-15 -2.17947994e-15 -5.08548437e-03 -3.46742973e-03
  1.79680914e-04  3.24837673e-15  1.03839151e-15 -3.62115193e-19
  5.08548437e-03  3.46742973e-03 -1.79680914e-04 -5.45696034e-05
  5.46086167e-05]","[0.244110107421875, 0.12646484375, -0.0009765625, 0.0]",-1.0,"[0.244110107421875, 0.12646484375, -0.0009765625, 0.0]",[-0.02935709 -0.23315413 -0.6121987   0.8084458 ],[1.30303656 0.83328122 0.58954356],[1.47974545 0.61836805 0.42470209],22,351,1170,0.4948050457356407,0,0
26,131,2024-09-18 21:36:33.679190016,TASK_BEGIN,9,-1.926807541373932,0.538176300632728,5.052122336024007,-1.4427312407029766,-0.4332856031973911,0.9746395930783888,-9.671403889541027,2.880987684992051,3,2024-09-18 21:36:34.058622208,1726695394.0586221,2024-09-18 21:36:34.058622211,0,"[ 1.50550222e+00  6.44453431e-01  5.19062997e-01  1.47974544e+00
  6.18368058e-01  4.24784489e-01 -2.57567808e-02 -2.60853735e-02
 -9.42785080e-02 -1.58474475e-06  8.97983860e-04 -3.34006433e-15
 -1.07617747e-15 -2.18159457e-15 -3.86686896e-03 -3.21336785e-03
  2.19216645e-04  1.85912975e-15  6.04965712e-16 -2.34469270e-18
  3.86686896e-03  3.21336785e-03 -2.19216645e-04  8.11665183e-06
 -5.02971925e-06]","[0.24607086181640625, 0.12842559814453125, -0.0009765625, 0.0]",-1.0,"[0.24607086181640625, 0.12842559814453125, -0.0009765625, 0.0]",[-0.10765594 -0.2757998  -0.60241026  0.7783968 ],[1.30303656 0.83328122 0.58954356],[1.47974545 0.61836805 0.42470209],22,351,1170,0.5054923931170449,0,0
27,132,2024-09-18 21:36:33.740897024,TASK_BEGIN,9,-1.9393739606610656,0.5426355474073631,5.207520225715947,-1.4606091856815366,-0.4778068696573739,0.9862158183996544,-9.583366186519862,2.837717080747081,3,2024-09-18 21:36:34.114709760,1726695394.1147099,2024-09-18 21:36:34.114708881,0,"[ 1.50960529e+00  6.48757393e-01  5.18660678e-01  1.47974544e+00
  6.18368058e-01  4.24784489e-01 -2.98598483e-02 -3.03893350e-02
 -9.38761885e-02  2.34823064e-05  9.23723287e-04 -1.92299636e-15
 -6.18262339e-16 -2.18164891e-15 -2.66191906e-03 -2.99448591e-03
  3.06464451e-04  1.07901706e-15  3.43866150e-16  2.01125860e-18
  2.66191906e-03  2.99448591e-03 -3.06464451e-04  7.18452758e-05
 -3.26450175e-05]","[0.24999237060546875, 0.11273956298828125, -0.0009765625, 0.0]",-1.0,"[0.24999237060546875, 0.11273956298828125, -0.0009765625, 0.0]",[-0.1575248  -0.31674364 -0.60640985  0.7576213 ],[1.30303656 0.83328122 0.58954356],[1.47974545 0.61836805 0.42470209],22,351,1170,0.5096118727850341,0,0
28,133,2024-09-18 21:36:34.670369024,TASK_BEGIN,9,-1.947424735671185,0.5463018615936625,5.366741232198921,-1.4841810124068486,-0.5139674890897408,0.9961030382097528,-9.497705470225345,2.8021249889051094,3,2024-09-18 21:36:34.803276032,1726695394.803276,2024-09-18 21:36:34.803276020,0,"[ 1.50627287e+00  6.00739763e-01  5.14675072e-01  1.47974547e+00
  6.18368026e-01  4.24784491e-01 -2.65273956e-02  1.76282627e-02
 -8.98905813e-02  7.33172984e-04  2.76391490e-04  1.21460300e-06
  1.08375309e-06 -6.60345205e-13  4.36756207e-04  4.75680886e-03
  3.61613530e-04 -6.80375806e-07 -6.07078509e-07  1.67659522e-18
 -4.36771388e-04 -4.75679184e-03 -3.61614400e-04 -8.57996127e-05
  8.58155735e-05]","[0.16764068603515625, -0.2382354736328125, -0.0009765625, 0.0]",-1.0,"[0.16764068603515625, -0.2382354736328125, -0.0009765625, 0.0]",[-0.27253303  0.04487708 -0.61514884  0.7113068 ],[1.30303656 0.83328122 0.58954356],[1.47974545 0.61836805 0.42470209],22,351,1170,0.5460182971002017,0,0
29,134,2024-09-18 21:36:34.741839872,TASK_BEGIN,9,-1.95170230279537,0.5491040967122814,5.52639747503968,-1.5124594855113531,-0.5409874186497746,1.0041165394493476,-9.419801727879335,2.775963592884789,3,2024-09-18 21:36:34.803276032,1726695394.803276,2024-09-18 21:36:34.803276020,0,"[ 1.50627287e+00  6.00739763e-01  5.14675072e-01  1.47974547e+00
  6.18368026e-01  4.24784491e-01 -2.65273956e-02  1.76282627e-02
 -8.98905813e-02  7.33172984e-04  2.76391490e-04  1.21460300e-06
  1.08375309e-06 -6.60345205e-13  4.36756207e-04  4.75680886e-03
  3.61613530e-04 -6.80375806e-07 -6.07078509e-07  1.67659522e-18
 -4.36771388e-04 -4.75679184e-03 -3.61614400e-04 -8.57996127e-05
  8.58155735e-05]","[0.16764068603515625, -0.2382354736328125, -0.0009765625, 0.0]",-1.0,"[0.16764068603515625, -0.2382354736328125, -0.0009765625, 0.0]",[-0.27253303  0.04487708 -0.61514884  0.7113068 ],[1.30303656 0.83328122 0.58954356],[1.47974545 0.61836805 0.42470209],22,351,1170,0.5460182971002017,0,0
30,135,2024-09-18 21:36:34.810528000,TASK_BEGIN,9,-1.9528965001808485,0.5509988307384969,5.682286531010445,-1.5434776256490368,-0.5585109367707332,1.0101496191964046,-9.35397704054901,2.7605781837204653,3,2024-09-18 21:36:34.803276032,1726695394.803276,2024-09-18 21:36:34.803276020,0,"[ 1.50627287e+00  6.00739763e-01  5.14675072e-01  1.47974547e+00
  6.18368026e-01  4.24784491e-01 -2.65273956e-02  1.76282627e-02
 -8.98905813e-02  7.33172984e-04  2.76391490e-04  1.21460300e-06
  1.08375309e-06 -6.60345205e-13  4.36756207e-04  4.75680886e-03
  3.61613530e-04 -6.80375806e-07 -6.07078509e-07  1.67659522e-18
 -4.36771388e-04 -4.75679184e-03 -3.61614400e-04 -8.57996127e-05
  8.58155735e-05]","[0.16764068603515625, -0.2382354736328125, -0.0009765625, 0.0]",-1.0,"[0.16764068603515625, -0.2382354736328125, -0.0009765625, 0.0]",[-0.27253303  0.04487708 -0.61514884  0.7113068 ],[1.30303656 0.83328122 0.58954356],[1.47974545 0.61836805 0.42470209],22,351,1170,0.5460182971002017,0,0
31,136,2024-09-18 21:36:34.878305792,TASK_BEGIN,9,-1.9516217166577168,0.5519892768844127,5.829214732022028,-1.574532039859864,-0.5665931211955967,1.014170059064219,-9.303495932913837,2.756782705330825,3,2024-09-18 21:36:34.803276032,1726695394.803276,2024-09-18 21:36:34.803276020,0,"[ 1.50627287e+00  6.00739763e-01  5.14675072e-01  1.47974547e+00
  6.18368026e-01  4.24784491e-01 -2.65273956e-02  1.76282627e-02
 -8.98905813e-02  7.33172984e-04  2.76391490e-04  1.21460300e-06
  1.08375309e-06 -6.60345205e-13  4.36756207e-04  4.75680886e-03
  3.61613530e-04 -6.80375806e-07 -6.07078509e-07  1.67659522e-18
 -4.36771388e-04 -4.75679184e-03 -3.61614400e-04 -8.57996127e-05
  8.58155735e-05]","[0.16764068603515625, -0.2382354736328125, -0.0009765625, 0.0]",-1.0,"[0.16764068603515625, -0.2382354736328125, -0.0009765625, 0.0]",[-0.27253303  0.04487708 -0.61514884  0.7113068 ],[1.30303656 0.83328122 0.58954356],[1.47974545 0.61836805 0.42470209],22,351,1170,0.5460182971002017,0,0
32,137,2024-09-18 21:36:34.945489920,TASK_BEGIN,9,-1.948418256029912,0.5521358949307165,5.961090778555875,-1.6025399307894528,-0.5656452200290312,1.0162135435689708,-9.270674712792651,2.764767693251105,3,2024-09-18 21:36:34.803276032,1726695394.803276,2024-09-18 21:36:34.803276020,0,"[ 1.50627287e+00  6.00739763e-01  5.14675072e-01  1.47974547e+00
  6.18368026e-01  4.24784491e-01 -2.65273956e-02  1.76282627e-02
 -8.98905813e-02  7.33172984e-04  2.76391490e-04  1.21460300e-06
  1.08375309e-06 -6.60345205e-13  4.36756207e-04  4.75680886e-03
  3.61613530e-04 -6.80375806e-07 -6.07078509e-07  1.67659522e-18
 -4.36771388e-04 -4.75679184e-03 -3.61614400e-04 -8.57996127e-05
  8.58155735e-05]","[0.16764068603515625, -0.2382354736328125, -0.0009765625, 0.0]",-1.0,"[0.16764068603515625, -0.2382354736328125, -0.0009765625, 0.0]",[-0.27253303  0.04487708 -0.61514884  0.7113068 ],[1.30303656 0.83328122 0.58954356],[1.47974545 0.61836805 0.42470209],22,351,1170,0.5460182971002017,0,0
33,138,2024-09-18 21:36:35.005805824,TASK_BEGIN,9,-1.943743011421462,0.5515561537468546,6.071290129643156,-1.624428385615951,-0.5563697782024352,1.0163772374769529,-9.257020953265156,2.7840593528414974,3,2024-09-18 21:36:35.369638656,1726695395.3696387,2024-09-18 21:36:35.369637836,0,"[ 1.49890535e+00  5.80712964e-01  5.12583602e-01  1.47974544e+00
  6.18368056e-01  4.24784489e-01 -1.91599038e-02  3.76550923e-02
 -8.77991126e-02  6.87003990e-04  3.22589632e-04  4.84099959e-09
  4.31947578e-09 -2.18491784e-15  5.04493525e-04  5.36143289e-03
  2.17141397e-04 -2.71197037e-09 -2.41980816e-09  1.19349932e-18
 -5.04493585e-04 -5.36143282e-03 -2.17141400e-04 -3.82402780e-05
  3.82406978e-05]","[0.071563720703125, -0.25, -0.0009765625, 0.0]",-1.0,"[0.071563720703125, -0.25, -0.0009765625, 0.0]",[-0.24021704  0.38564724 -0.58936495  0.7396265 ],[1.30303656 0.83328122 0.58954356],[1.47974545 0.61836805 0.42470209],22,351,1170,0.5661567806920992,0,0
34,139,2024-09-18 21:36:35.067804160,TASK_BEGIN,9,-1.937952194227267,0.5504220798440328,6.153186244282245,-1.6374911763447455,-0.5397074057474184,1.014813339550272,-9.263252306294456,2.813506426340032,3,2024-09-18 21:36:35.426651904,1726695395.426652,2024-09-18 21:36:35.426651996,0,"[ 1.49841283e+00  5.73338712e-01  5.12234107e-01  1.47974544e+00
  6.18368056e-01  4.24784489e-01 -1.86673843e-02  4.50293444e-02
 -8.74496180e-02  7.12839269e-04  2.96754980e-04  2.78602212e-09
  2.48588227e-09 -2.17785559e-15  3.42003892e-04  5.15057559e-03
  2.69209974e-04 -1.56075401e-09 -1.39261302e-09 -8.38417250e-19
 -3.42003927e-04 -5.15057555e-03 -2.69209976e-04 -6.60933947e-05
  6.60941068e-05]","[0.11666107177734375, -0.25, -0.0009765625, 0.0]",-1.0,"[0.11666107177734375, -0.25, -0.0009765625, 0.0]",[-0.23350446  0.61113566 -0.603657    0.8396599 ],[1.30303656 0.83328122 0.58954356],[1.47974545 0.61836805 0.42470209],22,351,1170,0.5917258468586757,0,0
35,140,2024-09-18 21:36:36.024871168,TASK_BEGIN,9,-1.9313053222592385,0.5489591963428521,6.200684038157639,-1.6396462689046876,-0.5167881968172595,1.011715952607462,-9.28920039869261,2.8512664930202383,3,2024-09-18 21:36:35.831108352,1726695395.8311083,2024-09-18 21:36:35.831108051,0,"[ 1.49665561e+00  5.80965942e-01  5.11008271e-01  1.47974544e+00
  6.18368056e-01  4.24784489e-01 -1.69101621e-02  3.74021140e-02
 -8.62237822e-02  6.94519851e-05  9.40145182e-04  5.82547253e-11
  5.19789105e-11 -2.17963557e-15 -8.31573599e-04 -6.33487337e-03
  3.64863794e-05 -3.26348113e-11 -2.91190402e-11 -3.20980582e-19
  8.31573598e-04  6.33487337e-03 -3.64863795e-05 -1.07347349e-04
  1.07347663e-04]","[0.0009765625, 0.24999237060546875, -0.0009765625, 0.0]",-1.0,"[0.0009765625, 0.24999237060546875, -0.0009765625, 0.0]",[-0.09758461  0.7610362  -0.5734621   0.87834907],[1.30303656 0.83328122 0.58954356],[1.47974545 0.61836805 0.42470209],22,351,1170,0.5228284979885554,0,0
36,141,2024-09-18 21:36:36.082021888,TASK_BEGIN,9,-1.9240027822415129,0.5474376339973104,6.208629002099535,-1.6295678760747372,-0.4888893218323844,1.0073045269121943,-9.33383170449134,2.8948143464188902,3,2024-09-18 21:36:35.831108352,1726695395.8311083,2024-09-18 21:36:35.831108051,0,"[ 1.49665561e+00  5.80965942e-01  5.11008271e-01  1.47974544e+00
  6.18368056e-01  4.24784489e-01 -1.69101621e-02  3.74021140e-02
 -8.62237822e-02  6.94519851e-05  9.40145182e-04  5.82547253e-11
  5.19789105e-11 -2.17963557e-15 -8.31573599e-04 -6.33487337e-03
  3.64863794e-05 -3.26348113e-11 -2.91190402e-11 -3.20980582e-19
  8.31573598e-04  6.33487337e-03 -3.64863795e-05 -1.07347349e-04
  1.07347663e-04]","[0.0009765625, 0.24999237060546875, -0.0009765625, 0.0]",-1.0,"[0.0009765625, 0.24999237060546875, -0.0009765625, 0.0]",[-0.09758461  0.7610362  -0.5734621   0.87834907],[1.30303656 0.83328122 0.58954356],[1.47974545 0.61836805 0.42470209],22,351,1170,0.5228284979885554,0,0
37,142,2024-09-18 21:36:36.159642880,TASK_BEGIN,9,-1.9162317420467847,0.5461461013068396,6.173061608281687,-1.606726301573689,-0.4573996530190639,1.0018132187571915,-9.395496017509222,2.941017618579314,3,2024-09-18 21:36:35.831108352,1726695395.8311083,2024-09-18 21:36:35.831108051,0,"[ 1.49665561e+00  5.80965942e-01  5.11008271e-01  1.47974544e+00
  6.18368056e-01  4.24784489e-01 -1.69101621e-02  3.74021140e-02
 -8.62237822e-02  6.94519851e-05  9.40145182e-04  5.82547253e-11
  5.19789105e-11 -2.17963557e-15 -8.31573599e-04 -6.33487337e-03
  3.64863794e-05 -3.26348113e-11 -2.91190402e-11 -3.20980582e-19
  8.31573598e-04  6.33487337e-03 -3.64863795e-05 -1.07347349e-04
  1.07347663e-04]","[0.0009765625, 0.24999237060546875, -0.0009765625, 0.0]",-1.0,"[0.0009765625, 0.24999237060546875, -0.0009765625, 0.0]",[-0.09758461  0.7610362  -0.5734621   0.87834907],[1.30303656 0.83328122 0.58954356],[1.47974545 0.61836805 0.42470209],22,351,1170,0.5228284979885554,0,0
38,143,2024-09-18 21:36:36.221685760,TASK_BEGIN,9,-1.9081885939115455,0.545352525887434,6.091378266808878,-1.5713602140367575,-0.4237607301535683,0.9954810593542284,-9.472223832626444,2.9863045858677446,3,2024-09-18 21:36:35.831108352,1726695395.8311083,2024-09-18 21:36:35.831108051,0,"[ 1.49665561e+00  5.80965942e-01  5.11008271e-01  1.47974544e+00
  6.18368056e-01  4.24784489e-01 -1.69101621e-02  3.74021140e-02
 -8.62237822e-02  6.94519851e-05  9.40145182e-04  5.82547253e-11
  5.19789105e-11 -2.17963557e-15 -8.31573599e-04 -6.33487337e-03
  3.64863794e-05 -3.26348113e-11 -2.91190402e-11 -3.20980582e-19
  8.31573598e-04  6.33487337e-03 -3.64863795e-05 -1.07347349e-04
  1.07347663e-04]","[0.0009765625, 0.24999237060546875, -0.0009765625, 0.0]",-1.0,"[0.0009765625, 0.24999237060546875, -0.0009765625, 0.0]",[-0.09758461  0.7610362  -0.5734621   0.87834907],[1.30303656 0.83328122 0.58954356],[1.47974545 0.61836805 0.42470209],22,351,1170,0.5228284979885554,0,0
39,144,2024-09-18 21:36:36.296127232,TASK_BEGIN,9,-1.9000786434906367,0.5452641506372151,5.962569381886948,-1.524387633708982,-0.3893662570248869,0.988532507976226,-9.561844590921789,3.0269263281591074,3,2024-09-18 21:36:36.690937088,1726695396.690937,2024-09-18 21:36:36.690936908,0,"[ 1.50253589e+00  6.13641238e-01  5.08276473e-01  1.47974544e+00
  6.18368056e-01  4.24784489e-01 -2.27904427e-02  4.72681868e-03
 -8.34919842e-02  1.80789329e-04  1.06404992e-03  1.46558882e-14
  1.30834245e-14 -2.17948323e-15 -9.41622693e-04 -5.80124546e-03
  9.34856061e-05 -8.21532122e-15 -7.32482880e-15  2.60422634e-18
  9.41622693e-04  5.80124546e-03 -9.34856061e-05  7.95370756e-06
 -7.94232685e-06]","[0.04607391357421875, 0.24999237060546875, -0.0009765625, 0.0]",-1.0,"[0.04607391357421875, 0.24999237060546875, -0.0009765625, 0.0]",[-0.25318566  0.04622808 -0.5517928   0.7474894 ],[1.30303656 0.83328122 0.58954356],[1.47974545 0.61836805 0.42470209],22,351,1170,0.5029096950597274,0,0
40,145,2024-09-18 21:36:36.363947008,TASK_BEGIN,9,-1.8921113333188035,0.5459960117091072,5.787667602811277,-1.4672861354475737,-0.3554609419791512,0.98115676751147,-9.661894741870016,3.059290993579828,3,2024-09-18 21:36:36.747937024,1726695396.747937,2024-09-18 21:36:36.747936908,0,"[ 1.50390196e+00  6.21960171e-01  5.08142892e-01  1.47974544e+00
  6.18368056e-01  4.24784489e-01 -2.41565209e-02 -3.59211417e-03
 -8.33584025e-02  1.17272160e-04  1.12757578e-03  8.43480567e-15
  7.53106853e-15 -2.17699076e-15 -9.52332443e-04 -5.89431552e-03
  9.64672559e-05 -4.71694471e-15 -4.21752822e-15  3.07317450e-18
  9.52332443e-04  5.89431552e-03 -9.64672559e-05  4.88121928e-05
 -4.88062486e-05]","[0.04803466796875, 0.24999237060546875, -0.0009765625, 0.0]",-1.0,"[0.04803466796875, 0.24999237060546875, -0.0009765625, 0.0]",[-0.27052218 -0.08093181 -0.5508037   0.78047246],[1.30303656 0.83328122 0.58954356],[1.47974545 0.61836805 0.42470209],22,351,1170,0.51155244402095,0,0
41,146,2024-09-18 21:36:36.431749888,TASK_BEGIN,9,-1.8844786612968505,0.5475475231252979,5.570202102085812,-1.4019486947845223,-0.3230848117701935,0.9735032611897604,-9.76950097396727,3.080317317886885,3,2024-09-18 21:36:36.747937024,1726695396.747937,2024-09-18 21:36:36.747936908,0,"[ 1.50390196e+00  6.21960171e-01  5.08142892e-01  1.47974544e+00
  6.18368056e-01  4.24784489e-01 -2.41565209e-02 -3.59211417e-03
 -8.33584025e-02  1.17272160e-04  1.12757578e-03  8.43480567e-15
  7.53106853e-15 -2.17699076e-15 -9.52332443e-04 -5.89431552e-03
  9.64672559e-05 -4.71694471e-15 -4.21752822e-15  3.07317450e-18
  9.52332443e-04  5.89431552e-03 -9.64672559e-05  4.88121928e-05
 -4.88062486e-05]","[0.04803466796875, 0.24999237060546875, -0.0009765625, 0.0]",-1.0,"[0.04803466796875, 0.24999237060546875, -0.0009765625, 0.0]",[-0.27052218 -0.08093181 -0.5508037   0.78047246],[1.30303656 0.83328122 0.58954356],[1.47974545 0.61836805 0.42470209],22,351,1170,0.51155244402095,0,0
42,147,2024-09-18 21:36:37.367179008,TASK_BEGIN,9,-1.8772795794177457,0.5497814799671942,5.316216583090613,-1.3304690547037556,-0.2930501307843337,0.965692596121196,-9.881472460703142,3.08774486393181,3,2024-09-18 21:36:37.424026624,1726695397.4240267,2024-09-18 21:36:37.424026020,0,"[ 1.51130457e+00  6.19185289e-01  5.04875592e-01  1.47974540e+00
  6.18368177e-01  4.24784502e-01 -3.15591641e-02 -8.17111371e-04
 -8.00910896e-02  6.34537993e-04  6.10323270e-04 -4.62262019e-06
 -1.48721445e-06 -3.43959052e-12 -4.45594490e-04  8.57937063e-04
  3.09658229e-04  2.58922113e-06  8.33018273e-07  2.70088291e-19
  4.45615320e-04 -8.58001811e-04 -3.09665536e-04 -5.55517021e-06
  5.55582855e-06]","[0.24999237060546875, -0.0735321044921875, -0.0009765625, 0.0]",-1.0,"[0.24999237060546875, -0.0735321044921875, -0.0009765625, 0.0]",[-0.3024222  -0.14503302 -0.5478681   0.7936464 ],[1.30303656 0.83328122 0.58954356],[1.47974545 0.61836805 0.42470209],22,351,1170,0.507290872418713,0,0
43,148,2024-09-18 21:36:37.429977088,TASK_BEGIN,9,-1.8703961128353623,0.5524049674475502,5.033690773819472,-1.2548627068724938,-0.2659185690197321,0.957828406948251,-9.99466269944313,3.08036344643313,3,2024-09-18 21:36:37.424026624,1726695397.4240267,2024-09-18 21:36:37.424026020,0,"[ 1.51130457e+00  6.19185289e-01  5.04875592e-01  1.47974540e+00
  6.18368177e-01  4.24784502e-01 -3.15591641e-02 -8.17111371e-04
 -8.00910896e-02  6.34537993e-04  6.10323270e-04 -4.62262019e-06
 -1.48721445e-06 -3.43959052e-12 -4.45594490e-04  8.57937063e-04
  3.09658229e-04  2.58922113e-06  8.33018273e-07  2.70088291e-19
  4.45615320e-04 -8.58001811e-04 -3.09665536e-04 -5.55517021e-06
  5.55582855e-06]","[0.24999237060546875, -0.0735321044921875, -0.0009765625, 0.0]",-1.0,"[0.24999237060546875, -0.0735321044921875, -0.0009765625, 0.0]",[-0.3024222  -0.14503302 -0.5478681   0.7936464 ],[1.30303656 0.83328122 0.58954356],[1.47974545 0.61836805 0.42470209],22,351,1170,0.507290872418713,0,0
44,149,2024-09-18 21:36:37.507616000,TASK_BEGIN,9,-1.8633926522124569,0.5549665318803646,4.731661989609632,-1.1768324936170096,-0.2419902612708498,0.950004332463272,-10.10645736616885,3.058150387642057,3,2024-09-18 21:36:37.424026624,1726695397.4240267,2024-09-18 21:36:37.424026020,0,"[ 1.51130457e+00  6.19185289e-01  5.04875592e-01  1.47974540e+00
  6.18368177e-01  4.24784502e-01 -3.15591641e-02 -8.17111371e-04
 -8.00910896e-02  6.34537993e-04  6.10323270e-04 -4.62262019e-06
 -1.48721445e-06 -3.43959052e-12 -4.45594490e-04  8.57937063e-04
  3.09658229e-04  2.58922113e-06  8.33018273e-07  2.70088291e-19
  4.45615320e-04 -8.58001811e-04 -3.09665536e-04 -5.55517021e-06
  5.55582855e-06]","[0.24999237060546875, -0.0735321044921875, -0.0009765625, 0.0]",-1.0,"[0.24999237060546875, -0.0735321044921875, -0.0009765625, 0.0]",[-0.3024222  -0.14503302 -0.5478681   0.7936464 ],[1.30303656 0.83328122 0.58954356],[1.47974545 0.61836805 0.42470209],22,351,1170,0.507290872418713,0,0
45,150,2024-09-18 21:36:37.577440000,TASK_BEGIN,9,-1.8555151244588648,0.5568889669360828,4.41945093907163,-1.0976846276026335,-0.2213270147040358,0.9423090326755889,-10.215207205207376,3.0222878879663564,3,2024-09-18 21:36:37.424026624,1726695397.4240267,2024-09-18 21:36:37.424026020,0,"[ 1.51130457e+00  6.19185289e-01  5.04875592e-01  1.47974540e+00
  6.18368177e-01  4.24784502e-01 -3.15591641e-02 -8.17111371e-04
 -8.00910896e-02  6.34537993e-04  6.10323270e-04 -4.62262019e-06
 -1.48721445e-06 -3.43959052e-12 -4.45594490e-04  8.57937063e-04
  3.09658229e-04  2.58922113e-06  8.33018273e-07  2.70088291e-19
  4.45615320e-04 -8.58001811e-04 -3.09665536e-04 -5.55517021e-06
  5.55582855e-06]","[0.24999237060546875, -0.0735321044921875, -0.0009765625, 0.0]",-1.0,"[0.24999237060546875, -0.0735321044921875, -0.0009765625, 0.0]",[-0.3024222  -0.14503302 -0.5478681   0.7936464 ],[1.30303656 0.83328122 0.58954356],[1.47974545 0.61836805 0.42470209],22,351,1170,0.507290872418713,0,0
46,151,2024-09-18 21:36:37.643838976,TASK_BEGIN,9,-1.845810135738831,0.5575369733996989,4.106194884045939,-1.0184062138615178,-0.2037922059808447,0.9348281764382405,-10.320476760257788,2.9750133898878097,3,2024-09-18 21:36:37.424026624,1726695397.4240267,2024-09-18 21:36:37.424026020,0,"[ 1.51130457e+00  6.19185289e-01  5.04875592e-01  1.47974540e+00
  6.18368177e-01  4.24784502e-01 -3.15591641e-02 -8.17111371e-04
 -8.00910896e-02  6.34537993e-04  6.10323270e-04 -4.62262019e-06
 -1.48721445e-06 -3.43959052e-12 -4.45594490e-04  8.57937063e-04
  3.09658229e-04  2.58922113e-06  8.33018273e-07  2.70088291e-19
  4.45615320e-04 -8.58001811e-04 -3.09665536e-04 -5.55517021e-06
  5.55582855e-06]","[0.24999237060546875, -0.0735321044921875, -0.0009765625, 0.0]",-1.0,"[0.24999237060546875, -0.0735321044921875, -0.0009765625, 0.0]",[-0.3024222  -0.14503302 -0.5478681   0.7936464 ],[1.30303656 0.83328122 0.58954356],[1.47974545 0.61836805 0.42470209],22,351,1170,0.507290872418713,0,0
47,152,2024-09-18 21:36:37.705840128,TASK_BEGIN,9,-1.8333172639919,0.5562947842423008,3.800683172613385,-0.9398508051927166,-0.1890805762807992,0.9276386273817556,-10.423023309415766,2.9193220244029874,3,2024-09-18 21:36:38.094605312,1726695398.0946052,2024-09-18 21:36:38.094604877,0,"[ 1.50377469e+00  6.07553807e-01  5.01621961e-01  1.47974544e+00
  6.18368062e-01  4.24784489e-01 -2.40292523e-02  1.08142547e-02
 -7.68374723e-02  8.21367868e-04  4.23500372e-04 -6.10230604e-09
 -1.96326701e-09 -2.18180512e-15  7.16460072e-04  6.22507931e-03
  1.30032217e-04  3.41856527e-09  1.09983937e-09  1.15987170e-18
 -7.16460045e-04 -6.22507940e-03 -1.30032226e-04  9.87925261e-05
 -9.87923145e-05]","[0.02254486083984375, -0.25, -0.0009765625, 0.0]",-1.0,"[0.02254486083984375, -0.25, -0.0009765625, 0.0]",[-0.27877226 -0.088266   -0.5014233   0.80310905],[1.30303656 0.83328122 0.58954356],[1.47974545 0.61836805 0.42470209],22,351,1170,0.5209282102090319,0,0
48,153,2024-09-18 21:36:37.767370240,TASK_BEGIN,9,-1.817257825429653,0.5526313147745218,3.511413230793717,-0.8629742357740003,-0.1767424876615769,0.920792467874908,-10.52444051180258,2.8586266536694205,3,2024-09-18 21:36:38.151139328,1726695398.1511393,2024-09-18 21:36:38.151139057,0,"[ 1.50323762e+00  5.99723941e-01  5.01418754e-01  1.47974544e+00
  6.18368062e-01  4.24784489e-01 -2.34921741e-02  1.86441211e-02
 -7.66342652e-02  9.38597139e-04  3.06271397e-04 -3.51191098e-09
 -1.12987106e-09 -2.17713865e-15  3.37941556e-04  5.37163647e-03
  1.62293830e-04  1.96740329e-09  6.32963660e-10  8.42954627e-19
 -3.37941541e-04 -5.37163652e-03 -1.62293835e-04 -1.27094618e-05
  1.27097959e-05]","[0.0754852294921875, -0.25, -0.0009765625, 0.0]",-1.0,"[0.0754852294921875, -0.25, -0.0009765625, 0.0]",[-0.26245826  0.0533415  -0.5098963   0.7573537 ],[1.30303656 0.83328122 0.58954356],[1.47974545 0.61836805 0.42470209],22,351,1170,0.5254314306572098,0,0
49,154,2024-09-18 21:36:38.724256000,TASK_BEGIN,9,-1.7971660739994113,0.5461503651812712,3.2467673378930835,-0.7890641881172502,-0.1662260245185495,0.9142945204276506,-10.626422929054918,2.7964502419572206,3,2024-09-18 21:36:39.120752896,1726695399.1207528,2024-09-18 21:36:39.120752094,0,"[ 1.50479653e+00  6.15377760e-01  4.98263961e-01  1.47974544e+00
  6.18368062e-01  4.24784489e-01 -2.50510922e-02  2.99030182e-03
 -7.34794720e-02  1.04232600e-04  1.14064018e-03 -2.92681386e-13
 -9.41659812e-14 -2.17872663e-15 -1.11754056e-03 -5.97138163e-03
  1.07655802e-04  1.63967336e-13  5.27532373e-14  8.92170871e-19
  1.11754056e-03  5.97138163e-03 -1.07655802e-04  7.99893949e-05
 -7.99893391e-05]","[0.07744598388671875, 0.24999237060546875, -0.0009765625, 0.0]",-1.0,"[0.07744598388671875, 0.24999237060546875, -0.0009765625, 0.0]",[-0.26770592  0.02271782 -0.4673787   0.7927542 ],[1.30303656 0.83328122 0.58954356],[1.47974545 0.61836805 0.42470209],22,351,1170,0.49457673111287237,0,0
50,155,2024-09-18 21:36:38.786156032,TASK_BEGIN,9,-1.7729548432697444,0.5366306072544621,3.0151387243715493,-0.7198896496047421,-0.1569352649980076,0.9080806282986172,-10.729799584865216,2.7361466578288174,3,2024-09-18 21:36:39.120752896,1726695399.1207528,2024-09-18 21:36:39.120752094,0,"[ 1.50479653e+00  6.15377760e-01  4.98263961e-01  1.47974544e+00
  6.18368062e-01  4.24784489e-01 -2.50510922e-02  2.99030182e-03
 -7.34794720e-02  1.04232600e-04  1.14064018e-03 -2.92681386e-13
 -9.41659812e-14 -2.17872663e-15 -1.11754056e-03 -5.97138163e-03
  1.07655802e-04  1.63967336e-13  5.27532373e-14  8.92170871e-19
  1.11754056e-03  5.97138163e-03 -1.07655802e-04  7.99893949e-05
 -7.99893391e-05]","[0.07744598388671875, 0.24999237060546875, -0.0009765625, 0.0]",-1.0,"[0.07744598388671875, 0.24999237060546875, -0.0009765625, 0.0]",[-0.26770592  0.02271782 -0.4673787   0.7927542 ],[1.30303656 0.83328122 0.58954356],[1.47974545 0.61836805 0.42470209],22,351,1170,0.49457673111287237,0,0
51,156,2024-09-18 21:36:38.848642048,TASK_BEGIN,9,-1.7449392927403382,0.5240529687318455,2.82476263196959,-0.6576868378431244,-0.1482571307819773,0.9020000859011552,-10.83377075573557,2.68065487061466,3,2024-09-18 21:36:39.120752896,1726695399.1207528,2024-09-18 21:36:39.120752094,0,"[ 1.50479653e+00  6.15377760e-01  4.98263961e-01  1.47974544e+00
  6.18368062e-01  4.24784489e-01 -2.50510922e-02  2.99030182e-03
 -7.34794720e-02  1.04232600e-04  1.14064018e-03 -2.92681386e-13
 -9.41659812e-14 -2.17872663e-15 -1.11754056e-03 -5.97138163e-03
  1.07655802e-04  1.63967336e-13  5.27532373e-14  8.92170871e-19
  1.11754056e-03  5.97138163e-03 -1.07655802e-04  7.99893949e-05
 -7.99893391e-05]","[0.07744598388671875, 0.24999237060546875, -0.0009765625, 0.0]",-1.0,"[0.07744598388671875, 0.24999237060546875, -0.0009765625, 0.0]",[-0.26770592  0.02271782 -0.4673787   0.7927542 ],[1.30303656 0.83328122 0.58954356],[1.47974545 0.61836805 0.42470209],22,351,1170,0.49457673111287237,0,0
52,157,2024-09-18 21:36:38.925837056,TASK_BEGIN,9,-1.7138389703395132,0.5086079048218297,2.6831066080764123,-0.604938651206122,-0.1395188468592757,0.8958043965130219,-10.935769344598784,2.632343675075976,3,2024-09-18 21:36:39.120752896,1726695399.1207528,2024-09-18 21:36:39.120752094,0,"[ 1.50479653e+00  6.15377760e-01  4.98263961e-01  1.47974544e+00
  6.18368062e-01  4.24784489e-01 -2.50510922e-02  2.99030182e-03
 -7.34794720e-02  1.04232600e-04  1.14064018e-03 -2.92681386e-13
 -9.41659812e-14 -2.17872663e-15 -1.11754056e-03 -5.97138163e-03
  1.07655802e-04  1.63967336e-13  5.27532373e-14  8.92170871e-19
  1.11754056e-03  5.97138163e-03 -1.07655802e-04  7.99893949e-05
 -7.99893391e-05]","[0.07744598388671875, 0.24999237060546875, -0.0009765625, 0.0]",-1.0,"[0.07744598388671875, 0.24999237060546875, -0.0009765625, 0.0]",[-0.26770592  0.02271782 -0.4673787   0.7927542 ],[1.30303656 0.83328122 0.58954356],[1.47974545 0.61836805 0.42470209],22,351,1170,0.49457673111287237,0,0
53,158,2024-09-18 21:36:38.992790016,TASK_BEGIN,9,-1.6807510775739674,0.4906771424253441,2.5960010081199822,-0.5640125676811575,-0.1299179162677556,0.8891535163952634,-11.031992663253227,2.592998276903168,3,2024-09-18 21:36:39.120752896,1726695399.1207528,2024-09-18 21:36:39.120752094,0,"[ 1.50479653e+00  6.15377760e-01  4.98263961e-01  1.47974544e+00
  6.18368062e-01  4.24784489e-01 -2.50510922e-02  2.99030182e-03
 -7.34794720e-02  1.04232600e-04  1.14064018e-03 -2.92681386e-13
 -9.41659812e-14 -2.17872663e-15 -1.11754056e-03 -5.97138163e-03
  1.07655802e-04  1.63967336e-13  5.27532373e-14  8.92170871e-19
  1.11754056e-03  5.97138163e-03 -1.07655802e-04  7.99893949e-05
 -7.99893391e-05]","[0.07744598388671875, 0.24999237060546875, -0.0009765625, 0.0]",-1.0,"[0.07744598388671875, 0.24999237060546875, -0.0009765625, 0.0]",[-0.26770592  0.02271782 -0.4673787   0.7927542 ],[1.30303656 0.83328122 0.58954356],[1.47974545 0.61836805 0.42470209],22,351,1170,0.49457673111287237,0,0
54,159,2024-09-18 21:36:39.063278848,TASK_BEGIN,9,-1.6470740951647096,0.4707928519571209,2.5669580365670868,-0.5368101714287526,-0.1185147588435628,0.8816538979560363,-11.118261163221318,2.5639341809473195,3,2024-09-18 21:36:39.120752896,1726695399.1207528,2024-09-18 21:36:39.120752094,0,"[ 1.50479653e+00  6.15377760e-01  4.98263961e-01  1.47974544e+00
  6.18368062e-01  4.24784489e-01 -2.50510922e-02  2.99030182e-03
 -7.34794720e-02  1.04232600e-04  1.14064018e-03 -2.92681386e-13
 -9.41659812e-14 -2.17872663e-15 -1.11754056e-03 -5.97138163e-03
  1.07655802e-04  1.63967336e-13  5.27532373e-14  8.92170871e-19
  1.11754056e-03  5.97138163e-03 -1.07655802e-04  7.99893949e-05
 -7.99893391e-05]","[0.07744598388671875, 0.24999237060546875, -0.0009765625, 0.0]",-1.0,"[0.07744598388671875, 0.24999237060546875, -0.0009765625, 0.0]",[-0.26770592  0.02271782 -0.4673787   0.7927542 ],[1.30303656 0.83328122 0.58954356],[1.47974545 0.61836805 0.42470209],22,351,1170,0.49457673111287237,0,0
55,160,2024-09-18 21:36:39.128236032,TASK_BEGIN,9,-1.6143699993274423,0.4495851929976084,2.596971327726516,-0.5245443024091043,-0.1043312385530919,0.872926525929184,-11.190786904917694,2.546161835801142,3,2024-09-18 21:36:39.120752896,1726695399.1207528,2024-09-18 21:36:39.120752094,0,"[ 1.50479653e+00  6.15377760e-01  4.98263961e-01  1.47974544e+00
  6.18368062e-01  4.24784489e-01 -2.50510922e-02  2.99030182e-03
 -7.34794720e-02  1.04232600e-04  1.14064018e-03 -2.92681386e-13
 -9.41659812e-14 -2.17872663e-15 -1.11754056e-03 -5.97138163e-03
  1.07655802e-04  1.63967336e-13  5.27532373e-14  8.92170871e-19
  1.11754056e-03  5.97138163e-03 -1.07655802e-04  7.99893949e-05
 -7.99893391e-05]","[0.07744598388671875, 0.24999237060546875, -0.0009765625, 0.0]",-1.0,"[0.07744598388671875, 0.24999237060546875, -0.0009765625, 0.0]",[-0.26770592  0.02271782 -0.4673787   0.7927542 ],[1.30303656 0.83328122 0.58954356],[1.47974545 0.61836805 0.42470209],22,351,1170,0.49457673111287237,0,0
56,161,2024-09-18 21:36:40.074151168,TASK_BEGIN,9,-1.5841710979901198,0.4277271043932085,2.684713287584831,-0.5276617179239484,-0.0865148128039362,0.8626824219268036,-11.24664945040491,2.540501926981002,3,2024-09-18 21:36:39.921657344,1726695399.9216573,2024-09-18 21:36:39.921657123,0,"[ 1.50329789e+00  5.78312866e-01  4.95245013e-01  1.47974544e+00
  6.18368062e-01  4.24784489e-01 -2.35524497e-02  4.00551955e-02
 -7.04605239e-02  9.97297381e-04  2.47579979e-04 -1.31280078e-16
 -3.82400148e-17 -2.18449981e-15  7.37405033e-04  4.68646452e-03
  1.84570009e-04  7.67232566e-17  2.99544564e-17  6.65695478e-19
 -7.37405033e-04 -4.68646452e-03 -1.84570009e-04 -7.24839087e-05
  7.24843401e-05]","[0.15587615966796875, -0.24019622802734375, -0.0009765625, 0.0]",-1.0,"[0.15587615966796875, -0.24019622802734375, -0.0009765625, 0.0]",[-0.22872527  0.68513554 -0.3970235   0.8635469 ],[1.30303656 0.83328122 0.58954356],[1.47974545 0.61836805 0.42470209],22,351,1170,0.5859219397812561,0,0
57,162,2024-09-18 21:36:40.136704768,TASK_BEGIN,9,-1.5577629362750611,0.4058777535857599,2.826911369416408,-0.5458833112973905,-0.0644920728975384,0.8507804440886495,-11.283978685440394,2.547567492287252,3,2024-09-18 21:36:39.921657344,1726695399.9216573,2024-09-18 21:36:39.921657123,0,"[ 1.50329789e+00  5.78312866e-01  4.95245013e-01  1.47974544e+00
  6.18368062e-01  4.24784489e-01 -2.35524497e-02  4.00551955e-02
 -7.04605239e-02  9.97297381e-04  2.47579979e-04 -1.31280078e-16
 -3.82400148e-17 -2.18449981e-15  7.37405033e-04  4.68646452e-03
  1.84570009e-04  7.67232566e-17  2.99544564e-17  6.65695478e-19
 -7.37405033e-04 -4.68646452e-03 -1.84570009e-04 -7.24839087e-05
  7.24843401e-05]","[0.15587615966796875, -0.24019622802734375, -0.0009765625, 0.0]",-1.0,"[0.15587615966796875, -0.24019622802734375, -0.0009765625, 0.0]",[-0.22872527  0.68513554 -0.3970235   0.8635469 ],[1.30303656 0.83328122 0.58954356],[1.47974545 0.61836805 0.42470209],22,351,1170,0.5859219397812561,0,0
58,163,2024-09-18 21:36:40.199191808,TASK_BEGIN,9,-1.5359943445859658,0.3846246274992476,3.018743679934061,-0.5783231723103747,-0.0380711590630685,0.8372574598877288,-11.301937404575929,2.5676072593711714,3,2024-09-18 21:36:39.921657344,1726695399.9216573,2024-09-18 21:36:39.921657123,0,"[ 1.50329789e+00  5.78312866e-01  4.95245013e-01  1.47974544e+00
  6.18368062e-01  4.24784489e-01 -2.35524497e-02  4.00551955e-02
 -7.04605239e-02  9.97297381e-04  2.47579979e-04 -1.31280078e-16
 -3.82400148e-17 -2.18449981e-15  7.37405033e-04  4.68646452e-03
  1.84570009e-04  7.67232566e-17  2.99544564e-17  6.65695478e-19
 -7.37405033e-04 -4.68646452e-03 -1.84570009e-04 -7.24839087e-05
  7.24843401e-05]","[0.15587615966796875, -0.24019622802734375, -0.0009765625, 0.0]",-1.0,"[0.15587615966796875, -0.24019622802734375, -0.0009765625, 0.0]",[-0.22872527  0.68513554 -0.3970235   0.8635469 ],[1.30303656 0.83328122 0.58954356],[1.47974545 0.61836805 0.42470209],22,351,1170,0.5859219397812561,0,0
59,164,2024-09-18 21:36:40.277298944,TASK_BEGIN,9,-1.5191593329532271,0.3644290975935757,3.254143148279024,-0.623638505570464,-0.0074973608344144,0.8223324199907712,-11.30060886838151,2.600300807338749,3,2024-09-18 21:36:39.921657344,1726695399.9216573,2024-09-18 21:36:39.921657123,0,"[ 1.50329789e+00  5.78312866e-01  4.95245013e-01  1.47974544e+00
  6.18368062e-01  4.24784489e-01 -2.35524497e-02  4.00551955e-02
 -7.04605239e-02  9.97297381e-04  2.47579979e-04 -1.31280078e-16
 -3.82400148e-17 -2.18449981e-15  7.37405033e-04  4.68646452e-03
  1.84570009e-04  7.67232566e-17  2.99544564e-17  6.65695478e-19
 -7.37405033e-04 -4.68646452e-03 -1.84570009e-04 -7.24839087e-05
  7.24843401e-05]","[0.15587615966796875, -0.24019622802734375, -0.0009765625, 0.0]",-1.0,"[0.15587615966796875, -0.24019622802734375, -0.0009765625, 0.0]",[-0.22872527  0.68513554 -0.3970235   0.8635469 ],[1.30303656 0.83328122 0.58954356],[1.47974545 0.61836805 0.42470209],22,351,1170,0.5859219397812561,0,0
60,165,2024-09-18 21:36:40.339356928,TASK_BEGIN,9,-1.506966867931303,0.3455841778857652,3.5259400969733408,-0.6801606323822983,0.0265440983804075,0.8063845788334739,-11.280769610936469,2.6446057713370505,3,2024-09-18 21:36:40.723486976,1726695400.723487,2024-09-18 21:36:40.723485980,0,"[ 1.49632218e+00  5.63790029e-01  4.92714311e-01  1.47974544e+00
  6.18368060e-01  4.24784489e-01 -1.65767413e-02  5.45780304e-02
 -6.79298222e-02  9.34725260e-04  3.10158726e-04  1.87419051e-08
  1.67228285e-08 -2.34427590e-15  2.63809786e-04  5.14294648e-03
  1.29447318e-04 -1.04993794e-08 -9.36827494e-09 -2.85081775e-19
 -2.63810021e-04 -5.14294621e-03 -1.29447331e-04 -1.63202393e-05
  1.63211440e-05]","[0.10097503662109375, -0.25, -0.0009765625, 0.0]",-1.0,"[0.10097503662109375, -0.25, -0.0009765625, 0.0]",[ 0.07461093  0.9741746  -0.3214893   0.9242345 ],[1.30303656 0.83328122 0.58954356],[1.47974545 0.61836805 0.42470209],22,351,1170,0.5905780356781797,0,0
61,166,2024-09-18 21:36:40.401366016,TASK_BEGIN,9,-1.4985858266822758,0.3281921766823411,3.825805270275941,-0.7459670344259007,0.0629950555765084,0.7899088383262164,-11.243468501219144,2.698699988982204,3,2024-09-18 21:36:40.779487488,1726695400.7794876,2024-09-18 21:36:40.779487201,0,"[ 1.49562156e+00  5.56679521e-01  4.92539005e-01  1.47974544e+00
  6.18368060e-01  4.24784489e-01 -1.58761179e-02  6.16885388e-02
 -6.77545162e-02  9.76445597e-04  2.68439409e-04  1.07860704e-08
  9.62408057e-09 -2.24117248e-15  5.58179348e-04  4.97281761e-03
  1.35450714e-04 -6.04245108e-09 -5.39149422e-09 -2.79859627e-18
 -5.58179483e-04 -4.97281746e-03 -1.35450722e-04 -5.18688660e-05
  5.18698162e-05]","[0.10489654541015625, -0.24411773681640625, -0.0009765625, 0.0]",-1.0,"[0.10489654541015625, -0.24411773681640625, -0.0009765625, 0.0]",[ 0.13296072  0.9940861  -0.28888303  0.9099585 ],[1.30303656 0.83328122 0.58954356],[1.47974545 0.61836805 0.42470209],22,351,1170,0.5941962355387445,0,0
62,167,2024-09-18 21:36:40.481131008,TASK_BEGIN,9,-1.4927518213560105,0.312167159419254,4.144046339960351,-0.8189060196475729,0.1005356126551423,0.7734618172305103,-11.189534594957784,2.760022399050978,3,2024-09-18 21:36:40.779487488,1726695400.7794876,2024-09-18 21:36:40.779487201,0,"[ 1.49562156e+00  5.56679521e-01  4.92539005e-01  1.47974544e+00
  6.18368060e-01  4.24784489e-01 -1.58761179e-02  6.16885388e-02
 -6.77545162e-02  9.76445597e-04  2.68439409e-04  1.07860704e-08
  9.62408057e-09 -2.24117248e-15  5.58179348e-04  4.97281761e-03
  1.35450714e-04 -6.04245108e-09 -5.39149422e-09 -2.79859627e-18
 -5.58179483e-04 -4.97281746e-03 -1.35450722e-04 -5.18688660e-05
  5.18698162e-05]","[0.10489654541015625, -0.24411773681640625, -0.0009765625, 0.0]",-1.0,"[0.10489654541015625, -0.24411773681640625, -0.0009765625, 0.0]",[ 0.13296072  0.9940861  -0.28888303  0.9099585 ],[1.30303656 0.83328122 0.58954356],[1.47974545 0.61836805 0.42470209],22,351,1170,0.5941962355387445,0,0
63,168,2024-09-18 21:36:41.424238080,TASK_BEGIN,9,-1.4879355029927344,0.2972640606592382,4.4694876195444975,-0.8966554780280631,0.1376904073638084,0.7576115391749005,-11.119305812723995,2.825399716236005,3,2024-09-18 21:36:41.815721728,1726695401.8157218,2024-09-18 21:36:41.815721088,0,"[ 1.51018829e+00  6.21098350e-01  4.89399519e-01  1.47974544e+00
  6.18368060e-01  4.24784489e-01 -3.04428453e-02 -2.73028984e-03
 -6.46150297e-02  1.65527298e-04  1.07936344e-03  5.17323299e-13
  4.61584121e-13 -2.19209251e-15 -1.08283945e-03 -5.45271744e-03
  1.23956876e-04 -2.89803319e-13 -2.58587047e-13 -1.44353599e-18
  1.08283945e-03  5.45271744e-03 -1.23956876e-04  9.42346446e-05
 -9.42345505e-05]","[0.2009735107421875, 0.2088165283203125, -0.0009765625, 0.0]",-1.0,"[0.2009735107421875, 0.2088165283203125, -0.0009765625, 0.0]",[-0.27329722 -0.07644997 -0.37711942  0.85465884],[1.30303656 0.83328122 0.58954356],[1.47974545 0.61836805 0.42470209],22,351,1170,0.5017340825308396,0,0
64,169,2024-09-18 21:36:41.486092032,TASK_BEGIN,9,-1.4825512250019346,0.2831298107460241,4.789700351462528,-0.976884829958106,0.1729127158429742,0.7428919166429715,-11.032709002631576,2.8912343988829687,3,2024-09-18 21:36:41.815721728,1726695401.8157218,2024-09-18 21:36:41.815721088,0,"[ 1.51018829e+00  6.21098350e-01  4.89399519e-01  1.47974544e+00
  6.18368060e-01  4.24784489e-01 -3.04428453e-02 -2.73028984e-03
 -6.46150297e-02  1.65527298e-04  1.07936344e-03  5.17323299e-13
  4.61584121e-13 -2.19209251e-15 -1.08283945e-03 -5.45271744e-03
  1.23956876e-04 -2.89803319e-13 -2.58587047e-13 -1.44353599e-18
  1.08283945e-03  5.45271744e-03 -1.23956876e-04  9.42346446e-05
 -9.42345505e-05]","[0.2009735107421875, 0.2088165283203125, -0.0009765625, 0.0]",-1.0,"[0.2009735107421875, 0.2088165283203125, -0.0009765625, 0.0]",[-0.27329722 -0.07644997 -0.37711942  0.85465884],[1.30303656 0.83328122 0.58954356],[1.47974545 0.61836805 0.42470209],22,351,1170,0.5017340825308396,0,0
65,170,2024-09-18 21:36:41.559833088,TASK_BEGIN,9,-1.475154490786467,0.2693659492604319,5.091638176844914,-1.0574851720553204,0.2046507477827783,0.7297598844536981,-10.929530434431978,2.953731305763622,3,2024-09-18 21:36:41.815721728,1726695401.8157218,2024-09-18 21:36:41.815721088,0,"[ 1.51018829e+00  6.21098350e-01  4.89399519e-01  1.47974544e+00
  6.18368060e-01  4.24784489e-01 -3.04428453e-02 -2.73028984e-03
 -6.46150297e-02  1.65527298e-04  1.07936344e-03  5.17323299e-13
  4.61584121e-13 -2.19209251e-15 -1.08283945e-03 -5.45271744e-03
  1.23956876e-04 -2.89803319e-13 -2.58587047e-13 -1.44353599e-18
  1.08283945e-03  5.45271744e-03 -1.23956876e-04  9.42346446e-05
 -9.42345505e-05]","[0.2009735107421875, 0.2088165283203125, -0.0009765625, 0.0]",-1.0,"[0.2009735107421875, 0.2088165283203125, -0.0009765625, 0.0]",[-0.27329722 -0.07644997 -0.37711942  0.85465884],[1.30303656 0.83328122 0.58954356],[1.47974545 0.61836805 0.42470209],22,351,1170,0.5017340825308396,0,0
66,171,2024-09-18 21:36:41.627613952,TASK_BEGIN,9,-1.464590941835164,0.2555931367542411,5.362470449399325,-1.1367484357061783,0.2314005581771135,0.7185580632202563,-10.809645243360183,3.009157578741989,3,2024-09-18 21:36:41.815721728,1726695401.8157218,2024-09-18 21:36:41.815721088,0,"[ 1.51018829e+00  6.21098350e-01  4.89399519e-01  1.47974544e+00
  6.18368060e-01  4.24784489e-01 -3.04428453e-02 -2.73028984e-03
 -6.46150297e-02  1.65527298e-04  1.07936344e-03  5.17323299e-13
  4.61584121e-13 -2.19209251e-15 -1.08283945e-03 -5.45271744e-03
  1.23956876e-04 -2.89803319e-13 -2.58587047e-13 -1.44353599e-18
  1.08283945e-03  5.45271744e-03 -1.23956876e-04  9.42346446e-05
 -9.42345505e-05]","[0.2009735107421875, 0.2088165283203125, -0.0009765625, 0.0]",-1.0,"[0.2009735107421875, 0.2088165283203125, -0.0009765625, 0.0]",[-0.27329722 -0.07644997 -0.37711942  0.85465884],[1.30303656 0.83328122 0.58954356],[1.47974545 0.61836805 0.42470209],22,351,1170,0.5017340825308396,0,0
67,172,2024-09-18 21:36:41.695358976,TASK_BEGIN,9,-1.4500919126600047,0.2415102325912378,5.590297580473282,-1.2133959877269944,0.2517628697903802,0.7094877240791301,-10.673073043033236,3.054128768130289,3,2024-09-18 21:36:42.094622976,1726695402.094623,2024-09-18 21:36:42.094623188,0,"[ 1.50575463e+00  6.14908209e-01  4.88626011e-01  1.47974544e+00
  6.18368060e-01  4.24784489e-01 -2.60091871e-02  3.45985127e-03
 -6.38415219e-02  8.60875355e-04  3.84017647e-04  3.26576408e-14
  2.91441344e-14 -2.19267875e-15  7.62382698e-04  6.27776272e-03
  9.71269553e-05 -1.82955610e-14 -1.63188218e-14  1.16932560e-18
 -7.62382698e-04 -6.27776272e-03 -9.71269553e-05  1.21088487e-04
 -1.21088229e-04]","[0.024505615234375, -0.25, -0.0009765625, 0.0]",-1.0,"[0.024505615234375, -0.25, -0.0009765625, 0.0]",[-0.2516959  -0.16522692 -0.34944585  0.88554955],[1.30303656 0.83328122 0.58954356],[1.47974545 0.61836805 0.42470209],22,351,1170,0.5264846207892998,0,0
68,173,2024-09-18 21:36:41.763165952,TASK_BEGIN,9,-1.4313142597906476,0.2269363934507993,5.764546608721429,-1.2864513125599968,0.2645292401684581,0.7025957864026718,-10.519827876242436,3.0858762076045214,3,2024-09-18 21:36:42.094622976,1726695402.094623,2024-09-18 21:36:42.094623188,0,"[ 1.50575463e+00  6.14908209e-01  4.88626011e-01  1.47974544e+00
  6.18368060e-01  4.24784489e-01 -2.60091871e-02  3.45985127e-03
 -6.38415219e-02  8.60875355e-04  3.84017647e-04  3.26576408e-14
  2.91441344e-14 -2.19267875e-15  7.62382698e-04  6.27776272e-03
  9.71269553e-05 -1.82955610e-14 -1.63188218e-14  1.16932560e-18
 -7.62382698e-04 -6.27776272e-03 -9.71269553e-05  1.21088487e-04
 -1.21088229e-04]","[0.024505615234375, -0.25, -0.0009765625, 0.0]",-1.0,"[0.024505615234375, -0.25, -0.0009765625, 0.0]",[-0.2516959  -0.16522692 -0.34944585  0.88554955],[1.30303656 0.83328122 0.58954356],[1.47974545 0.61836805 0.42470209],22,351,1170,0.5264846207892998,0,0
69,174,2024-09-18 21:36:41.824976896,TASK_BEGIN,9,-1.4083129583335958,0.2118228093263964,5.8761419640542485,-1.355033493613463,0.2688088837893915,0.6977770665780634,-10.349745094817518,3.1024388983194493,3,2024-09-18 21:36:42.207142400,1726695402.2071424,2024-09-18 21:36:42.207141986,0,"[ 1.50418513e+00  5.99285936e-01  4.88362840e-01  1.47974544e+00
  6.18368060e-01  4.24784489e-01 -2.44396914e-02  1.90821238e-02
 -6.35783506e-02  1.05795896e-03  1.86934559e-04  1.08169363e-14
  9.65680949e-15 -2.19353309e-15  5.87002245e-04  5.42530356e-03
  1.03802689e-04 -6.06342149e-15 -5.40943918e-15  5.80208498e-19
 -5.87002245e-04 -5.42530356e-03 -1.03802689e-04 -4.40666627e-05
  4.40669126e-05]","[0.07352447509765625, -0.25, -0.0009765625, 0.0]",-1.0,"[0.07352447509765625, -0.25, -0.0009765625, 0.0]",[-0.22743739  0.14194667 -0.286417    0.81552523],[1.30303656 0.83328122 0.58954356],[1.47974545 0.61836805 0.42470209],22,351,1170,0.5286251373015968,0,0
70,175,2024-09-18 21:36:42.738665984,TASK_BEGIN,9,-1.3814551981364838,0.1962357662424021,5.917745707818194,-1.4181738751173671,0.2641801785112231,0.6947884246490752,-10.162631265550347,3.1027634874819685,3,2024-09-18 21:36:42.433218816,1726695402.4332187,2024-09-18 21:36:42.433217914,0,"[ 1.49945012e+00  5.69280458e-01  4.87778774e-01  1.47974544e+00
  6.18368060e-01  4.24784489e-01 -1.97046765e-02  4.90876026e-02
 -6.29942852e-02  1.09050667e-03  1.54387802e-04  1.18716135e-15
  1.05971285e-15 -2.18924574e-15  1.00643562e-03  5.19388922e-03
  1.07444225e-04 -6.63751372e-16 -5.84414902e-16  1.85294994e-18
 -1.00643562e-03 -5.19388922e-03 -1.07444225e-04 -8.54572551e-05
  8.54574253e-05]","[0.08136749267578125, -0.25, -0.0009765625, 0.0]",-1.0,"[0.08136749267578125, -0.25, -0.0009765625, 0.0]",[ 0.02660722  0.95071524 -0.25098455  0.9374212 ],[1.30303656 0.83328122 0.58954356],[1.47974545 0.61836805 0.42470209],22,351,1170,0.5804433158623107,0,0
71,176,2024-09-18 21:36:42.815963136,TASK_BEGIN,9,-1.3513255847969698,0.1803312105038302,5.884216532720649,-1.4747394949370911,0.2508202914161527,0.6932703586059975,-9.958821011943822,3.086718202377545,3,2024-09-18 21:36:42.433218816,1726695402.4332187,2024-09-18 21:36:42.433217914,0,"[ 1.49945012e+00  5.69280458e-01  4.87778774e-01  1.47974544e+00
  6.18368060e-01  4.24784489e-01 -1.97046765e-02  4.90876026e-02
 -6.29942852e-02  1.09050667e-03  1.54387802e-04  1.18716135e-15
  1.05971285e-15 -2.18924574e-15  1.00643562e-03  5.19388922e-03
  1.07444225e-04 -6.63751372e-16 -5.84414902e-16  1.85294994e-18
 -1.00643562e-03 -5.19388922e-03 -1.07444225e-04 -8.54572551e-05
  8.54574253e-05]","[0.08136749267578125, -0.25, -0.0009765625, 0.0]",-1.0,"[0.08136749267578125, -0.25, -0.0009765625, 0.0]",[ 0.02660722  0.95071524 -0.25098455  0.9374212 ],[1.30303656 0.83328122 0.58954356],[1.47974545 0.61836805 0.42470209],22,351,1170,0.5804433158623107,0,0
72,177,2024-09-18 21:36:42.877517824,TASK_BEGIN,9,-1.3186743756456436,0.164335519012836,5.773196346552156,-1.523493097574908,0.2295605406721425,0.6927749354283161,-9.739823217364185,3.055007549994053,3,2024-09-18 21:36:42.489194752,1726695402.4891946,2024-09-18 21:36:42.489193988,0,"[ 1.49777901e+00  5.65713026e-01  4.87605424e-01  1.47974544e+00
  6.18368060e-01  4.24784489e-01 -1.80335633e-02  5.26550337e-02
 -6.28209353e-02  9.73358371e-04  2.71536371e-04  6.81245701e-16
  6.16366257e-16 -2.18687983e-15  1.19602807e-03  1.98742619e-03
  1.02843914e-04 -3.78945431e-16 -3.31861687e-16  3.84243815e-19
 -1.19602807e-03 -1.98742619e-03 -1.02843914e-04 -1.38411889e-04
  1.38412272e-04]","[0.00293731689453125, -0.11078643798828125, -0.0009765625, 0.0]",-1.0,"[0.00293731689453125, -0.11078643798828125, -0.0009765625, 0.0]",[ 0.10981213  0.98610115 -0.22519858  0.92998314],[1.30303656 0.83328122 0.58954356],[1.47974545 0.61836805 0.42470209],22,351,1170,0.49027288625170024,0,0
73,178,2024-09-18 21:36:42.940008960,TASK_BEGIN,9,-1.2844085198336337,0.1485291002944138,5.585691663860964,-1.5632446702266956,0.2018417286289461,0.6928000949038152,-9.50875351319074,3.008985565616309,3,2024-09-18 21:36:42.991304704,1726695402.9913046,2024-09-18 21:36:42.991303852,0,"[ 1.49661411e+00  5.74199195e-01  4.86047740e-01  1.47974543e+00
  6.18368114e-01  4.24784495e-01 -1.68686897e-02  4.41689198e-02
 -6.12632452e-02  4.01991732e-04  8.42905220e-04 -1.96325171e-06
 -6.31627985e-07 -6.22204313e-13 -1.43222893e-03 -6.54347003e-03
  8.08361516e-05  1.09982838e-06  3.53842750e-07  5.00684290e-19
  1.43223777e-03  6.54344252e-03 -8.08392420e-05 -1.08965674e-04
  1.08965770e-04]","[0.06175994873046875, 0.24999237060546875, -0.0009765625, 0.0]",-1.0,"[0.06175994873046875, 0.24999237060546875, -0.0009765625, 0.0]",[ 0.13930981  0.9834527  -0.214522    0.92127115],[1.30303656 0.83328122 0.58954356],[1.47974545 0.61836805 0.42470209],22,351,1170,0.4734809739190233,0,0
74,179,2024-09-18 21:36:43.020610048,TASK_BEGIN,9,-1.2495798681359187,0.1332272890800232,5.326555665185556,-1.593023053977838,0.1695718886959425,0.6928275496240635,-9.270537160330262,2.950439494884161,3,2024-09-18 21:36:42.991304704,1726695402.9913046,2024-09-18 21:36:42.991303852,0,"[ 1.49661411e+00  5.74199195e-01  4.86047740e-01  1.47974543e+00
  6.18368114e-01  4.24784495e-01 -1.68686897e-02  4.41689198e-02
 -6.12632452e-02  4.01991732e-04  8.42905220e-04 -1.96325171e-06
 -6.31627985e-07 -6.22204313e-13 -1.43222893e-03 -6.54347003e-03
  8.08361516e-05  1.09982838e-06  3.53842750e-07  5.00684290e-19
  1.43223777e-03  6.54344252e-03 -8.08392420e-05 -1.08965674e-04
  1.08965770e-04]","[0.06175994873046875, 0.24999237060546875, -0.0009765625, 0.0]",-1.0,"[0.06175994873046875, 0.24999237060546875, -0.0009765625, 0.0]",[ 0.13930981  0.9834527  -0.214522    0.92127115],[1.30303656 0.83328122 0.58954356],[1.47974545 0.61836805 0.42470209],22,351,1170,0.4734809739190233,0,0
75,180,2024-09-18 21:36:43.088419840,TASK_BEGIN,9,-1.2153304490267718,0.118759066838039,5.0047769006474745,-1.6122401187772928,0.1349125885115328,0.6923592634656331,-9.031925145348971,2.8814527067561477,3,2024-09-18 21:36:42.991304704,1726695402.9913046,2024-09-18 21:36:42.991303852,0,"[ 1.49661411e+00  5.74199195e-01  4.86047740e-01  1.47974543e+00
  6.18368114e-01  4.24784495e-01 -1.68686897e-02  4.41689198e-02
 -6.12632452e-02  4.01991732e-04  8.42905220e-04 -1.96325171e-06
 -6.31627985e-07 -6.22204313e-13 -1.43222893e-03 -6.54347003e-03
  8.08361516e-05  1.09982838e-06  3.53842750e-07  5.00684290e-19
  1.43223777e-03  6.54344252e-03 -8.08392420e-05 -1.08965674e-04
  1.08965770e-04]","[0.06175994873046875, 0.24999237060546875, -0.0009765625, 0.0]",-1.0,"[0.06175994873046875, 0.24999237060546875, -0.0009765625, 0.0]",[ 0.13930981  0.9834527  -0.214522    0.92127115],[1.30303656 0.83328122 0.58954356],[1.47974545 0.61836805 0.42470209],22,351,1170,0.4734809739190233,0,0
76,181,2024-09-18 21:36:43.142216960,TASK_BEGIN,9,-1.1828000886436338,0.1054445402081893,4.63346765951372,-1.6208353125813468,0.1000475869276973,0.6909487263914369,-8.801211631847726,2.8043676085611065,3,2024-09-18 21:36:42.991304704,1726695402.9913046,2024-09-18 21:36:42.991303852,0,"[ 1.49661411e+00  5.74199195e-01  4.86047740e-01  1.47974543e+00
  6.18368114e-01  4.24784495e-01 -1.68686897e-02  4.41689198e-02
 -6.12632452e-02  4.01991732e-04  8.42905220e-04 -1.96325171e-06
 -6.31627985e-07 -6.22204313e-13 -1.43222893e-03 -6.54347003e-03
  8.08361516e-05  1.09982838e-06  3.53842750e-07  5.00684290e-19
  1.43223777e-03  6.54344252e-03 -8.08392420e-05 -1.08965674e-04
  1.08965770e-04]","[0.06175994873046875, 0.24999237060546875, -0.0009765625, 0.0]",-1.0,"[0.06175994873046875, 0.24999237060546875, -0.0009765625, 0.0]",[ 0.13930981  0.9834527  -0.214522    0.92127115],[1.30303656 0.83328122 0.58954356],[1.47974545 0.61836805 0.42470209],22,351,1170,0.4734809739190233,0,0
77,182,2024-09-18 21:36:44.087619072,TASK_BEGIN,9,-1.153043805304444,0.0935735867088297,4.22944609847181,-1.6193566566042663,0.067001634081127,0.6882242586768977,-8.587516512917983,2.721756407375433,3,2024-09-18 21:36:44.127392768,1726695404.1273928,2024-09-18 21:36:44.127391986,0,"[ 1.49905113e+00  5.90136551e-01  4.81744831e-01  1.47974544e+00
  6.18368065e-01  4.24784489e-01 -1.93056905e-02  2.82315142e-02
 -5.69603416e-02  6.53067139e-04  5.91830180e-04 -3.11865138e-11
 -1.00335019e-11 -2.19658345e-15  4.76800067e-05 -3.68724444e-05
  1.64508158e-04  1.74709645e-11  5.62084631e-12 -2.46872805e-18
 -4.76800065e-05  3.68724439e-05 -1.64508158e-04  4.53589348e-07
 -4.53589333e-07]","[0.0009765625, 0.0009765625, -0.0009765625, 0.0]",-1.0,"[0.0009765625, 0.0009765625, -0.0009765625, 0.0]",[-0.25212583  0.49671564 -0.13328141  0.85155314],[1.30303656 0.83328122 0.58954356],[1.47974545 0.61836805 0.42470209],22,351,1170,0.4026182098467295,0,0
78,183,2024-09-18 21:36:44.164820736,TASK_BEGIN,9,-1.1269865659982152,0.0833879323882814,3.812367055521082,-1.6089495173059505,0.0375552008179654,0.6839003047544693,-8.399656978299417,2.636317075184955,3,2024-09-18 21:36:44.127392768,1726695404.1273928,2024-09-18 21:36:44.127391986,0,"[ 1.49905113e+00  5.90136551e-01  4.81744831e-01  1.47974544e+00
  6.18368065e-01  4.24784489e-01 -1.93056905e-02  2.82315142e-02
 -5.69603416e-02  6.53067139e-04  5.91830180e-04 -3.11865138e-11
 -1.00335019e-11 -2.19658345e-15  4.76800067e-05 -3.68724444e-05
  1.64508158e-04  1.74709645e-11  5.62084631e-12 -2.46872805e-18
 -4.76800065e-05  3.68724439e-05 -1.64508158e-04  4.53589348e-07
 -4.53589333e-07]","[0.0009765625, 0.0009765625, -0.0009765625, 0.0]",-1.0,"[0.0009765625, 0.0009765625, -0.0009765625, 0.0]",[-0.25212583  0.49671564 -0.13328141  0.85155314],[1.30303656 0.83328122 0.58954356],[1.47974545 0.61836805 0.42470209],22,351,1170,0.4026182098467295,0,0
79,184,2024-09-18 21:36:44.234946048,TASK_BEGIN,9,-1.105376983382722,0.075063021496332,3.403394266449401,-1.5912656220033916,0.0132430943864885,0.6777759774438307,-8.244809966210726,2.55070685660274,3,2024-09-18 21:36:44.127392768,1726695404.1273928,2024-09-18 21:36:44.127391986,0,"[ 1.49905113e+00  5.90136551e-01  4.81744831e-01  1.47974544e+00
  6.18368065e-01  4.24784489e-01 -1.93056905e-02  2.82315142e-02
 -5.69603416e-02  6.53067139e-04  5.91830180e-04 -3.11865138e-11
 -1.00335019e-11 -2.19658345e-15  4.76800067e-05 -3.68724444e-05
  1.64508158e-04  1.74709645e-11  5.62084631e-12 -2.46872805e-18
 -4.76800065e-05  3.68724439e-05 -1.64508158e-04  4.53589348e-07
 -4.53589333e-07]","[0.0009765625, 0.0009765625, -0.0009765625, 0.0]",-1.0,"[0.0009765625, 0.0009765625, -0.0009765625, 0.0]",[-0.25212583  0.49671564 -0.13328141  0.85155314],[1.30303656 0.83328122 0.58954356],[1.47974545 0.61836805 0.42470209],22,351,1170,0.4026182098467295,0,0
80,185,2024-09-18 21:36:44.288873984,TASK_BEGIN,9,-1.08870148369772,0.0686904445827052,3.023439019895468,-1.5682958094410324,-0.0046321032262543,0.6697304768088966,-8.127225202185137,2.4673616642140326,3,2024-09-18 21:36:44.127392768,1726695404.1273928,2024-09-18 21:36:44.127391986,0,"[ 1.49905113e+00  5.90136551e-01  4.81744831e-01  1.47974544e+00
  6.18368065e-01  4.24784489e-01 -1.93056905e-02  2.82315142e-02
 -5.69603416e-02  6.53067139e-04  5.91830180e-04 -3.11865138e-11
 -1.00335019e-11 -2.19658345e-15  4.76800067e-05 -3.68724444e-05
  1.64508158e-04  1.74709645e-11  5.62084631e-12 -2.46872805e-18
 -4.76800065e-05  3.68724439e-05 -1.64508158e-04  4.53589348e-07
 -4.53589333e-07]","[0.0009765625, 0.0009765625, -0.0009765625, 0.0]",-1.0,"[0.0009765625, 0.0009765625, -0.0009765625, 0.0]",[-0.25212583  0.49671564 -0.13328141  0.85155314],[1.30303656 0.83328122 0.58954356],[1.47974545 0.61836805 0.42470209],22,351,1170,0.4026182098467295,0,0
81,186,2024-09-18 21:36:44.370516224,TASK_BEGIN,9,-1.0771082773578609,0.0642779001112641,2.691248117958618,-1.5421130563343706,-0.0150417805827787,0.6597312559405569,-8.04723774131128,2.3883192443393804,3,2024-09-18 21:36:44.127392768,1726695404.1273928,2024-09-18 21:36:44.127391986,0,"[ 1.49905113e+00  5.90136551e-01  4.81744831e-01  1.47974544e+00
  6.18368065e-01  4.24784489e-01 -1.93056905e-02  2.82315142e-02
 -5.69603416e-02  6.53067139e-04  5.91830180e-04 -3.11865138e-11
 -1.00335019e-11 -2.19658345e-15  4.76800067e-05 -3.68724444e-05
  1.64508158e-04  1.74709645e-11  5.62084631e-12 -2.46872805e-18
 -4.76800065e-05  3.68724439e-05 -1.64508158e-04  4.53589348e-07
 -4.53589333e-07]","[0.0009765625, 0.0009765625, -0.0009765625, 0.0]",-1.0,"[0.0009765625, 0.0009765625, -0.0009765625, 0.0]",[-0.25212583  0.49671564 -0.13328141  0.85155314],[1.30303656 0.83328122 0.58954356],[1.47974545 0.61836805 0.42470209],22,351,1170,0.4026182098467295,0,0
82,187,2024-09-18 21:36:44.427697920,TASK_BEGIN,9,-1.0704259546813082,0.0617809665699538,2.4218721176790776,-1.5145447668234169,-0.0173340102432414,0.6478607318572486,-8.000901195822355,2.3150689792715875,3,2024-09-18 21:36:44.127392768,1726695404.1273928,2024-09-18 21:36:44.127391986,0,"[ 1.49905113e+00  5.90136551e-01  4.81744831e-01  1.47974544e+00
  6.18368065e-01  4.24784489e-01 -1.93056905e-02  2.82315142e-02
 -5.69603416e-02  6.53067139e-04  5.91830180e-04 -3.11865138e-11
 -1.00335019e-11 -2.19658345e-15  4.76800067e-05 -3.68724444e-05
  1.64508158e-04  1.74709645e-11  5.62084631e-12 -2.46872805e-18
 -4.76800065e-05  3.68724439e-05 -1.64508158e-04  4.53589348e-07
 -4.53589333e-07]","[0.0009765625, 0.0009765625, -0.0009765625, 0.0]",-1.0,"[0.0009765625, 0.0009765625, -0.0009765625, 0.0]",[-0.25212583  0.49671564 -0.13328141  0.85155314],[1.30303656 0.83328122 0.58954356],[1.47974545 0.61836805 0.42470209],22,351,1170,0.4026182098467295,0,0
83,188,2024-09-18 21:36:44.504337920,TASK_BEGIN,9,-1.0682805400237407,0.0611517690597336,2.225827888192053,-1.4868560577298526,-0.01134006356538,0.6343460185450572,-7.980528972627786,2.2484855942564383,3,2024-09-18 21:36:44.127392768,1726695404.1273928,2024-09-18 21:36:44.127391986,0,"[ 1.49905113e+00  5.90136551e-01  4.81744831e-01  1.47974544e+00
  6.18368065e-01  4.24784489e-01 -1.93056905e-02  2.82315142e-02
 -5.69603416e-02  6.53067139e-04  5.91830180e-04 -3.11865138e-11
 -1.00335019e-11 -2.19658345e-15  4.76800067e-05 -3.68724444e-05
  1.64508158e-04  1.74709645e-11  5.62084631e-12 -2.46872805e-18
 -4.76800065e-05  3.68724439e-05 -1.64508158e-04  4.53589348e-07
 -4.53589333e-07]","[0.0009765625, 0.0009765625, -0.0009765625, 0.0]",-1.0,"[0.0009765625, 0.0009765625, -0.0009765625, 0.0]",[-0.25212583  0.49671564 -0.13328141  0.85155314],[1.30303656 0.83328122 0.58954356],[1.47974545 0.61836805 0.42470209],22,351,1170,0.4026182098467295,0,0
84,189,2024-09-18 21:36:45.420211968,TASK_BEGIN,9,-1.0702362692137213,0.0623716418846762,2.1088722999637137,-1.4595706502733496,0.0025699821256467,0.6195669019434485,-7.976058523318378,2.188885606366875,3,2024-09-18 21:36:45.787693312,1726695405.7876933,2024-09-18 21:36:45.787693012,0,"[ 1.49639089e+00  5.89692586e-01  4.35513363e-01  1.47193112e+00
  6.28814402e-01  4.31996998e-01 -2.44597739e-02  3.91218158e-02
 -3.51636465e-03 -1.22658337e-06  1.59105610e-03  1.39332455e+00
  4.27189022e-01 -3.82327921e-01 -7.67907720e-04 -1.67715452e-03
  1.16799745e-02  4.60753344e-01  2.16174828e-01  2.11461502e-02
 -1.00677987e-04  1.76027885e-04 -3.43486485e-04  3.52725009e-06
  5.17697787e-05]","[0.0009765625, 0.0009765625, -0.0009765625, 0.0]",-1.0,"[0.0009765625, 0.0009765625, -0.0009765625, 0.0]",[ 0.66779     0.8821839  -0.09297506  0.15306896],[1.30303656 0.83328122 0.58954356],[1.47974545 0.61836805 0.42470209],22,351,1170,0.8469944863980043,1,2
85,190,2024-09-18 21:36:45.482696960,TASK_BEGIN,9,-1.0758915794126325,0.0654490446145158,2.072225180772865,-1.432522418798127,0.0234960772844183,0.6040321486124992,-7.976741875203771,2.136172250949501,3,2024-09-18 21:36:45.787693312,1726695405.7876933,2024-09-18 21:36:45.787693012,0,"[ 1.49639089e+00  5.89692586e-01  4.35513363e-01  1.47193112e+00
  6.28814402e-01  4.31996998e-01 -2.44597739e-02  3.91218158e-02
 -3.51636465e-03 -1.22658337e-06  1.59105610e-03  1.39332455e+00
  4.27189022e-01 -3.82327921e-01 -7.67907720e-04 -1.67715452e-03
  1.16799745e-02  4.60753344e-01  2.16174828e-01  2.11461502e-02
 -1.00677987e-04  1.76027885e-04 -3.43486485e-04  3.52725009e-06
  5.17697787e-05]","[0.0009765625, 0.0009765625, -0.0009765625, 0.0]",-1.0,"[0.0009765625, 0.0009765625, -0.0009765625, 0.0]",[ 0.66779     0.8821839  -0.09297506  0.15306896],[1.30303656 0.83328122 0.58954356],[1.47974545 0.61836805 0.42470209],22,351,1170,0.8469944863980043,1,2
86,191,2024-09-18 21:36:45.559575296,TASK_BEGIN,9,-1.0849037165405553,0.0703890873123002,2.113168801425746,-1.4051130560348684,0.0500794152704481,0.5883332469979564,-7.972595856064893,2.089977078059569,3,2024-09-18 21:36:45.787693312,1726695405.7876933,2024-09-18 21:36:45.787693012,0,"[ 1.49639089e+00  5.89692586e-01  4.35513363e-01  1.47193112e+00
  6.28814402e-01  4.31996998e-01 -2.44597739e-02  3.91218158e-02
 -3.51636465e-03 -1.22658337e-06  1.59105610e-03  1.39332455e+00
  4.27189022e-01 -3.82327921e-01 -7.67907720e-04 -1.67715452e-03
  1.16799745e-02  4.60753344e-01  2.16174828e-01  2.11461502e-02
 -1.00677987e-04  1.76027885e-04 -3.43486485e-04  3.52725009e-06
  5.17697787e-05]","[0.0009765625, 0.0009765625, -0.0009765625, 0.0]",-1.0,"[0.0009765625, 0.0009765625, -0.0009765625, 0.0]",[ 0.66779     0.8821839  -0.09297506  0.15306896],[1.30303656 0.83328122 0.58954356],[1.47974545 0.61836805 0.42470209],22,351,1170,0.8469944863980043,1,2
87,192,2024-09-18 21:36:45.622073856,TASK_BEGIN,9,-1.0969476923529156,0.0771549433435574,2.225886949090317,-1.3766542702781828,0.0806328836179279,0.5730875880697259,-7.955297244737673,2.049736510327681,3,2024-09-18 21:36:45.787693312,1726695405.7876933,2024-09-18 21:36:45.787693012,0,"[ 1.49639089e+00  5.89692586e-01  4.35513363e-01  1.47193112e+00
  6.28814402e-01  4.31996998e-01 -2.44597739e-02  3.91218158e-02
 -3.51636465e-03 -1.22658337e-06  1.59105610e-03  1.39332455e+00
  4.27189022e-01 -3.82327921e-01 -7.67907720e-04 -1.67715452e-03
  1.16799745e-02  4.60753344e-01  2.16174828e-01  2.11461502e-02
 -1.00677987e-04  1.76027885e-04 -3.43486485e-04  3.52725009e-06
  5.17697787e-05]","[0.0009765625, 0.0009765625, -0.0009765625, 0.0]",-1.0,"[0.0009765625, 0.0009765625, -0.0009765625, 0.0]",[ 0.66779     0.8821839  -0.09297506  0.15306896],[1.30303656 0.83328122 0.58954356],[1.47974545 0.61836805 0.42470209],22,351,1170,0.8469944863980043,1,2
88,193,2024-09-18 21:36:45.683574016,TASK_BEGIN,9,-1.111644630801046,0.0856402982839656,2.4022832925144044,-1.3466703477030093,0.1132959495517472,0.5588803783591045,-7.9185281306595074,2.01473217443217,3,2024-09-18 21:36:45.787693312,1726695405.7876933,2024-09-18 21:36:45.787693012,0,"[ 1.49639089e+00  5.89692586e-01  4.35513363e-01  1.47193112e+00
  6.28814402e-01  4.31996998e-01 -2.44597739e-02  3.91218158e-02
 -3.51636465e-03 -1.22658337e-06  1.59105610e-03  1.39332455e+00
  4.27189022e-01 -3.82327921e-01 -7.67907720e-04 -1.67715452e-03
  1.16799745e-02  4.60753344e-01  2.16174828e-01  2.11461502e-02
 -1.00677987e-04  1.76027885e-04 -3.43486485e-04  3.52725009e-06
  5.17697787e-05]","[0.0009765625, 0.0009765625, -0.0009765625, 0.0]",-1.0,"[0.0009765625, 0.0009765625, -0.0009765625, 0.0]",[ 0.66779     0.8821839  -0.09297506  0.15306896],[1.30303656 0.83328122 0.58954356],[1.47974545 0.61836805 0.42470209],22,351,1170,0.8469944863980043,1,2
89,194,2024-09-18 21:36:45.762774016,TASK_BEGIN,9,-1.1285099237121743,0.0956601409125781,2.632610103904321,-1.315094937136018,0.1461546956155974,0.5462179170058719,-7.857922296298312,1.984143545519044,3,2024-09-18 21:36:45.787693312,1726695405.7876933,2024-09-18 21:36:45.787693012,0,"[ 1.49639089e+00  5.89692586e-01  4.35513363e-01  1.47193112e+00
  6.28814402e-01  4.31996998e-01 -2.44597739e-02  3.91218158e-02
 -3.51636465e-03 -1.22658337e-06  1.59105610e-03  1.39332455e+00
  4.27189022e-01 -3.82327921e-01 -7.67907720e-04 -1.67715452e-03
  1.16799745e-02  4.60753344e-01  2.16174828e-01  2.11461502e-02
 -1.00677987e-04  1.76027885e-04 -3.43486485e-04  3.52725009e-06
  5.17697787e-05]","[0.0009765625, 0.0009765625, -0.0009765625, 0.0]",-1.0,"[0.0009765625, 0.0009765625, -0.0009765625, 0.0]",[ 0.66779     0.8821839  -0.09297506  0.15306896],[1.30303656 0.83328122 0.58954356],[1.47974545 0.61836805 0.42470209],22,351,1170,0.8469944863980043,1,2
90,195,2024-09-18 21:36:45.823329792,TASK_BEGIN,9,-1.1469399708712715,0.1069521242418343,2.9060019733492326,-1.2823672228732592,0.177310534018954,0.5355012315007108,-7.770768545133015,1.9571035636222127,3,2024-09-18 21:36:45.787693312,1726695405.7876933,2024-09-18 21:36:45.787693012,0,"[ 1.49639089e+00  5.89692586e-01  4.35513363e-01  1.47193112e+00
  6.28814402e-01  4.31996998e-01 -2.44597739e-02  3.91218158e-02
 -3.51636465e-03 -1.22658337e-06  1.59105610e-03  1.39332455e+00
  4.27189022e-01 -3.82327921e-01 -7.67907720e-04 -1.67715452e-03
  1.16799745e-02  4.60753344e-01  2.16174828e-01  2.11461502e-02
 -1.00677987e-04  1.76027885e-04 -3.43486485e-04  3.52725009e-06
  5.17697787e-05]","[0.0009765625, 0.0009765625, -0.0009765625, 0.0]",-1.0,"[0.0009765625, 0.0009765625, -0.0009765625, 0.0]",[ 0.66779     0.8821839  -0.09297506  0.15306896],[1.30303656 0.83328122 0.58954356],[1.47974545 0.61836805 0.42470209],22,351,1170,0.8469944863980043,1,2
91,196,2024-09-18 21:36:46.767239936,TASK_BEGIN,9,-1.1662111289169543,0.119175466840482,3.211080063023923,-1.2494637569225513,0.204944126428847,0.5270141706633393,-7.655708234612878,1.9327457636253496,3,2024-09-18 21:36:47.153128192,1726695407.1531281,2024-09-18 21:36:47.153127826,0,"[ 1.49413588e+00  5.91050722e-01  4.30253767e-01  1.45557985e+00
  6.26598590e-01  4.24784468e-01 -3.85560373e-02  3.55478685e-02
 -5.46929910e-03  4.07901988e-06  1.66331779e-03  1.57079632e+00
  4.58870486e-01  7.56962107e-07  8.04963537e-05 -4.34079985e-05
  1.53212402e-04 -1.83734185e-07  3.80191305e-07  1.32163729e-18
 -8.04868461e-05  4.34125931e-05 -1.53200699e-04  5.62752990e-07
 -5.62745137e-07]","[0.0009765625, 0.0009765625, -0.0009765625, 0.0]",-1.0,"[0.0009765625, 0.0009765625, -0.0009765625, 0.0]",[0.5066996  0.74352914 0.20323855 0.7879199 ],[1.30303656 0.83328122 0.58954356],[1.47974545 0.61836805 0.42470209],22,351,1170,0.6051871537675932,1,2
92,197,2024-09-18 21:36:46.841689088,TASK_BEGIN,9,-1.1854779019928725,0.1319069534531736,3.5365810278068883,-1.2178654850053643,0.2274165815229067,0.5209140387280554,-7.512742333225682,1.9102856323944035,3,2024-09-18 21:36:47.209125632,1726695407.2091255,2024-09-18 21:36:47.209125141,0,"[ 1.49404267e+00  5.91106774e-01  4.30035586e-01  1.45557985e+00
  6.26598594e-01  4.24784477e-01 -3.84628152e-02  3.54918199e-02
 -5.25110848e-03  4.18078859e-06  1.66321603e-03  1.57079632e+00
  4.58870486e-01  4.35635065e-07  8.06086302e-05 -4.34280722e-05
  1.53142424e-04 -1.05739635e-07  2.18801361e-07 -2.05712193e-18
 -8.06031586e-05  4.34307165e-05 -1.53135707e-04  5.63605630e-07
 -5.63601533e-07]","[0.0009765625, 0.0009765625, -0.0009765625, 0.0]",-1.0,"[0.0009765625, 0.0009765625, -0.0009765625, 0.0]",[0.50950176 0.7452838  0.20627987 0.7861201 ],[1.30303656 0.83328122 0.58954356],[1.47974545 0.61836805 0.42470209],22,351,1170,0.6054937473260991,1,2
93,198,2024-09-18 21:36:46.910199040,TASK_BEGIN,9,-1.203797764331927,0.1446488261171267,3.871789318002256,-1.1894264817241968,0.2433890989912551,0.5172227345320229,-7.343680788173207,1.8891672913998268,3,2024-09-18 21:36:47.265128448,1726695407.2651284,2024-09-18 21:36:47.265127826,0,"[ 1.49394927e+00  5.91162856e-01  4.29817482e-01  1.45557986e+00
  6.26598596e-01  4.24784482e-01 -3.83694155e-02  3.54357400e-02
 -5.03299924e-03  4.28291166e-06  1.66311391e-03  1.57079632e+00
  4.58870486e-01  2.50710123e-07  8.07092150e-05 -4.34446378e-05
  1.53076957e-04 -6.08536118e-08  1.25921118e-07 -6.31714554e-19
 -8.07060660e-05  4.34461596e-05 -1.53073103e-04  5.64433391e-07
 -5.64431250e-07]","[0.0009765625, 0.0009765625, -0.0009765625, 0.0]",-1.0,"[0.0009765625, 0.0009765625, -0.0009765625, 0.0]",[0.51201725 0.74703187 0.20896472 0.7847123 ],[1.30303656 0.83328122 0.58954356],[1.47974545 0.61836805 0.42470209],22,351,1170,0.6058023855467842,1,2
94,199,2024-09-18 21:36:46.977989120,TASK_BEGIN,9,-1.2202059888995218,0.15686237334725,4.206592491174881,-1.166135486736729,0.2519110114941536,0.5158261113946098,-7.152787462086223,1.8692215504208327,3,2024-09-18 21:36:47.321127680,1726695407.3211277,2024-09-18 21:36:47.321126850,0,"[ 1.49385571e+00  5.91218965e-01  4.29599453e-01  1.45557986e+00
  6.26598597e-01  4.24784485e-01 -3.82758515e-02  3.53796323e-02
 -4.81496757e-03  4.38537396e-06  1.66301145e-03  1.57079633e+00
  4.58870486e-01  1.44284977e-07  8.07979357e-05 -4.34581589e-05
  1.53015022e-04 -3.50215469e-08  7.24682099e-08  1.71924709e-18
 -8.07961234e-05  4.34590347e-05 -1.53012810e-04  5.65234826e-07
 -5.65233704e-07]","[0.0009765625, 0.0009765625, -0.0009765625, 0.0]",-1.0,"[0.0009765625, 0.0009765625, -0.0009765625, 0.0]",[0.51452464 0.7487698  0.21164674 0.7832972 ],[1.30303656 0.83328122 0.58954356],[1.47974545 0.61836805 0.42470209],22,351,1170,0.6061132351941947,1,2
95,200,2024-09-18 21:36:47.045806848,TASK_BEGIN,9,-1.233839469282511,0.1680272846087627,4.531212670714691,-1.149816847932484,0.2524611124260436,0.5164874520597502,-6.947113112421429,1.8507412088362596,3,2024-09-18 21:36:47.436125440,1726695407.4361255,2024-09-18 21:36:47.436125141,0,"[ 1.49366815e+00  5.91331252e-01  4.29163613e-01  1.45557986e+00
  6.26598598e-01  4.24784488e-01 -3.80882840e-02  3.52673461e-02
 -4.37912518e-03  4.59125091e-06  1.66280557e-03  1.57079633e+00
  4.58870486e-01  4.77881148e-08  8.09405214e-05 -4.34772427e-05
  1.52899572e-04 -1.15993552e-08  2.40019245e-08 -2.55814734e-18
 -8.09399212e-05  4.34775327e-05 -1.52898844e-04  5.66756847e-07
 -5.66756532e-07]","[0.0009765625, 0.0009765625, -0.0009765625, 0.0]",-1.0,"[0.0009765625, 0.0009765625, -0.0009765625, 0.0]",[0.5193177  0.7520581  0.21849644 0.78260505],[1.30303656 0.83328122 0.58954356],[1.47974545 0.61836805 0.42470209],22,351,1170,0.6070514290957634,1,2
96,201,2024-09-18 21:36:47.112986112,TASK_BEGIN,9,-1.2440911473024712,0.177710511956751,4.836006501998143,-1.1418759718808058,0.2449659405396891,0.5188719949632395,-6.736053027283146,1.8344348169207,3,2024-09-18 21:36:47.492126976,1726695407.492127,2024-09-18 21:36:47.492125873,0,"[ 1.49357417e+00  5.91387425e-01  4.28945798e-01  1.45557986e+00
  6.26598598e-01  4.24784488e-01 -3.79943062e-02  3.52111732e-02
 -4.16130958e-03  4.69463209e-06  1.66270219e-03  1.57079633e+00
  4.58870486e-01  2.75023217e-08  8.09951032e-05 -4.34832102e-05
  1.52845426e-04 -6.67549182e-09  1.38132373e-08 -1.71339621e-18
 -8.09947577e-05  4.34833771e-05 -1.52845008e-04  5.67477683e-07
 -5.67477511e-07]","[0.0009765625, 0.0009765625, -0.0009765625, 0.0]",-1.0,"[0.0009765625, 0.0009765625, -0.0009765625, 0.0]",[0.5215909  0.7535973  0.22281274 0.7835555 ],[1.30303656 0.83328122 0.58954356],[1.47974545 0.61836805 0.42470209],22,351,1170,0.6075321988382474,1,2
97,202,2024-09-18 21:36:47.181512192,TASK_BEGIN,9,-1.250745926183285,0.1856180897544264,5.111795269646792,-1.14319892621679,0.229795196138936,0.5225759361504094,-6.530012661007494,1.821283819308451,3,2024-09-18 21:36:47.549124864,1726695407.549125,2024-09-18 21:36:47.549123920,0,"[ 1.49348008e+00  5.91443614e-01  4.28728050e-01  1.45557986e+00
  6.26598598e-01  4.24784489e-01 -3.79002155e-02  3.51549839e-02
 -3.94356150e-03  4.79828626e-06  1.66259854e-03  1.57079633e+00
  4.58870486e-01  1.58277379e-08  8.10391253e-05 -4.34869985e-05
  1.52793403e-04 -3.84178176e-09  7.94959369e-09 -1.90534252e-18
 -8.10389265e-05  4.34870945e-05 -1.52793163e-04  5.68172368e-07
 -5.68172271e-07]","[0.0009765625, 0.0009765625, -0.0009765625, 0.0]",-1.0,"[0.0009765625, 0.0009765625, -0.0009765625, 0.0]",[0.5238581  0.7551286  0.22712274 0.7845013 ],[1.30303656 0.83328122 0.58954356],[1.47974545 0.61836805 0.42470209],22,351,1170,0.6080149844522408,1,2
98,203,2024-09-18 21:36:48.124577024,TASK_BEGIN,9,-1.2540347652107775,0.1916113137369341,5.350747985082763,-1.1542191851302768,0.2076936618496039,0.5271577610396796,-6.338578267812871,1.8123408894640995,3,2024-09-18 21:36:48.471536896,1726695408.4715369,2024-09-18 21:36:48.471535785,0,"[ 1.49197717e+00  5.92252038e-01  4.25315693e-01  1.44163815e+00
  6.61807850e-01  4.24759084e-01 -5.03390159e-02  6.95558121e-02
 -5.56608916e-04  4.51233542e-02  4.50851153e-02  1.57093979e+00
  1.10930348e+00 -7.52134871e-04  7.61308771e-05 -5.07460572e-05
  1.66486781e-04  2.97910774e-04 -1.88873407e-04  1.58908889e-07
 -8.08580607e-05  4.33171778e-05 -1.52133740e-04 -5.57591944e-04
 -5.33359403e-04]","[0.0009765625, 0.0009765625, -0.0009765625, 0.0]",-1.0,"[0.0009765625, 0.0009765625, -0.0009765625, 0.0]",[0.10080889 0.9979865  0.2291365  0.7775568 ],[1.30303656 0.83328122 0.58954356],[1.47974545 0.61836805 0.42470209],22,351,1170,0.726997443346377,1,2
99,204,2024-09-18 21:36:48.185523968,TASK_BEGIN,9,-1.254583931609329,0.1956902234698384,5.547381250265977,-1.175048649936772,0.179637850036448,0.5321706955530707,-6.168926138379564,1.8085129502411312,3,2024-09-18 21:36:48.583536896,1726695408.5835369,2024-09-18 21:36:48.583535785,0,"[ 1.49178766e+00  5.92364435e-01  4.24882149e-01  1.44163254e+00
  6.61798979e-01  4.24776144e-01 -5.01551207e-02  6.94345436e-02
 -1.06005048e-04  4.44762230e-02  4.44669998e-02  1.57084357e+00
  1.10930354e+00 -2.48156195e-04  7.90417715e-05 -4.57624228e-05
  1.56812894e-04  9.81922867e-05 -6.20184683e-05  1.87451903e-11
 -8.05923974e-05  4.33073613e-05 -1.52107107e-04 -1.50793695e-04
 -1.45065334e-04]","[0.0009765625, 0.0009765625, -0.0009765625, 0.0]",-1.0,"[0.0009765625, 0.0009765625, -0.0009765625, 0.0]",[0.13387534 0.99777186 0.22939688 0.77496344],[1.30303656 0.83328122 0.58954356],[1.47974545 0.61836805 0.42470209],22,351,1170,0.7274399093987457,1,2
100,205,2024-09-18 21:36:48.247950080,TASK_BEGIN,9,-1.253287922318931,0.1979606349289374,5.6992002260483785,-1.2055442508021026,0.1466732361156486,0.5371918328778129,-6.025076318780855,1.8103866507891528,3,2024-09-18 21:36:48.583536896,1726695408.5835369,2024-09-18 21:36:48.583535785,0,"[ 1.49178766e+00  5.92364435e-01  4.24882149e-01  1.44163254e+00
  6.61798979e-01  4.24776144e-01 -5.01551207e-02  6.94345436e-02
 -1.06005048e-04  4.44762230e-02  4.44669998e-02  1.57084357e+00
  1.10930354e+00 -2.48156195e-04  7.90417715e-05 -4.57624228e-05
  1.56812894e-04  9.81922867e-05 -6.20184683e-05  1.87451903e-11
 -8.05923974e-05  4.33073613e-05 -1.52107107e-04 -1.50793695e-04
 -1.45065334e-04]","[0.0009765625, 0.0009765625, -0.0009765625, 0.0]",-1.0,"[0.0009765625, 0.0009765625, -0.0009765625, 0.0]",[0.13387534 0.99777186 0.22939688 0.77496344],[1.30303656 0.83328122 0.58954356],[1.47974545 0.61836805 0.42470209],22,351,1170,0.7274399093987457,1,2
101,206,2024-09-18 21:36:48.326596864,TASK_BEGIN,9,-1.251145111228161,0.1985987139819441,5.8066793921142645,-1.245250711982381,0.1097970808236644,0.5418458037907823,-5.908152869961887,1.81814137964736,3,2024-09-18 21:36:48.583536896,1726695408.5835369,2024-09-18 21:36:48.583535785,0,"[ 1.49178766e+00  5.92364435e-01  4.24882149e-01  1.44163254e+00
  6.61798979e-01  4.24776144e-01 -5.01551207e-02  6.94345436e-02
 -1.06005048e-04  4.44762230e-02  4.44669998e-02  1.57084357e+00
  1.10930354e+00 -2.48156195e-04  7.90417715e-05 -4.57624228e-05
  1.56812894e-04  9.81922867e-05 -6.20184683e-05  1.87451903e-11
 -8.05923974e-05  4.33073613e-05 -1.52107107e-04 -1.50793695e-04
 -1.45065334e-04]","[0.0009765625, 0.0009765625, -0.0009765625, 0.0]",-1.0,"[0.0009765625, 0.0009765625, -0.0009765625, 0.0]",[0.13387534 0.99777186 0.22939688 0.77496344],[1.30303656 0.83328122 0.58954356],[1.47974545 0.61836805 0.42470209],22,351,1170,0.7274399093987457,1,2
102,207,2024-09-18 21:36:48.395366912,TASK_BEGIN,9,-1.249072750008163,0.1978178533102327,5.872555085123321,-1.293267004970289,0.0699091394641907,0.5458233582109384,-5.817385118552353,1.831557782497605,3,2024-09-18 21:36:48.583536896,1726695408.5835369,2024-09-18 21:36:48.583535785,0,"[ 1.49178766e+00  5.92364435e-01  4.24882149e-01  1.44163254e+00
  6.61798979e-01  4.24776144e-01 -5.01551207e-02  6.94345436e-02
 -1.06005048e-04  4.44762230e-02  4.44669998e-02  1.57084357e+00
  1.10930354e+00 -2.48156195e-04  7.90417715e-05 -4.57624228e-05
  1.56812894e-04  9.81922867e-05 -6.20184683e-05  1.87451903e-11
 -8.05923974e-05  4.33073613e-05 -1.52107107e-04 -1.50793695e-04
 -1.45065334e-04]","[0.0009765625, 0.0009765625, -0.0009765625, 0.0]",-1.0,"[0.0009765625, 0.0009765625, -0.0009765625, 0.0]",[0.13387534 0.99777186 0.22939688 0.77496344],[1.30303656 0.83328122 0.58954356],[1.47974545 0.61836805 0.42470209],22,351,1170,0.7274399093987457,1,2
103,208,2024-09-18 21:36:48.463577856,TASK_BEGIN,9,-1.2477110426816709,0.1958362536267532,5.900781941296973,-1.3481465163831738,0.0278218072430541,0.5488917685421126,-5.751313669976147,1.8500929666539196,3,2024-09-18 21:36:48.583536896,1726695408.5835369,2024-09-18 21:36:48.583535785,0,"[ 1.49178766e+00  5.92364435e-01  4.24882149e-01  1.44163254e+00
  6.61798979e-01  4.24776144e-01 -5.01551207e-02  6.94345436e-02
 -1.06005048e-04  4.44762230e-02  4.44669998e-02  1.57084357e+00
  1.10930354e+00 -2.48156195e-04  7.90417715e-05 -4.57624228e-05
  1.56812894e-04  9.81922867e-05 -6.20184683e-05  1.87451903e-11
 -8.05923974e-05  4.33073613e-05 -1.52107107e-04 -1.50793695e-04
 -1.45065334e-04]","[0.0009765625, 0.0009765625, -0.0009765625, 0.0]",-1.0,"[0.0009765625, 0.0009765625, -0.0009765625, 0.0]",[0.13387534 0.99777186 0.22939688 0.77496344],[1.30303656 0.83328122 0.58954356],[1.47974545 0.61836805 0.42470209],22,351,1170,0.7274399093987457,1,2
104,209,2024-09-18 21:36:48.531377152,TASK_BEGIN,9,-1.2472704939179011,0.1928482922876966,5.895640164359931,-1.4079073787862566,-0.0157018268261265,0.5508962041864911,-5.708613154621301,1.8729647519575183,3,2024-09-18 21:36:48.583536896,1726695408.5835369,2024-09-18 21:36:48.583535785,0,"[ 1.49178766e+00  5.92364435e-01  4.24882149e-01  1.44163254e+00
  6.61798979e-01  4.24776144e-01 -5.01551207e-02  6.94345436e-02
 -1.06005048e-04  4.44762230e-02  4.44669998e-02  1.57084357e+00
  1.10930354e+00 -2.48156195e-04  7.90417715e-05 -4.57624228e-05
  1.56812894e-04  9.81922867e-05 -6.20184683e-05  1.87451903e-11
 -8.05923974e-05  4.33073613e-05 -1.52107107e-04 -1.50793695e-04
 -1.45065334e-04]","[0.0009765625, 0.0009765625, -0.0009765625, 0.0]",-1.0,"[0.0009765625, 0.0009765625, -0.0009765625, 0.0]",[0.13387534 0.99777186 0.22939688 0.77496344],[1.30303656 0.83328122 0.58954356],[1.47974545 0.61836805 0.42470209],22,351,1170,0.7274399093987457,1,2
105,210,2024-09-18 21:36:49.462221056,TASK_BEGIN,9,-1.247516585421642,0.1890121716718181,5.861243986375726,-1.4701558672845172,-0.0599262094336394,0.5517579193498848,-5.688217432701881,1.8991961283999184,3,2024-09-18 21:36:49.091664640,1726695409.0916646,2024-09-18 21:36:49.091663959,0,"[ 1.49093864e+00  5.92869335e-01  4.22932815e-01  1.44162980e+00
  6.61794634e-01  4.24784433e-01 -4.93088452e-02  6.89252991e-02
  1.85161751e-03  4.42369902e-02  4.42367523e-02  1.57079665e+00
  1.10930354e+00 -1.71552680e-06  7.96443902e-05 -4.31033066e-05
  1.51949645e-04  6.77564540e-07 -4.27948094e-07  4.11341037e-18
 -7.96550920e-05  4.30863625e-05 -1.51917967e-04  1.54143826e-07
 -9.87522347e-07]","[0.0009765625, 0.0009765625, -0.0009765625, 0.0]",-1.0,"[0.0009765625, 0.0009765625, -0.0009765625, 0.0]",[0.14965649 0.99768215 0.2388981  0.77760005],[1.30303656 0.83328122 0.58954356],[1.47974545 0.61836805 0.42470209],22,351,1170,0.7257043140204785,1,2
106,211,2024-09-18 21:36:49.542509056,TASK_BEGIN,9,-1.2479314116029252,0.1844624176988352,5.801442748397051,-1.532292122860519,-0.1041447464073414,0.5514693597234496,-5.68892676452173,1.927626481879496,3,2024-09-18 21:36:49.147261184,1726695409.1472611,2024-09-18 21:36:49.147260883,0,"[ 1.49084465e+00  5.92925337e-01  4.22716403e-01  1.44162979e+00
  6.61794621e-01  4.24784457e-01 -4.92148629e-02  6.88692841e-02
  2.06805404e-03  4.42367727e-02  4.42363342e-02  1.57079651e+00
  1.10930354e+00 -9.87290123e-07  7.95384913e-05 -4.30693067e-05
  1.51916395e-04  3.89938080e-07 -2.46283931e-07 -3.35395505e-18
 -7.95446502e-05  4.30595554e-05 -1.51898216e-04  3.58706180e-07
 -7.92698458e-07]","[0.0009765625, 0.0009765625, -0.0009765625, 0.0]",-1.0,"[0.0009765625, 0.0009765625, -0.0009765625, 0.0]",[0.1501216  0.9976814  0.24003083 0.77804714],[1.30303656 0.83328122 0.58954356],[1.47974545 0.61836805 0.42470209],22,351,1170,0.7254768712721515,1,2
107,212,2024-09-18 21:36:49.610326272,TASK_BEGIN,9,-1.2479830124616371,0.1793381995946417,5.719996143742308,-1.5917584856223104,-0.1476755494014844,0.5500789306598843,-5.708954153052076,1.9569180372622887,3,2024-09-18 21:36:49.266259968,1726695409.26626,2024-09-18 21:36:49.266258930,0,"[ 1.49065690e+00  5.93037277e-01  4.22283682e-01  1.44162978e+00
  6.61794610e-01  4.24784479e-01 -4.90271219e-02  6.87573329e-02
  2.50079623e-03  4.42367306e-02  4.42358730e-02  1.57079639e+00
  1.10930354e+00 -3.26995522e-07  7.93154469e-05 -4.30079488e-05
  1.51866287e-04  1.29148861e-07 -8.15701028e-08 -1.69886679e-18
 -7.93174868e-05  4.30047192e-05 -1.51860301e-04  5.20965235e-07
 -6.38661131e-07]","[0.0009765625, 0.0009765625, -0.0009765625, 0.0]",-1.0,"[0.0009765625, 0.0009765625, -0.0009765625, 0.0]",[0.15167126 0.99767613 0.24266213 0.778949  ],[1.30303656 0.83328122 0.58954356],[1.47974545 0.61836805 0.42470209],22,351,1170,0.7250214630855172,1,2
108,217,2024-09-18 21:36:50.820287744,TASK_BEGIN,9,-1.2464990535466134,0.1519919722660665,5.138728218912126,-1.7854339951083769,-0.3360629740261828,0.5307636128039813,-5.980154688214097,2.056396979050757,3,2024-09-18 21:36:51.173578240,1726695411.1735783,2024-09-18 21:36:51.173578021,1,"[ 1.34235587e+00  7.49317959e-01  5.33178268e-01  1.35045518e+00
  8.71481796e-01  4.24782815e-01  8.09931497e-03  1.22163838e-01
 -1.08395454e-01  2.20035875e-06  2.07687094e-06 -1.81276252e-09
  2.78886541e-09 -2.18649027e-15 -4.15834811e-05 -2.29985165e-05
  1.57055550e-04  1.01590222e-09 -1.56292650e-09  2.57266546e-18
  4.15834421e-05  2.29984911e-05 -1.56112435e-04  3.23320760e-07
 -3.15683636e-07]","[0.0009765625, 0.0009765625, -0.0009765625, 0.0]",-1.0,"[0.0009765625, 0.0009765625, -0.0009765625, 0.0]",[ 0.333179   0.9438954 -0.5969122  0.2486312],[1.24611617 0.80814337 0.42469975],[1.35045519 0.8714818  0.42470209],22,351,1171,0.8805180969309119,0,0
109,218,2024-09-18 21:36:50.882329856,TASK_BEGIN,9,-1.2511834180558934,0.1477984274874631,5.020817568702514,-1.7976085253972038,-0.3665040566640967,0.5259282066498062,-6.038305238005297,2.053791739469968,3,2024-09-18 21:36:51.230436352,1726695411.2304363,2024-09-18 21:36:51.230436176,1,"[ 1.34241035e+00  7.49349353e-01  5.32963534e-01  1.35045518e+00
  8.71481796e-01  4.24783528e-01  8.04483482e-03  1.22132443e-01
 -1.08180006e-01  2.21447942e-06  2.06857450e-06 -1.04309534e-09
  1.60476205e-09 -2.18658109e-15 -4.13354860e-05 -2.29975928e-05
  1.56245753e-04  5.84475494e-10 -8.99193060e-10  4.72400631e-19
  4.13354635e-05  2.29975782e-05 -1.55704617e-04  3.27316496e-07
 -3.23339367e-07]","[0.0009765625, 0.0009765625, -0.0009765625, 0.0]",-1.0,"[0.0009765625, 0.0009765625, -0.0009765625, 0.0]",[ 0.3325355   0.94485575 -0.59480023  0.24986187],[1.24611617 0.80814337 0.42469975],[1.35045519 0.8714818  0.42470209],22,351,1171,0.8805284410045349,0,0
110,219,2024-09-18 21:36:50.960424704,TASK_BEGIN,9,-1.259826359014414,0.1445241345971396,4.913746510042964,-1.8013756155919018,-0.3948636394587721,0.5215229524974841,-6.089637053581747,2.040521349782007,3,2024-09-18 21:36:51.344179712,1726695411.3441796,2024-09-18 21:36:51.344178852,1,"[ 1.34251851e+00  7.49412143e-01  5.32535609e-01  1.35045518e+00
  8.71481796e-01  4.24784173e-01  7.93667354e-03  1.22069653e-01
 -1.07751436e-01  2.25041732e-06  2.03724913e-06 -3.45432403e-10
  5.31434458e-10 -2.18840056e-15 -4.10353470e-05 -2.29971920e-05
  1.55392628e-04  1.93527796e-10 -2.97735089e-10 -1.11378484e-20
  4.10353396e-05  2.29971872e-05 -1.55214447e-04  3.30610586e-07
 -3.29532014e-07]","[0.0009765625, 0.0009765625, -0.0009765625, 0.0]",-1.0,"[0.0009765625, 0.0009765625, -0.0009765625, 0.0]",[ 0.3312551   0.9467097  -0.59057975  0.25229695],[1.24611617 0.80814337 0.42469975],[1.35045519 0.8714818  0.42470209],22,351,1171,0.880545364678402,0,0
111,220,2024-09-18 21:36:51.028217088,TASK_BEGIN,9,-1.2731226259971875,0.1422796450215822,4.822561711944402,-1.7979109071558648,-0.4213171507829767,0.5179232451687611,-6.13336820439646,2.016517381273472,3,2024-09-18 21:36:51.401232640,1726695411.4012327,2024-09-18 21:36:51.401232074,1,"[ 1.34257234e+00  7.49443539e-01  5.32322130e-01  1.35045518e+00
  8.71481796e-01  4.24784308e-01  7.88284392e-03  1.22038257e-01
 -1.07537822e-01  2.27007418e-06  2.01841481e-06 -1.98792519e-10
  3.05834647e-10 -2.18943082e-15 -4.09505960e-05 -2.29974627e-05
  1.55183521e-04  1.11369796e-10 -1.71338127e-10  1.20850821e-19
  4.09505917e-05  2.29974599e-05 -1.55081272e-04  3.31257211e-07
 -3.30695530e-07]","[0.0009765625, 0.0009765625, -0.0009765625, 0.0]",-1.0,"[0.0009765625, 0.0009765625, -0.0009765625, 0.0]",[ 0.33061737  0.9476083  -0.5884657   0.25350723],[1.24611617 0.80814337 0.42469975],[1.35045519 0.8714818  0.42470209],22,351,1171,0.8805521504142835,0,0
112,221,2024-09-18 21:36:51.083194112,TASK_BEGIN,9,-1.2914357218397323,0.1410793843194701,4.751720897994146,-1.7887434430854516,-0.4459277081750459,0.5154863846991229,-6.170097326011839,1.9824696634378516,3,2024-09-18 21:36:51.460237056,1726695411.460237,2024-09-18 21:36:51.460235980,1,"[ 1.34262607e+00  7.49474937e-01  5.32108838e-01  1.35045518e+00
  8.71481796e-01  4.24784385e-01  7.82911442e-03  1.22006859e-01
 -1.07324453e-01  2.29021871e-06  1.99869863e-06 -1.14404303e-10
  1.76006622e-10 -2.19060501e-15 -4.08946442e-05 -2.29979393e-05
  1.55057359e-04  6.40917673e-11 -9.86027249e-11 -1.98982942e-18
  4.08946418e-05  2.29979377e-05 -1.54998684e-04  3.31631403e-07
 -3.31338900e-07]","[0.0009765625, 0.0009765625, -0.0009765625, 0.0]",-1.0,"[0.0009765625, 0.0009765625, -0.0009765625, 0.0]",[ 0.32998043  0.9484904  -0.58634657  0.2547143 ],[1.24611617 0.80814337 0.42469975],[1.35045519 0.8714818  0.42470209],22,351,1171,0.8805553826297968,0,0
113,222,2024-09-18 21:36:51.163819008,TASK_BEGIN,9,-1.3146972310495697,0.1408229442905086,4.704105838978928,-1.775567310964553,-0.4687014170092755,0.5145386396462681,-6.201201990384661,1.9397026617039488,3,2024-09-18 21:36:51.517234176,1726695411.517234,2024-09-18 21:36:51.517234027,1,"[ 1.34267973e+00  7.49506336e-01  5.31895663e-01  1.35045518e+00
  8.71481796e-01  4.24784429e-01  7.77545094e-03  1.21975461e-01
 -1.07111234e-01  2.31064405e-06  1.97849636e-06 -6.58396892e-11
  1.01291828e-10 -2.19137755e-15 -4.08600130e-05 -2.29985680e-05
  1.54987715e-04  3.68844475e-11 -5.67453125e-11 -2.95451015e-18
  4.08600116e-05  2.29985671e-05 -1.54954043e-04  3.31859214e-07
 -3.31706889e-07]","[0.0009765625, 0.0009765625, -0.0009765625, 0.0]",-1.0,"[0.0009765625, 0.0009765625, -0.0009765625, 0.0]",[ 0.3293347   0.94952166 -0.58406246  0.25567353],[1.24611617 0.80814337 0.42469975],[1.35045519 0.8714818  0.42470209],22,351,1171,0.8805564071746916,0,0
114,223,2024-09-18 21:36:51.222811904,TASK_BEGIN,9,-1.34229328629057,0.1412836316752361,4.680179684349915,-1.7600064519922567,-0.4896732400334017,0.515367095736671,-6.228228811744565,1.8900295791217177,3,2024-09-18 21:36:51.517234176,1726695411.517234,2024-09-18 21:36:51.517234027,1,"[ 1.34267973e+00  7.49506336e-01  5.31895663e-01  1.35045518e+00
  8.71481796e-01  4.24784429e-01  7.77545094e-03  1.21975461e-01
 -1.07111234e-01  2.31064405e-06  1.97849636e-06 -6.58396892e-11
  1.01291828e-10 -2.19137755e-15 -4.08600130e-05 -2.29985680e-05
  1.54987715e-04  3.68844475e-11 -5.67453125e-11 -2.95451015e-18
  4.08600116e-05  2.29985671e-05 -1.54954043e-04  3.31859214e-07
 -3.31706889e-07]","[0.0009765625, 0.0009765625, -0.0009765625, 0.0]",-1.0,"[0.0009765625, 0.0009765625, -0.0009765625, 0.0]",[ 0.3293347   0.94952166 -0.58406246  0.25567353],[1.24611617 0.80814337 0.42469975],[1.35045519 0.8714818  0.42470209],22,351,1171,0.8805564071746916,0,0
115,224,2024-09-18 21:36:52.174813952,TASK_BEGIN,9,-1.3729959506159413,0.1421103871625719,4.677687797172923,-1.7434144099884157,-0.5089519289822125,0.5182091063619233,-6.252603343919981,1.8356346656046856,3,2024-09-18 21:36:51.864107264,1726695411.8641074,2024-09-18 21:36:51.864107074,1,"[ 1.34300136e+00  7.49694755e-01  5.30616829e-01  1.35045518e+00
  8.71481796e-01  4.24784487e-01  7.45382037e-03  1.21787041e-01
 -1.05832342e-01  2.43536370e-06  1.85401428e-06 -2.39210169e-12
  3.68016022e-12 -2.19727763e-15 -4.08728639e-05 -2.30039330e-05
  1.55087025e-04  1.34007835e-12 -2.06165711e-12 -4.57136042e-19
  4.08728639e-05  2.30039330e-05 -1.55085822e-04  3.32349365e-07
 -3.32346326e-07]","[0.0009765625, 0.0009765625, -0.0009765625, 0.0]",-1.0,"[0.0009765625, 0.0009765625, -0.0009765625, 0.0]",[ 0.32630256  0.95793533 -0.5649104   0.26138765],[1.24611617 0.80814337 0.42469975],[1.35045519 0.8714818  0.42470209],22,351,1171,0.8805769509549567,0,0
116,225,2024-09-18 21:36:52.236594944,TASK_BEGIN,9,-1.4050046743582325,0.1428499516880783,4.691987515438271,-1.726791997692542,-0.5266960494770877,0.5232370237707729,-6.275835516006348,1.7790030171990163,3,2024-09-18 21:36:51.864107264,1726695411.8641074,2024-09-18 21:36:51.864107074,1,"[ 1.34300136e+00  7.49694755e-01  5.30616829e-01  1.35045518e+00
  8.71481796e-01  4.24784487e-01  7.45382037e-03  1.21787041e-01
 -1.05832342e-01  2.43536370e-06  1.85401428e-06 -2.39210169e-12
  3.68016022e-12 -2.19727763e-15 -4.08728639e-05 -2.30039330e-05
  1.55087025e-04  1.34007835e-12 -2.06165711e-12 -4.57136042e-19
  4.08728639e-05  2.30039330e-05 -1.55085822e-04  3.32349365e-07
 -3.32346326e-07]","[0.0009765625, 0.0009765625, -0.0009765625, 0.0]",-1.0,"[0.0009765625, 0.0009765625, -0.0009765625, 0.0]",[ 0.32630256  0.95793533 -0.5649104   0.26138765],[1.24611617 0.80814337 0.42469975],[1.35045519 0.8714818  0.42470209],22,351,1171,0.8805769509549567,0,0
117,226,2024-09-18 21:36:52.299116032,TASK_BEGIN,9,-1.4361316495480607,0.1429929550662428,4.7168143392203055,-1.7108078921126244,-0.5430264679699094,0.530538706658461,-6.300165953810021,1.7228903202175514,3,2024-09-18 21:36:51.921195008,1726695411.921195,2024-09-18 21:36:51.921193988,1,"[ 1.34305500e+00  7.49726163e-01  5.30403527e-01  1.35045518e+00
  8.71481796e-01  4.24784488e-01  7.40018294e-03  1.21755633e-01
 -1.05619039e-01  2.45631727e-06  1.83306303e-06 -1.37666882e-12
  2.11795394e-12 -2.19769155e-15 -4.08918605e-05 -2.30049540e-05
  1.55139318e-04  7.71223050e-13 -1.18649560e-12  1.73994290e-18
  4.08918605e-05  2.30049540e-05 -1.55138628e-04  3.32392070e-07
 -3.32390487e-07]","[0.0009765625, 0.0009765625, -0.0009765625, 0.0]",-1.0,"[0.0009765625, 0.0009765625, -0.0009765625, 0.0]",[ 0.32579646  0.95919806 -0.56165564  0.26233867],[1.24611617 0.80814337 0.42469975],[1.35045519 0.8714818  0.42470209],22,351,1171,0.8805765630487002,0,0
118,227,2024-09-18 21:36:52.376795136,TASK_BEGIN,9,-1.4641088004597491,0.1420386144630612,4.745222532335879,-1.6958320613625326,-0.5579118111123117,0.5400965851433492,-6.32925209893243,1.670274094499054,3,2024-09-18 21:36:51.978180352,1726695411.9781804,2024-09-18 21:36:51.978179828,1,"[ 1.34310866e+00  7.49757572e-01  5.30190150e-01  1.35045518e+00
  8.71481796e-01  4.24784488e-01  7.34652326e-03  1.21724224e-01
 -1.05405662e-01  2.47730130e-06  1.81208020e-06 -7.92280720e-13
  1.21889426e-12 -2.19631698e-15 -4.09128007e-05 -2.30059914e-05
  1.55195387e-04  4.43845922e-13 -6.82833154e-13  2.07935203e-18
  4.09128007e-05  2.30059914e-05 -1.55194991e-04  3.32432010e-07
 -3.32431185e-07]","[0.0009765625, 0.0009765625, -0.0009765625, 0.0]",-1.0,"[0.0009765625, 0.0009765625, -0.0009765625, 0.0]",[ 0.32528985  0.9604241  -0.55838215  0.26328957],[1.24611617 0.80814337 0.42469975],[1.35045519 0.8714818  0.42470209],22,351,1171,0.8805679585452465,0,0
119,228,2024-09-18 21:36:52.438844928,TASK_BEGIN,9,-1.4869305329982407,0.1395604924271581,4.7705071283640414,-1.6819450627109531,-0.5711030053326079,0.5517731385939644,-6.368339520506982,1.6242202235235963,3,2024-09-18 21:36:52.091283712,1726695412.0912838,2024-09-18 21:36:52.091283100,1,"[ 1.34321606e+00  7.49820395e-01  5.29763152e-01  1.35045518e+00
  8.71481796e-01  4.24784489e-01  7.23912872e-03  1.21661401e-01
 -1.04978663e-01  2.51935305e-06  1.77002941e-06 -2.62409333e-13
  4.03705000e-13 -2.19729546e-15 -4.09586004e-05 -2.30081023e-05
  1.55314970e-04  1.47009984e-13 -2.26163332e-13 -2.11391621e-18
  4.09586004e-05  2.30081023e-05 -1.55314840e-04  3.32506572e-07
 -3.32506347e-07]","[0.0009765625, 0.0009765625, -0.0009765625, 0.0]",-1.0,"[0.0009765625, 0.0009765625, -0.0009765625, 0.0]",[ 0.32414258  0.9627911  -0.5518458   0.2649457 ],[1.24611617 0.80814337 0.42469975],[1.35045519 0.8714818  0.42470209],22,351,1171,0.8805475048578982,0,0
120,229,2024-09-18 21:36:52.500504832,TASK_BEGIN,9,-1.5031257385315742,0.1352530618868714,4.786933972842336,-1.668969189241739,-0.5821872352375408,0.5653130263292591,-6.423695134090709,1.587683597155432,3,2024-09-18 21:36:52.148265216,1726695412.1482651,2024-09-18 21:36:52.148265033,1,"[ 1.34326979e+00  7.49851808e-01  5.29549524e-01  1.35045518e+00
  8.71481796e-01  4.24784489e-01  7.18539096e-03  1.21629988e-01
 -1.04765035e-01  2.54041819e-06  1.74896444e-06 -1.51019844e-13
  2.32331674e-13 -2.19703025e-15 -4.09827957e-05 -2.30091711e-05
  1.55377165e-04  8.46028479e-14 -1.30148990e-13  2.42172195e-18
  4.09827957e-05  2.30091711e-05 -1.55377091e-04  3.32542112e-07
 -3.32541995e-07]","[0.0009765625, 0.0009765625, -0.0009765625, 0.0]",-1.0,"[0.0009765625, 0.0009765625, -0.0009765625, 0.0]",[ 0.32353312  0.96392787 -0.5485674   0.26570928],[1.24611617 0.80814337 0.42469975],[1.35045519 0.8714818  0.42470209],22,351,1171,0.8805345889990415,0,0
121,230,2024-09-18 21:36:52.568974080,TASK_BEGIN,9,-1.5119032250778446,0.1289533629430531,4.79010430858524,-1.6565518263957442,-0.5907554763408929,0.5803650139583141,-6.501471532760927,1.5633035427289117,3,2024-09-18 21:36:52.205265408,1726695412.2052655,2024-09-18 21:36:52.205265033,1,"[ 1.34332356e+00  7.49883223e-01  5.29335807e-01  1.35045518e+00
  8.71481796e-01  4.24784489e-01  7.13162492e-03  1.21598573e-01
 -1.04551318e-01  2.56150835e-06  1.72787437e-06 -8.69137056e-14
  1.33711733e-13 -2.19745582e-15 -4.10075487e-05 -2.30102467e-05
  1.55440365e-04  4.86953436e-14 -7.49060440e-14 -1.03774245e-18
  4.10075487e-05  2.30102467e-05 -1.55440322e-04  3.32576882e-07
 -3.32576820e-07]","[0.0009765625, 0.0009765625, -0.0009765625, 0.0]",-1.0,"[0.0009765625, 0.0009765625, -0.0009765625, 0.0]",[ 0.32292312  0.9650311  -0.54527086  0.26647282],[1.24611617 0.80814337 0.42469975],[1.35045519 0.8714818  0.42470209],22,351,1171,0.8805329183718309,0,0
122,231,2024-09-18 21:36:53.525067264,TASK_BEGIN,9,-1.5131834837944005,0.1206497330414244,4.77693711005135,-1.644264859718964,-0.5966016302604255,0.5965170517458357,-6.606286164835499,1.5532005729151368,3,2024-09-18 21:36:53.126396928,1726695413.126397,2024-09-18 21:36:53.126395893,1,"[ 1.34418787e+00  7.50386046e-01  5.25903840e-01  1.35045518e+00
  8.71481796e-01  4.24784489e-01  6.26731122e-03  1.21095750e-01
 -1.01119350e-01  2.90209221e-06  1.38729063e-06  2.36721227e-17
  5.74942164e-17 -2.19596812e-15 -4.14187879e-05 -2.30279414e-05
  1.56472474e-04 -5.71342589e-18 -2.56964488e-17  1.65248498e-18
  4.14187879e-05  2.30279414e-05 -1.56472474e-04  3.33100113e-07
 -3.33100112e-07]","[0.0009765625, 0.0009765625, -0.0009765625, 0.0]",-1.0,"[0.0009765625, 0.0009765625, -0.0009765625, 0.0]",[ 0.31497434  0.97618294 -0.49628064  0.277282  ],[1.24611617 0.80814337 0.42469975],[1.35045519 0.8714818  0.42470209],22,351,1171,0.8804559241953287,0,0
123,232,2024-09-18 21:36:53.584136960,TASK_BEGIN,9,-1.5075543396121145,0.1104888969748607,4.745472927155608,-1.631681763028792,-0.5998701651641132,0.6133374884546492,-6.73995239908672,1.5587877871871965,3,2024-09-18 21:36:53.238398976,1726695413.238399,2024-09-18 21:36:53.238399066,1,"[ 1.34429645e+00  7.50448924e-01  5.25473191e-01  1.35045518e+00
  8.71481796e-01  4.24784489e-01  6.15873319e-03  1.21032872e-01
 -1.00688702e-01  2.94506510e-06  1.34431773e-06  8.65122521e-17
  5.45844125e-17 -2.19573826e-15 -4.14696829e-05 -2.30301978e-05
  1.56599546e-04 -3.16586826e-17 -3.13126624e-17  2.60039058e-18
  4.14696829e-05  2.30301978e-05 -1.56599546e-04  3.33164071e-07
 -3.33164070e-07]","[0.0009765625, 0.0009765625, -0.0009765625, 0.0]",-1.0,"[0.0009765625, 0.0009765625, -0.0009765625, 0.0]",[ 0.31428322  0.9768672  -0.4909229   0.27840278],[1.24611617 0.80814337 0.42469975],[1.35045519 0.8714818  0.42470209],22,351,1171,0.8804171448416731,0,0
124,233,2024-09-18 21:36:53.646625024,TASK_BEGIN,9,-1.496180751183799,0.0987778744896796,4.694707861531902,-1.618436911856032,-0.6011240735482751,0.6304203475032715,-6.900947442420215,1.5806818631135873,3,2024-09-18 21:36:53.294396416,1726695413.2943964,2024-09-18 21:36:53.294395893,1,"[ 1.34435078e+00  7.50480365e-01  5.25257731e-01  1.35045518e+00
  8.71481796e-01  4.24784489e-01  6.10439986e-03  1.21001431e-01
 -1.00473242e-01  2.96658412e-06  1.32279871e-06  5.98370207e-17
  3.54742656e-17 -2.19412171e-15 -4.14950389e-05 -2.30313292e-05
  1.56662833e-04 -3.54986787e-17 -1.67244971e-17  2.62939833e-18
  4.14950389e-05  2.30313292e-05 -1.56662833e-04  3.33195987e-07
