,Unnamed: 0,time,MARKER,pid,L_O_DSI,L_D_DSI,L_O_DSphi,L_D_DSphi,R_O_DSI,R_D_DSI,R_O_DSphi,R_D_DSphi,trial_id,dateTimestamps,floatTimestamps,timestamps,episode,actions,rewards,discounted_rewards,chosen_actions,optimal_actions,states,continuous_optimal,binary_optimal,discrete_optimal
1,1,2024-09-18 22:36:45.569060096,TASK_BEGIN,10,-0.3990967233851156,0.0860275933632931,1.3092283320555471,-0.5260002549388899,-0.1109996486441249,0.1136526477192153,-1.90222399024234,1.3188439175172697,2,2024-09-18 22:36:44.759813965,1726699004.759815,2024-09-18 22:36:44.759814912,0,0,-2.638908753575407,-23.192451338890585,[1. 0. 0. 0.],[0.24846986 0.55304904 0.1503222  0.04815889],"[  0.02256131   0.97061133   0.19687606  -0.32664368  -0.06340668
  -0.07423543   0.           0.          -0.6          0.62256134
 -12.051474  ]",1.5184885812411308,0,0
2,2,2024-09-18 22:36:45.636056832,TASK_BEGIN,10,-0.323912036888576,0.0759509926975892,0.908918479913872,-0.3081150578277253,-0.1615727466891914,0.1318479228411592,-1.9332924332691792,1.3511638697414905,2,2024-09-18 22:36:44.846847168,1726699004.8468475,2024-09-18 22:36:44.846847488,0,0,-2.7560585867049667,-30.58691774589751,[1. 0. 0. 0.],[0.24157354 0.55317831 0.1665066  0.03874155],"[  0.02655276   0.9529097    0.1970155   -0.40349248  -0.07453263
  -0.07417406   0.           0.          -0.6          0.62655276
 -11.909861  ]",1.5208002285980755,0,0
3,3,2024-09-18 22:36:45.697604096,TASK_BEGIN,10,-0.2542706596558106,0.0675214243943257,0.5254406223835254,-0.1027482559810777,-0.2098806631706643,0.1496902556118585,-1.973164051190606,1.3837512383971893,2,2024-09-18 22:36:44.904841064,1726699004.904842,2024-09-18 22:36:44.904841984,0,0,-2.8082114097503847,-35.542699990674194,[1. 0. 0. 0.],[0.23484847 0.55420223 0.17830788 0.03264143],"[  0.02921542   0.9391084    0.19710726  -0.4547266   -0.08194493
  -0.07413428   0.           0.          -0.6          0.6292154
 -11.79945   ]",1.5220102615007767,0,0
4,4,2024-09-18 22:36:45.759649792,TASK_BEGIN,10,-0.1921355419131093,0.0613389783637125,0.1662059679105254,0.0851876251184253,-0.2548047741604577,0.1670203452509404,-2.023773487702968,1.4159480470947747,2,2024-09-18 22:36:44.962814209,1726699004.962815,2024-09-18 22:36:44.962814976,0,0,-3.105299283873535,-40.74147582864529,[1. 0. 0. 0.],[0.22920252 0.5359004  0.20599417 0.02890292],"[  0.03186218   0.9236754    0.19618893  -0.5080583   -0.09035728
  -0.0941581    0.           0.          -0.6          0.63186216
 -11.675986  ]",1.5251213342414442,0,0
5,5,2024-09-18 22:36:45.836834048,TASK_BEGIN,10,-0.138887522352973,0.0578112216757436,-0.1642540245194856,0.2520895139412522,-0.295548275488409,0.1837262368235577,-2.085716494139332,1.446928720347216,2,2024-09-18 22:36:44.962814209,1726699004.962815,2024-09-18 22:36:44.962814976,0,0,-3.105299283873535,-40.74147582864529,[1. 0. 0. 0.],[0.22920252 0.5359004  0.20599417 0.02890292],"[  0.03186218   0.9236754    0.19618893  -0.5080583   -0.09035728
  -0.0941581    0.           0.          -0.6          0.63186216
 -11.675986  ]",1.5251213342414442,0,0
6,6,2024-09-18 22:36:45.904960000,TASK_BEGIN,10,-0.0953735104539719,0.0571495437207747,-0.4641754491608691,0.3957626259646543,-0.3316041743743525,0.1997349016855341,-2.158111251078012,1.4757402878327697,2,2024-09-18 22:36:44.962814209,1726699004.962815,2024-09-18 22:36:44.962814976,0,0,-3.105299283873535,-40.74147582864529,[1. 0. 0. 0.],[0.22920252 0.5359004  0.20599417 0.02890292],"[  0.03186218   0.9236754    0.19618893  -0.5080583   -0.09035728
  -0.0941581    0.           0.          -0.6          0.63186216
 -11.675986  ]",1.5251213342414442,0,0
7,7,2024-09-18 22:36:46.816397824,TASK_BEGIN,10,-0.0620096776625059,0.0593869175864855,-0.7339667107962159,0.5153849829889712,-0.3626809786944416,0.2149943392466085,-2.2384494066606853,1.5013523575465846,2,2024-09-18 22:36:46.024930908,1726699006.024931,2024-09-18 22:36:46.024931072,0,1,-8.260955185740167,-172.60361761469883,[0. 1. 0. 0.],[7.90773281e-05 1.53180000e-09 5.13420922e-05 9.99869579e-01],"[ 0.03186369  0.37154102 -0.23587748 -1.4903054   0.74716896  1.0031073
  0.          0.         -0.6         0.6318637  -7.258911  ]",1.5655763266348202,0,0
8,8,2024-09-18 22:36:46.878901248,TASK_BEGIN,10,-0.0388893633591747,0.0644076935114473,-0.9753870269140228,0.6113791508462934,-0.3886484968564101,0.2294545076292117,-2.3226413285806933,1.522748726570586,2,2024-09-18 22:36:46.085930176,1726699006.0859308,2024-09-18 22:36:46.085930752,0,1,-8.562562551701896,-186.29599870462923,[0. 1. 0. 0.],[6.34796547e-05 1.29419391e-09 8.99035648e-06 9.99927529e-01],"[ 0.02915255  0.324548   -0.25255698 -1.5565268   0.8530435   1.0734034
  0.          0.         -0.6         0.62915254 -6.882967  ]",1.566303207033445,0,0
9,9,2024-09-18 22:36:46.961987072,TASK_BEGIN,10,-0.0258678920485114,0.0719799801991531,-1.1907982641194423,0.6852252269172895,-0.4095270385198593,0.2430518005956806,-2.405528821123904,1.5390900962931486,2,2024-09-18 22:36:46.173929932,1726699006.1739304,2024-09-18 22:36:46.173930496,0,1,-9.173633176985286,-207.79040070671402,[0. 1. 0. 0.],[1.66207647e-04 5.41855821e-09 3.77461041e-06 9.99830012e-01],"[ 0.02460575  0.2505076  -0.2752837  -1.6578466   1.0253332   1.1843442
  0.          0.         -0.6         0.6246058  -6.2906437 ]",1.56653375232146,0,0
10,10,2024-09-18 22:36:47.029820160,TASK_BEGIN,10,-0.0226114615181825,0.0817838938179908,-1.382667233764597,0.7392327786702722,-0.4255003162566837,0.2556985821346927,-2.481806610881777,1.5499116442180196,2,2024-09-18 22:36:46.173929932,1726699006.1739304,2024-09-18 22:36:46.173930496,0,1,-9.173633176985286,-207.79040070671402,[0. 1. 0. 0.],[1.66207647e-04 5.41855821e-09 3.77461041e-06 9.99830012e-01],"[ 0.02460575  0.2505076  -0.2752837  -1.6578466   1.0253332   1.1843442
  0.          0.         -0.6         0.6246058  -6.2906437 ]",1.56653375232146,0,0
11,11,2024-09-18 22:36:47.095920128,TASK_BEGIN,10,-0.0286061087255195,0.0934342105184736,-1.5533754150949035,0.7762994415589755,-0.4369219162665536,0.2672798738017421,-2.5469919553191964,1.5552869074613127,2,2024-09-18 22:36:46.173929932,1726699006.1739304,2024-09-18 22:36:46.173930496,0,1,-9.173633176985286,-207.79040070671402,[0. 1. 0. 0.],[1.66207647e-04 5.41855821e-09 3.77461041e-06 9.99830012e-01],"[ 0.02460575  0.2505076  -0.2752837  -1.6578466   1.0253332   1.1843442
  0.          0.         -0.6         0.6246058  -6.2906437 ]",1.56653375232146,0,0
12,12,2024-09-18 22:36:47.158245120,TASK_BEGIN,10,-0.0431296727221376,0.106499111871194,-1.705291672453761,0.7996907057551252,-0.4443025861927355,0.2776608487808694,-2.59816097350683,1.5559161126316077,2,2024-09-18 22:36:46.349931885,1726699006.349933,2024-09-18 22:36:46.349932800,0,1,-10.589792772011444,-254.49403433430444,[0. 1. 0. 0.],[8.04722263e-03 1.56839155e-06 1.99793978e-05 9.91931230e-01],"[ 0.01384743  0.08917749 -0.29902518 -1.8698136   1.4225838   1.4267216
  0.          0.         -0.6         0.61384743 -5.000003  ]",1.567226006452147,0,0
13,13,2024-09-18 22:36:47.233308160,TASK_BEGIN,10,-0.065200770657488,0.1205177734960019,-1.840944883148425,0.8128406829736197,-0.4482818354663143,0.2867074566133161,-2.634401641077241,1.553119800832505,2,2024-09-18 22:36:46.437931152,1726699006.4379318,2024-09-18 22:36:46.437931776,0,1,-10.982450425121849,-279.5921738424528,[0. 1. 0. 0.],[2.47046806e-02 7.10579607e-06 5.49379632e-05 9.75233276e-01],"[ 7.7590942e-03  1.5426874e-03 -2.9503575e-01 -1.9781615e+00
  1.6500094e+00  1.5545728e+00  0.0000000e+00  0.0000000e+00
 -6.0000002e-01  6.0775912e-01 -4.2989244e+00]",1.5675079199433037,0,0
14,14,2024-09-18 22:36:48.175996160,TASK_BEGIN,10,-0.0935382731071556,0.1350200195780038,-1.963125961513995,0.819153329107869,-0.4495870629829395,0.2943168724440934,-2.6569725594339104,1.54871855853615,2,2024-09-18 22:36:46.912697998,1726699006.9126985,2024-09-18 22:36:46.912698624,0,1,-12.499793733300075,-416.9009142767942,[0. 1. 0. 0.],[5.10096267e-02 3.15807215e-06 1.00103461e-06 9.48986214e-01],"[-0.02589186 -0.54694223 -0.11485205 -2.4567404   3.1362867   2.0844812
  0.          0.         -0.6         0.5741081   0.08895497]",1.5678496923904843,1,1
15,15,2024-09-18 22:36:48.237052928,TASK_BEGIN,10,-0.1265808466796888,0.1495504328488015,-2.0748895544448533,0.8218147590607193,-0.4489831218042457,0.3004478014279177,-2.669056013059952,1.544791325595683,2,2024-09-18 22:36:46.912697998,1726699006.9126985,2024-09-18 22:36:46.912698624,0,1,-12.499793733300075,-416.9009142767942,[0. 1. 0. 0.],[5.10096267e-02 3.15807215e-06 1.00103461e-06 9.48986214e-01],"[-0.02589186 -0.54694223 -0.11485205 -2.4567404   3.1362867   2.0844812
  0.          0.         -0.6         0.5741081   0.08895497]",1.5678496923904843,1,1
16,16,2024-09-18 22:36:48.311680256,TASK_BEGIN,10,-0.1625946206534464,0.1636958638732921,-2.179511928960191,0.8236439539142287,-0.4472297979776144,0.3051410074701531,-2.675066597428285,1.5433471392877416,2,2024-09-18 22:36:46.912697998,1726699006.9126985,2024-09-18 22:36:46.912698624,0,1,-12.499793733300075,-416.9009142767942,[0. 1. 0. 0.],[5.10096267e-02 3.15807215e-06 1.00103461e-06 9.48986214e-01],"[-0.02589186 -0.54694223 -0.11485205 -2.4567404   3.1362867   2.0844812
  0.          0.         -0.6         0.5741081   0.08895497]",1.5678496923904843,1,1
17,17,2024-09-18 22:36:48.379525888,TASK_BEGIN,10,-0.199829124924544,0.1771094418770272,-2.280359658006776,0.826976656799715,-0.4450730696549659,0.3085279354314084,-2.6797416611878684,1.5459919520229055,2,2024-09-18 22:36:46.912697998,1726699006.9126985,2024-09-18 22:36:46.912698624,0,1,-12.499793733300075,-416.9009142767942,[0. 1. 0. 0.],[5.10096267e-02 3.15807215e-06 1.00103461e-06 9.48986214e-01],"[-0.02589186 -0.54694223 -0.11485205 -2.4567404   3.1362867   2.0844812
  0.          0.         -0.6         0.5741081   0.08895497]",1.5678496923904843,1,1
18,18,2024-09-18 22:36:48.447371008,TASK_BEGIN,10,-0.2366379151952134,0.1895220701226433,-2.380512451452088,0.8335562747988705,-0.4432708817175036,0.3108284042735962,-2.687297971872179,1.5536678456397794,2,2024-09-18 22:36:46.912697998,1726699006.9126985,2024-09-18 22:36:46.912698624,0,1,-12.499793733300075,-416.9009142767942,[0. 1. 0. 0.],[5.10096267e-02 3.15807215e-06 1.00103461e-06 9.48986214e-01],"[-0.02589186 -0.54694223 -0.11485205 -2.4567404   3.1362867   2.0844812
  0.          0.         -0.6         0.5741081   0.08895497]",1.5678496923904843,1,1
19,19,2024-09-18 22:36:48.515280896,TASK_BEGIN,10,-0.2715244611184597,0.2007387663599275,-2.4820927687164964,0.8444318197190734,-0.4426137233631648,0.3123345281753361,-2.700689688915276,1.5664882302857108,2,2024-09-18 22:36:46.941698975,1726699006.941699,2024-09-18 22:36:46.941699072,0,0,73.15159640759765,-339.5803087264286,[1. 0. 0. 0.],[4.26172772e-02 2.41836305e-06 5.56657026e-07 9.57379748e-01],"[-0.02963034 -0.56740904 -0.64248717  0.02371744  3.2238498   0.12567315
  0.          0.         -0.6         0.57036966  0.25268915]",1.5090280570216152,1,1
20,21,2024-09-18 22:36:49.525891072,TASK_BEGIN,10,-0.3304069612572983,0.2191067739255614,-2.6892109450059363,0.8795129540218297,-0.4478489435692196,0.3142954543857698,-2.746816562634057,1.6036495814696043,2,2024-09-18 22:36:48.735393066,1726699008.7353938,2024-09-18 22:36:48.735393792,1,0,-2.5711911925610167,-17.03459776122513,[1. 0. 0. 0.],[0.48835904 0.15838556 0.07170712 0.28154828],"[-2.4795532e-04  9.8494744e-01 -4.6225153e-03 -2.3337686e-01
  7.7715109e-04  1.7543714e-03  0.0000000e+00  0.0000000e+00
  6.0000002e-01 -6.0024798e-01 -1.2397714e+01]",1.5148337241497003,0,0
21,22,2024-09-18 22:36:49.585300992,TASK_BEGIN,10,-0.3524614349027538,0.2261518088582002,-2.7897286340625103,0.9022425258021706,-0.4550450839119936,0.3153819979988234,-2.774965461096789,1.624266431077681,2,2024-09-18 22:36:48.794367188,1726699008.794367,2024-09-18 22:36:48.794366976,1,0,-2.571408587985019,-21.812618495354982,[1. 0. 0. 0.],[0.50595518 0.13835    0.0641055  0.29158933],"[-3.1042099e-04  9.7645402e-01 -4.6248119e-03 -2.8459281e-01
  9.5245906e-04  1.7532293e-03  0.0000000e+00  0.0000000e+00
  6.0000002e-01 -6.0031044e-01 -1.2329766e+01]",1.5177721221919491,0,0
22,23,2024-09-18 22:36:49.648248064,TASK_BEGIN,10,-0.3689030119168543,0.2317909500134766,-2.8827637374161057,0.9266667953190322,-0.465839011720271,0.3168763417327688,-2.800506275768284,1.643154151402585,2,2024-09-18 22:36:48.852364990,1726699008.8523653,2024-09-18 22:36:48.852365312,1,0,-2.571512862572817,-26.49583079614936,[1. 0. 0. 0.],[0.52681194 0.13078516 0.05779475 0.28460816],"[-3.7280718e-04  9.6636009e-01 -4.6270979e-03 -3.3580920e-01
  1.1276026e-03  1.7523912e-03  0.0000000e+00  0.0000000e+00
  6.0000002e-01 -6.0037279e-01 -1.2249015e+01]",1.5201018247328393,0,0
23,24,2024-09-18 22:36:49.726902016,TASK_BEGIN,10,-0.3797516109701013,0.2361085268841419,-2.9639439041481985,0.9512013223742356,-0.4803154704355571,0.3189419760749549,-2.8176259519414217,1.6579994111482854,2,2024-09-18 22:36:48.939366943,1726699008.9393668,2024-09-18 22:36:48.939366912,1,0,-2.571659478150977,-33.346906472036025,[1. 0. 0. 0.],[0.52818372 0.1351447  0.06045797 0.27621361],"[-4.6666464e-04  9.4821823e-01 -4.6304925e-03 -4.1263527e-01
  1.3902489e-03  1.7507339e-03  0.0000000e+00  0.0000000e+00
  6.0000002e-01 -6.0046667e-01 -1.2103880e+01]",1.5229820149117512,0,0
24,25,2024-09-18 22:36:49.797243136,TASK_BEGIN,10,-0.3854146079853802,0.2392370048046975,-3.0293255804724017,0.9742312291159853,-0.4983018244471275,0.321668951937042,-2.8202127027569817,1.6667463244504657,2,2024-09-18 22:36:48.997394043,1726699008.9973943,2024-09-18 22:36:48.997394432,1,0,-2.5717596349066127,-37.80106496736789,[1. 0. 0. 0.],[0.52097019 0.13402813 0.06398293 0.28101875],"[-5.29289246e-04  9.34122920e-01 -4.63273050e-03 -4.63853657e-01
  1.56520959e-03  1.74981635e-03  0.00000000e+00  0.00000000e+00
  6.00000024e-01 -6.00529313e-01 -1.19911175e+01]",1.5247632689856034,0,0
25,26,2024-09-18 22:36:49.865062912,TASK_BEGIN,10,-0.3865987016147343,0.2413461609057802,-3.0754762092440657,0.994172268390966,-0.5194501776010426,0.3250885269556444,-2.8025051303543496,1.667704198437986,2,2024-09-18 22:36:49.055131836,1726699009.055132,2024-09-18 22:36:49.055131904,1,1,-2.9807427629494416,-42.75645782188687,[0. 1. 0. 0.],[0.47762947 0.10497972 0.08291981 0.334471  ],"[-8.1825256e-04  9.1842449e-01 -3.2253064e-02 -5.1513427e-01
  6.2463428e-03  6.5319672e-02  0.0000000e+00  0.0000000e+00
  6.0000002e-01 -6.0081828e-01 -1.1865530e+01]",1.5420763978056573,0,0
26,27,2024-09-18 22:36:49.928044288,TASK_BEGIN,10,-0.3842359743644442,0.2426322057200063,-3.0995249488092305,1.009530665336363,-0.543340887410521,0.3291921098833289,-2.7596561691016457,1.6595943201728711,2,2024-09-18 22:36:49.114114990,1726699009.1141152,2024-09-18 22:36:49.114115328,1,1,-3.4953388429397396,-48.62098604852875,[0. 1. 0. 0.],[0.36822831 0.05582325 0.11584166 0.46010678],"[-1.4801821e-03  9.0110898e-01 -6.4440489e-02 -5.6722468e-01
  1.8326549e-02  1.3920754e-01  0.0000000e+00  0.0000000e+00
  6.0000002e-01 -6.0148019e-01 -1.1727006e+01]",1.5468927972563267,0,0
27,28,2024-09-18 22:36:50.836023296,TASK_BEGIN,10,-0.3794303273273749,0.2433076066325244,-3.099453215915459,1.019010097869092,-0.5695397071491863,0.333943400667618,-2.68814604721036,1.6415861515402748,2,2024-09-18 22:36:49.494135010,1726699009.4941354,2024-09-18 22:36:49.494135296,1,0,-1.7004300797708822,-73.54297547669587,[1. 0. 0. 0.],[0.30074951 0.14574175 0.42466228 0.12884646],"[-1.9158522e-03  7.4938297e-01  6.7282088e-02 -8.9809054e-01
  1.7824456e-02 -1.6552749e-01  0.0000000e+00  0.0000000e+00
  6.0000002e-01 -6.0191584e-01 -1.0513198e+01]",1.534924325321339,0,0
28,29,2024-09-18 22:36:50.918427904,TASK_BEGIN,10,-0.37338998097756,0.2435912334450784,-3.074503961201698,1.0216376255004118,-0.5975993947784826,0.3392834079239687,-2.586090016994764,1.613358669303772,2,2024-09-18 22:36:50.114118164,1726699010.114118,2024-09-18 22:36:50.114118144,1,2,-1.8717866068342517,-22.10565682070581,[0. 0. 1. 0.],[0.18171819 0.7351639  0.0502435  0.03287441],"[ 0.02028322  0.64875245  0.24272604  0.17035632 -0.13196976 -0.1480502
  0.          0.          0.6        -0.5797168  -9.708154  ]",1.5472849011376262,0,0
29,30,2024-09-18 22:36:50.986273024,TASK_BEGIN,10,-0.3673276401123237,0.2437000384396049,-3.0253852600058124,1.0168454048178566,-0.6270496462991985,0.3451359452359918,-2.453436083773829,1.575170526356336,2,2024-09-18 22:36:50.172123047,1726699010.172123,2024-09-18 22:36:50.172122880,1,2,-3.6246934987246275,-35.67298661911749,[0. 0. 1. 0.],[0.24057525 0.60905691 0.07551174 0.07485611],"[ 0.0240771   0.6578659   0.29221377  0.30142996 -0.14644451 -0.14338546
  0.          0.          0.6        -0.5759229  -9.781061  ]",1.551616734436074,0,0
30,31,2024-09-18 22:36:51.054007040,TASK_BEGIN,10,-0.3623504317540318,0.243844265053343,-2.9541618060542185,1.0044850754803396,-0.6574061028664446,0.3514165084116442,-2.2920109930338795,1.5279011845865134,2,2024-09-18 22:36:50.259145020,1726699010.2591455,2024-09-18 22:36:50.259145472,1,2,-9.1789173915267,-58.49842116587203,[0. 0. 1. 0.],[0.31588777 0.35128695 0.11796661 0.21485867],"[ 0.03098663  0.6781299   0.38280365  0.5071298  -0.16752107 -0.13425776
  0.          0.          0.6        -0.56901336 -9.943173  ]",1.5539909482655996,0,0
31,32,2024-09-18 22:36:51.121926144,TASK_BEGIN,10,-0.3593798675864594,0.2442264920210008,-2.864025561496573,0.9848037474320758,-0.6881881080559074,0.3580401522167316,-2.105501976339627,1.4730518749312609,2,2024-09-18 22:36:50.318114990,1726699010.3181152,2024-09-18 22:36:50.318115328,1,2,-9.048953647551446,-71.47556482774027,[0. 0. 1. 0.],[0.33511336 0.27191571 0.12377988 0.26919104],"[  0.03650228   0.69672084   0.43548837   0.6245205   -0.18125832
  -0.1310226    0.           0.           0.6         -0.5634977
 -10.091901  ]",1.554417414515108,0,0
32,33,2024-09-18 22:36:51.178627072,TASK_BEGIN,10,-0.3591237124120621,0.245042292852702,-2.759193399806597,0.95842446019396,-0.7189227786946855,0.3649245246439334,-1.899511183392712,1.412708511786391,2,2024-09-18 22:36:50.377167969,1726699010.377168,2024-09-18 22:36:50.377167872,1,2,-9.623072632582524,-90.91532893190693,[0. 0. 1. 0.],[0.34940746 0.18320837 0.13132128 0.33606289],"[  0.04316099   0.72082114   0.50536036   0.8122524   -0.1942923
  -0.13003941   0.           0.           0.6         -0.556839
 -10.284703  ]",1.5560937955339635,0,0
33,34,2024-09-18 22:36:51.257576960,TASK_BEGIN,10,-0.362083415397778,0.2464793192548397,-2.6450389458038117,0.926358646813985,-0.7491266188575294,0.371987440393588,-1.6816190357762115,1.349446986828753,2,2024-09-18 22:36:50.469165039,1726699010.4691658,2024-09-18 22:36:50.469165824,1,2,-6.933717868668583,-113.48153818082321,[0. 0. 1. 0.],[0.21218121 0.04083366 0.07258202 0.6744031 ],"[  0.05446895   0.7661767    0.5906174    1.033267    -0.21465744
  -0.1323532    0.           0.           0.6         -0.54553103
 -10.647548  ]",1.558070488886679,0,0
34,35,2024-09-18 22:36:52.198422016,TASK_BEGIN,10,-0.3685597188111655,0.2487122802527487,-2.528280420634337,0.8900329649084456,-0.7782645492206471,0.3791378353979447,-1.461168940613072,1.2861602939651238,2,2024-09-18 22:36:50.973368896,1726699010.9733696,2024-09-18 22:36:50.973369600,1,3,0.7625468983516066,-100.97845204946039,[0. 0. 0. 1.],[0.38091729 0.53788487 0.02501329 0.05618455],"[  0.14582157   1.056498     0.8264893    0.90726084  -0.30454457
  -0.16707902   0.           0.           0.6         -0.45417842
 -12.9701185 ]",1.5338754497292553,0,0
35,36,2024-09-18 22:36:52.260907008,TASK_BEGIN,10,-0.3786333783424187,0.2518926852844342,-2.416838166009676,0.8512701466675999,-0.8056930502285328,0.3862605075826864,-1.2485797067000497,1.2258344388880542,2,2024-09-18 22:36:50.973368896,1726699010.9733696,2024-09-18 22:36:50.973369600,1,3,0.7625468983516066,-100.97845204946039,[0. 0. 0. 1.],[0.38091729 0.53788487 0.02501329 0.05618455],"[  0.14582157   1.056498     0.8264893    0.90726084  -0.30454457
  -0.16707902   0.           0.           0.6         -0.45417842
 -12.9701185 ]",1.5338754497292553,0,0
36,37,2024-09-18 22:36:52.336980992,TASK_BEGIN,10,-0.3921311162510368,0.2561361149726508,-2.319186938123581,0.8121879504375553,-0.8306151677083307,0.3932026162474242,-1.054383212680534,1.1713400991572815,2,2024-09-18 22:36:50.973368896,1726699010.9733696,2024-09-18 22:36:50.973369600,1,3,0.7625468983516066,-100.97845204946039,[0. 0. 0. 1.],[0.38091729 0.53788487 0.02501329 0.05618455],"[  0.14582157   1.056498     0.8264893    0.90726084  -0.30454457
  -0.16707902   0.           0.           0.6         -0.45417842
 -12.9701185 ]",1.5338754497292553,0,0
37,38,2024-09-18 22:36:52.404797184,TASK_BEGIN,10,-0.4086123377873372,0.2615142930238304,-2.243371609581716,0.7750331305735725,-0.8520889673911262,0.3997732357827635,-0.8884259330469167,1.1252859307580334,2,2024-09-18 22:36:50.973368896,1726699010.9733696,2024-09-18 22:36:50.973369600,1,3,0.7625468983516066,-100.97845204946039,[0. 0. 0. 1.],[0.38091729 0.53788487 0.02501329 0.05618455],"[  0.14582157   1.056498     0.8264893    0.90726084  -0.30454457
  -0.16707902   0.           0.           0.6         -0.45417842
 -12.9701185 ]",1.5338754497292553,0,0
38,39,2024-09-18 22:36:52.469325056,TASK_BEGIN,10,-0.4274059769225513,0.2680568060645805,-2.1958853431056244,0.7419748671960837,-0.8691076086906067,0.4057593481824364,-0.7594795237888332,1.0899270711475408,2,2024-09-18 22:36:50.973368896,1726699010.9733696,2024-09-18 22:36:50.973369600,1,3,0.7625468983516066,-100.97845204946039,[0. 0. 0. 1.],[0.38091729 0.53788487 0.02501329 0.05618455],"[  0.14582157   1.056498     0.8264893    0.90726084  -0.30454457
  -0.16707902   0.           0.           0.6         -0.45417842
 -12.9701185 ]",1.5338754497292553,0,0
39,40,2024-09-18 22:36:52.540257792,TASK_BEGIN,10,-0.4476921964953503,0.2757592664630419,-2.180577625212601,0.714877964954427,-0.8807302129051121,0.4109520679870793,-0.6751172116959931,1.06709484561112,2,2024-09-18 22:36:50.973368896,1726699010.9733696,2024-09-18 22:36:50.973369600,1,3,0.7625468983516066,-100.97845204946039,[0. 0. 0. 1.],[0.38091729 0.53788487 0.02501329 0.05618455],"[  0.14582157   1.056498     0.8264893    0.90726084  -0.30454457
  -0.16707902   0.           0.           0.6         -0.45417842
 -12.9701185 ]",1.5338754497292553,0,0
40,41,2024-09-18 22:36:52.608300032,TASK_BEGIN,10,-0.4685950520594478,0.2845909246459582,-2.197874644448588,0.6950950994393902,-0.8862319525065048,0.4151750066307033,-0.6415405735737822,1.058120792886171,2,2024-09-18 22:36:51.819544922,1726699011.8195453,2024-09-18 22:36:51.819545344,1,0,-0.04800119691890359,-56.395059644347064,[1. 0. 0. 0.],[8.68694699e-03 9.90803162e-01 4.40123678e-04 6.97674345e-05],"[  0.30999184   1.294944     0.8260268    0.16416481  -0.54676586
  -0.16702142   0.           0.           0.6         -0.29000816
 -14.8776865 ]",1.4856552651937007,0,0
41,42,2024-09-18 22:36:53.549885952,TASK_BEGIN,10,-0.489246972870482,0.2944964471662605,-2.244568799902769,0.6833234813548523,-0.8852474577182904,0.4183081274193228,-0.663219668102149,1.0637551828614134,2,2024-09-18 22:36:52.575108887,1726699012.5751097,2024-09-18 22:36:52.575109632,1,0,-2.0049430552154206,-70.18209207550603,[1. 0. 0. 0.],[2.70351219e-02 9.72700263e-01 1.89857530e-04 7.47576727e-05],"[  0.45733753   1.2231178    0.82541025  -0.5019802   -0.7638591
  -0.16696975   0.           0.           0.6         -0.14266247
 -14.303077  ]",1.5472956552298174,0,0
42,43,2024-09-18 22:36:53.615035136,TASK_BEGIN,10,-0.5088013978492982,0.3053898109752092,-2.31421214684226,0.6795545385655366,-0.8778704000990113,0.4203004443824256,-0.7424691586071259,1.0841004838342945,2,2024-09-18 22:36:52.575108887,1726699012.5751097,2024-09-18 22:36:52.575109632,1,0,-2.0049430552154206,-70.18209207550603,[1. 0. 0. 0.],[2.70351219e-02 9.72700263e-01 1.89857530e-04 7.47576727e-05],"[  0.45733753   1.2231178    0.82541025  -0.5019802   -0.7638591
  -0.16696975   0.           0.           0.6         -0.14266247
 -14.303077  ]",1.5472956552298174,0,0
43,44,2024-09-18 22:36:53.677478912,TASK_BEGIN,10,-0.5264084905050079,0.3171441646003792,-2.397975422408311,0.6831224627225072,-0.8646718405736514,0.421168951165856,-0.879132854971182,1.118573690870898,2,2024-09-18 22:36:52.575108887,1726699012.5751097,2024-09-18 22:36:52.575109632,1,0,-2.0049430552154206,-70.18209207550603,[1. 0. 0. 0.],[2.70351219e-02 9.72700263e-01 1.89857530e-04 7.47576727e-05],"[  0.45733753   1.2231178    0.82541025  -0.5019802   -0.7638591
  -0.16696975   0.           0.           0.6         -0.14266247
 -14.303077  ]",1.5472956552298174,0,0
44,45,2024-09-18 22:36:53.749401088,TASK_BEGIN,10,-0.5412016026835018,0.3295871422885553,-2.4858243533628874,0.6928367416106997,-0.8466393118558561,0.4209899082741674,-1.0704666153435844,1.165903408559227,2,2024-09-18 22:36:52.575108887,1726699012.5751097,2024-09-18 22:36:52.575109632,1,0,-2.0049430552154206,-70.18209207550603,[1. 0. 0. 0.],[2.70351219e-02 9.72700263e-01 1.89857530e-04 7.47576727e-05],"[  0.45733753   1.2231178    0.82541025  -0.5019802   -0.7638591
  -0.16696975   0.           0.           0.6         -0.14266247
 -14.303077  ]",1.5472956552298174,0,0
45,46,2024-09-18 22:36:53.822156032,TASK_BEGIN,10,-0.5523197766574063,0.3425076195046293,-2.567927077186214,0.7071791499982342,-0.8250728159051816,0.4198912712481792,-1.3112111127935695,1.224169855549343,2,2024-09-18 22:36:52.575108887,1726699012.5751097,2024-09-18 22:36:52.575109632,1,0,-2.0049430552154206,-70.18209207550603,[1. 0. 0. 0.],[2.70351219e-02 9.72700263e-01 1.89857530e-04 7.47576727e-05],"[  0.45733753   1.2231178    0.82541025  -0.5019802   -0.7638591
  -0.16696975   0.           0.           0.6         -0.14266247
 -14.303077  ]",1.5472956552298174,0,0
46,47,2024-09-18 22:36:53.882680832,TASK_BEGIN,10,-0.558942885958747,0.3556699228515055,-2.6361007141294843,0.7245363575924445,-0.8014649390358719,0.4180487891945951,-1.593733665234598,1.290887176951823,2,2024-09-18 22:36:53.072621094,1726699013.0726218,2024-09-18 22:36:53.072621824,1,0,-1.5986279170628848,-75.65722872172282,[1. 0. 0. 0.],[3.84166619e-02 9.60984646e-01 5.33296883e-04 6.53954766e-05],"[  0.5485902    1.0376759    0.76241386  -0.89627546  -0.74174446
   0.05833394   0.           0.           0.6         -0.05140982
 -12.819541  ]",1.5481980560619761,0,0
47,48,2024-09-18 22:36:53.957854976,TASK_BEGIN,10,-0.5603249520119002,0.3688297559758677,-2.684861093974626,0.743404893820006,-0.7773702403057124,0.4156823206110769,-1.90819966575565,1.3631266029085152,2,2024-09-18 22:36:53.158594971,1726699013.1585956,2024-09-18 22:36:53.158595584,1,0,-1.679498420899023,-78.32105091808957,[1. 0. 0. 0.],[3.92236528e-02 9.60140508e-01 5.63668472e-04 7.21704789e-05],"[  0.56453925   0.9931735    0.76240414  -0.9730826   -0.7329944
   0.05833353   0.           0.           0.6         -0.03546073
 -12.463522  ]",1.5517869530738457,0,0
48,49,2024-09-18 22:36:54.900793856,TASK_BEGIN,10,-0.5558593154015766,0.3817529930078032,-2.7116916633593977,0.7625032848153853,-0.7542678614021269,0.4130481514016194,-2.2429962969166883,1.4376977653688532,2,2024-09-18 22:36:53.595565918,1726699013.5955665,2024-09-18 22:36:53.595566592,1,0,-1.9720210251314825,-93.27529003549792,[1. 0. 0. 0.],[3.80943188e-02 9.61289496e-01 5.57449145e-04 5.87363317e-05],"[  0.6442895    0.71666896   0.76235694  -1.3571187   -0.68924457
   0.05833254   0.           0.           0.6          0.04428949
 -10.251486  ]",1.5635556608394503,1,2
49,50,2024-09-18 22:36:54.968697088,TASK_BEGIN,10,-0.5451933522053349,0.3942374993808225,-2.7165359238955524,0.7807811409184849,-0.733432443386437,0.4104259768391855,-2.5856216567707127,1.5114007489460572,2,2024-09-18 22:36:53.595565918,1726699013.5955665,2024-09-18 22:36:53.595566592,1,0,-1.9720210251314825,-93.27529003549792,[1. 0. 0. 0.],[3.80943188e-02 9.61289496e-01 5.57449145e-04 5.87363317e-05],"[  0.6442895    0.71666896   0.76235694  -1.3571187   -0.68924457
   0.05833254   0.           0.           0.6          0.04428949
 -10.251486  ]",1.5635556608394503,1,2
50,51,2024-09-18 22:36:55.036524288,TASK_BEGIN,10,-0.528338270754869,0.4061292026972112,-2.700803158288368,0.7973609347043662,-0.7158326781219185,0.4081028061186453,-2.923917090793928,1.5813224804170682,2,2024-09-18 22:36:53.595565918,1726699013.5955665,2024-09-18 22:36:53.595566592,1,0,-1.9720210251314825,-93.27529003549792,[1. 0. 0. 0.],[3.80943188e-02 9.61289496e-01 5.57449145e-04 5.87363317e-05],"[  0.6442895    0.71666896   0.76235694  -1.3571187   -0.68924457
   0.05833254   0.           0.           0.6          0.04428949
 -10.251486  ]",1.5635556608394503,1,2
51,52,2024-09-18 22:36:55.089075968,TASK_BEGIN,10,-0.5057020608301174,0.4173243264012557,-2.6662635655986957,0.8114597406302109,-0.7020707893546494,0.4063561883386282,-3.2472594583054537,1.645111427311848,2,2024-09-18 22:36:53.595565918,1726699013.5955665,2024-09-18 22:36:53.595566592,1,0,-1.9720210251314825,-93.27529003549792,[1. 0. 0. 0.],[3.80943188e-02 9.61289496e-01 5.57449145e-04 5.87363317e-05],"[  0.6442895    0.71666896   0.76235694  -1.3571187   -0.68924457
   0.05833254   0.           0.           0.6          0.04428949
 -10.251486  ]",1.5635556608394503,1,2
52,53,2024-09-18 22:36:55.167633152,TASK_BEGIN,10,-0.4780287200507626,0.4277597577248944,-2.614198850289699,0.8223311144397123,-0.6923653688078417,0.4054353027288043,-3.547336939896921,1.7011535296699654,2,2024-09-18 22:36:53.595565918,1726699013.5955665,2024-09-18 22:36:53.595566592,1,0,-1.9720210251314825,-93.27529003549792,[1. 0. 0. 0.],[3.80943188e-02 9.61289496e-01 5.57449145e-04 5.87363317e-05],"[  0.6442895    0.71666896   0.76235694  -1.3571187   -0.68924457
   0.05833254   0.           0.           0.6          0.04428949
 -10.251486  ]",1.5635556608394503,1,2
53,54,2024-09-18 22:36:55.230915072,TASK_BEGIN,10,-0.4462761613517712,0.437397700750854,-2.5449713602089203,0.8292372383752827,-0.6865730328093432,0.4055375005610585,-3.81838136829947,1.748613362498784,2,2024-09-18 22:36:54.179564941,1726699014.1795657,2024-09-18 22:36:54.179565568,1,1,2.0808127275376957,-62.71528279299243,[0. 1. 0. 0.],[0.01333455 0.00133238 0.93763812 0.04769495],"[ 0.7361819   0.2232567   0.50588685 -1.7729216  -0.24709816  0.78321135
  0.          0.          0.6         0.13618189 -6.3041883 ]",1.5272832331049175,1,2
54,55,2024-09-18 22:36:55.307792896,TASK_BEGIN,10,-0.4114778851098943,0.446208632819308,-2.457919473084572,0.8314403059593973,-0.6842430628303767,0.4067834833598588,-4.057000209669541,1.7873691368959197,2,2024-09-18 22:36:54.179564941,1726699014.1795657,2024-09-18 22:36:54.179565568,1,1,2.0808127275376957,-62.71528279299243,[0. 1. 0. 0.],[0.01333455 0.00133238 0.93763812 0.04769495],"[ 0.7361819   0.2232567   0.50588685 -1.7729216  -0.24709816  0.78321135
  0.          0.          0.6         0.13618189 -6.3041883 ]",1.5272832331049175,1,2
55,56,2024-09-18 22:36:56.250960128,TASK_BEGIN,10,-0.3746285471235612,0.4541560644069563,-2.351495688944274,0.8282265371887623,-0.6846958186439538,0.4091993031290238,-4.261766729001149,1.8178918366918555,2,2024-09-18 22:36:55.141568848,1726699015.1415691,2024-09-18 22:36:55.141569024,1,1,-6.3925841618296975,-89.21646150762322,[0. 1. 0. 0.],[6.44918215e-04 4.45163099e-06 1.01123840e-08 9.99350620e-01],"[ 0.76733667 -0.3090179  -1.0345218  -0.5414978   1.1765794   0.8983978
  0.          0.          0.6         0.16733669 -2.0459912 ]",1.5385300355061864,1,2
56,57,2024-09-18 22:36:56.315261952,TASK_BEGIN,10,-0.3366106668485473,0.4611854961852654,-2.223710710946536,0.8189934623287802,-0.6871120798566233,0.4127114771044442,-4.432636907446354,1.841103006678371,2,2024-09-18 22:36:55.141568848,1726699015.1415691,2024-09-18 22:36:55.141569024,1,1,-6.3925841618296975,-89.21646150762322,[0. 1. 0. 0.],[6.44918215e-04 4.45163099e-06 1.01123840e-08 9.99350620e-01],"[ 0.76733667 -0.3090179  -1.0345218  -0.5414978   1.1765794   0.8983978
  0.          0.          0.6         0.16733669 -2.0459912 ]",1.5385300355061864,1,2
57,58,2024-09-18 22:36:56.386629120,TASK_BEGIN,10,-0.2981507871693106,0.467216700536319,-2.072889148866301,0.8033888992274232,-0.6906206073195359,0.4171551099808365,-4.57031465440153,1.8582320806131707,2,2024-09-18 22:36:55.141568848,1726699015.1415691,2024-09-18 22:36:55.141569024,1,1,-6.3925841618296975,-89.21646150762322,[0. 1. 0. 0.],[6.44918215e-04 4.45163099e-06 1.01123840e-08 9.99350620e-01],"[ 0.76733667 -0.3090179  -1.0345218  -0.5414978   1.1765794   0.8983978
  0.          0.          0.6         0.16733669 -2.0459912 ]",1.5385300355061864,1,2
58,59,2024-09-18 22:36:56.454418944,TASK_BEGIN,10,-0.259798651708262,0.4721395535398489,-1.898551906783221,0.7814488779580047,-0.6943702679289034,0.4222892225647017,-4.675730291989028,1.8706736118084435,2,2024-09-18 22:36:55.141568848,1726699015.1415691,2024-09-18 22:36:55.141569024,1,1,-6.3925841618296975,-89.21646150762322,[0. 1. 0. 0.],[6.44918215e-04 4.45163099e-06 1.01123840e-08 9.99350620e-01],"[ 0.76733667 -0.3090179  -1.0345218  -0.5414978   1.1765794   0.8983978
  0.          0.          0.6         0.16733669 -2.0459912 ]",1.5385300355061864,1,2
59,60,2024-09-18 22:36:56.517280000,TASK_BEGIN,10,-0.2219446413582342,0.4758178858563746,-1.702194358282779,0.7536978398459664,-0.697576081519161,0.4278123981233712,-4.74968391709381,1.8798231165369592,2,2024-09-18 22:36:55.141568848,1726699015.1415691,2024-09-18 22:36:55.141569024,1,1,-6.3925841618296975,-89.21646150762322,[0. 1. 0. 0.],[6.44918215e-04 4.45163099e-06 1.01123840e-08 9.99350620e-01],"[ 0.76733667 -0.3090179  -1.0345218  -0.5414978   1.1765794   0.8983978
  0.          0.          0.6         0.16733669 -2.0459912 ]",1.5385300355061864,1,2
60,61,2024-09-18 22:36:56.581535232,TASK_BEGIN,10,-0.184872482311851,0.4781039926137606,-1.4878248216160816,0.7212020985829182,-0.6995427735717902,0.4333763047859574,-4.792581735804319,1.8868801767047272,2,2024-09-18 22:36:55.141568848,1726699015.1415691,2024-09-18 22:36:55.141569024,1,1,-6.3925841618296975,-89.21646150762322,[0. 1. 0. 0.],[6.44918215e-04 4.45163099e-06 1.01123840e-08 9.99350620e-01],"[ 0.76733667 -0.3090179  -1.0345218  -0.5414978   1.1765794   0.8983978
  0.          0.          0.6         0.16733669 -2.0459912 ]",1.5385300355061864,1,2
61,62,2024-09-18 22:36:56.657885952,TASK_BEGIN,10,-0.1488119764013403,0.4788596962959948,-1.2622275217076826,0.6855724010499508,-0.699682570365359,0.43860082551434,-4.804199863056367,1.8926394036553127,2,2024-09-18 22:36:55.141568848,1726699015.1415691,2024-09-18 22:36:55.141569024,1,1,-6.3925841618296975,-89.21646150762322,[0. 1. 0. 0.],[6.44918215e-04 4.45163099e-06 1.01123840e-08 9.99350620e-01],"[ 0.76733667 -0.3090179  -1.0345218  -0.5414978   1.1765794   0.8983978
  0.          0.          0.6         0.16733669 -2.0459912 ]",1.5385300355061864,1,2
62,70,2024-09-18 22:36:58.926036992,TASK_BEGIN,10,0.0735135606351879,0.4297013228367728,-0.3975674481619722,0.5619894241916508,-0.6216925054924762,0.43326221154249,-3.624140408871775,1.8144086757276856,2,2024-09-18 22:36:57.882909180,1726699017.8829098,2024-09-18 22:36:57.882909696,2,0,-2.767171236866915,-31.78217264196168,[1. 0. 0. 0.],[0.37316609 0.0634382  0.08272512 0.48067058],"[ -0.02380546   0.94800115  -0.19623885  -0.41309178   0.06702684
   0.07396318   0.           0.           0.6         -0.62380546
 -10.217655  ]",1.5282651322001968,0,0
63,71,2024-09-18 22:36:58.993915136,TASK_BEGIN,10,0.0869999067649522,0.4194697596476254,-0.5330265218473035,0.5904069612597725,-0.6087203715199484,0.4259830794420116,-3.3224446160041823,1.771868197638557,2,2024-09-18 22:36:57.882909180,1726699017.8829098,2024-09-18 22:36:57.882909696,2,0,-2.767171236866915,-31.78217264196168,[1. 0. 0. 0.],[0.37316609 0.0634382  0.08272512 0.48067058],"[ -0.02380546   0.94800115  -0.19623885  -0.41309178   0.06702684
   0.07396318   0.           0.           0.6         -0.62380546
 -10.217655  ]",1.5282651322001968,0,0
64,72,2024-09-18 22:36:59.059464192,TASK_BEGIN,10,0.0959138154740374,0.4094069285996914,-0.7210342068222039,0.6277977032711528,-0.597769413412995,0.4179641522948732,-2.9989762833087243,1.720899735277272,2,2024-09-18 22:36:57.882909180,1726699017.8829098,2024-09-18 22:36:57.882909696,2,0,-2.767171236866915,-31.78217264196168,[1. 0. 0. 0.],[0.37316609 0.0634382  0.08272512 0.48067058],"[ -0.02380546   0.94800115  -0.19623885  -0.41309178   0.06702684
   0.07396318   0.           0.           0.6         -0.62380546
 -10.217655  ]",1.5282651322001968,0,0
65,73,2024-09-18 22:36:59.129521920,TASK_BEGIN,10,0.1002877773063619,0.3998230720411143,-0.9519515238406494,0.6720792654408612,-0.589486745732488,0.409538569578308,-2.6615261925049407,1.6627346945930273,2,2024-09-18 22:36:57.882909180,1726699017.8829098,2024-09-18 22:36:57.882909696,2,0,-2.767171236866915,-31.78217264196168,[1. 0. 0. 0.],[0.37316609 0.0634382  0.08272512 0.48067058],"[ -0.02380546   0.94800115  -0.19623885  -0.41309178   0.06702684
   0.07396318   0.           0.           0.6         -0.62380546
 -10.217655  ]",1.5282651322001968,0,0
66,74,2024-09-18 22:36:59.197320192,TASK_BEGIN,10,0.1004141737824726,0.3909804033612977,-1.215018965000383,0.7209093664770935,-0.5842256539532638,0.4009923179192746,-2.3191068022050296,1.5991057857513324,2,2024-09-18 22:36:57.882909180,1726699017.8829098,2024-09-18 22:36:57.882909696,2,0,-2.767171236866915,-31.78217264196168,[1. 0. 0. 0.],[0.37316609 0.0634382  0.08272512 0.48067058],"[ -0.02380546   0.94800115  -0.19623885  -0.41309178   0.06702684
   0.07396318   0.           0.           0.6         -0.62380546
 -10.217655  ]",1.5282651322001968,0,0
67,75,2024-09-18 22:36:59.260439040,TASK_BEGIN,10,0.0967626503588479,0.3831026823842794,-1.4996157842180813,0.7719312656505735,-0.5820205652887213,0.3925430494768663,-1.9815506307151531,1.5320807638144194,2,2024-09-18 22:36:57.882909180,1726699017.8829098,2024-09-18 22:36:57.882909696,2,0,-2.767171236866915,-31.78217264196168,[1. 0. 0. 0.],[0.37316609 0.0634382  0.08272512 0.48067058],"[ -0.02380546   0.94800115  -0.19623885  -0.41309178   0.06702684
   0.07396318   0.           0.           0.6         -0.62380546
 -10.217655  ]",1.5282651322001968,0,0
68,76,2024-09-18 22:36:59.329137152,TASK_BEGIN,10,0.0898752012706168,0.3763927750819704,-1.7960785182270984,0.8229711223200122,-0.5825894383850723,0.3843284133684145,-1.658986682731355,1.4638781761713813,2,2024-09-18 22:36:57.882909180,1726699017.8829098,2024-09-18 22:36:57.882909696,2,0,-2.767171236866915,-31.78217264196168,[1. 0. 0. 0.],[0.37316609 0.0634382  0.08272512 0.48067058],"[ -0.02380546   0.94800115  -0.19623885  -0.41309178   0.06702684
   0.07396318   0.           0.           0.6         -0.62380546
 -10.217655  ]",1.5282651322001968,0,0
69,77,2024-09-18 22:37:00.273751040,TASK_BEGIN,10,0.0802763068963704,0.3710464496823735,-2.095978207551945,0.8721491363324227,-0.5853620460411872,0.3764017835750214,-1.3612565987141243,1.3966926480076691,2,2024-09-18 22:36:59.001873047,1726699019.001874,2024-09-18 22:36:59.001873920,2,2,-8.643182123148552,-128.097907683244,[0. 0. 1. 0.],[0.44867337 0.34764026 0.00142875 0.20225762],"[ 0.01372949  0.9186268   0.7531097   0.9524101  -0.38270167 -0.26589155
  0.          0.          0.6        -0.5862705  -9.98266   ]",1.5610288095909428,0,0
70,78,2024-09-18 22:37:00.344395008,TASK_BEGIN,10,0.06841686821296,0.3672545700240996,-2.39198190392948,0.9178971224686814,-0.589541866922266,0.3687378472834702,-1.097327641525551,1.332546372571661,2,2024-09-18 22:36:59.001873047,1726699019.001874,2024-09-18 22:36:59.001873920,2,2,-8.643182123148552,-128.097907683244,[0. 0. 1. 0.],[0.44867337 0.34764026 0.00142875 0.20225762],"[ 0.01372949  0.9186268   0.7531097   0.9524101  -0.38270167 -0.26589155
  0.          0.          0.6        -0.5862705  -9.98266   ]",1.5610288095909428,0,0
71,79,2024-09-18 22:37:00.411218944,TASK_BEGIN,10,0.0546723352628732,0.3651913129403594,-2.6775674692539555,0.9589280062025368,-0.5941933765030812,0.3612497667717932,-0.8747348224315508,1.2731753934670542,2,2024-09-18 22:36:59.001873047,1726699019.001874,2024-09-18 22:36:59.001873920,2,2,-8.643182123148552,-128.097907683244,[0. 0. 1. 0.],[0.44867337 0.34764026 0.00142875 0.20225762],"[ 0.01372949  0.9186268   0.7531097   0.9524101  -0.38270167 -0.26589155
  0.          0.          0.6        -0.5862705  -9.98266   ]",1.5610288095909428,0,0
72,80,2024-09-18 22:37:00.473372160,TASK_BEGIN,10,0.039406841134727,0.3649907785070516,-2.9467885793086244,0.994204127064418,-0.5983371258165994,0.3538158136811029,-0.6989772252948567,1.2199383430206765,2,2024-09-18 22:36:59.001873047,1726699019.001874,2024-09-18 22:36:59.001873920,2,2,-8.643182123148552,-128.097907683244,[0. 0. 1. 0.],[0.44867337 0.34764026 0.00142875 0.20225762],"[ 0.01372949  0.9186268   0.7531097   0.9524101  -0.38270167 -0.26589155
  0.          0.          0.6        -0.5862705  -9.98266   ]",1.5610288095909428,0,0
73,81,2024-09-18 22:37:00.547854080,TASK_BEGIN,10,0.0230714710101147,0.3667199198455364,-3.1941393509717995,1.0229122485638025,-0.6010428692996114,0.3463103754109982,-0.5727919327275722,1.1737299375812629,2,2024-09-18 22:36:59.001873047,1726699019.001874,2024-09-18 22:36:59.001873920,2,2,-8.643182123148552,-128.097907683244,[0. 0. 1. 0.],[0.44867337 0.34764026 0.00142875 0.20225762],"[ 0.01372949  0.9186268   0.7531097   0.9524101  -0.38270167 -0.26589155
  0.          0.          0.6        -0.5862705  -9.98266   ]",1.5610288095909428,0,0
74,82,2024-09-18 22:37:00.607877888,TASK_BEGIN,10,0.0062712446772085,0.3703589854256042,-3.414596277154948,1.0444585379657063,-0.6015147433529988,0.3386327268994379,-0.4955173983572365,1.1349196113153748,2,2024-09-18 22:36:59.820883057,1726699019.8208838,2024-09-18 22:36:59.820883712,2,0,-0.21637089166847545,-84.46065522091766,[1. 0. 0. 0.],[4.25657078e-02 9.55461019e-01 3.76331990e-04 1.59694106e-03],"[  0.15687037   1.1755538    0.7516346    0.23403685  -0.7547873
  -0.2656672    0.           0.           0.6         -0.44312963
 -12.038076  ]",1.5153938370532367,0,0
75,83,2024-09-18 22:37:00.683209984,TASK_BEGIN,10,-0.0102462667901064,0.3757968953488053,-3.603874554416657,1.058503436922818,-0.599156226021303,0.3307266907888059,-0.4629814964791085,1.103358755520319,2,2024-09-18 22:36:59.880872070,1726699019.8808725,2024-09-18 22:36:59.880872448,2,0,-0.3748702985040495,-83.44634591504953,[1. 0. 0. 0.],[3.06210256e-02 9.68376155e-01 2.26656647e-04 7.76163209e-04],"[  0.16711433   1.1819451    0.75149727   0.18274012  -0.78135276
  -0.26565114   0.           0.           0.6         -0.43288568
 -12.089207  ]",1.5207786613849592,0,0
76,84,2024-09-18 22:37:01.622445056,TASK_BEGIN,10,-0.025679032828483,0.3828407398067738,-3.7586636301658607,1.0649990015924309,-0.5935984358471605,0.3225856850835256,-0.4681161666173477,1.078467327744379,2,2024-09-18 22:37:00.821093018,1726699020.8210938,2024-09-18 22:37:00.821093888,2,0,-2.749293610288248,-109.75713639729241,[1. 0. 0. 0.],[2.83621211e-04 9.99716346e-01 2.37371996e-08 9.49720248e-09],"[  0.33148655   1.0671453    0.74885803  -0.6376304   -1.2061828
  -0.26539508   0.           0.           0.6         -0.26851347
 -11.170809  ]",1.5654988146160573,0,0
77,85,2024-09-18 22:37:01.694057984,TASK_BEGIN,10,-0.0392972231893774,0.391233385916896,-3.876548965247408,1.064163940423878,-0.5846862765547597,0.3142425691815619,-0.502033804606783,1.0593673564161994,2,2024-09-18 22:37:00.879093018,1726699020.879093,2024-09-18 22:37:00.879092992,2,0,-2.8316611912910616,-113.16811315939604,[1. 0. 0. 0.],[2.15183994e-04 9.99784793e-01 1.75250245e-08 5.03650358e-09],"[  0.34179226   1.0463965    0.74867153  -0.68887734  -1.232721
  -0.2653792    0.           0.           0.6         -0.25820774
 -11.004818  ]",1.5657610896522698,0,0
78,86,2024-09-18 22:37:01.761896960,TASK_BEGIN,10,-0.0505622712723675,0.4006734664930459,-3.955685390254416,1.0563976395893293,-0.5724373545819197,0.3057495303155799,-0.5551345941011652,1.0450232067450356,2,2024-09-18 22:37:00.937092041,1726699020.9370928,2024-09-18 22:37:00.937092864,2,0,-2.906827676914304,-116.66432069054662,[1. 0. 0. 0.],[1.54111594e-04 9.99845875e-01 1.04805708e-08 2.55539605e-09],"[  0.35210213   1.02405      0.7484831   -0.740121    -1.2592577
  -0.26536316   0.           0.           0.6         -0.24789788
 -10.826046  ]",1.5658189457482687,0,0
79,87,2024-09-18 22:37:01.822844928,TASK_BEGIN,10,-0.0592007176500879,0.4108330300805282,-3.9946279464659793,1.042199328109749,-0.5569955082852626,0.2971546886162288,-0.6180811003038545,1.0343736512360129,2,2024-09-18 22:37:00.937092041,1726699020.9370928,2024-09-18 22:37:00.937092864,2,0,-2.906827676914304,-116.66432069054662,[1. 0. 0. 0.],[1.54111594e-04 9.99845875e-01 1.04805708e-08 2.55539605e-09],"[  0.35210213   1.02405      0.7484831   -0.740121    -1.2592577
  -0.26536316   0.           0.           0.6         -0.24789788
 -10.826046  ]",1.5658189457482687,0,0
80,88,2024-09-18 22:37:01.885426944,TASK_BEGIN,10,-0.0652111460162259,0.4213685312043418,-3.9926323664325465,1.0221488183942613,-0.5385920462287495,0.2884808500688035,-0.6826928521332299,1.026455809372432,2,2024-09-18 22:37:00.937092041,1726699020.9370928,2024-09-18 22:37:00.937092864,2,0,-2.906827676914304,-116.66432069054662,[1. 0. 0. 0.],[1.54111594e-04 9.99845875e-01 1.04805708e-08 2.55539605e-09],"[  0.35210213   1.02405      0.7484831   -0.740121    -1.2592577
  -0.26536316   0.           0.           0.6         -0.24789788
 -10.826046  ]",1.5658189457482687,0,0
81,89,2024-09-18 22:37:01.963077888,TASK_BEGIN,10,-0.0688139879515561,0.4319257433777895,-3.950290930649669,0.9969521021862108,-0.5175183250100426,0.2797111531615868,-0.7426440936086817,1.020498971175739,2,2024-09-18 22:37:00.937092041,1726699020.9370928,2024-09-18 22:37:00.937092864,2,0,-2.906827676914304,-116.66432069054662,[1. 0. 0. 0.],[1.54111594e-04 9.99845875e-01 1.04805708e-08 2.55539605e-09],"[  0.35210213   1.02405      0.7484831   -0.740121    -1.2592577
  -0.26536316   0.           0.           0.6         -0.24789788
 -10.826046  ]",1.5658189457482687,0,0
82,90,2024-09-18 22:37:02.025135104,TASK_BEGIN,10,-0.0703853256917646,0.4421451670817966,-3.870079133987432,0.9675144615540608,-0.4941079099573574,0.270785245726835,-0.7937063110657435,1.0159517027852398,2,2024-09-18 22:37:00.937092041,1726699020.9370928,2024-09-18 22:37:00.937092864,2,0,-2.906827676914304,-116.66432069054662,[1. 0. 0. 0.],[1.54111594e-04 9.99845875e-01 1.04805708e-08 2.55539605e-09],"[  0.35210213   1.02405      0.7484831   -0.740121    -1.2592577
  -0.26536316   0.           0.           0.6         -0.24789788
 -10.826046  ]",1.5658189457482687,0,0
83,91,2024-09-18 22:37:02.949707008,TASK_BEGIN,10,-0.0704056175476705,0.4516711334522435,-3.756558350261544,0.935002669390436,-0.4687241506341891,0.2616070100648062,-0.8335177784543227,1.0124407899057395,2,2024-09-18 22:37:01.960923828,1726699021.9609244,2024-09-18 22:37:01.960924416,2,0,-3.5875117012496958,-181.24356213964347,[1. 0. 0. 0.],[2.09488232e-03 9.97904882e-01 4.97787633e-09 2.31049222e-07],"[ 0.53321713  0.37415707  0.74504215 -1.6363254  -1.7233928  -0.2650852
  0.          0.          0.6        -0.06678288 -5.6269026 ]",1.568344260226749,0,0
84,92,2024-09-18 22:37:03.011856896,TASK_BEGIN,10,-0.0694162360002381,0.4601599318930827,-3.616300388780616,0.900877017731793,-0.441746484671787,0.2520608073121425,-0.8611207007452113,1.0097030320216551,2,2024-09-18 22:37:01.960923828,1726699021.9609244,2024-09-18 22:37:01.960924416,2,0,-3.5875117012496958,-181.24356213964347,[1. 0. 0. 0.],[2.09488232e-03 9.97904882e-01 4.97787633e-09 2.31049222e-07],"[ 0.53321713  0.37415707  0.74504215 -1.6363254  -1.7233928  -0.2650852
  0.          0.          0.6        -0.06678288 -5.6269026 ]",1.568344260226749,0,0
85,93,2024-09-18 22:37:03.074342144,TASK_BEGIN,10,-0.0679695863590144,0.4672835503146046,-3.457640071434948,0.866873410319783,-0.4135521194905179,0.2420311455869796,-0.8764299905726753,1.0075221036766595,2,2024-09-18 22:37:01.960923828,1726699021.9609244,2024-09-18 22:37:01.960924416,2,0,-3.5875117012496958,-181.24356213964347,[1. 0. 0. 0.],[2.09488232e-03 9.97904882e-01 4.97787633e-09 2.31049222e-07],"[ 0.53321713  0.37415707  0.74504215 -1.6363254  -1.7233928  -0.2650852
  0.          0.          0.6        -0.06678288 -5.6269026 ]",1.568344260226749,0,0
86,94,2024-09-18 22:37:03.151617792,TASK_BEGIN,10,-0.0665758124753539,0.4727320296802784,-3.290161694077037,0.8349041017510221,-0.3845078431665437,0.2314235585791246,-0.8796251918806335,1.0056658041338202,2,2024-09-18 22:37:01.960923828,1726699021.9609244,2024-09-18 22:37:01.960924416,2,0,-3.5875117012496958,-181.24356213964347,[1. 0. 0. 0.],[2.09488232e-03 9.97904882e-01 4.97787633e-09 2.31049222e-07],"[ 0.53321713  0.37415707  0.74504215 -1.6363254  -1.7233928  -0.2650852
  0.          0.          0.6        -0.06678288 -5.6269026 ]",1.568344260226749,0,0
87,95,2024-09-18 22:37:03.214105088,TASK_BEGIN,10,-0.0656467602768297,0.4762177160989285,-3.1238184632513835,0.8068772144285724,-0.3549922971275215,0.2201865641028533,-0.8705560618061506,1.00383207382873,2,2024-09-18 22:37:01.960923828,1726699021.9609244,2024-09-18 22:37:01.960924416,2,0,-3.5875117012496958,-181.24356213964347,[1. 0. 0. 0.],[2.09488232e-03 9.97904882e-01 4.97787633e-09 2.31049222e-07],"[ 0.53321713  0.37415707  0.74504215 -1.6363254  -1.7233928  -0.2650852
  0.          0.          0.6        -0.06678288 -5.6269026 ]",1.568344260226749,0,0
88,96,2024-09-18 22:37:03.278089984,TASK_BEGIN,10,-0.0654304981074825,0.4774816600226263,-2.9678857058447603,0.7845012030597313,-0.325435240351569,0.2083306462248618,-0.8484845624228448,1.001666205588711,2,2024-09-18 22:37:01.960923828,1726699021.9609244,2024-09-18 22:37:01.960924416,2,0,-3.5875117012496958,-181.24356213964347,[1. 0. 0. 0.],[2.09488232e-03 9.97904882e-01 4.97787633e-09 2.31049222e-07],"[ 0.53321713  0.37415707  0.74504215 -1.6363254  -1.7233928  -0.2650852
  0.          0.          0.6        -0.06678288 -5.6269026 ]",1.568344260226749,0,0
89,97,2024-09-18 22:37:03.353195776,TASK_BEGIN,10,-0.0659403453206005,0.4763011184279246,-2.8301037562794784,0.7691512542493957,-0.2963363830704672,0.1959373225645571,-0.8123778365372525,0.9988868769339516,2,2024-09-18 22:37:01.960923828,1726699021.9609244,2024-09-18 22:37:01.960924416,2,0,-3.5875117012496958,-181.24356213964347,[1. 0. 0. 0.],[2.09488232e-03 9.97904882e-01 4.97787633e-09 2.31049222e-07],"[ 0.53321713  0.37415707  0.74504215 -1.6363254  -1.7233928  -0.2650852
  0.          0.          0.6        -0.06678288 -5.6269026 ]",1.568344260226749,0,0
90,105,2024-09-18 22:37:05.650553088,TASK_BEGIN,10,-0.0278360847174438,0.3710846416981623,-2.6516679808435883,0.9255370128388666,-0.1638912433814413,0.1039228265123491,-0.1072035048882181,0.9812773426112354,2,2024-09-18 22:37:04.835851074,1726699024.8358517,2024-09-18 22:37:04.835851776,3,0,-2.6348050825659044,-45.85716835195377,[1. 0. 0. 0.],[0.46895996 0.18714522 0.14480893 0.1990859 ],"[ 9.0797739e-03  9.0005171e-01  6.4170107e-02 -5.6959951e-01
 -2.5429664e-02 -2.4149496e-02  0.0000000e+00  0.0000000e+00
  4.0000001e-01 -3.9092022e-01 -1.1049155e+01]",1.5124790085237207,0,0
91,106,2024-09-18 22:37:05.713537792,TASK_BEGIN,10,-0.0109605253008389,0.348135582768336,-2.710120373376178,0.9660842730596548,-0.1705220964105768,0.0970958627221628,-0.0067845901026091,0.9840451575417049,2,2024-09-18 22:37:04.923849121,1726699024.9238489,2024-09-18 22:37:04.923848960,3,0,-2.9440200523906697,-52.63403438229576,[1. 0. 0. 0.],[0.41871703 0.16386689 0.22139032 0.19602576],"[ 1.0364771e-02  8.7091935e-01  6.3391708e-02 -6.4856333e-01
 -3.0052891e-02 -4.4194035e-02  0.0000000e+00  0.0000000e+00
  4.0000001e-01 -3.8963524e-01 -1.0816096e+01]",1.5160221313305027,0,0
92,107,2024-09-18 22:37:05.775576064,TASK_BEGIN,10,0.0077090531550851,0.3241520499342555,-2.766872832948625,1.0051403269738606,-0.1833693561805231,0.0919187049756954,0.0828146788814998,0.9885521692257424,2,2024-09-18 22:37:04.923849121,1726699024.9238489,2024-09-18 22:37:04.923848960,3,0,-2.9440200523906697,-52.63403438229576,[1. 0. 0. 0.],[0.41871703 0.16386689 0.22139032 0.19602576],"[ 1.0364771e-02  8.7091935e-01  6.3391708e-02 -6.4856333e-01
 -3.0052891e-02 -4.4194035e-02  0.0000000e+00  0.0000000e+00
  4.0000001e-01 -3.8963524e-01 -1.0816096e+01]",1.5160221313305027,0,0
93,108,2024-09-18 22:37:05.852780032,TASK_BEGIN,10,0.0272265367141172,0.2996142615118273,-2.8132133197064007,1.0404162601135098,-0.2021330484218869,0.0884649190799602,0.1566625882829169,0.9949683020902834,2,2024-09-18 22:37:04.923849121,1726699024.9238489,2024-09-18 22:37:04.923848960,3,0,-2.9440200523906697,-52.63403438229576,[1. 0. 0. 0.],[0.41871703 0.16386689 0.22139032 0.19602576],"[ 1.0364771e-02  8.7091935e-01  6.3391708e-02 -6.4856333e-01
 -3.0052891e-02 -4.4194035e-02  0.0000000e+00  0.0000000e+00
  4.0000001e-01 -3.8963524e-01 -1.0816096e+01]",1.5160221313305027,0,0
94,109,2024-09-18 22:37:05.921910784,TASK_BEGIN,10,0.0465375288363201,0.2750423753501956,-2.840354891416853,1.0698037097320667,-0.2263217900669251,0.0867651887961177,0.2099885070925401,1.0034288726394622,2,2024-09-18 22:37:04.923849121,1726699024.9238489,2024-09-18 22:37:04.923848960,3,0,-2.9440200523906697,-52.63403438229576,[1. 0. 0. 0.],[0.41871703 0.16386689 0.22139032 0.19602576],"[ 1.0364771e-02  8.7091935e-01  6.3391708e-02 -6.4856333e-01
 -3.0052891e-02 -4.4194035e-02  0.0000000e+00  0.0000000e+00
  4.0000001e-01 -3.8963524e-01 -1.0816096e+01]",1.5160221313305027,0,0
95,110,2024-09-18 22:37:05.989778944,TASK_BEGIN,10,0.0645109203917818,0.2509877928207869,-2.8403839050534625,1.091572244798523,-0.2552996067048224,0.0868020707081513,0.2387558079653152,1.0139569539696007,2,2024-09-18 22:37:04.923849121,1726699024.9238489,2024-09-18 22:37:04.923848960,3,0,-2.9440200523906697,-52.63403438229576,[1. 0. 0. 0.],[0.41871703 0.16386689 0.22139032 0.19602576],"[ 1.0364771e-02  8.7091935e-01  6.3391708e-02 -6.4856333e-01
 -3.0052891e-02 -4.4194035e-02  0.0000000e+00  0.0000000e+00
  4.0000001e-01 -3.8963524e-01 -1.0816096e+01]",1.5160221313305027,0,0
96,111,2024-09-18 22:37:06.055109120,TASK_BEGIN,10,0.0799984212545267,0.2280122955096091,-2.80728539984281,1.104533783827573,-0.2883344643852032,0.088505971165951,0.2402206278382153,1.02639367205087,2,2024-09-18 22:37:04.923849121,1726699024.9238489,2024-09-18 22:37:04.923848960,3,0,-2.9440200523906697,-52.63403438229576,[1. 0. 0. 0.],[0.41871703 0.16386689 0.22139032 0.19602576],"[ 1.0364771e-02  8.7091935e-01  6.3391708e-02 -6.4856333e-01
 -3.0052891e-02 -4.4194035e-02  0.0000000e+00  0.0000000e+00
  4.0000001e-01 -3.8963524e-01 -1.0816096e+01]",1.5160221313305027,0,0
97,112,2024-09-18 22:37:06.996071168,TASK_BEGIN,10,0.0919279591946805,0.206661449613663,-2.737789777273413,1.1081308479450749,-0.3246317889006442,0.0917533134485201,0.213255082397384,1.040374537103736,2,2024-09-18 22:37:06.129890869,1726699026.1298916,2024-09-18 22:37:06.129891584,3,2,-11.530154763429028,-100.93757449346933,[0. 0. 1. 0.],[0.18553571 0.08517287 0.08739448 0.64189695],"[  0.05036092   1.045917     0.2304571    1.1315306   -0.10850134
  -0.06708439   0.           0.           0.4         -0.3496391
 -12.216078  ]",1.5569156617453677,0,0
98,113,2024-09-18 22:37:07.061642752,TASK_BEGIN,10,0.0994221330546546,0.1874347433516167,-2.631847049802028,1.1024403156733404,-0.3633538479971614,0.0963677757698862,0.1584379917339329,1.0553455656865904,2,2024-09-18 22:37:06.129890869,1726699026.1298916,2024-09-18 22:37:06.129891584,3,2,-11.530154763429028,-100.93757449346933,[0. 0. 1. 0.],[0.18553571 0.08517287 0.08739448 0.64189695],"[  0.05036092   1.045917     0.2304571    1.1315306   -0.10850134
  -0.06708439   0.           0.           0.4         -0.3496391
 -12.216078  ]",1.5569156617453677,0,0
99,114,2024-09-18 22:37:07.136292096,TASK_BEGIN,10,0.1019309695049335,0.1707503762920505,-2.4927568956072768,1.0881245522236385,-0.4036441246073388,0.1021266673231458,0.0780193989092913,1.0705937083709016,2,2024-09-18 22:37:06.129890869,1726699026.1298916,2024-09-18 22:37:06.129891584,3,2,-11.530154763429028,-100.93757449346933,[0. 0. 1. 0.],[0.18553571 0.08517287 0.08739448 0.64189695],"[  0.05036092   1.045917     0.2304571    1.1315306   -0.10850134
  -0.06708439   0.           0.           0.4         -0.3496391
 -12.216078  ]",1.5569156617453677,0,0
100,115,2024-09-18 22:37:07.195777792,TASK_BEGIN,10,0.0993468624366314,0.1569085454425383,-2.327062731093691,1.0663578869884844,-0.4446670389933255,0.1087734622753044,-0.0242431144407355,1.0852973503722192,2,2024-09-18 22:37:06.129890869,1726699026.1298916,2024-09-18 22:37:06.129891584,3,2,-11.530154763429028,-100.93757449346933,[0. 0. 1. 0.],[0.18553571 0.08517287 0.08739448 0.64189695],"[  0.05036092   1.045917     0.2304571    1.1315306   -0.10850134
  -0.06708439   0.           0.           0.4         -0.3496391
 -12.216078  ]",1.5569156617453677,0,0
101,116,2024-09-18 22:37:07.258265088,TASK_BEGIN,10,0.0920552453828762,0.1460648975417921,-2.144155480435136,1.038722844447979,-0.4856528839463481,0.1160343559639846,-0.1434573878521537,1.0986267296690195,2,2024-09-18 22:37:06.129890869,1726699026.1298916,2024-09-18 22:37:06.129891584,3,2,-11.530154763429028,-100.93757449346933,[0. 0. 1. 0.],[0.18553571 0.08517287 0.08739448 0.64189695],"[  0.05036092   1.045917     0.2304571    1.1315306   -0.10850134
  -0.06708439   0.           0.           0.4         -0.3496391
 -12.216078  ]",1.5569156617453677,0,0
102,117,2024-09-18 22:37:07.339777792,TASK_BEGIN,10,0.080904029049767,0.1382233543371359,-1.955488115610931,1.0070677572217162,-0.525928330492806,0.1236339841315602,-0.2741495272495806,1.109886194183758,2,2024-09-18 22:37:06.129890869,1726699026.1298916,2024-09-18 22:37:06.129891584,3,2,-11.530154763429028,-100.93757449346933,[0. 0. 1. 0.],[0.18553571 0.08517287 0.08739448 0.64189695],"[  0.05036092   1.045917     0.2304571    1.1315306   -0.10850134
  -0.06708439   0.           0.           0.4         -0.3496391
 -12.216078  ]",1.5569156617453677,0,0
103,118,2024-09-18 22:37:07.397120768,TASK_BEGIN,10,0.0671178974989416,0.1332468354243058,-1.7734603324429008,0.9733434305412708,-0.5649247345508377,0.1313069684562978,-0.4108422245355974,1.1186449741820828,2,2024-09-18 22:37:06.129890869,1726699026.1298916,2024-09-18 22:37:06.129891584,3,2,-11.530154763429028,-100.93757449346933,[0. 0. 1. 0.],[0.18553571 0.08517287 0.08739448 0.64189695],"[  0.05036092   1.045917     0.2304571    1.1315306   -0.10850134
  -0.06708439   0.           0.           0.4         -0.3496391
 -12.216078  ]",1.5569156617453677,0,0
104,119,2024-09-18 22:37:08.315152128,TASK_BEGIN,10,0.052191681788907,0.1308775330325191,-1.6101216451864877,0.9394365689433456,-0.6021721056914082,0.1388061318842054,-0.5485141771213842,1.1248095363939703,2,2024-09-18 22:37:07.501251952,1726699027.5012527,2024-09-18 22:37:07.501252608,3,0,-0.8809930314237562,-2.3409214239135316,[1. 0. 0. 0.],[0.22461578 0.61758241 0.1347838  0.02301801],"[  0.12400421   1.4260557    0.23040275  -0.07186525  -0.26614213
  -0.06707787   0.           0.           0.4         -0.2759958
 -15.257187  ]",1.4959328474769495,0,0
105,120,2024-09-18 22:37:08.391830784,TASK_BEGIN,10,0.0377795934890331,0.1307603409995872,-1.475859203989553,0.9069997176399572,-0.6372761016265645,0.1459091939242442,-0.6828810220125742,1.1286164027734489,2,2024-09-18 22:37:07.588572998,1726699027.5885732,2024-09-18 22:37:07.588573184,3,0,-1.5466406139507853,-6.2615316925664795,[1. 0. 0. 0.],[0.23465583 0.58389319 0.15936832 0.02208266],"[  0.12870598   1.4203274    0.2303977   -0.14867753  -0.27620387
  -0.06707747   0.           0.           0.4         -0.27129403
 -15.211361  ]",1.4992204358536583,0,0
106,121,2024-09-18 22:37:08.461818112,TASK_BEGIN,10,0.0255851687872689,0.1324672526381391,-1.3782984626428203,0.8772892298594104,-0.6698680807582388,0.1524250693920566,-0.81051515169478,1.130542053270889,2,2024-09-18 22:37:07.647312012,1726699027.647312,2024-09-18 22:37:07.647311872,3,0,-1.8608835963605515,-9.696611808797211,[1. 0. 0. 0.],[0.23977972 0.56216011 0.17680383 0.02125635],"[  0.13184054   1.414509     0.23039426  -0.19988571  -0.28291157
  -0.06707726   0.           0.           0.4         -0.26815945
 -15.164814  ]",1.502186813758131,0,0
107,122,2024-09-18 22:37:08.529640960,TASK_BEGIN,10,0.0172517593239553,0.1355224347951632,-1.3216576324835363,0.8510537768789538,-0.699555479582066,0.1582029674865858,-0.9288645345224216,1.131153463338983,2,2024-09-18 22:37:07.736313965,1726699027.7363143,2024-09-18 22:37:07.736314368,3,0,-2.177092537512408,-15.598051339396834,[1. 0. 0. 0.],[0.26489687 0.53509414 0.17772941 0.02227958],"[  0.13654272   1.4027822    0.23038892  -0.27669793  -0.29297316
  -0.06707691   0.           0.           0.4         -0.26345727
 -15.070999  ]",1.5079384965247968,0,0
108,123,2024-09-18 22:37:08.597458944,TASK_BEGIN,10,0.0142486442906765,0.1394296058304767,-1.3067178199490357,0.8285242419633239,-0.7259260856345324,0.1631464864411537,-1.0362175514470005,1.1309464141332193,2,2024-09-18 22:37:07.794311035,1726699027.7943115,2024-09-18 22:37:07.794311424,3,0,-2.3160872611619965,-19.83341501854579,[1. 0. 0. 0.],[0.27407168 0.53927812 0.16494428 0.02170592],"[  0.13967752   1.3929648    0.23038526  -0.32790604  -0.29968086
  -0.06707685   0.           0.           0.4         -0.26032248
 -14.99246   ]",1.5132957996527878,0,0
109,124,2024-09-18 22:37:08.665298176,TASK_BEGIN,10,0.0177444017137513,0.1437050242394057,-1.331428004787172,0.8095232494261433,-0.7486132694452455,0.1672269029684634,-1.1315835082501762,1.1302081784989542,2,2024-09-18 22:37:07.853339844,1726699027.85334,2024-09-18 22:37:07.853339904,3,0,-2.41744778561106,-24.20312717881499,[1. 0. 0. 0.],[0.26005073 0.560705   0.16140513 0.01783915],"[  0.14281242   1.3815477    0.23038152  -0.37911415  -0.30638853
  -0.06707664   0.           0.           0.4         -0.25718758
 -14.901123  ]",1.5175983627869338,0,0
110,125,2024-09-18 22:37:08.725200896,TASK_BEGIN,10,0.0284602024614012,0.1479169435038123,-1.39193675497228,0.7936551301086462,-0.7673674806683772,0.1704853278934184,-1.214433439080598,1.1289233850286924,2,2024-09-18 22:37:07.911341064,1726699027.9113414,2024-09-18 22:37:07.911341312,3,0,-2.4926593651319706,-28.64734091839977,[1. 0. 0. 0.],[0.24851489 0.57788937 0.15868196 0.01491378],"[  0.14594738   1.3685312    0.23037767  -0.4303223   -0.31309626
  -0.06707639   0.           0.           0.4         -0.2540526
 -14.796991  ]",1.5203056392530514,0,0
111,126,2024-09-18 22:37:09.664397824,TASK_BEGIN,10,0.0465131088134174,0.1517250710507066,-1.4836702648913125,0.7805016149485484,-0.782078590154443,0.173018892218743,-1.2843881042217244,1.1267532715357569,2,2024-09-18 22:37:08.842310791,1726699028.8423119,2024-09-18 22:37:08.842311936,3,0,-2.7809960850281072,-95.27856082342811,[1. 0. 0. 0.],[0.10475516 0.38787277 0.50401687 0.00335519],"[  0.19612019   0.94272244   0.23030573  -1.2496486   -0.42041504
  -0.0670725    0.           0.           0.4         -0.20387982
 -11.390521  ]",1.5398912773621611,0,0
112,127,2024-09-18 22:37:09.743546880,TASK_BEGIN,10,0.071297377767733,0.154906726089506,-1.6021499502653762,0.7697612577718552,-0.7927322195854524,0.1749536224468478,-1.3410759295121282,1.1231192118052844,2,2024-09-18 22:37:08.842310791,1726699028.8423119,2024-09-18 22:37:08.842311936,3,0,-2.7809960850281072,-95.27856082342811,[1. 0. 0. 0.],[0.10475516 0.38787277 0.50401687 0.00335519],"[  0.19612019   0.94272244   0.23030573  -1.2496486   -0.42041504
  -0.0670725    0.           0.           0.4         -0.20387982
 -11.390521  ]",1.5398912773621611,0,0
113,128,2024-09-18 22:37:09.806272000,TASK_BEGIN,10,0.1014748710222128,0.1573587805406992,-1.7434156281701794,0.7613039400836746,-0.799311462633036,0.1764099323311753,-1.384270712453264,1.1173754454027989,2,2024-09-18 22:37:09.016311768,1726699029.0163124,2024-09-18 22:37:09.016312320,3,0,-2.7925002397246885,-106.01819475114507,[1. 0. 0. 0.],[0.0388095  0.1538721  0.80517485 0.00214355],"[  0.20553064   0.817294     0.23028998  -1.4032718   -0.44053704
  -0.06707288   0.           0.           0.4         -0.19446936
 -10.387094  ]",1.5439574890364947,0,0
114,129,2024-09-18 22:37:09.866134784,TASK_BEGIN,10,0.135109170936363,0.1590765243409959,-1.903968000288668,0.7551379715152976,-0.8016757337833176,0.1774681952187912,-1.4141822531587942,1.109010672612302,2,2024-09-18 22:37:09.074311035,1726699029.0743115,2024-09-18 22:37:09.074311424,3,0,-2.7957367154858446,-109.47037415478898,[1. 0. 0. 0.],[0.02417262 0.10041236 0.87378704 0.00162798],"[  0.20866776   0.7722852    0.23028456  -1.4544793   -0.4472444
  -0.06707287   0.           0.           0.4         -0.19133225
 -10.027023  ]",1.5467151709527631,0,0
115,130,2024-09-18 22:37:09.946931968,TASK_BEGIN,10,0.1699049484757139,0.160120263758951,-2.080219224953632,0.7513113704804966,-0.7994707840221327,0.1781431848225322,-1.4316996197321892,1.09781267417989,2,2024-09-18 22:37:09.132338135,1726699029.132339,2024-09-18 22:37:09.132338944,3,0,-2.798765731557637,-112.8599826640667,[1. 0. 0. 0.],[0.01461943 0.06398734 0.92019581 0.00119741],"[ 0.21180487  0.725677    0.23027906 -1.505687   -0.45395166 -0.06707244
  0.          0.          0.4        -0.18819514 -9.654158  ]",1.5492803958736867,0,0
116,131,2024-09-18 22:37:10.006258944,TASK_BEGIN,10,0.2034793585683037,0.1605805582663078,-2.2676692952118493,0.7497879398379688,-0.79212492765092,0.1783750148012584,-1.4384422350034671,1.0839462212624535,2,2024-09-18 22:37:09.219341064,1726699029.219341,2024-09-18 22:37:09.219341056,3,0,-2.6407796271146537,-116.75449268296133,[1. 0. 0. 0.],[0.01027112 0.03422112 0.95423216 0.0012756 ],"[ 0.21630232  0.652938    0.21807876 -1.5780885  -0.45899063 -0.03359367
  0.          0.          0.4        -0.18369769 -9.072246  ]",1.5502810859278122,0,0
117,132,2024-09-18 22:37:10.069147136,TASK_BEGIN,10,0.2336126816718195,0.1605496951954274,-2.460191911235201,0.7503425314916757,-0.7789508790696298,0.1780392703857283,-1.4364948062722815,1.0679200772741242,2,2024-09-18 22:37:09.277316162,1726699029.2773168,2024-09-18 22:37:09.277316864,3,0,-2.6431286290441562,-119.68975630593346,[1. 0. 0. 0.],[0.00935157 0.02988042 0.95956476 0.00120325],"[ 0.21930075  0.60244536  0.21807736 -1.6292903  -0.46234998 -0.03359301
  0.          0.          0.4        -0.18069926 -8.668304  ]",1.552378840869827,0,0
118,133,2024-09-18 22:37:11.019899904,TASK_BEGIN,10,0.2584513761023629,0.160104633027622,-2.649791072020381,0.7525158738417281,-0.7593212548069433,0.1769722854085861,-1.4277968800528436,1.0504561177528404,2,2024-09-18 22:37:09.628338135,1726699029.6283386,2024-09-18 22:37:09.628338688,3,2,0.1539444141341278,-74.51309081891253,[0. 0. 1. 0.],[8.37743191e-02 9.00095524e-01 1.55959663e-02 5.34190107e-04],"[ 0.26831564  0.367862    0.8450337  -0.9343618  -0.49063987 -0.0816647
  0.          0.          0.4        -0.13168436 -6.791638  ]",1.5669060777057013,0,0
119,134,2024-09-18 22:37:11.081954048,TASK_BEGIN,10,0.2766462835776582,0.1593019559235723,-2.8269995240078445,0.7556497411963721,-0.7328529431137794,0.1750028070611428,-1.4133723644453289,1.032308588859652,2,2024-09-18 22:37:09.628338135,1726699029.6283386,2024-09-18 22:37:09.628338688,3,2,0.1539444141341278,-74.51309081891253,[0. 0. 1. 0.],[8.37743191e-02 9.00095524e-01 1.55959663e-02 5.34190107e-04],"[ 0.26831564  0.367862    0.8450337  -0.9343618  -0.49063987 -0.0816647
  0.          0.          0.4        -0.13168436 -6.791638  ]",1.5669060777057013,0,0
120,135,2024-09-18 22:37:11.160109056,TASK_BEGIN,10,0.2874240359189771,0.1581789957307606,-2.9817955553966904,0.7589855625379612,-0.6995475040465612,0.1719823116650681,-1.3926882240384564,1.0140933192130128,2,2024-09-18 22:37:09.628338135,1726699029.6283386,2024-09-18 22:37:09.628338688,3,2,0.1539444141341278,-74.51309081891253,[0. 0. 1. 0.],[8.37743191e-02 9.00095524e-01 1.55959663e-02 5.34190107e-04],"[ 0.26831564  0.367862    0.8450337  -0.9343618  -0.49063987 -0.0816647
  0.          0.          0.4        -0.13168436 -6.791638  ]",1.5669060777057013,0,0
121,136,2024-09-18 22:37:11.222262016,TASK_BEGIN,10,0.2906152860559387,0.1567530175177183,-3.104756930281301,0.7617910385528396,-0.6598838015048925,0.1678127031683284,-1.363407180962822,0.996175123797122,2,2024-09-18 22:37:09.657344971,1726699029.6573455,2024-09-18 22:37:09.657345536,3,2,-3.324180346742298,-77.0921402574657,[0. 0. 1. 0.],[9.08331901e-02 8.99666389e-01 8.97095188e-03 5.29469169e-04],"[ 0.27453542  0.3534912   0.90036243 -0.9214176  -0.494313   -0.07346293
  0.          0.          0.4        -0.12546459 -6.6766715 ]",1.566681484390363,0,0
122,137,2024-09-18 22:37:11.297004800,TASK_BEGIN,10,0.2866629406351263,0.1550155033651899,-3.1882202217195657,0.7634858026039871,-0.6148832369420836,0.1624724367745882,-1.321794270625431,0.9786497048697492,2,2024-09-18 22:37:10.068341064,1726699030.0683415,2024-09-18 22:37:10.068341504,3,0,-2.3900687994884606,-96.15081384908933,[1. 0. 0. 0.],[5.24140981e-02 8.95756803e-01 5.15346093e-02 2.94489833e-04],"[ 0.3616158   0.11031246  0.9003096  -1.2798791  -0.5457359  -0.07346022
  0.          0.          0.4        -0.03838418 -4.7312417 ]",1.5663741840564374,0,0
123,138,2024-09-18 22:37:11.361519104,TASK_BEGIN,10,0.276588419929712,0.1529283899095764,-3.22725450398249,0.7637349266952871,-0.566132849993765,0.156034969997193,-1.2639000009686112,0.9614458749839276,2,2024-09-18 22:37:10.068341064,1726699030.0683415,2024-09-18 22:37:10.068341504,3,0,-2.3900687994884606,-96.15081384908933,[1. 0. 0. 0.],[5.24140981e-02 8.95756803e-01 5.15346093e-02 2.94489833e-04],"[ 0.3616158   0.11031246  0.9003096  -1.2798791  -0.5457359  -0.07346022
  0.          0.          0.4        -0.03838418 -4.7312417 ]",1.5663741840564374,0,0
124,139,2024-09-18 22:37:11.432651008,TASK_BEGIN,10,0.2618653588686665,0.1504329663805406,-3.220280566258256,0.762479371678378,-0.5157276217612218,0.1486708689558729,-1.187227603824104,0.9445313705117112,2,2024-09-18 22:37:10.068341064,1726699030.0683415,2024-09-18 22:37:10.068341504,3,0,-2.3900687994884606,-96.15081384908933,[1. 0. 0. 0.],[5.24140981e-02 8.95756803e-01 5.15346093e-02 2.94489833e-04],"[ 0.3616158   0.11031246  0.9003096  -1.2798791  -0.5457359  -0.07346022
  0.          0.          0.4        -0.03838418 -4.7312417 ]",1.5663741840564374,0,0
125,140,2024-09-18 22:37:12.375933952,TASK_BEGIN,10,0.244197378272944,0.1474727603883782,-3.169289195401567,0.7599050501551804,-0.4661359249246924,0.1406345046588097,-1.0922178707183483,0.9281339144376364,2,2024-09-18 22:37:10.809717773,1726699030.8097184,2024-09-18 22:37:10.809718272,3,0,-8.440581491586471,-74.63436044347223,[1. 0. 0. 0.],[8.91463970e-07 2.00239274e-09 9.98248715e-01 1.75039182e-03],"[ 0.50745803 -0.49779963  0.5289908  -0.8051292  -0.27471286  4.435464
  1.          0.          0.4         0.10745805  0.13365507]",1.5151518592018363,1,1
126,147,2024-09-18 22:37:13.700575232,TASK_BEGIN,10,0.1404008557780318,0.1187075333678633,-2.2951006430668635,0.7503068112059355,-0.3519197412829775,0.0934418114475393,-0.5830920853541822,0.9072342154714907,2,2024-09-18 22:37:12.891519043,1726699032.8915193,2024-09-18 22:37:12.891519232,4,0,-2.718979869788683,-30.86551619544693,[1. 0. 0. 0.],[0.47703825 0.07938969 0.0364973  0.40707475],"[ -0.01351428   0.95533776  -0.11140643  -0.38689163   0.03808348
   0.04199328   0.           0.           0.6         -0.6135143
 -12.272689  ]",1.525360804517987,0,0
127,148,2024-09-18 22:37:13.756077056,TASK_BEGIN,10,0.1316456169295183,0.1159455979474207,-2.2130629759360456,0.7572430791420756,-0.3880035491676645,0.0912138250432057,-0.656013047981921,0.9293871076671172,2,2024-09-18 22:37:12.950484131,1726699032.9504843,2024-09-18 22:37:12.950484224,4,0,-2.7418188290007777,-35.69720894971316,[1. 0. 0. 0.],[0.46496319 0.07783249 0.03987627 0.41732805],"[ -0.01501989   0.942049    -0.11145935  -0.43811512   0.04228001
   0.04197109   0.           0.           0.6         -0.6150199
 -12.166379  ]",1.527379027282181,0,0
128,149,2024-09-18 22:37:13.833254144,TASK_BEGIN,10,0.1227480395804997,0.1143865805590223,-2.1570049584465902,0.7669424535059381,-0.4368803006017726,0.0904312500889289,-0.7833643499348228,0.9585131113443426,2,2024-09-18 22:37:13.037486084,1726699033.037486,2024-09-18 22:37:13.037486080,4,0,-2.7645011883114137,-42.82784275547339,[1. 0. 0. 0.],[0.43420022 0.07019455 0.0577691  0.43783613],"[ -0.01727986   0.91911507  -0.11153786  -0.5149519    0.04857076
   0.04193827   0.           0.           0.6         -0.6172799
 -11.982907  ]",1.5307415464731489,0,0
129,150,2024-09-18 22:37:13.895506176,TASK_BEGIN,10,0.113135362360915,0.1142162532984171,-2.1245530429941275,0.7789772666701698,-0.4964538122905187,0.0909939584101817,-0.9621262751460812,0.993617892485918,2,2024-09-18 22:37:13.066485840,1726699033.0664861,2024-09-18 22:37:13.066486016,4,0,-2.770053284842561,-45.169617612761215,[1. 0. 0. 0.],[0.42085263 0.06611171 0.06575757 0.4472781 ],"[ -0.01803358   0.9106703   -0.11156378  -0.5405646    0.05066657
   0.04192776   0.           0.           0.6         -0.6180336
 -11.915349  ]",1.5317416202351102,0,0
130,151,2024-09-18 22:37:13.972266240,TASK_BEGIN,10,0.1026705174740997,0.1154963169044762,-2.1109620090455623,0.7926363144139731,-0.5639611085518899,0.0927194095627151,-1.185298150606243,1.0332798787275888,2,2024-09-18 22:37:13.066485840,1726699033.0664861,2024-09-18 22:37:13.066486016,4,0,-2.770053284842561,-45.169617612761215,[1. 0. 0. 0.],[0.42085263 0.06611171 0.06575757 0.4472781 ],"[ -0.01803358   0.9106703   -0.11156378  -0.5405646    0.05066657
   0.04192776   0.           0.           0.6         -0.6180336
 -11.915349  ]",1.5317416202351102,0,0
131,152,2024-09-18 22:37:14.035144960,TASK_BEGIN,10,0.091733090007607,0.1181530187801879,-2.109793539898433,0.8069575477905316,-0.6361601798640102,0.0953568205884086,-1.4425034003135635,1.075783779638166,2,2024-09-18 22:37:13.066485840,1726699033.0664861,2024-09-18 22:37:13.066486016,4,0,-2.770053284842561,-45.169617612761215,[1. 0. 0. 0.],[0.42085263 0.06611171 0.06575757 0.4472781 ],"[ -0.01803358   0.9106703   -0.11156378  -0.5405646    0.05066657
   0.04192776   0.           0.           0.6         -0.6180336
 -11.915349  ]",1.5317416202351102,0,0
132,153,2024-09-18 22:37:14.097631744,TASK_BEGIN,10,0.0811825939124128,0.1219861109834263,-2.1135952390017407,0.8207853822256935,-0.7095619537436502,0.0986082083674938,-1.7209646394286608,1.1192704791076704,2,2024-09-18 22:37:13.066485840,1726699033.0664861,2024-09-18 22:37:13.066486016,4,0,-2.770053284842561,-45.169617612761215,[1. 0. 0. 0.],[0.42085263 0.06611171 0.06575757 0.4472781 ],"[ -0.01803358   0.9106703   -0.11156378  -0.5405646    0.05066657
   0.04192776   0.           0.           0.6         -0.6180336
 -11.915349  ]",1.5317416202351102,0,0
133,154,2024-09-18 22:37:15.050451968,TASK_BEGIN,10,0.0722378323672121,0.1266937590695388,-2.114563236699134,0.8328468495825326,-0.7806765845590194,0.1021554529961259,-2.006837331909361,1.1619131690219615,2,2024-09-18 22:37:13.746483154,1726699033.746483,2024-09-18 22:37:13.746483200,4,2,-9.508700874857016,-112.74566175904269,[0. 0. 1. 0.],[0.09046115 0.03436243 0.00770835 0.86746807],"[ -0.05785275   1.0234199   -0.39522454   1.1277828    0.08806834
   0.02707504   0.           0.           0.6         -0.65785277
 -12.817346  ]",1.5564231217781388,0,0
134,155,2024-09-18 22:37:15.116633856,TASK_BEGIN,10,0.0662931976522655,0.1319117298443481,-2.1052283530074263,0.8418449100271774,-0.8462521767179367,0.1056917856048658,-2.286717032212459,1.2021057831396356,2,2024-09-18 22:37:13.746483154,1726699033.746483,2024-09-18 22:37:13.746483200,4,2,-9.508700874857016,-112.74566175904269,[0. 0. 1. 0.],[0.09046115 0.03436243 0.00770835 0.86746807],"[ -0.05785275   1.0234199   -0.39522454   1.1277828    0.08806834
   0.02707504   0.           0.           0.6         -0.65785277
 -12.817346  ]",1.5564231217781388,0,0
135,156,2024-09-18 22:37:15.186151168,TASK_BEGIN,10,0.0646958408824563,0.1372622511128844,-2.079200480984305,0.8465728949177621,-0.9034947838058353,0.1089518706069739,-2.548896048782026,1.2385938662060485,2,2024-09-18 22:37:13.746483154,1726699033.746483,2024-09-18 22:37:13.746483200,4,2,-9.508700874857016,-112.74566175904269,[0. 0. 1. 0.],[0.09046115 0.03436243 0.00770835 0.86746807],"[ -0.05785275   1.0234199   -0.39522454   1.1277828    0.08806834
   0.02707504   0.           0.           0.6         -0.65785277
 -12.817346  ]",1.5564231217781388,0,0
136,157,2024-09-18 22:37:15.246011904,TASK_BEGIN,10,0.0685402044327339,0.142400395747552,-2.03191188554806,0.8460563850941866,-0.9502572519284948,0.1117332796574294,-2.783958122540444,1.2704809624191156,2,2024-09-18 22:37:13.746483154,1726699033.746483,2024-09-18 22:37:13.746483200,4,2,-9.508700874857016,-112.74566175904269,[0. 0. 1. 0.],[0.09046115 0.03436243 0.00770835 0.86746807],"[ -0.05785275   1.0234199   -0.39522454   1.1277828    0.08806834
   0.02707504   0.           0.           0.6         -0.65785277
 -12.817346  ]",1.5564231217781388,0,0
137,158,2024-09-18 22:37:15.318624000,TASK_BEGIN,10,0.0785335327178782,0.1470467243413731,-1.9612321817772056,0.8397124499108476,-0.9851717558369996,0.1139049741699108,-2.984646914739352,1.297118912141089,2,2024-09-18 22:37:13.746483154,1726699033.746483,2024-09-18 22:37:13.746483200,4,2,-9.508700874857016,-112.74566175904269,[0. 0. 1. 0.],[0.09046115 0.03436243 0.00770835 0.86746807],"[ -0.05785275   1.0234199   -0.39522454   1.1277828    0.08806834
   0.02707504   0.           0.           0.6         -0.65785277
 -12.817346  ]",1.5564231217781388,0,0
138,159,2024-09-18 22:37:15.381540096,TASK_BEGIN,10,0.0949429712538737,0.1510042416490334,-1.867808043417279,0.8274797292897835,-1.0077008437424455,0.1154023136623239,-3.1453567459063225,1.3179627024668086,2,2024-09-18 22:37:14.504482910,1726699034.5044832,2024-09-18 22:37:14.504483328,4,3,-0.5988801737574738,-47.51968796824241,[0. 0. 0. 1.],[0.1219509  0.02993236 0.20571808 0.64239866],"[ -0.10658431   1.3423514   -0.06996498   0.4478347   -0.3231356
  -0.732832     0.           0.           0.6         -0.70658433
 -15.368798  ]",1.5472519418640647,0,0
139,160,2024-09-18 22:37:15.443048192,TASK_BEGIN,10,0.1175922359629671,0.1541654916961107,-1.7550221919613591,0.8098681092352712,-1.0181054002889618,0.1162121407073147,-3.261720037667743,1.332477035651678,2,2024-09-18 22:37:14.504482910,1726699034.5044832,2024-09-18 22:37:14.504483328,4,3,-0.5988801737574738,-47.51968796824241,[0. 0. 0. 1.],[0.1219509  0.02993236 0.20571808 0.64239866],"[ -0.10658431   1.3423514   -0.06996498   0.4478347   -0.3231356
  -0.732832     0.           0.           0.6         -0.70658433
 -15.368798  ]",1.5472519418640647,0,0
140,161,2024-09-18 22:37:16.400605952,TASK_BEGIN,10,0.1458622284877378,0.1565158304149029,-1.6286005658694214,0.7879240694133717,-1.0173510013009022,0.1163543229817328,-3.330560073664542,1.3401347138288942,2,2024-09-18 22:37:15.536228027,1726699035.5362284,2024-09-18 22:37:15.536228352,4,3,-9.303115929564692,-172.29061287949148,[0. 0. 0. 1.],[6.77649396e-05 9.99932049e-01 1.84832973e-07 9.21209516e-10],"[ -0.13149063   1.3393562   -0.07512236  -0.5613053   -1.7236521
  -1.1676103    0.           0.           0.6         -0.7314906
 -15.344836  ]",1.5681393367949663,0,0
141,162,2024-09-18 22:37:16.468459008,TASK_BEGIN,10,0.1786852647653616,0.1581320697839213,-1.495954203730523,0.7631339132829839,-1.00697857864182,0.1158652119471489,-3.350215602121746,1.3405006085107825,2,2024-09-18 22:37:15.536228027,1726699035.5362284,2024-09-18 22:37:15.536228352,4,3,-9.303115929564692,-172.29061287949148,[0. 0. 0. 1.],[6.77649396e-05 9.99932049e-01 1.84832973e-07 9.21209516e-10],"[ -0.13149063   1.3393562   -0.07512236  -0.5613053   -1.7236521
  -1.1676103    0.           0.           0.6         -0.7314906
 -15.344836  ]",1.5681393367949663,0,0
142,163,2024-09-18 22:37:16.536263936,TASK_BEGIN,10,0.2145717177537872,0.1591694850000976,-1.3652975298973835,0.7372722802604675,-0.988961980392116,0.1147854659081699,-3.321108156992376,1.3333723109459126,2,2024-09-18 22:37:15.536228027,1726699035.5362284,2024-09-18 22:37:15.536228352,4,3,-9.303115929564692,-172.29061287949148,[0. 0. 0. 1.],[6.77649396e-05 9.99932049e-01 1.84832973e-07 9.21209516e-10],"[ -0.13149063   1.3393562   -0.07512236  -0.5613053   -1.7236521
  -1.1676103    0.           0.           0.6         -0.7314906
 -15.344836  ]",1.5681393367949663,0,0
143,164,2024-09-18 22:37:16.604077056,TASK_BEGIN,10,0.2517057520479803,0.159832745189937,-1.2446646119713816,0.7122179392714677,-0.9655666211930128,0.1131535848693891,-3.2463550516514843,1.3189353198568392,2,2024-09-18 22:37:15.536228027,1726699035.5362284,2024-09-18 22:37:15.536228352,4,3,-9.303115929564692,-172.29061287949148,[0. 0. 0. 1.],[6.77649396e-05 9.99932049e-01 1.84832973e-07 9.21209516e-10],"[ -0.13149063   1.3393562   -0.07512236  -0.5613053   -1.7236521
  -1.1676103    0.           0.           0.6         -0.7314906
 -15.344836  ]",1.5681393367949663,0,0
144,165,2024-09-18 22:37:16.657507840,TASK_BEGIN,10,0.2881047222051806,0.1603352734033365,-1.1410901143348289,0.6897958606458423,-0.9392052195072302,0.111006175498262,-3.1321531514289136,1.297875458767678,2,2024-09-18 22:37:15.536228027,1726699035.5362284,2024-09-18 22:37:15.536228352,4,3,-9.303115929564692,-172.29061287949148,[0. 0. 0. 1.],[6.77649396e-05 9.99932049e-01 1.84832973e-07 9.21209516e-10],"[ -0.13149063   1.3393562   -0.07512236  -0.5613053   -1.7236521
  -1.1676103    0.           0.           0.6         -0.7314906
 -15.344836  ]",1.5681393367949663,0,0
145,166,2024-09-18 22:37:16.734733824,TASK_BEGIN,10,0.3218067881873189,0.1608589143553016,-1.060162175080637,0.6716844656145495,-0.9122798165802666,0.1083832036815251,-2.987644668112261,1.2713933509098732,2,2024-09-18 22:37:15.536228027,1726699035.5362284,2024-09-18 22:37:15.536228352,4,3,-9.303115929564692,-172.29061287949148,[0. 0. 0. 1.],[6.77649396e-05 9.99932049e-01 1.84832973e-07 9.21209516e-10],"[ -0.13149063   1.3393562   -0.07512236  -0.5613053   -1.7236521
  -1.1676103    0.           0.           0.6         -0.7314906
 -15.344836  ]",1.5681393367949663,0,0
146,167,2024-09-18 22:37:16.807560960,TASK_BEGIN,10,0.3510439016937177,0.161526885107986,-1.0058883613399947,0.6593522426658764,-0.8870168093527236,0.1053332701404814,-2.8241643095744835,1.2411123874914232,2,2024-09-18 22:37:15.536228027,1726699035.5362284,2024-09-18 22:37:15.536228352,4,3,-9.303115929564692,-172.29061287949148,[0. 0. 0. 1.],[6.77649396e-05 9.99932049e-01 1.84832973e-07 9.21209516e-10],"[ -0.13149063   1.3393562   -0.07512236  -0.5613053   -1.7236521
  -1.1676103    0.           0.           0.6         -0.7314906
 -15.344836  ]",1.5681393367949663,0,0
147,168,2024-09-18 22:37:17.751568128,TASK_BEGIN,10,0.3743708943036742,0.1623950866174689,-0.980610627424196,0.6539525262748359,-0.8653135052045742,0.1019128349836829,-2.6540772548070324,1.2089280424439786,2,2024-09-18 22:37:16.181116943,1726699036.1811173,2024-09-18 22:37:16.181117184,4,0,-9.16306860827558,-324.84009476569884,[1. 0. 0. 0.],[6.30025530e-03 9.93691652e-01 3.87828665e-06 4.21472518e-06],"[ -0.13856713   1.0468552   -0.13013452  -1.1468157   -3.204131
  -1.3553159    0.           0.           0.6         -0.7385671
 -13.004828  ]",1.5682418213770686,0,0
148,169,2024-09-18 22:37:17.816384000,TASK_BEGIN,10,0.3907454596574358,0.1634548783691919,-0.9848007021939582,0.6561623515365491,-0.8486066780043877,0.0981750761718552,-2.489536039674685,1.1768461876982537,2,2024-09-18 22:37:16.239106934,1726699036.2391071,2024-09-18 22:37:16.239107072,4,0,-9.151538543221477,-336.592537092461,[1. 0. 0. 0.],[8.61839467e-03 9.91366888e-01 5.72727719e-06 8.99008399e-06],"[ -0.13901027   1.0096564   -0.12978084  -1.1945137   -3.3395026
  -1.3531979    0.           0.           0.6         -0.7390103
 -12.707238  ]",1.567612977173423,0,0
149,170,2024-09-18 22:37:17.877892096,TASK_BEGIN,10,0.3995592498936116,0.1646379693717732,-1.016869544194252,0.6660390313258409,-0.8377762740629786,0.0941505535807382,-2.3413452616330503,1.1468197397535371,2,2024-09-18 22:37:16.474104980,1726699036.4741056,2024-09-18 22:37:16.474105600,4,0,-9.146307499135446,-381.2267262031025,[1. 0. 0. 0.],[5.74032942e-02 9.42180994e-01 2.88191459e-05 3.86892504e-04],"[ -0.14116414   0.8432989   -0.12164295  -1.386633    -3.8788881
  -1.3448238    0.           0.           0.6         -0.74116415
 -11.376378  ]",1.5674429365319362,0,0
150,171,2024-09-18 22:37:17.940116992,TASK_BEGIN,10,0.400616746302075,0.165822853553044,-1.0732729211009828,0.6829898331107176,-0.833113429020376,0.0898298562733974,-2.218049643191434,1.1205896176052468,2,2024-09-18 22:37:16.474104980,1726699036.4741056,2024-09-18 22:37:16.474105600,4,0,-9.146307499135446,-381.2267262031025,[1. 0. 0. 0.],[5.74032942e-02 9.42180994e-01 2.88191459e-05 3.86892504e-04],"[ -0.14116414   0.8432989   -0.12164295  -1.386633    -3.8788881
  -1.3448238    0.           0.           0.6         -0.74116415
 -11.376378  ]",1.5674429365319362,0,0
151,172,2024-09-18 22:37:18.017377024,TASK_BEGIN,10,0.3940760960282167,0.1668471517256066,-1.1490280877160295,0.7058866098673594,-0.8343715019730193,0.0851592067370308,-2.1254264229553383,1.0995604772884942,2,2024-09-18 22:37:16.474104980,1726699036.4741056,2024-09-18 22:37:16.474105600,4,0,-9.146307499135446,-381.2267262031025,[1. 0. 0. 0.],[5.74032942e-02 9.42180994e-01 2.88191459e-05 3.86892504e-04],"[ -0.14116414   0.8432989   -0.12164295  -1.386633    -3.8788881
  -1.3448238    0.           0.           0.6         -0.74116415
 -11.376378  ]",1.5674429365319362,0,0
152,173,2024-09-18 22:37:18.078943232,TASK_BEGIN,10,0.380389076344435,0.1675245816053558,-1.2384786173475608,0.7332735220631225,-0.840881082217134,0.0800521871299932,-2.066458575934352,1.0847357978371035,2,2024-09-18 22:37:16.503104004,1726699036.5031042,2024-09-18 22:37:16.503104256,4,0,-9.149841107261182,-386.56430004833265,[1. 0. 0. 0.],[6.63494207e-02 9.33107333e-01 3.07137917e-05 5.12532069e-04],"[ -0.14150333   0.82055044  -0.11995143  -1.4109147   -3.9460769
  -1.3437879    0.           0.           0.6         -0.74150336
 -11.19439   ]",1.5673956435175322,0,0
153,174,2024-09-18 22:37:18.157516800,TASK_BEGIN,10,0.360272781669075,0.1676604809076875,-1.336031497716264,0.7635814797736173,-0.8516928403186312,0.0744129445560905,-2.0416088963845085,1.0767069941074483,2,2024-09-18 22:37:16.619105957,1726699036.6191063,2024-09-18 22:37:16.619106304,4,0,-9.171565829810675,-407.43648038414,[1. 0. 0. 0.],[1.11925767e-01 8.86673635e-01 3.37370456e-05 1.36686069e-03],"[ -0.14307444   0.72529674  -0.11200801  -1.5088936   -4.214316
  -1.3396678    0.           0.           0.6         -0.7430744
 -10.432361  ]",1.5672457981147228,0,0
154,175,2024-09-18 22:37:19.101924864,TASK_BEGIN,10,0.3347147426781884,0.1670642039197407,-1.4366897324937984,0.7952845835963314,-0.8657244285601017,0.0681636446861584,-2.0491472275408253,1.0756749015459128,2,2024-09-18 22:37:18.034589111,1726699038.0345898,2024-09-18 22:37:18.034589696,4,2,-23.49378734296845,-544.2251818551011,[0. 0. 1. 0.],[1.73575864e-01 4.60866116e-03 2.65719442e-10 8.21815474e-01],"[-0.34420574 -0.13396478  0.5808642  -0.7538583  -8.2106285  -1.6825755
  0.          0.          0.6        -0.94420576 -3.5582683 ]",1.5687906761015697,1,2
155,176,2024-09-18 22:37:19.162885120,TASK_BEGIN,10,0.3049840434530602,0.1655622388766977,-1.5363857912330554,0.8269845359564947,-0.8818915588818798,0.0612688083187991,-2.085457569708428,1.08148235430906,2,2024-09-18 22:37:18.034589111,1726699038.0345898,2024-09-18 22:37:18.034589696,4,2,-23.49378734296845,-544.2251818551011,[0. 0. 1. 0.],[1.73575864e-01 4.60866116e-03 2.65719442e-10 8.21815474e-01],"[-0.34420574 -0.13396478  0.5808642  -0.7538583  -8.2106285  -1.6825755
  0.          0.          0.6        -0.94420576 -3.5582683 ]",1.5687906761015697,1,2
156,177,2024-09-18 22:37:19.227369216,TASK_BEGIN,10,0.2726129118240371,0.1630145259504377,-1.632269786840237,0.8574644222256472,-0.8991994514880665,0.0537503444941697,-2.145432179991302,1.093647312450665,2,2024-09-18 22:37:18.034589111,1726699038.0345898,2024-09-18 22:37:18.034589696,4,2,-23.49378734296845,-544.2251818551011,[0. 0. 1. 0.],[1.73575864e-01 4.60866116e-03 2.65719442e-10 8.21815474e-01],"[-0.34420574 -0.13396478  0.5808642  -0.7538583  -8.2106285  -1.6825755
  0.          0.          0.6        -0.94420576 -3.5582683 ]",1.5687906761015697,1,2
157,178,2024-09-18 22:37:19.302922752,TASK_BEGIN,10,0.2393249634874523,0.1593331934828361,-1.7230756820162092,0.8857665492377278,-0.9167861943798038,0.0456906693213323,-2.2230365042630336,1.111398048520268,2,2024-09-18 22:37:18.034589111,1726699038.0345898,2024-09-18 22:37:18.034589696,4,2,-23.49378734296845,-544.2251818551011,[0. 0. 1. 0.],[1.73575864e-01 4.60866116e-03 2.65719442e-10 8.21815474e-01],"[-0.34420574 -0.13396478  0.5808642  -0.7538583  -8.2106285  -1.6825755
  0.          0.          0.6        -0.94420576 -3.5582683 ]",1.5687906761015697,1,2
158,179,2024-09-18 22:37:19.364033024,TASK_BEGIN,10,0.206909507670128,0.1545025690501998,-1.8094203807910705,0.911290844533229,-0.933932205938604,0.0372254797502327,-2.3119300853068627,1.133714828402547,2,2024-09-18 22:37:18.034589111,1726699038.0345898,2024-09-18 22:37:18.034589696,4,2,-23.49378734296845,-544.2251818551011,[0. 0. 1. 0.],[1.73575864e-01 4.60866116e-03 2.65719442e-10 8.21815474e-01],"[-0.34420574 -0.13396478  0.5808642  -0.7538583  -8.2106285  -1.6825755
  0.          0.          0.6        -0.94420576 -3.5582683 ]",1.5687906761015697,1,2
159,180,2024-09-18 22:37:19.426567168,TASK_BEGIN,10,0.1770654552485657,0.1485981336016926,-1.8936686251673032,0.9338416837912492,-0.950058852712545,0.0285307579071721,-2.4059193775926606,1.1593835262138648,2,2024-09-18 22:37:18.034589111,1726699038.0345898,2024-09-18 22:37:18.034589696,4,2,-23.49378734296845,-544.2251818551011,[0. 0. 1. 0.],[1.73575864e-01 4.60866116e-03 2.65719442e-10 8.21815474e-01],"[-0.34420574 -0.13396478  0.5808642  -0.7538583  -8.2106285  -1.6825755
  0.          0.          0.6        -0.94420576 -3.5582683 ]",1.5687906761015697,1,2
160,181,2024-09-18 22:37:19.503761920,TASK_BEGIN,10,0.1512548672151249,0.1417987275791273,-1.9791858624065524,0.953566646344122,-0.9647340347478028,0.0198090392115679,-2.499147412280651,1.1870629923802702,2,2024-09-18 22:37:18.034589111,1726699038.0345898,2024-09-18 22:37:18.034589696,4,2,-23.49378734296845,-544.2251818551011,[0. 0. 1. 0.],[1.73575864e-01 4.60866116e-03 2.65719442e-10 8.21815474e-01],"[-0.34420574 -0.13396478  0.5808642  -0.7538583  -8.2106285  -1.6825755
  0.          0.          0.6        -0.94420576 -3.5582683 ]",1.5687906761015697,1,2
161,188,2024-09-18 22:37:20.833197056,TASK_BEGIN,10,0.1354082301162088,0.1005317386535019,-2.785727651217082,1.0522033390320351,-1.0235067140407506,-0.0237886453277466,-2.7699461489147468,1.3265207321682082,2,2024-09-18 22:37:20.025862061,1726699040.0258625,2024-09-18 22:37:20.025862400,5,0,0.3540819899249996,0.9492839422273408,[1. 0. 0. 0.],[0.32523034 0.45745312 0.07744312 0.13987342],"[ 3.6768913e-03  1.0064270e+00  1.8146309e-01  4.9274493e-02
 -1.0499993e-02 -6.8945594e-02  0.0000000e+00  0.0000000e+00
  0.0000000e+00  3.6768913e-03 -1.0664213e+01]",1.4896296962053375,0,0
162,189,2024-09-18 22:37:21.767979008,TASK_BEGIN,10,0.1540771974874716,0.1007943127488268,-2.929035749978427,1.0669731363297978,-1.0284817759582054,-0.0252806102911479,-2.73322690981756,1.3269204928707434,2,2024-09-18 22:37:20.968256104,1726699040.9682567,2024-09-18 22:37:20.968256768,5,0,-2.9558751909440417,-66.15550879754336,[1. 0. 0. 0.],[0.19280333 0.30783569 0.47170893 0.02765205],"[ 0.04298131  0.81910014  0.18187101 -0.7745538  -0.1213301  -0.06852576
  0.          0.          0.          0.04298131 -9.165598  ]",1.5225465953698627,0,0
163,190,2024-09-18 22:37:21.830467072,TASK_BEGIN,10,0.1748971499567873,0.1037021458916964,-3.071875776575284,1.0826298248707649,-1.0333857259584545,-0.0252760235648596,-2.680797648507617,1.3214237360754726,2,2024-09-18 22:37:21.026269043,1726699041.02627,2024-09-18 22:37:21.026269952,5,0,-2.9641272552252786,-70.73373501406438,[1. 0. 0. 0.],[0.13645642 0.2405469  0.60303936 0.01995732],"[ 0.04543845  0.7937082   0.18186943 -0.8257625  -0.12818263 -0.06852542
  0.          0.          0.          0.04543845 -8.962462  ]",1.524936930722653,0,0
164,191,2024-09-18 22:37:21.912018176,TASK_BEGIN,10,0.1962988321604841,0.1094205009957136,-3.2088748640345166,1.0986031616371223,-1.0382197898619798,-0.0237960982176238,-2.616354253407508,1.3106318296627963,2,2024-09-18 22:37:21.113266846,1726699041.1132677,2024-09-18 22:37:21.113267712,5,0,-2.9740200439900377,-77.45684505403808,[1. 0. 0. 0.],[0.08212897 0.14522701 0.75758694 0.01505709],"[ 0.04912416  0.75262105  0.18186684 -0.90257555 -0.1384614  -0.06852491
  0.          0.          0.          0.04912416 -8.633765  ]",1.5281776063023123,0,0
165,192,2024-09-18 22:37:21.972322048,TASK_BEGIN,10,0.2167641166211236,0.1179737235146931,-3.333631233851101,1.1138774651907917,-1.0428274617050255,-0.0209159956841261,-2.5443845169523622,1.2955550742223467,2,2024-09-18 22:37:21.171471191,1726699041.1714716,2024-09-18 22:37:21.171471616,5,0,-2.979367522087756,-81.84187425337986,[1. 0. 0. 0.],[0.07236796 0.11415694 0.79923066 0.01424444],"[ 0.05158138  0.72323024  0.18186504 -0.9537842  -0.14531393 -0.06852458
  0.          0.          0.          0.05158138 -8.398639  ]",1.5298007938391394,0,0
166,193,2024-09-18 22:37:22.047655936,TASK_BEGIN,10,0.2349456440746616,0.1292290910253939,-3.4392497157856563,1.1271025732577182,-1.0469270165820888,-0.0167574431407127,-2.469663976044535,1.2774976691879285,2,2024-09-18 22:37:21.229593018,1726699041.2295938,2024-09-18 22:37:21.229593856,5,0,-2.983929123920106,-86.14907699664403,[1. 0. 0. 0.],[0.0671422  0.09636185 0.82242734 0.01406862],"[ 0.0540386   0.69223976  0.18186311 -1.004993   -0.15216638 -0.06852439
  0.          0.          0.          0.0540386  -8.150715  ]",1.5305468709096062,0,0
167,194,2024-09-18 22:37:22.115444736,TASK_BEGIN,10,0.2497484542773397,0.1428990791129761,-3.518939845395526,1.136768995613494,-1.050183871566056,-0.0114751472187081,-2.396777970925497,1.2579056095218613,2,2024-09-18 22:37:21.229593018,1726699041.2295938,2024-09-18 22:37:21.229593856,5,0,-2.983929123920106,-86.14907699664403,[1. 0. 0. 0.],[0.0671422  0.09636185 0.82242734 0.01406862],"[ 0.0540386   0.69223976  0.18186311 -1.004993   -0.15216638 -0.06852439
  0.          0.          0.          0.0540386  -8.150715  ]",1.5305468709096062,0,0
168,195,2024-09-18 22:37:22.174616320,TASK_BEGIN,10,0.2603780236382022,0.1585623317152954,-3.566575297207712,1.141397903560266,-1.0523093436152484,-0.0052378854127433,-2.3299334270270937,1.238244768481576,2,2024-09-18 22:37:21.229593018,1726699041.2295938,2024-09-18 22:37:21.229593856,5,0,-2.983929123920106,-86.14907699664403,[1. 0. 0. 0.],[0.0671422  0.09636185 0.82242734 0.01406862],"[ 0.0540386   0.69223976  0.18186311 -1.004993   -0.15216638 -0.06852439
  0.          0.          0.          0.0540386  -8.150715  ]",1.5305468709096062,0,0
169,196,2024-09-18 22:37:23.126481920,TASK_BEGIN,10,0.2663587598315164,0.1756963242523167,-3.577268929466895,1.139725584642729,-1.0531500627342378,0.0017919783768384,-2.273056883451736,1.2199336849089852,2,2024-09-18 22:37:22.285504150,1726699042.2855046,2024-09-18 22:37:22.285504512,5,0,-4.39654140355097,-95.31382886146663,[1. 0. 0. 0.],[1.43193998e-02 6.10540441e-05 7.67042154e-01 2.18577392e-01],"[ 0.08055449  0.11707544  0.09679211 -1.1263149   0.3471428   0.35016027
  0.          0.          0.          0.08055449 -3.5494003 ]",1.5547019694099187,0,0
170,197,2024-09-18 22:37:23.190540032,TASK_BEGIN,10,0.2675259820095714,0.1937121571061111,-3.547922183401488,1.1308601786118473,-1.0527344708584343,0.0094746517821539,-2.229953211775181,1.2043068362146667,2,2024-09-18 22:37:22.285504150,1726699042.2855046,2024-09-18 22:37:22.285504512,5,0,-4.39654140355097,-95.31382886146663,[1. 0. 0. 0.],[1.43193998e-02 6.10540441e-05 7.67042154e-01 2.18577392e-01],"[ 0.08055449  0.11707544  0.09679211 -1.1263149   0.3471428   0.35016027
  0.          0.          0.          0.08055449 -3.5494003 ]",1.5547019694099187,0,0
171,198,2024-09-18 22:37:23.253025024,TASK_BEGIN,10,0.2639984291113221,0.2119868406610985,-3.477620146848164,1.114378247339415,-1.0512720128796722,0.0176998937339513,-2.204287152501441,1.1925699687724245,2,2024-09-18 22:37:22.285504150,1726699042.2855046,2024-09-18 22:37:22.285504512,5,0,-4.39654140355097,-95.31382886146663,[1. 0. 0. 0.],[1.43193998e-02 6.10540441e-05 7.67042154e-01 2.18577392e-01],"[ 0.08055449  0.11707544  0.09679211 -1.1263149   0.3471428   0.35016027
  0.          0.          0.          0.08055449 -3.5494003 ]",1.5547019694099187,0,0
172,199,2024-09-18 22:37:23.315511040,TASK_BEGIN,10,0.2561405057146376,0.2298953278524548,-3.367878750724562,1.090359482452762,-1.0491236470719083,0.0263840909877721,-2.1993148660767243,1.1857359184011655,2,2024-09-18 22:37:22.521545898,1726699042.521546,2024-09-18 22:37:22.521545984,5,2,4.029585656484056,-53.23787786322999,[0. 0. 1. 0.],[1.08789638e-02 2.26188163e-05 6.02496399e-03 9.83073453e-01],"[ 0.07585207  0.01815045 -0.29231766 -0.5254091   0.4963026   0.39870694
  0.          0.          0.          0.07585207 -2.7580004 ]",1.564216760435712,0,0
173,200,2024-09-18 22:37:23.393212160,TASK_BEGIN,10,0.2445176090901083,0.2468446052268522,-3.2228821635090283,1.0593998197406491,-1.0467561039319124,0.035460095164248,-2.217511855842792,1.1845703567103287,2,2024-09-18 22:37:22.579576904,1726699042.579578,2024-09-18 22:37:22.579577856,5,2,-2.841302042791585,-57.264691518902424,[0. 0. 1. 0.],[8.07694009e-03 1.97879371e-05 2.67985986e-03 9.89223412e-01],"[ 0.07143044  0.00283086 -0.3638113  -0.49069133  0.5362167   0.39862758
  0.          0.          0.          0.07143044 -2.6354437 ]",1.5646009400518224,1,2
174,201,2024-09-18 22:37:23.454813952,TASK_BEGIN,10,0.2298470797406743,0.262305476390226,-3.0497632674291038,1.022641536238775,-1.0446856587186433,0.0448638829193944,-2.26026436190715,1.189571226311214,2,2024-09-18 22:37:22.579576904,1726699042.579578,2024-09-18 22:37:22.579577856,5,2,-2.841302042791585,-57.264691518902424,[0. 0. 1. 0.],[8.07694009e-03 1.97879371e-05 2.67985986e-03 9.89223412e-01],"[ 0.07143044  0.00283086 -0.3638113  -0.49069133  0.5362167   0.39862758
  0.          0.          0.          0.07143044 -2.6354437 ]",1.5646009400518224,1,2
175,202,2024-09-18 22:37:23.533006848,TASK_BEGIN,10,0.2129482121701873,0.2758360354763824,-2.858695529595539,0.9817964172533068,-1.0434357900312692,0.0545230321940484,-2.3275740496463984,1.200954049590223,2,2024-09-18 22:37:22.579576904,1726699042.579578,2024-09-18 22:37:22.579577856,5,2,-2.841302042791585,-57.264691518902424,[0. 0. 1. 0.],[8.07694009e-03 1.97879371e-05 2.67985986e-03 9.89223412e-01],"[ 0.07143044  0.00283086 -0.3638113  -0.49069133  0.5362167   0.39862758
  0.          0.          0.          0.07143044 -2.6354437 ]",1.5646009400518224,1,2
176,203,2024-09-18 22:37:24.451561984,TASK_BEGIN,10,0.1946894116430649,0.2870971562744392,-2.6623762238734536,0.9390726097543752,-1.043535469532026,0.0643497114041892,-2.417666501205092,1.218608935120089,2,2024-09-18 22:37:22.876792969,1726699042.8767936,2024-09-18 22:37:22.876793600,5,0,-1.4814915342049062,-109.09459492737743,[1. 0. 0. 0.],[8.54613411e-04 8.12914196e-07 2.55692495e-06 9.99142017e-01],"[ 0.01874566 -0.02775121 -1.0345473  -0.08009707  0.7370006   0.40658635
  0.          0.          0.          0.01874566 -2.3907871 ]",1.5582897457771847,1,2
177,204,2024-09-18 22:37:24.506126080,TASK_BEGIN,10,0.1759404874216537,0.2958619314545369,-2.474707693693635,0.8969469523000696,-1.0455398497545476,0.074235080050372,-2.5266379328805506,1.2420485942760917,2,2024-09-18 22:37:22.934789795,1726699042.9347908,2024-09-18 22:37:22.934790912,5,0,-1.6065270056920156,-110.05890007793155,[1. 0. 0. 0.],[9.59010125e-04 1.18382468e-06 1.72315137e-06 9.99038083e-01],"[ 0.00468047 -0.03103679 -1.0342317  -0.13152738  0.7776548   0.40652904
  0.          0.          0.          0.00468047 -2.3645024 ]",1.5569983215002674,1,2
178,205,2024-09-18 22:37:24.587232256,TASK_BEGIN,10,0.157547498354725,0.3020173346996977,-2.30891964978076,0.8578349594906383,-1.050016614971717,0.0840409836450554,-2.6483964676734835,1.2703859900883747,2,2024-09-18 22:37:23.021791016,1726699043.021791,2024-09-18 22:37:23.021790976,5,0,-3.1977949370071883,-115.19012963685502,[1. 0. 0. 0.],[1.10571660e-03 1.96041908e-06 1.01605154e-06 9.98891307e-01],"[-0.01643077 -0.0389449  -1.0337328  -0.20865627  0.83862543  0.40644306
  0.          0.          0.         -0.01643077 -2.3012376 ]",1.5553808037321155,1,2
179,206,2024-09-18 22:37:24.652244992,TASK_BEGIN,10,0.140314484549363,0.3055599528799282,-2.175656205873992,0.8237775274138102,-1.057464605000641,0.0935907834900079,-2.774977348077624,1.3023526470229296,2,2024-09-18 22:37:23.781860107,1726699043.78186,2024-09-18 22:37:23.781860096,5,2,-20.71341279009646,-337.12080291372536,[0. 0. 1. 0.],[1.25449392e-06 1.15984815e-09 1.91661794e-10 9.99998744e-01],"[-0.3231565  -0.13531482 -3.1808517   0.00609657  1.0488616   0.08796344
  0.          0.          0.         -0.3231565  -1.5302783 ]",1.5373374067249543,1,2
180,207,2024-09-18 22:37:24.715220992,TASK_BEGIN,10,0.124948070513622,0.3065931634603857,-2.0816040254352237,0.7962410072881334,-1.0681873100776953,0.1026644792963009,-2.8971596283210217,1.3363592672808222,2,2024-09-18 22:37:23.781860107,1726699043.78186,2024-09-18 22:37:23.781860096,5,2,-20.71341279009646,-337.12080291372536,[0. 0. 1. 0.],[1.25449392e-06 1.15984815e-09 1.91661794e-10 9.99998744e-01],"[-0.3231565  -0.13531482 -3.1808517   0.00609657  1.0488616   0.08796344
  0.          0.          0.         -0.3231565  -1.5302783 ]",1.5373374067249543,1,2
181,208,2024-09-18 22:37:24.777575936,TASK_BEGIN,10,0.111964541618128,0.3053273344411428,-2.02898282173785,0.7760561912097618,-1.0821689586761505,0.1109993831726031,-3.005268492234669,1.3705968895851202,2,2024-09-18 22:37:23.781860107,1726699043.78186,2024-09-18 22:37:23.781860096,5,2,-20.71341279009646,-337.12080291372536,[0. 0. 1. 0.],[1.25449392e-06 1.15984815e-09 1.91661794e-10 9.99998744e-01],"[-0.3231565  -0.13531482 -3.1808517   0.00609657  1.0488616   0.08796344
  0.          0.          0.         -0.3231565  -1.5302783 ]",1.5373374067249543,1,2
182,209,2024-09-18 22:37:24.858513152,TASK_BEGIN,10,0.1016184457982393,0.3020749918757384,-2.0157878878419973,0.7634530407075977,-1.098985883266322,0.1182938067831673,-3.08995884487693,1.4031475618397613,2,2024-09-18 22:37:23.781860107,1726699043.78186,2024-09-18 22:37:23.781860096,5,2,-20.71341279009646,-337.12080291372536,[0. 0. 1. 0.],[1.25449392e-06 1.15984815e-09 1.91661794e-10 9.99998744e-01],"[-0.3231565  -0.13531482 -3.1808517   0.00609657  1.0488616   0.08796344
  0.          0.          0.         -0.3231565  -1.5302783 ]",1.5373374067249543,1,2
183,210,2024-09-18 22:37:25.794948864,TASK_BEGIN,10,0.0939034603690251,0.2972329369060327,-2.036494753070169,0.7581280357576785,-1.1177682847441612,0.1242131238061844,-3.1427725509921487,1.4320603832705363,2,2024-09-18 22:37:24.423822021,1726699044.4238226,2024-09-18 22:37:24.423822592,5,0,-14.024514127312614,-598.6511042918847,[1. 0. 0. 0.],[4.26110662e-02 4.46634190e-06 7.15497673e-11 9.57384467e-01],"[-0.9252277  -0.07374859 -4.035227   -0.0781814   3.2312908   2.2268076
  0.          0.          0.         -0.9252277  -2.022808  ]",1.513664856309893,1,2
184,211,2024-09-18 22:37:25.868494848,TASK_BEGIN,10,0.0886212288438622,0.2912514736477061,-2.083016995463081,0.7593115804261097,-1.13722556684789,0.1284010837748296,-3.156461386101642,1.4553858680389684,2,2024-09-18 22:37:24.423822021,1726699044.4238226,2024-09-18 22:37:24.423822592,5,0,-14.024514127312614,-598.6511042918847,[1. 0. 0. 0.],[4.26110662e-02 4.46634190e-06 7.15497673e-11 9.57384467e-01],"[-0.9252277  -0.07374859 -4.035227   -0.0781814   3.2312908   2.2268076
  0.          0.          0.         -0.9252277  -2.022808  ]",1.513664856309893,1,2
185,212,2024-09-18 22:37:25.934650880,TASK_BEGIN,10,0.0854701349887854,0.2845989699388856,-2.145795729471613,0.7658448766872175,-1.1557440341155771,0.1304992222105781,-3.1252118777583107,1.4712054588865258,2,2024-09-18 22:37:24.423822021,1726699044.4238226,2024-09-18 22:37:24.423822592,5,0,-14.024514127312614,-598.6511042918847,[1. 0. 0. 0.],[4.26110662e-02 4.46634190e-06 7.15497673e-11 9.57384467e-01],"[-0.9252277  -0.07374859 -4.035227   -0.0781814   3.2312908   2.2268076
  0.          0.          0.         -0.9252277  -2.022808  ]",1.513664856309893,1,2
186,213,2024-09-18 22:37:26.004114944,TASK_BEGIN,10,0.0841008577626211,0.2777316928033631,-2.214974675512738,0.7762958680079816,-1.1715446852867395,0.1301740336491969,-3.0448255721238087,1.477690481756675,2,2024-09-18 22:37:24.423822021,1726699044.4238226,2024-09-18 22:37:24.423822592,5,0,-14.024514127312614,-598.6511042918847,[1. 0. 0. 0.],[4.26110662e-02 4.46634190e-06 7.15497673e-11 9.57384467e-01],"[-0.9252277  -0.07374859 -4.035227   -0.0781814   3.2312908   2.2268076
  0.          0.          0.         -0.9252277  -2.022808  ]",1.513664856309893,1,2
187,214,2024-09-18 22:37:26.059179008,TASK_BEGIN,10,0.0841227358373251,0.2710732543405252,-2.281591472672786,0.7891240548537114,-1.1828675351118183,0.1271477748105609,-2.912873842871067,1.473201464507658,2,2024-09-18 22:37:24.481844971,1726699044.481845,2024-09-18 22:37:24.481844992,5,0,-14.160989535487829,-614.8517481518913,[1. 0. 0. 0.],[8.04244355e-02 8.91452506e-06 2.26881980e-11 9.19566650e-01],"[-0.98349303 -0.07775629 -4.036827   -0.11958106  3.452959    2.2174568
  0.          0.          0.         -0.98349303 -1.9907466 ]",1.512246186831981,1,2
188,217,2024-09-18 22:37:27.148847104,TASK_BEGIN,10,0.0877114033172769,0.2558670371303952,-2.408603816515128,0.8287548951160805,-1.1761973111470705,0.1004908698242285,-2.215909950320784,1.383409745999802,2,2024-09-18 22:37:26.360899902,1726699046.3609004,2024-09-18 22:37:26.360900352,6,0,-2.6509902412426527,-20.830611704434546,[1. 0. 0. 0.],[0.47517459 0.14015946 0.05928231 0.32538364],"[-5.1805177e-03  9.7548723e-01 -7.6823607e-02 -2.9079685e-01
  1.4720560e-02  2.9080858e-02  0.0000000e+00  0.0000000e+00
  4.0000001e-01 -4.0518051e-01 -1.0214538e+01]",1.510299276820196,0,0
189,218,2024-09-18 22:37:27.210840832,TASK_BEGIN,10,0.0882190713918012,0.2532785269183671,-2.421620460798369,0.8399217755474718,-1.1580202156950916,0.0858979614416264,-1.8987842859464312,1.3274937956125203,2,2024-09-18 22:37:26.418899902,1726699046.4189,2024-09-18 22:37:26.418899968,6,0,-2.676459371686221,-25.731120429134467,[1. 0. 0. 0.],[0.48106733 0.14262589 0.05710351 0.31920327],"[-6.2185130e-03  9.6519995e-01 -7.6861404e-02 -3.4201509e-01
  1.7626489e-02  2.9064525e-02  0.0000000e+00  0.0000000e+00
  4.0000001e-01 -4.0621850e-01 -1.0132239e+01]",1.5120462837564026,0,0
190,219,2024-09-18 22:37:27.285811968,TASK_BEGIN,10,0.0874685080651676,0.2522175521252106,-2.4250997819619338,0.8502298037213085,-1.1320337076408884,0.0688702573265065,-1.5532848657211027,1.2600345046887638,2,2024-09-18 22:37:26.476900146,1726699046.4769,2024-09-18 22:37:26.476900096,6,0,-2.6927681638533727,-30.570435298011123,[1. 0. 0. 0.],[0.46139771 0.13884357 0.07217412 0.3275846 ],"[-7.2570643e-03  9.5331228e-01 -7.6898918e-02 -3.9323416e-01
  2.0530853e-02  2.9048365e-02  0.0000000e+00  0.0000000e+00
  4.0000001e-01 -4.0725705e-01 -1.0037138e+01]",1.5136974376573336,0,0
191,220,2024-09-18 22:37:27.350983936,TASK_BEGIN,10,0.0850275540694698,0.2527527029613424,-2.426114614404403,0.8605913493900668,-1.0992183765398038,0.0498625830553286,-1.1906482845217323,1.182874085520738,2,2024-09-18 22:37:26.535898926,1726699046.5358994,2024-09-18 22:37:26.535899392,6,0,-2.7037975894465944,-35.3376577907547,[1. 0. 0. 0.],[0.43357278 0.1230332  0.08826729 0.35512673],"[-8.2960920e-03  9.3982399e-01 -7.6936156e-02 -4.4445401e-01
  2.3433570e-02  2.9032428e-02  0.0000000e+00  0.0000000e+00
  4.0000001e-01 -4.0829608e-01 -9.9292316e+00]",1.5158898575042197,0,0
192,221,2024-09-18 22:37:27.421387008,TASK_BEGIN,10,0.0805614853306125,0.2548844314885584,-2.433055116388113,0.8722243595878513,-1.061097095918321,0.0294480066884046,-0.8229353322691426,1.098320075531659,2,2024-09-18 22:37:26.622899902,1726699046.6229,2024-09-18 22:37:26.622899968,6,0,-2.714657301558134,-42.3413307266886,[1. 0. 0. 0.],[0.39186157 0.10193582 0.12810026 0.37810235],"[-0.00985567  0.9165906  -0.07699145 -0.521285    0.02778473  0.02900871
  0.          0.          0.4        -0.40985566 -9.743364  ]",1.5199105748100337,0,0
193,222,2024-09-18 22:37:27.489242880,TASK_BEGIN,10,0.0738110621105591,0.2585522457361168,-2.454101850285607,0.8863589274320984,-1.0196226901959875,0.0082926981563476,-0.4621723115850968,1.0089621783743916,2,2024-09-18 22:37:26.680898926,1726699046.6808991,2024-09-18 22:37:26.680899072,6,0,-2.719604267404236,-46.90848680680263,[1. 0. 0. 0.],[0.36158198 0.08979773 0.16495552 0.38366477],"[-0.01089605  0.8991009  -0.07702794 -0.57250667  0.03068362  0.02899356
  0.          0.          0.4        -0.41089603 -9.603447  ]",1.5228173537495677,0,0
194,223,2024-09-18 22:37:27.557001984,TASK_BEGIN,10,0.064586401699864,0.2636407485723305,-2.495596531416445,0.903927999487512,-0.9770098910171268,-0.0128814925105414,-0.1196015318446605,0.917506655887931,2,2024-09-18 22:37:26.768549805,1726699046.7685506,2024-09-18 22:37:26.768550656,6,0,-2.7249818517169757,-53.603867972574875,[1. 0. 0. 0.],[0.31126457 0.07225887 0.23481325 0.38166331],"[-0.01245761  0.86986554 -0.07708205 -0.6493405   0.03502932  0.02897338
  0.          0.          0.4        -0.41245762 -9.369564  ]",1.5278506407490937,0,0
195,224,2024-09-18 22:37:28.497474048,TASK_BEGIN,10,0.0527912348355683,0.2699810486270345,-2.5605232677888243,0.9252940400722288,-0.9355434725266044,-0.0333454322107547,0.1949260841763637,0.8266444939428549,2,2024-09-18 22:37:27.585995850,1726699047.5859964,2024-09-18 22:37:27.585996288,6,1,-7.080912293642919,-156.45032291034647,[0. 1. 0. 0.],[1.33389809e-03 1.59712159e-07 4.62797673e-04 9.98203145e-01],"[-0.04746882  0.41767848 -0.37085927 -1.4155267   0.49037006  0.73806095
  0.          0.          0.4        -0.44746882 -5.7520676 ]",1.5675893289436593,1,2
196,225,2024-09-18 22:37:28.568058112,TASK_BEGIN,10,0.0384564963932398,0.2773497107131672,-2.647390285627516,0.9500516382778018,-0.8973891795713081,-0.0524166563747577,0.4733556197769688,0.7389621693172159,2,2024-09-18 22:37:27.585995850,1726699047.5859964,2024-09-18 22:37:27.585996288,6,1,-7.080912293642919,-156.45032291034647,[0. 1. 0. 0.],[1.33389809e-03 1.59712159e-07 4.62797673e-04 9.98203145e-01],"[-0.04746882  0.41767848 -0.37085927 -1.4155267   0.49037006  0.73806095
  0.          0.          0.4        -0.44746882 -5.7520676 ]",1.5675893289436593,1,2
197,226,2024-09-18 22:37:28.631205120,TASK_BEGIN,10,0.0217612683808244,0.2854701403161925,-2.7500118962576647,0.9769669785024148,-0.8644240563702575,-0.0695101509636143,0.7094796906974417,0.6569056980360346,2,2024-09-18 22:37:27.585995850,1726699047.5859964,2024-09-18 22:37:27.585996288,6,1,-7.080912293642919,-156.45032291034647,[0. 1. 0. 0.],[1.33389809e-03 1.59712159e-07 4.62797673e-04 9.98203145e-01],"[-0.04746882  0.41767848 -0.37085927 -1.4155267   0.49037006  0.73806095
  0.          0.          0.4        -0.44746882 -5.7520676 ]",1.5675893289436593,1,2
198,227,2024-09-18 22:37:28.693750016,TASK_BEGIN,10,0.0030301535231731,0.2940223804131052,-2.8585530112671425,1.0041198141214889,-0.8381071447015584,-0.0841767445347628,0.8986253947750942,0.5827759813371859,2,2024-09-18 22:37:27.585995850,1726699047.5859964,2024-09-18 22:37:27.585996288,6,1,-7.080912293642919,-156.45032291034647,[0. 1. 0. 0.],[1.33389809e-03 1.59712159e-07 4.62797673e-04 9.98203145e-01],"[-0.04746882  0.41767848 -0.37085927 -1.4155267   0.49037006  0.73806095
  0.          0.          0.4        -0.44746882 -5.7520676 ]",1.5675893289436593,1,2
199,228,2024-09-18 22:37:28.756237056,TASK_BEGIN,10,-0.0173073479334404,0.3026669692810821,-2.961575173872549,1.0292366327574085,-0.8194120061619846,-0.096122962572381,1.0372045406664208,0.5187051834167519,2,2024-09-18 22:37:27.585995850,1726699047.5859964,2024-09-18 22:37:27.585996288,6,1,-7.080912293642919,-156.45032291034647,[0. 1. 0. 0.],[1.33389809e-03 1.59712159e-07 4.62797673e-04 9.98203145e-01],"[-0.04746882  0.41767848 -0.37085927 -1.4155267   0.49037006  0.73806095
  0.          0.          0.4        -0.44746882 -5.7520676 ]",1.5675893289436593,1,2
200,229,2024-09-18 22:37:28.839334912,TASK_BEGIN,10,-0.038793760628623,0.3110809337237296,-3.048303093930091,1.0500995994938986,-0.8088204998818493,-0.1052115387849656,1.122365040395677,0.4665909700680536,2,2024-09-18 22:37:27.585995850,1726699047.5859964,2024-09-18 22:37:27.585996288,6,1,-7.080912293642919,-156.45032291034647,[0. 1. 0. 0.],[1.33389809e-03 1.59712159e-07 4.62797673e-04 9.98203145e-01],"[-0.04746882  0.41767848 -0.37085927 -1.4155267   0.49037006  0.73806095
  0.          0.          0.4        -0.44746882 -5.7520676 ]",1.5675893289436593,1,2
201,230,2024-09-18 22:37:28.895886080,TASK_BEGIN,10,-0.0610101187535739,0.3189922954533452,-3.1103977934444096,1.0648962060110925,-0.8063481557719919,-0.1114479860845845,1.1518290637637318,0.4280029338243772,2,2024-09-18 22:37:27.585995850,1726699047.5859964,2024-09-18 22:37:27.585996288,6,1,-7.080912293642919,-156.45032291034647,[0. 1. 0. 0.],[1.33389809e-03 1.59712159e-07 4.62797673e-04 9.98203145e-01],"[-0.04746882  0.41767848 -0.37085927 -1.4155267   0.49037006  0.73806095
  0.          0.          0.4        -0.44746882 -5.7520676 ]",1.5675893289436593,1,2
202,231,2024-09-18 22:37:29.839791872,TASK_BEGIN,10,-0.0835789360556918,0.326197915396972,-3.1429715380369587,1.0724461534265737,-0.8115674746387018,-0.114961517976072,1.123912084289131,0.4040842450626359,2,2024-09-18 22:37:28.642031981,1726699048.6420329,2024-09-18 22:37:28.642032896,6,2,-25.805207831364715,-563.992827672319,[0. 0. 1. 0.],[9.17535101e-01 7.23267474e-02 1.01314896e-02 6.66151376e-06],"[-0.38593075 -0.33576232 -2.6512833  -1.2580274   3.752378    4.1148314
  0.          0.          0.4        -0.78593075  0.27545863]",1.538740208197845,1,2
203,232,2024-09-18 22:37:29.916656896,TASK_BEGIN,10,-0.106111198463198,0.3325615078121556,-3.144948620819824,1.0723177032062965,-0.8236198643659213,-0.1159853236937694,1.0376994864585651,0.3954739275695205,2,2024-09-18 22:37:28.642031981,1726699048.6420329,2024-09-18 22:37:28.642032896,6,2,-25.805207831364715,-563.992827672319,[0. 0. 1. 0.],[9.17535101e-01 7.23267474e-02 1.01314896e-02 6.66151376e-06],"[-0.38593075 -0.33576232 -2.6512833  -1.2580274   3.752378    4.1148314
  0.          0.          0.4        -0.78593075  0.27545863]",1.538740208197845,1,2
204,233,2024-09-18 22:37:29.982355968,TASK_BEGIN,10,-0.1281535212155388,0.3380001846922053,-3.118971629115751,1.0648648237723033,-0.8412312411292024,-0.1148368924993576,0.893360950833993,0.4022694843608884,2,2024-09-18 22:37:28.642031981,1726699048.6420329,2024-09-18 22:37:28.642032896,6,2,-25.805207831364715,-563.992827672319,[0. 0. 1. 0.],[9.17535101e-01 7.23267474e-02 1.01314896e-02 6.66151376e-06],"[-0.38593075 -0.33576232 -2.6512833  -1.2580274   3.752378    4.1148314
  0.          0.          0.4        -0.78593075  0.27545863]",1.538740208197845,1,2
205,234,2024-09-18 22:37:30.054407936,TASK_BEGIN,10,-0.1491746481418354,0.3424694189671524,-3.070937891239335,1.051184709983803,-0.862750567269061,-0.1118990203406438,0.6925666255278532,0.4240253930207387,2,2024-09-18 22:37:28.642031981,1726699048.6420329,2024-09-18 22:37:28.642032896,6,2,-25.805207831364715,-563.992827672319,[0. 0. 1. 0.],[9.17535101e-01 7.23267474e-02 1.01314896e-02 6.66151376e-06],"[-0.38593075 -0.33576232 -2.6512833  -1.2580274   3.752378    4.1148314
  0.          0.          0.4        -0.78593075  0.27545863]",1.538740208197845,1,2
206,235,2024-09-18 22:37:30.122178048,TASK_BEGIN,10,-0.1685961804744347,0.3459527833118048,-3.0091193160941705,1.0329686058858565,-0.8862244055632617,-0.1076029909149624,0.4389097139184401,0.4597694243941895,2,2024-09-18 22:37:28.642031981,1726699048.6420329,2024-09-18 22:37:28.642032896,6,2,-25.805207831364715,-563.992827672319,[0. 0. 1. 0.],[9.17535101e-01 7.23267474e-02 1.01314896e-02 6.66151376e-06],"[-0.38593075 -0.33576232 -2.6512833  -1.2580274   3.752378    4.1148314
  0.          0.          0.4        -0.78593075  0.27545863]",1.538740208197845,1,2
207,236,2024-09-18 22:37:30.189999104,TASK_BEGIN,10,-0.1858593280531857,0.3484594184090802,-2.9428927192945458,1.012249800148729,-0.9095139576458624,-0.1024136261711784,0.1382260137725462,0.5080319231262919,2,2024-09-18 22:37:28.642031981,1726699048.6420329,2024-09-18 22:37:28.642032896,6,2,-25.805207831364715,-563.992827672319,[0. 0. 1. 0.],[9.17535101e-01 7.23267474e-02 1.01314896e-02 6.66151376e-06],"[-0.38593075 -0.33576232 -2.6512833  -1.2580274   3.752378    4.1148314
  0.          0.          0.4        -0.78593075  0.27545863]",1.538740208197845,1,2
208,237,2024-09-18 22:37:30.257391872,TASK_BEGIN,10,-0.2005064521607245,0.3500277738453502,-2.881336201026295,0.9911108184325544,-0.9304466653394976,-0.0968147345296841,-0.2012486171620596,0.5669000780707878,2,2024-09-18 22:37:28.875997070,1726699048.8759975,2024-09-18 22:37:28.875997440,6,0,-95.58439662608555,-647.522929941924,[1. 0. 0. 0.],[2.55815106e-05 1.45963815e-05 3.15240370e-18 9.99959822e-01],"[-0.5373009  -0.4380389  -2.6187723  -0.09351217  4.334233   -0.11942128
  1.          0.          0.4        -0.9373009   1.0936711 ]",1.5298640631269682,1,2
209,240,2024-09-18 22:37:31.307596800,TASK_BEGIN,10,-0.2264586005256089,0.3499275866940566,-2.7895110386289144,0.942037653940626,-0.960111539346808,-0.0823885011714706,-1.3381090489633032,0.7833369482909541,2,2024-09-18 22:37:30.513550049,1726699050.5135508,2024-09-18 22:37:30.513550848,7,0,-2.5640509567580594,-4.621655444002657,[1. 0. 0. 0.],[0.42684175 0.1348266  0.0978822  0.34044945],"[-1.0374387e-03  9.9621308e-01 -5.1303793e-02 -1.6861682e-01
  3.0576515e-03  1.9495094e-02  0.0000000e+00  0.0000000e+00
  0.0000000e+00 -1.0374387e-03 -1.1898042e+01]",1.4957622307750824,0,0
210,241,2024-09-18 22:37:31.379461888,TASK_BEGIN,10,-0.2288989769992146,0.3486347550800707,-2.799890973645,0.9340044502959106,-0.954372458920469,-0.0798710599949781,-1.7113129260449955,0.85985184170788,2,2024-09-18 22:37:30.571572998,1726699050.5715735,2024-09-18 22:37:30.571573504,7,0,-2.617671314056757,-9.718474985076131,[1. 0. 0. 0.],[0.4088456  0.11641102 0.11218481 0.36255857],"[-1.7305216e-03  9.8974323e-01 -5.1329542e-02 -2.1984264e-01
  5.0057555e-03  1.9484397e-02  0.0000000e+00  0.0000000e+00
  0.0000000e+00 -1.7305216e-03 -1.1846283e+01]",1.496285596663649,0,0
211,242,2024-09-18 22:37:31.447252992,TASK_BEGIN,10,-0.2282367851545561,0.34686760275304,-2.8299195856488244,0.9307419495779587,-0.9397075714996124,-0.0791142073252487,-2.0569760087030438,0.933680245099344,2,2024-09-18 22:37:30.571572998,1726699050.5715735,2024-09-18 22:37:30.571573504,7,0,-2.617671314056757,-9.718474985076131,[1. 0. 0. 0.],[0.4088456  0.11641102 0.11218481 0.36255857],"[-1.7305216e-03  9.8974323e-01 -5.1329542e-02 -2.1984264e-01
  5.0057555e-03  1.9484397e-02  0.0000000e+00  0.0000000e+00
  0.0000000e+00 -1.7305216e-03 -1.1846283e+01]",1.496285596663649,0,0
212,243,2024-09-18 22:37:31.513352960,TASK_BEGIN,10,-0.2245024997202782,0.3447005244829806,-2.8756909890815665,0.9318781542830114,-0.916324017313354,-0.0803263350830791,-2.3596036571380203,1.0016621658631095,2,2024-09-18 22:37:30.722656982,1726699050.7226574,2024-09-18 22:37:30.722657536,7,0,-2.6633727923384285,-22.230842950855337,[1. 0. 0. 0.],[0.39879219 0.11085006 0.13896819 0.35138957],"[-3.4648578e-03  9.6656656e-01 -5.1393509e-02 -3.4788296e-01
  9.8710563e-03  1.9456360e-02  0.0000000e+00  0.0000000e+00
