,Unnamed: 0,time,MARKER,pid,L_O_DSI,L_D_DSI,L_O_DSphi,L_D_DSphi,R_O_DSI,R_D_DSI,R_O_DSphi,R_D_DSphi,trial_id,dateTimestamps,floatTimestamps,timestamps,episode,actions,rewards,discounted_rewards,chosen_actions,optimal_actions,desired_goal,states,continuous_optimal,binary_optimal,discrete_optimal
1,1,2024-09-19 21:12:32.336040960,TASK_BEGIN,11,0.6301249914353343,-0.1326442895064415,-2.5533282972066305,0.409117848969817,0.8198414902265654,-0.0384676114447796,2.339577045412901,0.6160310316183886,1,2024-09-19 21:12:35.137559814,1726780355.1375606,2024-09-19 21:12:35.137560576,0,[-0.59504277  0.16592547 -0.678311    0.7033393 ],-1.0,-4.90099501,[-0.59504277  0.16592547 -0.678311    0.7033393 ],[-0.59504277  0.16592547 -0.678311    0.7033393 ],[1.23645581 0.66381899 0.42469975],"[ 1.22865163e+00  8.77818751e-01  4.52680615e-01  1.20541314e+00
  8.95263327e-01  4.24779403e-01 -2.32384907e-02  1.74445766e-02
 -2.79012126e-02  5.00451304e-02  5.00451292e-02 -5.47721601e-09
  8.42648616e-09 -2.16653880e-15  1.38654438e-02 -1.82506356e-03
  1.64237634e-02  3.07185104e-09 -4.72592467e-09  2.52644323e-18
 -1.38654439e-02  1.82506348e-03 -1.64208974e-02 -1.69742465e-06
 -1.72463199e-06]",1.6488937139511108,0,0
2,2,2024-09-19 21:12:32.398525952,TASK_BEGIN,11,0.6077680521461448,-0.0935636797216276,-2.2705268349087726,0.4421538887084026,1.176504001500431,-0.0822793723091886,3.606788925009113,0.3349677963288113,1,2024-09-19 21:12:35.137559814,1726780355.1375606,2024-09-19 21:12:35.137560576,0,[-0.59504277  0.16592547 -0.678311    0.7033393 ],-1.0,-4.90099501,[-0.59504277  0.16592547 -0.678311    0.7033393 ],[-0.59504277  0.16592547 -0.678311    0.7033393 ],[1.23645581 0.66381899 0.42469975],"[ 1.22865163e+00  8.77818751e-01  4.52680615e-01  1.20541314e+00
  8.95263327e-01  4.24779403e-01 -2.32384907e-02  1.74445766e-02
 -2.79012126e-02  5.00451304e-02  5.00451292e-02 -5.47721601e-09
  8.42648616e-09 -2.16653880e-15  1.38654438e-02 -1.82506356e-03
  1.64237634e-02  3.07185104e-09 -4.72592467e-09  2.52644323e-18
 -1.38654439e-02  1.82506348e-03 -1.64208974e-02 -1.69742465e-06
 -1.72463199e-06]",1.6488937139511108,0,0
3,3,2024-09-19 21:12:32.461011968,TASK_BEGIN,11,0.586806195494157,-0.0561912654589128,-2.003536547669301,0.4750624245739809,1.509284864791905,-0.1231565737147942,4.791875686566672,0.0715470133551611,1,2024-09-19 21:12:35.137559814,1726780355.1375606,2024-09-19 21:12:35.137560576,0,[-0.59504277  0.16592547 -0.678311    0.7033393 ],-1.0,-4.90099501,[-0.59504277  0.16592547 -0.678311    0.7033393 ],[-0.59504277  0.16592547 -0.678311    0.7033393 ],[1.23645581 0.66381899 0.42469975],"[ 1.22865163e+00  8.77818751e-01  4.52680615e-01  1.20541314e+00
  8.95263327e-01  4.24779403e-01 -2.32384907e-02  1.74445766e-02
 -2.79012126e-02  5.00451304e-02  5.00451292e-02 -5.47721601e-09
  8.42648616e-09 -2.16653880e-15  1.38654438e-02 -1.82506356e-03
  1.64237634e-02  3.07185104e-09 -4.72592467e-09  2.52644323e-18
 -1.38654439e-02  1.82506348e-03 -1.64208974e-02 -1.69742465e-06
 -1.72463199e-06]",1.6488937139511108,0,0
4,4,2024-09-19 21:12:32.539055104,TASK_BEGIN,11,0.5679076766938905,-0.0212220263833888,-1.7573294837650484,0.5077630918405768,1.8082684561766984,-0.159858411017341,5.859984312993259,-0.1673624311575853,1,2024-09-19 21:12:35.137559814,1726780355.1375606,2024-09-19 21:12:35.137560576,0,[-0.59504277  0.16592547 -0.678311    0.7033393 ],-1.0,-4.90099501,[-0.59504277  0.16592547 -0.678311    0.7033393 ],[-0.59504277  0.16592547 -0.678311    0.7033393 ],[1.23645581 0.66381899 0.42469975],"[ 1.22865163e+00  8.77818751e-01  4.52680615e-01  1.20541314e+00
  8.95263327e-01  4.24779403e-01 -2.32384907e-02  1.74445766e-02
 -2.79012126e-02  5.00451304e-02  5.00451292e-02 -5.47721601e-09
  8.42648616e-09 -2.16653880e-15  1.38654438e-02 -1.82506356e-03
  1.64237634e-02  3.07185104e-09 -4.72592467e-09  2.52644323e-18
 -1.38654439e-02  1.82506348e-03 -1.64208974e-02 -1.69742465e-06
 -1.72463199e-06]",1.6488937139511108,0,0
5,5,2024-09-19 21:12:32.606775808,TASK_BEGIN,11,0.5516401847865178,0.0107850552733885,-1.534667227585789,0.540172203301596,2.065916366997945,-0.1913844549548612,6.786277190398097,-0.3769873929019453,1,2024-09-19 21:12:35.137559814,1726780355.1375606,2024-09-19 21:12:35.137560576,0,[-0.59504277  0.16592547 -0.678311    0.7033393 ],-1.0,-4.90099501,[-0.59504277  0.16592547 -0.678311    0.7033393 ],[-0.59504277  0.16592547 -0.678311    0.7033393 ],[1.23645581 0.66381899 0.42469975],"[ 1.22865163e+00  8.77818751e-01  4.52680615e-01  1.20541314e+00
  8.95263327e-01  4.24779403e-01 -2.32384907e-02  1.74445766e-02
 -2.79012126e-02  5.00451304e-02  5.00451292e-02 -5.47721601e-09
  8.42648616e-09 -2.16653880e-15  1.38654438e-02 -1.82506356e-03
  1.64237634e-02  3.07185104e-09 -4.72592467e-09  2.52644323e-18
 -1.38654439e-02  1.82506348e-03 -1.64208974e-02 -1.69742465e-06
 -1.72463199e-06]",1.6488937139511108,0,0
6,6,2024-09-19 21:12:32.669228032,TASK_BEGIN,11,0.5384728935028553,0.0394284814393915,-1.336149608843791,0.5721155209641196,2.277371805338208,-0.2170138783832689,7.5567592718183985,-0.5545919533056278,1,2024-09-19 21:12:35.137559814,1726780355.1375606,2024-09-19 21:12:35.137560576,0,[-0.59504277  0.16592547 -0.678311    0.7033393 ],-1.0,-4.90099501,[-0.59504277  0.16592547 -0.678311    0.7033393 ],[-0.59504277  0.16592547 -0.678311    0.7033393 ],[1.23645581 0.66381899 0.42469975],"[ 1.22865163e+00  8.77818751e-01  4.52680615e-01  1.20541314e+00
  8.95263327e-01  4.24779403e-01 -2.32384907e-02  1.74445766e-02
 -2.79012126e-02  5.00451304e-02  5.00451292e-02 -5.47721601e-09
  8.42648616e-09 -2.16653880e-15  1.38654438e-02 -1.82506356e-03
  1.64237634e-02  3.07185104e-09 -4.72592467e-09  2.52644323e-18
 -1.38654439e-02  1.82506348e-03 -1.64208974e-02 -1.69742465e-06
 -1.72463199e-06]",1.6488937139511108,0,0
7,7,2024-09-19 21:12:33.619308032,TASK_BEGIN,11,0.5287895170165923,0.0644794879259372,-1.1606561079439408,0.6032627399881973,2.4405326935159706,-0.236320893534487,8.168061422140768,-0.6992635487905171,1,2024-09-19 21:12:35.679692871,1726780355.6796935,2024-09-19 21:12:35.679693568,0,[ 0.54940486 -0.99977124 -0.04009387 -0.17976728],-1.0,-9.561792499119552,[ 0.54940486 -0.99977124 -0.04009387 -0.17976728],[ 0.54940486 -0.99977124 -0.04009387 -0.17976728],[1.23645581 0.66381899 0.42469975],"[ 1.20977055e+00  7.21915637e-01  4.37274141e-01  1.20161032e+00
  7.27529308e-01  4.24992057e-01 -8.16023369e-03  5.61367046e-03
 -1.22820835e-02  2.92075996e-02  1.88895021e-02 -7.36123113e-04
  1.07854150e-03  1.11952353e-02  1.23219935e-04 -1.62936515e-03
  6.97902695e-04  6.27448952e-03  2.35762675e-04  7.28660612e-03
  1.35233558e-02 -2.36876168e-02 -9.85609534e-04 -1.35335555e-03
  1.47348212e-03]",1.0054616928100586,0,0
8,8,2024-09-19 21:12:33.683060736,TASK_BEGIN,11,0.5228993534634846,0.0858857237006889,-1.0059640855516454,0.6331101997238935,2.5559381229211176,-0.2491768651665397,8.626332224176949,-0.8116694266504503,1,2024-09-19 21:12:35.785691895,1726780355.7856922,2024-09-19 21:12:35.785692160,0,[ 0.41461787 -0.81035185 -0.02604354  0.06462671],-0.0,-9.466174574128356,[ 0.41461787 -0.81035185 -0.02604354  0.06462671],[ 0.41461787 -0.81035185 -0.02604354  0.06462671],[1.23645581 0.66381899 0.42469975],"[ 1.22350495e+00  6.94388972e-01  4.36327134e-01  1.21438809e+00
  7.01525393e-01  4.25526655e-01 -9.11685796e-03  7.13642081e-03
 -1.08004789e-02  4.20055600e-02  3.31415517e-02  4.99853463e-03
 -6.08895746e-03 -8.24060644e-02  1.84747257e-03 -2.31046165e-03
  1.05049472e-03 -1.39465578e-02 -4.41281003e-02 -9.17574957e-02
  9.20975321e-03 -1.86180299e-02 -6.67350379e-04  2.22214050e-02
  2.38353837e-02]",0.8926781415939331,0,0
9,9,2024-09-19 21:12:33.756231936,TASK_BEGIN,11,0.5210117020427646,0.103762638348496,-0.8693291753293639,0.6610135652653246,2.6264763805094917,-0.2557384150041792,8.945340052432396,-0.8937708908264169,1,2024-09-19 21:12:35.996728027,1726780355.9967284,2024-09-19 21:12:35.996728320,0,[-0.03724696 -0.05772136 -0.02211842 -0.08250453],-0.0,-9.277797700103202,[-0.03724696 -0.05772136 -0.02211842 -0.08250453],[-0.03724696 -0.05772136 -0.02211842 -0.08250453],[1.23645581 0.66381899 0.42469975],"[ 1.22207675e+00  6.89540394e-01  4.34751850e-01  1.22749232e+00
  6.80963998e-01  4.24812783e-01  5.41556971e-03 -8.57639624e-03
 -9.93906605e-03  3.76241452e-02  4.50859543e-02 -5.86591613e-03
 -6.34024334e-03 -2.40453754e-01  3.27081876e-03 -5.18855092e-04
 -1.87378443e-03 -1.79615760e-02  1.44446817e-02 -7.41650240e-03
 -7.48159307e-04 -1.62287885e-03 -5.89359183e-04 -1.93928096e-02
 -1.31049723e-02]",0.14007194340229034,0,0
10,10,2024-09-19 21:12:33.822112000,TASK_BEGIN,11,0.5231525805799937,0.1183789382799054,-0.7479609461629461,0.686263315000369,2.6569022579270367,-0.2564084694897503,9.144067678498129,-0.9484640331543832,1,2024-09-19 21:12:35.996728027,1726780355.9967284,2024-09-19 21:12:35.996728320,0,[-0.03724696 -0.05772136 -0.02211842 -0.08250453],-0.0,-9.277797700103202,[-0.03724696 -0.05772136 -0.02211842 -0.08250453],[-0.03724696 -0.05772136 -0.02211842 -0.08250453],[1.23645581 0.66381899 0.42469975],"[ 1.22207675e+00  6.89540394e-01  4.34751850e-01  1.22749232e+00
  6.80963998e-01  4.24812783e-01  5.41556971e-03 -8.57639624e-03
 -9.93906605e-03  3.76241452e-02  4.50859543e-02 -5.86591613e-03
 -6.34024334e-03 -2.40453754e-01  3.27081876e-03 -5.18855092e-04
 -1.87378443e-03 -1.79615760e-02  1.44446817e-02 -7.41650240e-03
 -7.48159307e-04 -1.62287885e-03 -5.89359183e-04 -1.93928096e-02
 -1.31049723e-02]",0.14007194340229034,0,0
11,11,2024-09-19 21:12:33.890593024,TASK_BEGIN,11,0.5290534677106979,0.1301391518243403,-0.6394588828705848,0.708189008614793,2.6532063610277064,-0.2517666677869474,9.244282884760477,-0.9791885682426886,1,2024-09-19 21:12:35.996728027,1726780355.9967284,2024-09-19 21:12:35.996728320,0,[-0.03724696 -0.05772136 -0.02211842 -0.08250453],-0.0,-9.277797700103202,[-0.03724696 -0.05772136 -0.02211842 -0.08250453],[-0.03724696 -0.05772136 -0.02211842 -0.08250453],[1.23645581 0.66381899 0.42469975],"[ 1.22207675e+00  6.89540394e-01  4.34751850e-01  1.22749232e+00
  6.80963998e-01  4.24812783e-01  5.41556971e-03 -8.57639624e-03
 -9.93906605e-03  3.76241452e-02  4.50859543e-02 -5.86591613e-03
 -6.34024334e-03 -2.40453754e-01  3.27081876e-03 -5.18855092e-04
 -1.87378443e-03 -1.79615760e-02  1.44446817e-02 -7.41650240e-03
 -7.48159307e-04 -1.62287885e-03 -5.89359183e-04 -1.93928096e-02
 -1.31049723e-02]",0.14007194340229034,0,0
12,12,2024-09-19 21:12:33.958340864,TASK_BEGIN,11,0.5380727590474148,0.1395567159554739,-0.5422602060502505,0.7262714733591524,2.6219608318674505,-0.2424858474894047,9.268587753835,-0.9895843296255468,1,2024-09-19 21:12:36.211705078,1726780356.211706,2024-09-19 21:12:36.211705856,0,[-0.03278508  0.00661107 -0.01299021  0.02059229],-0.0,-9.093169525871147,[-0.03278508  0.00661107 -0.01299021  0.02059229],[-0.03278508  0.00661107 -0.01299021  0.02059229],[1.23645581 0.66381899 0.42469975],"[ 1.22052973e+00  6.89574658e-01  4.33906396e-01  1.22808164e+00
  6.80375328e-01  4.24591515e-01  7.55191381e-03 -9.19933026e-03
 -9.31488108e-03  2.36638452e-02  3.85867067e-02 -2.26632634e-03
 -1.12414190e-04 -2.41945241e-01  8.18372316e-04 -1.82925672e-04
  4.99277430e-04  1.29306814e-03  6.79257780e-05 -1.17963487e-05
 -8.17354600e-04  1.53651006e-04 -3.88289758e-04  3.68392573e-03
  5.44353442e-03]",0.11699996143579483,0,0
13,13,2024-09-19 21:12:34.026822144,TASK_BEGIN,11,0.5492015606741777,0.14720980566001,-0.456012872045633,0.7402439947934545,2.5697723237039383,-0.2292580900723658,9.239145975534203,-0.9832339565008013,1,2024-09-19 21:12:36.211705078,1726780356.211706,2024-09-19 21:12:36.211705856,0,[-0.03278508  0.00661107 -0.01299021  0.02059229],-0.0,-9.093169525871147,[-0.03278508  0.00661107 -0.01299021  0.02059229],[-0.03278508  0.00661107 -0.01299021  0.02059229],[1.23645581 0.66381899 0.42469975],"[ 1.22052973e+00  6.89574658e-01  4.33906396e-01  1.22808164e+00
  6.80375328e-01  4.24591515e-01  7.55191381e-03 -9.19933026e-03
 -9.31488108e-03  2.36638452e-02  3.85867067e-02 -2.26632634e-03
 -1.12414190e-04 -2.41945241e-01  8.18372316e-04 -1.82925672e-04
  4.99277430e-04  1.29306814e-03  6.79257780e-05 -1.17963487e-05
 -8.17354600e-04  1.53651006e-04 -3.88289758e-04  3.68392573e-03
  5.44353442e-03]",0.11699996143579483,0,0
14,21,2024-09-19 21:12:36.321100800,TASK_BEGIN,11,0.5848339705963053,0.1936776199466116,-0.3340243507553194,0.7406333251985991,1.985804311517579,-0.0497503958734216,8.974412490164063,-0.6760483307138251,1,2024-09-19 21:12:38.565869141,1726780358.5658693,2024-09-19 21:12:38.565869312,1,[ 0.2354299  -0.9747901  -0.6559433   0.15199143],-1.0,-1.99,[ 0.2354299  -0.9747901  -0.6559433   0.15199143],[ 0.2354299  -0.9747901  -0.6559433   0.15199143],[1.40483114 0.66908001 0.82469953],"[ 1.35564014e+00  6.86026878e-01  5.01214831e-01  1.37527156e+00
  6.39428001e-01  4.24757513e-01  1.96314201e-02 -4.65988775e-02
 -7.64573174e-02  5.17064461e-02  5.14054053e-02 -2.88713263e-08
  4.44174251e-08 -1.55048608e-15 -5.45832913e-03  2.25647480e-02
  1.62127819e-02  1.62724006e-08 -2.50344625e-08 -1.45888370e-19
  5.45832851e-03 -2.25647484e-02 -1.61975459e-02 -4.76449848e-03
 -3.87731488e-03]",1.1826735734939575,0,0
15,22,2024-09-19 21:12:36.388801024,TASK_BEGIN,11,0.5773568542243505,0.1984787486660966,-0.3876007454855377,0.7295498679817567,1.931462338057292,-0.0253991949324583,9.020167501674749,-0.6400743860928817,1,2024-09-19 21:12:38.565869141,1726780358.5658693,2024-09-19 21:12:38.565869312,1,[ 0.2354299  -0.9747901  -0.6559433   0.15199143],-1.0,-1.99,[ 0.2354299  -0.9747901  -0.6559433   0.15199143],[ 0.2354299  -0.9747901  -0.6559433   0.15199143],[1.40483114 0.66908001 0.82469953],"[ 1.35564014e+00  6.86026878e-01  5.01214831e-01  1.37527156e+00
  6.39428001e-01  4.24757513e-01  1.96314201e-02 -4.65988775e-02
 -7.64573174e-02  5.17064461e-02  5.14054053e-02 -2.88713263e-08
  4.44174251e-08 -1.55048608e-15 -5.45832913e-03  2.25647480e-02
  1.62127819e-02  1.62724006e-08 -2.50344625e-08 -1.45888370e-19
  5.45832851e-03 -2.25647484e-02 -1.61975459e-02 -4.76449848e-03
 -3.87731488e-03]",1.1826735734939575,0,0
16,23,2024-09-19 21:12:36.451437056,TASK_BEGIN,11,0.5685681182767149,0.2023140096667,-0.4465601813585113,0.7155678503495411,1.8841561683655104,-0.0023747402225777,9.067965284386409,-0.6108923887615451,1,2024-09-19 21:12:38.565869141,1726780358.5658693,2024-09-19 21:12:38.565869312,1,[ 0.2354299  -0.9747901  -0.6559433   0.15199143],-1.0,-1.99,[ 0.2354299  -0.9747901  -0.6559433   0.15199143],[ 0.2354299  -0.9747901  -0.6559433   0.15199143],[1.40483114 0.66908001 0.82469953],"[ 1.35564014e+00  6.86026878e-01  5.01214831e-01  1.37527156e+00
  6.39428001e-01  4.24757513e-01  1.96314201e-02 -4.65988775e-02
 -7.64573174e-02  5.17064461e-02  5.14054053e-02 -2.88713263e-08
  4.44174251e-08 -1.55048608e-15 -5.45832913e-03  2.25647480e-02
  1.62127819e-02  1.62724006e-08 -2.50344625e-08 -1.45888370e-19
  5.45832851e-03 -2.25647484e-02 -1.61975459e-02 -4.76449848e-03
 -3.87731488e-03]",1.1826735734939575,0,0
17,24,2024-09-19 21:12:36.524126976,TASK_BEGIN,11,0.5590118793714081,0.2049600600528163,-0.5076329891002144,0.6989002022614762,1.843878731158645,0.0187164350609024,9.109274118407654,-0.5900043200546866,1,2024-09-19 21:12:38.565869141,1726780358.5658693,2024-09-19 21:12:38.565869312,1,[ 0.2354299  -0.9747901  -0.6559433   0.15199143],-1.0,-1.99,[ 0.2354299  -0.9747901  -0.6559433   0.15199143],[ 0.2354299  -0.9747901  -0.6559433   0.15199143],[1.40483114 0.66908001 0.82469953],"[ 1.35564014e+00  6.86026878e-01  5.01214831e-01  1.37527156e+00
  6.39428001e-01  4.24757513e-01  1.96314201e-02 -4.65988775e-02
 -7.64573174e-02  5.17064461e-02  5.14054053e-02 -2.88713263e-08
  4.44174251e-08 -1.55048608e-15 -5.45832913e-03  2.25647480e-02
  1.62127819e-02  1.62724006e-08 -2.50344625e-08 -1.45888370e-19
  5.45832851e-03 -2.25647484e-02 -1.61975459e-02 -4.76449848e-03
 -3.87731488e-03]",1.1826735734939575,0,0
18,25,2024-09-19 21:12:36.584918016,TASK_BEGIN,11,0.5490744400282579,0.2063158957912042,-0.568806610747371,0.6801318140168712,1.81060608256849,0.0372690161584885,9.136778079313256,-0.5785953951769616,1,2024-09-19 21:12:38.674879150,1726780358.674879,2024-09-19 21:12:38.674878976,1,[ 0.2665764  -0.6580888  -0.9189883   0.11039354],-1.0,-2.9701,[ 0.2665764  -0.6580888  -0.9189883   0.11039354],[ 0.2665764  -0.6580888  -0.9189883   0.11039354],[1.40483114 0.66908001 0.82469953],"[ 1.36379952e+00  6.63461200e-01  4.71146216e-01  1.37527156e+00
  6.39428000e-01  4.24769027e-01  1.14720422e-02 -2.40331997e-02
 -4.63771889e-02  5.01405576e-02  5.01215757e-02 -1.65741696e-08
  2.54987225e-08 -1.98220146e-15 -6.34530602e-03  1.46482652e-02
  2.24970123e-02  9.31711993e-09 -1.43340307e-08 -2.59793252e-18
  6.34530566e-03 -1.46482654e-02 -2.24882904e-02 -3.17969643e-04
 -2.62212823e-04]",1.1502457857131958,0,0
19,26,2024-09-19 21:12:36.647403008,TASK_BEGIN,11,0.5389783672061238,0.206422465816602,-0.6293939883363061,0.6601724438387466,1.7843821604771914,0.052707250824381,9.145156132084802,-0.5773935693662305,1,2024-09-19 21:12:39.425661133,1726780359.4256608,2024-09-19 21:12:39.425660928,1,[ 0.01848749  0.14393936  0.9999996  -0.19297704],-1.0,-9.561792499119552,[ 0.01848749  0.14393936  0.9999996  -0.19297704],[ 0.01848749  0.14393936  0.9999996  -0.19297704],[1.40483114 0.66908001 0.82469953],"[ 1.39094806e+00  6.83504220e-01  6.07284840e-01  1.39316750e+00
  6.84273879e-01  5.88787982e-01  2.21943891e-03  7.69658685e-04
 -1.84968579e-02  2.48420624e-02  2.32810104e-02  1.97978953e-04
 -1.75743656e-03  1.49217607e-02  3.86520904e-04  6.26447330e-04
 -1.12684476e-04  4.21968300e-03  2.55104101e-04  3.44765381e-04
 -6.79183544e-05  3.40651335e-03  2.35160314e-02  4.53415064e-04
 -4.66763834e-04]",1.0422452688217163,0,0
20,27,2024-09-19 21:12:36.724666880,TASK_BEGIN,11,0.5288195481813915,0.20545230352505,-0.6898194893830502,0.6401469886317194,1.76530039654159,0.0645290703494214,9.131714203368766,-0.5865809637009896,1,2024-09-19 21:12:39.531661133,1726780359.531661,2024-09-19 21:12:39.531661056,1,[-0.02791553  0.09907878  0.99999774 -0.20118128],-1.0,-10.466174574128356,[-0.02791553  0.09907878  0.99999774 -0.20118128],[-0.02791553  0.09907878  0.99999774 -0.20118128],[1.40483114 0.66908001 0.82469953],"[ 1.38954343e+00  6.86953916e-01  6.40270182e-01  1.39213512e+00
  6.87919301e-01  6.21705218e-01  2.59169298e-03  9.65384955e-04
 -1.85649633e-02  2.50391455e-02  2.30830803e-02 -8.01180237e-05
 -1.83888980e-03  1.51681378e-02  3.88937456e-04  4.53005687e-05
 -1.00977155e-04  2.19906250e-04  2.86850238e-04  1.89089699e-04
 -1.11223563e-03  2.23934983e-03  2.35041473e-02  2.62650206e-05
 -2.80443334e-05]",1.0474849939346313,0,0
21,28,2024-09-19 21:12:37.663054080,TASK_BEGIN,11,0.5186494086843568,0.2036760102214901,-0.7512427682481597,0.6212679388340203,1.7533789267335342,0.0723579511258429,9.09659561013028,-0.6057539563766193,1,2024-09-19 21:12:39.850702148,1726780359.850702,2024-09-19 21:12:39.850702080,1,[ 0.14040424 -0.13636728  0.99995613 -0.26995838],-1.0,-13.12541872310217,[ 0.14040424 -0.13636728  0.99995613 -0.26995838],[ 0.14040424 -0.13636728  0.99995613 -0.26995838],[1.40483114 0.66908001 0.82469953],"[ 1.39075725e+00  6.82552890e-01  7.38698249e-01  1.39481098e+00
  6.82764832e-01  7.20013582e-01  4.05373412e-03  2.11942755e-04
 -1.86846675e-02  2.42817349e-02  2.38398827e-02 -3.88752810e-04
 -2.67192694e-03  1.53612367e-02  6.06152715e-04 -2.61409294e-04
 -7.19001704e-05  1.93494310e-03  5.35610135e-04 -9.17205914e-07
  2.90878906e-03 -3.42519378e-03  2.34005648e-02 -3.56689034e-04
  3.50225826e-04]",1.0942647457122803,0,0
22,29,2024-09-19 21:12:37.725073920,TASK_BEGIN,11,0.5085841186720318,0.2014189571956963,-0.8151101700280052,0.6047184504839979,1.7484128943738877,0.0759843814596138,9.04241737297616,-0.6338943947026364,1,2024-09-19 21:12:39.850702148,1726780359.850702,2024-09-19 21:12:39.850702080,1,[ 0.14040424 -0.13636728  0.99995613 -0.26995838],-1.0,-13.12541872310217,[ 0.14040424 -0.13636728  0.99995613 -0.26995838],[ 0.14040424 -0.13636728  0.99995613 -0.26995838],[1.40483114 0.66908001 0.82469953],"[ 1.39075725e+00  6.82552890e-01  7.38698249e-01  1.39481098e+00
  6.82764832e-01  7.20013582e-01  4.05373412e-03  2.11942755e-04
 -1.86846675e-02  2.42817349e-02  2.38398827e-02 -3.88752810e-04
 -2.67192694e-03  1.53612367e-02  6.06152715e-04 -2.61409294e-04
 -7.19001704e-05  1.93494310e-03  5.35610135e-04 -9.17205914e-07
  2.90878906e-03 -3.42519378e-03  2.34005648e-02 -3.56689034e-04
  3.50225826e-04]",1.0942647457122803,0,0
23,30,2024-09-19 21:12:37.806556928,TASK_BEGIN,11,0.4989031591346196,0.1990177054060737,-0.8826966451068438,0.5915588589636356,1.749879743193856,0.0753901289873595,8.973434453766252,-0.6693431415794893,1,2024-09-19 21:12:39.850702148,1726780359.850702,2024-09-19 21:12:39.850702080,1,[ 0.14040424 -0.13636728  0.99995613 -0.26995838],-1.0,-13.12541872310217,[ 0.14040424 -0.13636728  0.99995613 -0.26995838],[ 0.14040424 -0.13636728  0.99995613 -0.26995838],[1.40483114 0.66908001 0.82469953],"[ 1.39075725e+00  6.82552890e-01  7.38698249e-01  1.39481098e+00
  6.82764832e-01  7.20013582e-01  4.05373412e-03  2.11942755e-04
 -1.86846675e-02  2.42817349e-02  2.38398827e-02 -3.88752810e-04
 -2.67192694e-03  1.53612367e-02  6.06152715e-04 -2.61409294e-04
 -7.19001704e-05  1.93494310e-03  5.35610135e-04 -9.17205914e-07
  2.90878906e-03 -3.42519378e-03  2.34005648e-02 -3.56689034e-04
  3.50225826e-04]",1.0942647457122803,0,0
24,31,2024-09-19 21:12:37.874198016,TASK_BEGIN,11,0.490104108414453,0.1967775666839675,-0.9547266448709342,0.5826599702909747,1.756897582732905,0.0707588364167803,8.894532629808166,-0.709817260656637,1,2024-09-19 21:12:39.957703125,1726780359.9577029,2024-09-19 21:12:39.957702912,1,[ 0.28104478 -0.22242941  0.86197895 -0.26606604],-1.0,-13.994164535871148,[ 0.28104478 -0.22242941  0.86197895 -0.26606604],[ 0.28104478 -0.22242941  0.86197895 -0.26606604],[1.40483114 0.66908001 0.82469953],"[ 1.39778329e+00  6.75536475e-01  7.66711194e-01  1.40262887e+00
  6.75572639e-01  7.48164208e-01  4.84558487e-03  3.61642673e-05
 -1.85469854e-02  2.40958983e-02  2.40248808e-02 -3.63011358e-04
 -3.37082961e-03  1.53520629e-02  7.70566158e-04 -1.82044330e-04
  7.97958656e-05  1.31451023e-03  5.20376894e-04 -3.11558240e-05
  6.06273369e-03 -5.33729219e-03  1.95591811e-02 -2.56538621e-04
  2.51212841e-04]",1.0664045810699463,0,0
25,32,2024-09-19 21:12:37.926419968,TASK_BEGIN,11,0.4828933920836391,0.1949324495266582,-1.0312079271090544,0.5786634236245322,1.7682185187658443,0.0624685022125168,8.810423165104952,-0.7525257314514918,1,2024-09-19 21:12:40.063702148,1726780360.063702,2024-09-19 21:12:40.063702016,1,[ 0.27969834  0.05965816  0.6226728  -0.27196178],-1.0,-14.854222890512437,[ 0.27969834  0.05965816  0.6226728  -0.27196178],[ 0.27969834  0.05965816  0.6226728  -0.27196178],[1.40483114 0.66908001 0.82469953],"[ 1.40505164e+00  6.77005272e-01  7.86800565e-01  1.41062300e+00
  6.76594761e-01  7.68469053e-01  5.57135673e-03 -4.10511155e-04
 -1.83315123e-02  2.36368535e-02  2.44822511e-02 -2.48864299e-04
 -3.87410974e-03  1.53206134e-02  6.34710126e-04 -2.04211362e-04
  1.45369050e-04  4.02264198e-03  4.04831602e-04 -9.01726020e-06
  5.59076324e-03  2.26323088e-03  1.35589940e-02 -3.63575795e-04
  3.50133640e-04]",0.8851513862609863,0,0
26,33,2024-09-19 21:12:38.004806912,TASK_BEGIN,11,0.4781065491259716,0.1936148483693453,-1.1115596517589792,0.5799733563092517,1.782281157931645,0.0510579218269881,8.725297020052226,-0.7944196206108283,1,2024-09-19 21:12:40.063702148,1726780360.063702,2024-09-19 21:12:40.063702016,1,[ 0.27969834  0.05965816  0.6226728  -0.27196178],-1.0,-14.854222890512437,[ 0.27969834  0.05965816  0.6226728  -0.27196178],[ 0.27969834  0.05965816  0.6226728  -0.27196178],[1.40483114 0.66908001 0.82469953],"[ 1.40505164e+00  6.77005272e-01  7.86800565e-01  1.41062300e+00
  6.76594761e-01  7.68469053e-01  5.57135673e-03 -4.10511155e-04
 -1.83315123e-02  2.36368535e-02  2.44822511e-02 -2.48864299e-04
 -3.87410974e-03  1.53206134e-02  6.34710126e-04 -2.04211362e-04
  1.45369050e-04  4.02264198e-03  4.04831602e-04 -9.01726020e-06
  5.59076324e-03  2.26323088e-03  1.35589940e-02 -3.63575795e-04
  3.50133640e-04]",0.8851513862609863,0,0
27,34,2024-09-19 21:12:38.077176064,TASK_BEGIN,11,0.4765807074648233,0.1928452992470218,-1.194943288077824,0.5867759881920158,1.7973556380899602,0.0371715753294955,8.642946187747373,-0.8325589090543021,1,2024-09-19 21:12:40.169704834,1726780360.1697059,2024-09-19 21:12:40.169705984,1,[ 0.03944606  0.06509743  0.20492919 -0.3084993 ],-1.0,-15.705680661607312,[ 0.03944606  0.06509743  0.20492919 -0.3084993 ],[ 0.03944606  0.06509743  0.20492919 -0.3084993 ],[1.40483114 0.66908001 0.82469953],"[ 1.40658479e+00  6.79266642e-01  7.94408310e-01  1.41233677e+00
  6.78709468e-01  7.75982357e-01  5.75198060e-03 -5.57173980e-04
 -1.84259532e-02  2.34527527e-02  2.46666250e-02 -2.07082212e-04
 -2.71374467e-03  1.53843924e-02  3.13410619e-05 -6.93904621e-05
 -1.08731889e-04 -2.70989353e-03  6.20619185e-04  6.94215006e-05
  3.88127351e-04  1.44618446e-03  3.78862278e-03  4.54890410e-06
  9.64771571e-07]",0.6206263303756714,0,0
28,35,2024-09-19 21:12:38.990289152,TASK_BEGIN,11,0.479030148771013,0.1925422193854089,-1.280529766108717,0.5990524728107786,1.811776000681544,0.0214948577948692,8.567085145811024,-0.8644808995050737,1,2024-09-19 21:12:41.239864014,1726780361.2398643,2024-09-19 21:12:41.239864320,1,[ 0.01411184  0.00463562  0.07358024 -0.35600773],-0.0,-14.203936066170076,[ 0.01411184  0.00463562  0.07358024 -0.35600773],[ 0.01411184  0.00463562  0.07358024 -0.35600773],[1.40483114 0.66908001 0.82469953],"[ 1.40873995e+00  6.89342172e-01  8.18669174e-01  1.41465457e+00
  6.89307815e-01  8.00005901e-01  5.91462342e-03 -3.43573242e-05
 -1.86632732e-02  2.39401834e-02  2.41803589e-02 -1.21701515e-04
 -2.24130482e-03  1.53978008e-02  1.48759615e-05  9.77658434e-05
 -3.09296770e-05  2.43871018e-03  1.01119751e-04 -6.42899656e-06
  4.78836377e-05  1.35518689e-04  1.50526873e-03  8.43885106e-07
 -9.59965525e-07]",0.5995794534683228,0,0
29,36,2024-09-19 21:12:39.052775936,TASK_BEGIN,11,0.4859651025493871,0.1925441707711033,-1.367434961814696,0.6165381813395099,1.8242136589044984,0.0046864583944422,8.501516746412332,-0.8884275898400406,1,2024-09-19 21:12:41.239864014,1726780361.2398643,2024-09-19 21:12:41.239864320,1,[ 0.01411184  0.00463562  0.07358024 -0.35600773],-0.0,-14.203936066170076,[ 0.01411184  0.00463562  0.07358024 -0.35600773],[ 0.01411184  0.00463562  0.07358024 -0.35600773],[1.40483114 0.66908001 0.82469953],"[ 1.40873995e+00  6.89342172e-01  8.18669174e-01  1.41465457e+00
  6.89307815e-01  8.00005901e-01  5.91462342e-03 -3.43573242e-05
 -1.86632732e-02  2.39401834e-02  2.41803589e-02 -1.21701515e-04
 -2.24130482e-03  1.53978008e-02  1.48759615e-05  9.77658434e-05
 -3.09296770e-05  2.43871018e-03  1.01119751e-04 -6.42899656e-06
  4.78836377e-05  1.35518689e-04  1.50526873e-03  8.43885106e-07
 -9.59965525e-07]",0.5995794534683228,0,0
30,37,2024-09-19 21:12:39.131617792,TASK_BEGIN,11,0.4976494107193357,0.192637387663649,-1.4543340045482218,0.6386375157545569,1.833919876480004,-0.0126861374830053,8.45003614081075,-0.9034129044125544,1,2024-09-19 21:12:41.239864014,1726780361.2398643,2024-09-19 21:12:41.239864320,1,[ 0.01411184  0.00463562  0.07358024 -0.35600773],-0.0,-14.203936066170076,[ 0.01411184  0.00463562  0.07358024 -0.35600773],[ 0.01411184  0.00463562  0.07358024 -0.35600773],[1.40483114 0.66908001 0.82469953],"[ 1.40873995e+00  6.89342172e-01  8.18669174e-01  1.41465457e+00
  6.89307815e-01  8.00005901e-01  5.91462342e-03 -3.43573242e-05
 -1.86632732e-02  2.39401834e-02  2.41803589e-02 -1.21701515e-04
 -2.24130482e-03  1.53978008e-02  1.48759615e-05  9.77658434e-05
 -3.09296770e-05  2.43871018e-03  1.01119751e-04 -6.42899656e-06
  4.78836377e-05  1.35518689e-04  1.50526873e-03  8.43885106e-07
 -9.59965525e-07]",0.5995794534683228,0,0
31,38,2024-09-19 21:12:39.192626944,TASK_BEGIN,11,0.5140650198672925,0.1925879456068139,-1.539098126703789,0.6643716950547826,1.8408629924482367,-0.0301927132393508,8.416213813995963,-0.9092300831374492,1,2024-09-19 21:12:41.239864014,1726780361.2398643,2024-09-19 21:12:41.239864320,1,[ 0.01411184  0.00463562  0.07358024 -0.35600773],-0.0,-14.203936066170076,[ 0.01411184  0.00463562  0.07358024 -0.35600773],[ 0.01411184  0.00463562  0.07358024 -0.35600773],[1.40483114 0.66908001 0.82469953],"[ 1.40873995e+00  6.89342172e-01  8.18669174e-01  1.41465457e+00
  6.89307815e-01  8.00005901e-01  5.91462342e-03 -3.43573242e-05
 -1.86632732e-02  2.39401834e-02  2.41803589e-02 -1.21701515e-04
 -2.24130482e-03  1.53978008e-02  1.48759615e-05  9.77658434e-05
 -3.09296770e-05  2.43871018e-03  1.01119751e-04 -6.42899656e-06
  4.78836377e-05  1.35518689e-04  1.50526873e-03  8.43885106e-07
 -9.59965525e-07]",0.5995794534683228,0,0
32,39,2024-09-19 21:12:39.254236928,TASK_BEGIN,11,0.5348724113130655,0.1921788351641024,-1.6187897408504903,0.692416576732166,1.8457154143454293,-0.0475489216442968,8.40310907109043,-0.906465523692459,1,2024-09-19 21:12:41.345864990,1726780361.3458657,2024-09-19 21:12:41.345865728,1,[ 0.01479748  0.00348898  0.07395453 -0.35609165],-0.0,-14.061896705508376,[ 0.01479748  0.00348898  0.07395453 -0.35609165],[ 0.01479748  0.00348898  0.07395453 -0.35609165],[1.40483114 0.66908001 0.82469953],"[ 1.40864357e+00  6.89508060e-01  8.20650388e-01  1.41458145e+00
  6.89499311e-01  8.01976038e-01  5.93788760e-03 -8.74934958e-06
 -1.86743497e-02  2.39648928e-02  2.41556554e-02 -1.07958304e-04
 -2.36110145e-03  1.53961096e-02  1.72215861e-05  1.28819114e-04
 -2.76834692e-05  2.13661756e-03  7.42941663e-05 -5.83213379e-06
  6.07313822e-06  1.05316670e-04  1.46695919e-03  4.41528515e-05
 -4.46472342e-05]",0.5991678833961487,0,0
33,42,2024-09-19 21:12:40.333563904,TASK_BEGIN,11,0.6156445303178572,0.1875354042144415,-1.7942088857443832,0.7743323562257522,1.8612806619141504,-0.097301947034839,8.500375386322109,-0.8634282793445606,1,2024-09-19 21:12:43.071968994,1726780363.0719697,2024-09-19 21:12:43.071969792,2,[-0.9999397  -0.26361686 -0.5559143   0.1416575 ],-1.0,-1.99,[-0.9999397  -0.26361686 -0.5559143   0.1416575 ],[-0.9999397  -0.26361686 -0.5559143   0.1416575 ],[1.24882605 0.78494303 0.42469975],"[ 1.27824387e+00  7.33249277e-01  5.09736621e-01  1.20241186e+00
  7.06980274e-01  4.24757513e-01 -7.58320078e-02 -2.62690027e-02
 -8.49791083e-02  5.55283460e-02  5.50451135e-02 -2.88713263e-08
  4.44174251e-08 -1.54650559e-15  2.33048037e-02  6.09067498e-03
  1.37017106e-02  1.62724006e-08 -2.50344625e-08  6.08013015e-19
 -2.33048043e-02 -6.09067539e-03 -1.36864747e-02 -4.91802645e-03
 -3.81925722e-03]",0.7810163497924805,0,0
34,43,2024-09-19 21:12:40.413131008,TASK_BEGIN,11,0.6451201658322199,0.1847959323962899,-1.8221850922616227,0.7954404022136277,1.8718819890394731,-0.1128184603185622,8.572295683734739,-0.8454035412471516,1,2024-09-19 21:12:43.177970947,1726780363.177972,2024-09-19 21:12:43.177971968,2,[-0.9992025  -0.33641365 -0.73088855  0.30918062],-1.0,-2.9701,[-0.9992025  -0.33641365 -0.73088855  0.30918062],[-0.9992025  -0.33641365 -0.73088855  0.30918062],[1.24882605 0.78494303 0.42469975],"[ 1.24507905e+00  7.22529310e-01  4.86511441e-01  1.20241186e+00
  7.06980274e-01  4.24769027e-01 -4.26671885e-02 -1.55490368e-02
 -6.17424134e-02  5.05105170e-02  5.04774916e-02 -1.65741696e-08
  2.54987225e-08 -1.97526827e-15  2.36303626e-02  7.94183148e-03
  1.73902227e-02  9.31711993e-09 -1.43340307e-08 -1.59599193e-18
 -2.36303630e-02 -7.94183171e-03 -1.73815009e-02 -1.37560685e-03
 -1.27741590e-03]",0.9579691886901855,0,0
35,44,2024-09-19 21:12:40.481600000,TASK_BEGIN,11,0.6740858031988755,0.1815587708116322,-1.832293777011544,0.8110400905178895,1.8871908658781944,-0.1276465164765131,8.654962531959097,-0.8295843420694947,1,2024-09-19 21:12:43.283970215,1726780363.2839706,2024-09-19 21:12:43.283970560,2,[-0.8357758  -0.31379858 -0.7030512   0.22853872],-1.0,-3.9403989999999998,[-0.8357758  -0.31379858 -0.7030512   0.22853872],[-0.8357758  -0.31379858 -0.7030512   0.22853872],[1.24882605 0.78494303 0.42469975],"[ 1.21688974e+00  7.12309186e-01  4.63718500e-01  1.20241186e+00
  7.06980273e-01  4.24775622e-01 -1.44778738e-02 -5.32891251e-03
 -3.89428780e-02  5.00739051e-02  5.00718576e-02 -9.52496621e-09
  1.46537942e-08 -2.11620306e-15  1.92130007e-02  7.17317136e-03
  1.63396872e-02  5.34650724e-09 -8.22539576e-09  1.11992612e-18
 -1.92130010e-02 -7.17317150e-03 -1.63346891e-02 -8.70559707e-05
 -8.10355050e-05]",0.9992530941963196,0,0
36,45,2024-09-19 21:12:40.549403904,TASK_BEGIN,11,0.7016898940187565,0.1779003187157078,-1.824714504508308,0.8200423548080316,1.9077519321868048,-0.1416785952711829,8.739838754086183,-0.8177723240130131,1,2024-09-19 21:12:43.283970215,1726780363.2839706,2024-09-19 21:12:43.283970560,2,[-0.8357758  -0.31379858 -0.7030512   0.22853872],-1.0,-3.9403989999999998,[-0.8357758  -0.31379858 -0.7030512   0.22853872],[-0.8357758  -0.31379858 -0.7030512   0.22853872],[1.24882605 0.78494303 0.42469975],"[ 1.21688974e+00  7.12309186e-01  4.63718500e-01  1.20241186e+00
  7.06980273e-01  4.24775622e-01 -1.44778738e-02 -5.32891251e-03
 -3.89428780e-02  5.00739051e-02  5.00718576e-02 -9.52496621e-09
  1.46537942e-08 -2.11620306e-15  1.92130007e-02  7.17317136e-03
  1.63396872e-02  5.34650724e-09 -8.22539576e-09  1.11992612e-18
 -1.92130010e-02 -7.17317150e-03 -1.63346891e-02 -8.70559707e-05
 -8.10355050e-05]",0.9992530941963196,0,0
37,46,2024-09-19 21:12:40.617080832,TASK_BEGIN,11,0.7273031847321507,0.1738861514352072,-1.801090064894392,0.8216722280121883,1.9335873840840585,-0.1548238661416619,8.817192597484214,-0.8110404694087151,1,2024-09-19 21:12:43.389968994,1726780363.3899693,2024-09-19 21:12:43.389969408,2,[-0.38856998  0.5724521  -0.5529149  -0.09725256],-1.0,-4.90099501,[-0.38856998  0.5724521  -0.5529149  -0.09725256],[-0.38856998  0.5724521  -0.5529149  -0.09725256],[1.24882605 0.78494303 0.42469975],"[ 1.20283229e+00  7.28850955e-01  4.45384439e-01  1.20228195e+00
  7.09253059e-01  4.25023507e-01 -5.50340545e-04 -1.95978955e-02
 -2.03609315e-02  3.91025280e-02  4.08664282e-02 -1.15508947e-02
  1.09104196e-03 -1.11008993e-03  6.06640259e-03  5.76848397e-03
  1.43849445e-02 -3.51533408e-02  6.30492027e-03 -6.64605358e-03
 -7.99958426e-03  1.50216692e-02 -1.22325832e-02 -1.80938120e-02
 -1.41686815e-02]",1.1060481071472168,0,0
38,47,2024-09-19 21:12:40.684755200,TASK_BEGIN,11,0.7505215686219489,0.1695747864448624,-1.7644570730631286,0.8154871156877074,1.964195555304858,-0.1670392325272376,8.877198311324106,-0.8097030506882582,1,2024-09-19 21:12:43.495968994,1726780363.4959698,2024-09-19 21:12:43.495969792,2,[ 0.41566196  0.99936527  0.31194794 -0.24688196],-0.0,-4.8519850599,[ 0.41566196  0.99936527  0.31194794 -0.24688196],[ 0.41566196  0.99936527  0.31194794 -0.24688196],[1.24882605 0.78494303 0.42469975],"[ 1.21424508e+00  7.61224470e-01  4.53428524e-01  1.21448926e+00
  7.59402378e-01  4.30632884e-01  2.44181988e-04 -1.82209166e-03
 -2.27956408e-02  1.82255247e-02  2.49836165e-02 -9.09244136e-02
  2.85538337e-03  5.87472636e-03  9.07854936e-04  5.86059985e-03
 -6.13594693e-03  1.98036807e-01  3.68211841e-03  3.53337885e-02
  1.13296964e-02  2.48581654e-02  9.73301834e-03 -1.22312455e-02
 -1.01348583e-02]",1.2473493814468384,0,0
39,48,2024-09-19 21:12:40.737103104,TASK_BEGIN,11,0.7711434363828262,0.1650273684116217,-1.718835140609765,0.8013593347369805,1.998579606023624,-0.1783546927780483,8.911319359104318,-0.8134159116987149,1,2024-09-19 21:12:43.495968994,1726780363.4959698,2024-09-19 21:12:43.495969792,2,[ 0.41566196  0.99936527  0.31194794 -0.24688196],-0.0,-4.8519850599,[ 0.41566196  0.99936527  0.31194794 -0.24688196],[ 0.41566196  0.99936527  0.31194794 -0.24688196],[1.24882605 0.78494303 0.42469975],"[ 1.21424508e+00  7.61224470e-01  4.53428524e-01  1.21448926e+00
  7.59402378e-01  4.30632884e-01  2.44181988e-04 -1.82209166e-03
 -2.27956408e-02  1.82255247e-02  2.49836165e-02 -9.09244136e-02
  2.85538337e-03  5.87472636e-03  9.07854936e-04  5.86059985e-03
 -6.13594693e-03  1.98036807e-01  3.68211841e-03  3.53337885e-02
  1.13296964e-02  2.48581654e-02  9.73301834e-03 -1.22312455e-02
 -1.01348583e-02]",1.2473493814468384,0,0
40,49,2024-09-19 21:12:41.696414976,TASK_BEGIN,11,0.7891201108215262,0.1603169284090571,-1.6686351902457894,0.7794491609701373,2.0353260215567004,-0.1888861353996615,8.913496978335921,-0.8213225191763641,1,2024-09-19 21:12:43.815969971,1726780363.815971,2024-09-19 21:12:43.815970816,2,[ 0.08634115  0.00855798  0.05077185 -0.18155621],-0.0,-4.70787625163591,[ 0.08634115  0.00855798  0.05077185 -0.18155621],[ 0.08634115  0.00855798  0.05077185 -0.18155621],[1.24882605 0.78494303 0.42469975],"[ 1.22984730e+00  7.65366070e-01  4.58011025e-01  1.23053322e+00
  7.64421944e-01  4.33617833e-01  6.85921516e-04 -9.44125789e-04
 -2.43931919e-02  2.31702614e-02  2.52529101e-02 -7.49447638e-03
  1.47884064e-03  9.88613546e-03  1.35847077e-05  1.75209177e-03
 -6.47830976e-05  1.05995430e-02  2.10033107e-06  2.27616396e-03
  2.07329579e-03  1.85121486e-04  9.32423427e-04  1.45018117e-03
 -1.61043227e-03]",0.2182578146457672,0,0
41,50,2024-09-19 21:12:41.763430144,TASK_BEGIN,11,0.8044875539704837,0.1555370219504275,-1.618091815820503,0.7502030281228779,2.072749687831021,-0.1988312277616665,8.880684646453416,-0.8322054468140268,1,2024-09-19 21:12:43.815969971,1726780363.815971,2024-09-19 21:12:43.815970816,2,[ 0.08634115  0.00855798  0.05077185 -0.18155621],-0.0,-4.70787625163591,[ 0.08634115  0.00855798  0.05077185 -0.18155621],[ 0.08634115  0.00855798  0.05077185 -0.18155621],[1.24882605 0.78494303 0.42469975],"[ 1.22984730e+00  7.65366070e-01  4.58011025e-01  1.23053322e+00
  7.64421944e-01  4.33617833e-01  6.85921516e-04 -9.44125789e-04
 -2.43931919e-02  2.31702614e-02  2.52529101e-02 -7.49447638e-03
  1.47884064e-03  9.88613546e-03  1.35847077e-05  1.75209177e-03
 -6.47830976e-05  1.05995430e-02  2.10033107e-06  2.27616396e-03
  2.07329579e-03  1.85121486e-04  9.32423427e-04  1.45018117e-03
 -1.61043227e-03]",0.2182578146457672,0,0
42,51,2024-09-19 21:12:41.831429888,TASK_BEGIN,11,0.8173133611353949,0.1508087642382699,-1.570852407211104,0.7143883261812924,2.109100221120214,-0.2084466780779831,8.812770752563628,-0.8446781440835357,1,2024-09-19 21:12:44.563009033,1726780364.5630093,2024-09-19 21:12:44.563009280,2,[ 0.01713558 -0.00428788  0.02549584 -0.15371749],-0.0,-4.38804831638408,[ 0.01713558 -0.00428788  0.02549584 -0.15371749],[ 0.01713558 -0.00428788  0.02549584 -0.15371749],[1.24882605 0.78494303 0.42469975],"[ 1.23579989e+00  7.64289235e-01  4.66035110e-01  1.23658388e+00
  7.63799126e-01  4.41321281e-01  7.83992658e-04 -4.90108580e-04
 -2.47138289e-02  2.35701403e-02  2.45635771e-02 -1.60892508e-04
  1.31239748e-03  1.48746174e-02  1.71799157e-05 -1.57006649e-04
 -4.77180882e-05  8.83509962e-06 -2.13961177e-05  4.81412021e-05
  3.94179612e-04 -1.01818469e-04  5.14976421e-04 -1.59910243e-04
  1.59817076e-04]",0.2086395025253296,0,0
43,52,2024-09-19 21:12:41.899454976,TASK_BEGIN,11,0.8276877247609737,0.1462834988612825,-1.5298049988564113,0.6731477687705514,2.1427838086016333,-0.2180089509329964,8.712226391880888,-0.8574203516933359,1,2024-09-19 21:12:44.563009033,1726780364.5630093,2024-09-19 21:12:44.563009280,2,[ 0.01713558 -0.00428788  0.02549584 -0.15371749],-0.0,-4.38804831638408,[ 0.01713558 -0.00428788  0.02549584 -0.15371749],[ 0.01713558 -0.00428788  0.02549584 -0.15371749],[1.24882605 0.78494303 0.42469975],"[ 1.23579989e+00  7.64289235e-01  4.66035110e-01  1.23658388e+00
  7.63799126e-01  4.41321281e-01  7.83992658e-04 -4.90108580e-04
 -2.47138289e-02  2.35701403e-02  2.45635771e-02 -1.60892508e-04
  1.31239748e-03  1.48746174e-02  1.71799157e-05 -1.57006649e-04
 -4.77180882e-05  8.83509962e-06 -2.13961177e-05  4.81412021e-05
  3.94179612e-04 -1.01818469e-04  5.14976421e-04 -1.59910243e-04
  1.59817076e-04]",0.2086395025253296,0,0
44,53,2024-09-19 21:12:41.966618880,TASK_BEGIN,11,0.8357443092845949,0.1421410615855027,-1.4970978339080714,0.6280283798583982,2.172521405210295,-0.2277654888591494,8.58369281128449,-0.8693877694658915,1,2024-09-19 21:12:44.563009033,1726780364.5630093,2024-09-19 21:12:44.563009280,2,[ 0.01713558 -0.00428788  0.02549584 -0.15371749],-0.0,-4.38804831638408,[ 0.01713558 -0.00428788  0.02549584 -0.15371749],[ 0.01713558 -0.00428788  0.02549584 -0.15371749],[1.24882605 0.78494303 0.42469975],"[ 1.23579989e+00  7.64289235e-01  4.66035110e-01  1.23658388e+00
  7.63799126e-01  4.41321281e-01  7.83992658e-04 -4.90108580e-04
 -2.47138289e-02  2.35701403e-02  2.45635771e-02 -1.60892508e-04
  1.31239748e-03  1.48746174e-02  1.71799157e-05 -1.57006649e-04
 -4.77180882e-05  8.83509962e-06 -2.13961177e-05  4.81412021e-05
  3.94179612e-04 -1.01818469e-04  5.14976421e-04 -1.59910243e-04
  1.59817076e-04]",0.2086395025253296,0,0
45,54,2024-09-19 21:12:42.034848768,TASK_BEGIN,11,0.8416584820743124,0.1385864386549666,-1.474149783736213,0.5809331374628061,2.1973918456409347,-0.2378869944340222,8.43356343460979,-0.8799416041579025,1,2024-09-19 21:12:44.563009033,1726780364.5630093,2024-09-19 21:12:44.563009280,2,[ 0.01713558 -0.00428788  0.02549584 -0.15371749],-0.0,-4.38804831638408,[ 0.01713558 -0.00428788  0.02549584 -0.15371749],[ 0.01713558 -0.00428788  0.02549584 -0.15371749],[1.24882605 0.78494303 0.42469975],"[ 1.23579989e+00  7.64289235e-01  4.66035110e-01  1.23658388e+00
  7.63799126e-01  4.41321281e-01  7.83992658e-04 -4.90108580e-04
 -2.47138289e-02  2.35701403e-02  2.45635771e-02 -1.60892508e-04
  1.31239748e-03  1.48746174e-02  1.71799157e-05 -1.57006649e-04
 -4.77180882e-05  8.83509962e-06 -2.13961177e-05  4.81412021e-05
  3.94179612e-04 -1.01818469e-04  5.14976421e-04 -1.59910243e-04
  1.59817076e-04]",0.2086395025253296,0,0
46,55,2024-09-19 21:12:42.094347008,TASK_BEGIN,11,0.8455807036889967,0.1358467954803339,-1.461520908819976,0.5339852766718366,2.2167890190791573,-0.2484293597777856,8.269509324896653,-0.8888967445385659,1,2024-09-19 21:12:44.563009033,1726780364.5630093,2024-09-19 21:12:44.563009280,2,[ 0.01713558 -0.00428788  0.02549584 -0.15371749],-0.0,-4.38804831638408,[ 0.01713558 -0.00428788  0.02549584 -0.15371749],[ 0.01713558 -0.00428788  0.02549584 -0.15371749],[1.24882605 0.78494303 0.42469975],"[ 1.23579989e+00  7.64289235e-01  4.66035110e-01  1.23658388e+00
  7.63799126e-01  4.41321281e-01  7.83992658e-04 -4.90108580e-04
 -2.47138289e-02  2.35701403e-02  2.45635771e-02 -1.60892508e-04
  1.31239748e-03  1.48746174e-02  1.71799157e-05 -1.57006649e-04
 -4.77180882e-05  8.83509962e-06 -2.13961177e-05  4.81412021e-05
  3.94179612e-04 -1.01818469e-04  5.14976421e-04 -1.59910243e-04
  1.59817076e-04]",0.2086395025253296,0,0
47,61,2024-09-19 21:12:43.371790848,TASK_BEGIN,11,0.8136178031188869,0.1496735565721059,-1.511078449077867,0.3578076146396169,2.2155988968399765,-0.3091681633812099,7.373966928019596,-0.9281455763483736,1,2024-09-19 21:12:46.178343018,1726780366.178343,2024-09-19 21:12:46.178343168,3,[-0.71441483  0.84366715 -0.35160384  0.17017055],-1.0,-1.0,[-0.71441483  0.84366715 -0.35160384  0.17017055],[-0.71441483  0.84366715 -0.35160384  0.17017055],[1.27061878 0.8505123  0.75992973],"[ 1.32022194e+00  7.74715062e-01  5.24079616e-01  1.19396985e+00
  8.91807002e-01  4.24737381e-01 -1.26252089e-01  1.17091941e-01
 -9.93422351e-02  3.38734720e-02  3.53967180e-02 -5.03884423e-08
  7.75206804e-08 -2.37009467e-16  1.90060233e-02 -2.16998337e-02
  9.20744186e-03  2.85323085e-08 -4.38958592e-08  1.75139962e-18
 -1.90060244e-02  2.16998330e-02 -9.18077630e-03  5.95301298e-02
  6.02630301e-02]",1.0113446712493896,0,0
48,62,2024-09-19 21:12:43.446472960,TASK_BEGIN,11,0.7947878313975952,0.1583816090717987,-1.512056834035285,0.3550406843732365,2.200453163553718,-0.3164024401927055,7.263076646671684,-0.9331017398967104,1,2024-09-19 21:12:46.178343018,1726780366.178343,2024-09-19 21:12:46.178343168,3,[-0.71441483  0.84366715 -0.35160384  0.17017055],-1.0,-1.0,[-0.71441483  0.84366715 -0.35160384  0.17017055],[-0.71441483  0.84366715 -0.35160384  0.17017055],[1.27061878 0.8505123  0.75992973],"[ 1.32022194e+00  7.74715062e-01  5.24079616e-01  1.19396985e+00
  8.91807002e-01  4.24737381e-01 -1.26252089e-01  1.17091941e-01
 -9.93422351e-02  3.38734720e-02  3.53967180e-02 -5.03884423e-08
  7.75206804e-08 -2.37009467e-16  1.90060233e-02 -2.16998337e-02
  9.20744186e-03  2.85323085e-08 -4.38958592e-08  1.75139962e-18
 -1.90060244e-02  2.16998330e-02 -9.18077630e-03  5.95301298e-02
  6.02630301e-02]",1.0113446712493896,0,0
49,63,2024-09-19 21:12:44.371411200,TASK_BEGIN,11,0.7717641613365337,0.16881854711284,-1.5029314904472162,0.3597747338467383,2.1834979760203463,-0.3224745544282119,7.157899600719319,-0.936440492626758,1,2024-09-19 21:12:46.615792969,1726780366.6157932,2024-09-19 21:12:46.615793152,3,[-0.68762004  0.6640748  -0.67785406  0.18409799],-1.0,-4.90099501,[-0.68762004  0.6640748  -0.67785406  0.18409799],[-0.68762004  0.6640748  -0.67785406  0.18409799],[1.27061878 0.8505123  0.75992973],"[ 1.22777683e+00  8.80470701e-01  4.62635544e-01  1.19396985e+00
  8.91807001e-01  4.24779403e-01 -3.38069781e-02  1.13363005e-02
 -3.78561410e-02  5.00449719e-02  5.00449848e-02 -5.47721600e-09
  8.42648617e-09 -2.16255224e-15  1.62959517e-02 -1.49627271e-02
  1.62840951e-02  3.07185103e-09 -4.72592466e-09  1.94516420e-18
 -1.62959518e-02  1.49627270e-02 -1.62812292e-02 -1.36122233e-06
 -1.16197981e-06]",1.1585191488265991,0,0
50,64,2024-09-19 21:12:44.434490880,TASK_BEGIN,11,0.7451719235540412,0.1807367141734504,-1.482055806250045,0.3712209376246139,2.1658682356462995,-0.3274245796925863,7.055172880116838,-0.9375175037140416,1,2024-09-19 21:12:46.615792969,1726780366.6157932,2024-09-19 21:12:46.615793152,3,[-0.68762004  0.6640748  -0.67785406  0.18409799],-1.0,-4.90099501,[-0.68762004  0.6640748  -0.67785406  0.18409799],[-0.68762004  0.6640748  -0.67785406  0.18409799],[1.27061878 0.8505123  0.75992973],"[ 1.22777683e+00  8.80470701e-01  4.62635544e-01  1.19396985e+00
  8.91807001e-01  4.24779403e-01 -3.38069781e-02  1.13363005e-02
 -3.78561410e-02  5.00449719e-02  5.00449848e-02 -5.47721600e-09
  8.42648617e-09 -2.16255224e-15  1.62959517e-02 -1.49627271e-02
  1.62840951e-02  3.07185103e-09 -4.72592466e-09  1.94516420e-18
 -1.62959518e-02  1.49627270e-02 -1.62812292e-02 -1.36122233e-06
 -1.16197981e-06]",1.1585191488265991,0,0
51,65,2024-09-19 21:12:44.496975872,TASK_BEGIN,11,0.7159861436395955,0.1938048324474985,-1.4487765938720265,0.3884050533091496,2.1487264556748498,-0.3313370668994823,6.952241093248593,-0.935670269597058,1,2024-09-19 21:12:46.615792969,1726780366.6157932,2024-09-19 21:12:46.615793152,3,[-0.68762004  0.6640748  -0.67785406  0.18409799],-1.0,-4.90099501,[-0.68762004  0.6640748  -0.67785406  0.18409799],[-0.68762004  0.6640748  -0.67785406  0.18409799],[1.27061878 0.8505123  0.75992973],"[ 1.22777683e+00  8.80470701e-01  4.62635544e-01  1.19396985e+00
  8.91807001e-01  4.24779403e-01 -3.38069781e-02  1.13363005e-02
 -3.78561410e-02  5.00449719e-02  5.00449848e-02 -5.47721600e-09
  8.42648617e-09 -2.16255224e-15  1.62959517e-02 -1.49627271e-02
  1.62840951e-02  3.07185103e-09 -4.72592466e-09  1.94516420e-18
 -1.62959518e-02  1.49627270e-02 -1.62812292e-02 -1.36122233e-06
 -1.16197981e-06]",1.1585191488265991,0,0
52,66,2024-09-19 21:12:44.574470912,TASK_BEGIN,11,0.6854456335201139,0.2076211428624671,-1.4033755215450388,0.4102172340953721,2.1331889852372314,-0.3343316053374967,6.846931981910003,-0.9301934977716976,1,2024-09-19 21:12:46.615792969,1726780366.6157932,2024-09-19 21:12:46.615793152,3,[-0.68762004  0.6640748  -0.67785406  0.18409799],-1.0,-4.90099501,[-0.68762004  0.6640748  -0.67785406  0.18409799],[-0.68762004  0.6640748  -0.67785406  0.18409799],[1.27061878 0.8505123  0.75992973],"[ 1.22777683e+00  8.80470701e-01  4.62635544e-01  1.19396985e+00
  8.91807001e-01  4.24779403e-01 -3.38069781e-02  1.13363005e-02
 -3.78561410e-02  5.00449719e-02  5.00449848e-02 -5.47721600e-09
  8.42648617e-09 -2.16255224e-15  1.62959517e-02 -1.49627271e-02
  1.62840951e-02  3.07185103e-09 -4.72592466e-09  1.94516420e-18
 -1.62959518e-02  1.49627270e-02 -1.62812292e-02 -1.36122233e-06
 -1.16197981e-06]",1.1585191488265991,0,0
53,67,2024-09-19 21:12:44.641793024,TASK_BEGIN,11,0.6549361308995749,0.2217371309480358,-1.3468298924237354,0.4354538268134087,2.120247002812781,-0.336558474154267,6.737610676299995,-0.920406691616753,1,2024-09-19 21:12:47.470778076,1726780367.4707782,2024-09-19 21:12:47.470778112,3,[ 0.09372195 -0.08993081  1.         -0.38913772],-1.0,-12.247897700103202,[ 0.09372195 -0.08993081  1.         -0.38913772],[ 0.09372195 -0.08993081  1.         -0.38913772],[1.27061878 0.8505123  0.75992973],"[ 1.21761458e+00  8.87320314e-01  6.33564836e-01  1.21004387e+00
  8.87534982e-01  6.20861217e-01 -7.57071730e-03  2.14667869e-04
 -1.27036194e-02  2.42310205e-02  2.38765229e-02 -1.63615819e-04
  2.71850155e-04  1.55214997e-02  2.52244054e-04  2.21927528e-05
  1.99092389e-05 -4.68092555e-04  2.28565525e-03  2.30325068e-04
  3.66796189e-03 -1.77164181e-03  2.24955857e-02  1.02854145e-04
 -1.04975995e-04]",1.0421535968780518,0,0
54,68,2024-09-19 21:12:44.703971072,TASK_BEGIN,11,0.6258708279838392,0.2356902230173699,-1.2804530435252728,0.4628347327847929,2.110747999192724,-0.3381943619674545,6.623551822955233,-0.9058048232402764,1,2024-09-19 21:12:47.470778076,1726780367.4707782,2024-09-19 21:12:47.470778112,3,[ 0.09372195 -0.08993081  1.         -0.38913772],-1.0,-12.247897700103202,[ 0.09372195 -0.08993081  1.         -0.38913772],[ 0.09372195 -0.08993081  1.         -0.38913772],[1.27061878 0.8505123  0.75992973],"[ 1.21761458e+00  8.87320314e-01  6.33564836e-01  1.21004387e+00
  8.87534982e-01  6.20861217e-01 -7.57071730e-03  2.14667869e-04
 -1.27036194e-02  2.42310205e-02  2.38765229e-02 -1.63615819e-04
  2.71850155e-04  1.55214997e-02  2.52244054e-04  2.21927528e-05
  1.99092389e-05 -4.68092555e-04  2.28565525e-03  2.30325068e-04
  3.66796189e-03 -1.77164181e-03  2.24955857e-02  1.02854145e-04
 -1.04975995e-04]",1.0421535968780518,0,0
55,69,2024-09-19 21:12:44.765993216,TASK_BEGIN,11,0.5995913011908793,0.2490374700925697,-1.2054882704832222,0.4909942986040011,2.105444724061185,-0.3394319412203931,6.505216305574338,-0.8861931285531168,1,2024-09-19 21:12:47.576777832,1726780367.576778,2024-09-19 21:12:47.576777984,3,[ 0.23606215 -0.16344771  1.         -0.42241594],-1.0,-13.12541872310217,[ 0.23606215 -0.16344771  1.         -0.42241594],[ 0.23606215 -0.16344771  1.         -0.42241594],[1.27061878 0.8505123  0.75992973],"[ 1.22859610e+00  8.83122317e-01  6.64044944e-01  1.22107168e+00
  8.83359388e-01  6.51564953e-01 -7.52442329e-03  2.37070938e-04
 -1.24799910e-02  2.43644807e-02  2.37465915e-02 -8.85636112e-04
  5.02646824e-03  1.55516996e-02  3.11325682e-04  6.63029393e-05
 -2.03529428e-04  1.57361868e-03  4.74805134e-03  1.99025663e-04
  8.31815714e-03 -3.32019798e-03  2.25801664e-02  1.16932633e-05
 -6.44464942e-06]",1.0708088874816895,0,0
56,70,2024-09-19 21:12:45.706469120,TASK_BEGIN,11,0.577287847773941,0.2613838469349592,-1.12275635742957,0.5184785800927145,2.1050361732217997,-0.3404614672218395,6.384071254192983,-0.8617293922155445,1,2024-09-19 21:12:47.789288086,1726780367.7892888,2024-09-19 21:12:47.789288704,3,[ 0.3463512  -0.22038051  0.99860734 -0.45464364],-1.0,-14.854222890512437,[ 0.3463512  -0.22038051  0.99860734 -0.45464364],[ 0.3463512  -0.22038051  0.99860734 -0.45464364],[1.27061878 0.8505123  0.75992973],"[ 1.25435617e+00  8.70292824e-01  7.28071488e-01  1.24810516e+00
  8.70551681e-01  7.14895923e-01 -6.25101267e-03  2.58857165e-04
 -1.31755647e-02  2.43372251e-02  2.37714802e-02 -2.03770786e-03
  7.29755282e-03  1.56583137e-02  7.50973436e-04 -1.77689349e-04
 -4.50978640e-04  1.67067620e-04 -1.01290858e-03  2.00537379e-04
  8.41998305e-03 -5.12818211e-03  2.36235498e-02 -2.03120841e-04
  2.01448459e-04]",1.1865166425704956,0,0
57,71,2024-09-19 21:12:45.789129984,TASK_BEGIN,11,0.5599184899973838,0.2724080401661803,-1.0325299468266125,0.5437974225524915,2.1101050608271086,-0.3414446122969253,6.26207372480416,-0.8328798188166567,1,2024-09-19 21:12:47.895292969,1726780367.8952932,2024-09-19 21:12:47.895293184,3,[ 0.04188694 -0.11215201  0.39400637 -0.4392649 ],-0.0,-14.705680661607312,[ 0.04188694 -0.11215201  0.39400637 -0.4392649 ],[ 0.04188694 -0.11215201  0.39400637 -0.4392649 ],[1.27061878 0.8505123  0.75992973],"[ 1.25812166e+00  8.66720559e-01  7.42321341e-01  1.25220469e+00
  8.66650199e-01  7.28883293e-01 -5.91696182e-03 -7.03596360e-05
 -1.34380488e-02  2.40632080e-02  2.40456875e-02 -1.94939510e-03
  6.78899638e-03  1.57395039e-02  1.74500213e-04 -3.35454831e-04
 -1.84398439e-04  1.05381064e-03 -8.57023559e-04 -1.97808428e-06
  1.44992445e-03 -2.04246118e-03  7.43590834e-03 -3.16870237e-04
  3.19949128e-04]",0.7090824246406555,0,0
58,72,2024-09-19 21:12:45.846583040,TASK_BEGIN,11,0.5481163852395347,0.2818910899655112,-0.934848072492212,0.5655673614709839,2.120944662856576,-0.34248551390037,6.141086084393343,-0.8003270993397366,1,2024-09-19 21:12:47.895292969,1726780367.8952932,2024-09-19 21:12:47.895293184,3,[ 0.04188694 -0.11215201  0.39400637 -0.4392649 ],-0.0,-14.705680661607312,[ 0.04188694 -0.11215201  0.39400637 -0.4392649 ],[ 0.04188694 -0.11215201  0.39400637 -0.4392649 ],[1.27061878 0.8505123  0.75992973],"[ 1.25812166e+00  8.66720559e-01  7.42321341e-01  1.25220469e+00
  8.66650199e-01  7.28883293e-01 -5.91696182e-03 -7.03596360e-05
 -1.34380488e-02  2.40632080e-02  2.40456875e-02 -1.94939510e-03
  6.78899638e-03  1.57395039e-02  1.74500213e-04 -3.35454831e-04
 -1.84398439e-04  1.05381064e-03 -8.57023559e-04 -1.97808428e-06
  1.44992445e-03 -2.04246118e-03  7.43590834e-03 -3.16870237e-04
  3.19949128e-04]",0.7090824246406555,0,0
59,73,2024-09-19 21:12:45.912071936,TASK_BEGIN,11,0.5421062130727861,0.2897434311857502,-0.8303009007106775,0.5827313833063921,2.137385225204365,-0.3436128567811824,6.022259155591873,-0.7648519649089425,1,2024-09-19 21:12:48.001332031,1726780368.0013328,2024-09-19 21:12:48.001332736,3,[ 0.0406337  -0.02238889  0.19015208 -0.4817701 ],-0.0,-14.55862385499124,[ 0.0406337  -0.02238889  0.19015208 -0.4817701 ],[ 0.0406337  -0.02238889  0.19015208 -0.4817701 ],[1.27061878 0.8505123  0.75992973],"[ 1.26022098e+00  8.65978110e-01  7.48745719e-01  1.25446190e+00
  8.65613649e-01  7.35174350e-01 -5.75908053e-03 -3.64461228e-04
 -1.35713698e-02  2.37691731e-02  2.43417137e-02 -1.38137374e-03
  4.93273057e-03  1.57567843e-02  1.23255166e-04 -2.08189342e-04
 -1.13660953e-04  9.84431865e-04 -1.63147973e-03 -8.25097449e-06
  1.41892185e-03 -2.39726414e-04  4.04033165e-03 -2.25816064e-04
  2.28000592e-04]",0.6379550695419312,0,0
60,74,2024-09-19 21:12:45.987598848,TASK_BEGIN,11,0.5416692033056227,0.2960169814894839,-0.7209250623812565,0.594770267428884,2.158734494083669,-0.3447844179247268,5.905470143042541,-0.7272274436874477,1,2024-09-19 21:12:48.107333008,1726780368.1073332,2024-09-19 21:12:48.107333120,3,[ 0.00726396 -0.03080526  0.14476572 -0.48931867],-0.0,-14.413037616441327,[ 0.00726396 -0.03080526  0.14476572 -0.48931867],[ 0.00726396 -0.03080526  0.14476572 -0.48931867],[1.27061878 0.8505123  0.75992973],"[ 1.26129314e+00  8.65169657e-01  7.53411632e-01  1.25561420e+00
  8.64694304e-01  7.39767225e-01 -5.67893650e-03 -4.75353343e-04
 -1.36444068e-02  2.36753273e-02  2.44360815e-02 -1.25144965e-03
  3.47552856e-03  1.57221703e-02  7.48394788e-05 -1.54466378e-04
 -7.69296867e-05 -3.68868415e-03 -1.04103734e-03  2.95098638e-05
  5.29581103e-04 -6.64559831e-04  3.23355191e-03 -1.08005015e-05
  8.40794204e-06]",0.6270818114280701,0,0
61,75,2024-09-19 21:12:46.050093056,TASK_BEGIN,11,0.546182061312662,0.3008933231940455,-0.6106548433281178,0.6017991526844697,2.1838370452913582,-0.3459077701068545,5.78926801378947,-0.6882045821188444,1,2024-09-19 21:12:48.853024902,1726780368.8530254,2024-09-19 21:12:48.853025536,3,[-0.00244607 -0.01978291  0.01805288 -0.5077681 ],-0.0,-13.433892920364919,[-0.00244607 -0.01978291  0.01805288 -0.5077681 ],[-0.00244607 -0.01978291  0.01805288 -0.5077681 ],[1.27061878 0.8505123  0.75992973],"[ 1.26285154e+00  8.59193445e-01  7.63700785e-01  1.25740124e+00
  8.59147179e-01  7.49738227e-01 -5.45030014e-03 -4.62661699e-05
 -1.39625578e-02  2.40872943e-02  2.40242118e-02 -3.79859688e-05
 -1.23679650e-03  1.56797084e-02  1.78012909e-05  8.22281954e-05
 -3.86382126e-05  4.42267832e-03 -2.99238746e-04  2.57646733e-05
  2.15823697e-05 -4.42174721e-04  3.30235187e-04 -7.88034502e-05
  8.00135787e-05]",0.6271127462387085,0,0
62,76,2024-09-19 21:12:46.127346944,TASK_BEGIN,11,0.5547214981539073,0.304651322510843,-0.5050502131800689,0.6045058653775731,2.2111723250268347,-0.3468568231716785,5.671636650855076,-0.6486104007689882,1,2024-09-19 21:12:48.959021973,1726780368.9590228,2024-09-19 21:12:48.959022848,3,[-0.00065591 -0.01659763  0.0146856  -0.50879174],-0.0,-13.29955399116127,[-0.00065591 -0.01659763  0.0146856  -0.50879174],[-0.00065591 -0.01659763  0.0146856  -0.50879174],[1.27061878 0.8505123  0.75992973],"[ 1.26292154e+00  8.58657044e-01  7.64087212e-01  1.25748916e+00
  8.58536452e-01  7.50088004e-01 -5.43237655e-03 -1.20591474e-04
 -1.39992078e-02  2.40245906e-02  2.40869937e-02 -3.21053095e-04
 -1.58093862e-03  1.56802114e-02  1.79859923e-05 -4.61341128e-05
 -3.75841524e-05  2.70161266e-04 -2.81908052e-04  1.60529708e-05
  4.77846535e-05 -3.68057357e-04  2.33836494e-04 -5.77043430e-05
  5.77722557e-05]",0.6275267004966736,0,0
63,84,2024-09-19 21:12:48.415040000,TASK_BEGIN,11,0.6559184441343753,0.3300315859601913,-0.3762341156645922,0.5823676447742802,2.2783571971438485,-0.3211962340459525,4.956102970450117,-0.464900088520694,1,2024-09-19 21:12:51.212072998,1726780371.212074,2024-09-19 21:12:51.212073984,4,[ 1.12105922 -1.29196957  6.43852933 -0.16818927],-1.0,-6.793465209301,[ 1.12105922 -1.29196957  6.43852933 -0.16818927],[-0.23110043  0.45221996  0.3318503  -0.15695158],[1.25487185 0.7614707  0.42469975],"[ 1.51545264  0.72001011  0.44894304  1.47885899  0.73196418  0.42541359
 -0.03659365  0.01195407 -0.02352945  0.03247064  0.03831652  0.00286331
 -0.00611355  0.16073057 -0.02146731  0.01831932 -0.02158299  0.11829853
 -0.05098166 -0.04944857  0.01355618 -0.02753647  0.02610994 -0.01771426
 -0.01896007]",7.006455422308491,0,0
64,85,2024-09-19 21:12:48.489466112,TASK_BEGIN,11,0.6635588727737022,0.3351668444127334,-0.4604046736711387,0.579964525180557,2.245614178951433,-0.3106739334835072,5.007318469009518,-0.4793984828914655,1,2024-09-19 21:12:51.212072998,1726780371.212074,2024-09-19 21:12:51.212073984,4,[ 1.12105922 -1.29196957  6.43852933 -0.16818927],-1.0,-6.793465209301,[ 1.12105922 -1.29196957  6.43852933 -0.16818927],[-0.23110043  0.45221996  0.3318503  -0.15695158],[1.25487185 0.7614707  0.42469975],"[ 1.51545264  0.72001011  0.44894304  1.47885899  0.73196418  0.42541359
 -0.03659365  0.01195407 -0.02352945  0.03247064  0.03831652  0.00286331
 -0.00611355  0.16073057 -0.02146731  0.01831932 -0.02158299  0.11829853
 -0.05098166 -0.04944857  0.01355618 -0.02753647  0.02610994 -0.01771426
 -0.01896007]",7.006455422308491,0,0
65,86,2024-09-19 21:12:48.557085952,TASK_BEGIN,11,0.6688878557987875,0.3408163019616809,-0.5558566827185965,0.5771584784032342,2.203561436598032,-0.2986096421258999,5.114888952577112,-0.5041582645337608,1,2024-09-19 21:12:51.212072998,1726780371.212074,2024-09-19 21:12:51.212073984,4,[ 1.12105922 -1.29196957  6.43852933 -0.16818927],-1.0,-6.793465209301,[ 1.12105922 -1.29196957  6.43852933 -0.16818927],[-0.23110043  0.45221996  0.3318503  -0.15695158],[1.25487185 0.7614707  0.42469975],"[ 1.51545264  0.72001011  0.44894304  1.47885899  0.73196418  0.42541359
 -0.03659365  0.01195407 -0.02352945  0.03247064  0.03831652  0.00286331
 -0.00611355  0.16073057 -0.02146731  0.01831932 -0.02158299  0.11829853
 -0.05098166 -0.04944857  0.01355618 -0.02753647  0.02610994 -0.01771426
 -0.01896007]",7.006455422308491,0,0
66,87,2024-09-19 21:12:48.622320896,TASK_BEGIN,11,0.6716874791156346,0.3468970548772156,-0.656305932555699,0.5734593588926304,2.1539339970276967,-0.2853625658872346,5.277347645907645,-0.5376838172993454,1,2024-09-19 21:12:51.212072998,1726780371.212074,2024-09-19 21:12:51.212073984,4,[ 1.12105922 -1.29196957  6.43852933 -0.16818927],-1.0,-6.793465209301,[ 1.12105922 -1.29196957  6.43852933 -0.16818927],[-0.23110043  0.45221996  0.3318503  -0.15695158],[1.25487185 0.7614707  0.42469975],"[ 1.51545264  0.72001011  0.44894304  1.47885899  0.73196418  0.42541359
 -0.03659365  0.01195407 -0.02352945  0.03247064  0.03831652  0.00286331
 -0.00611355  0.16073057 -0.02146731  0.01831932 -0.02158299  0.11829853
 -0.05098166 -0.04944857  0.01355618 -0.02753647  0.02610994 -0.01771426
 -0.01896007]",7.006455422308491,0,0
67,88,2024-09-19 21:12:48.690361088,TASK_BEGIN,11,0.6718405201888943,0.3532809678316107,-0.7552282119672642,0.5683172554398233,2.0988135366493506,-0.2713612675959714,5.48753515292075,-0.5775921560733602,1,2024-09-19 21:12:51.212072998,1726780371.212074,2024-09-19 21:12:51.212073984,4,[ 1.12105922 -1.29196957  6.43852933 -0.16818927],-1.0,-6.793465209301,[ 1.12105922 -1.29196957  6.43852933 -0.16818927],[-0.23110043  0.45221996  0.3318503  -0.15695158],[1.25487185 0.7614707  0.42469975],"[ 1.51545264  0.72001011  0.44894304  1.47885899  0.73196418  0.42541359
 -0.03659365  0.01195407 -0.02352945  0.03247064  0.03831652  0.00286331
 -0.00611355  0.16073057 -0.02146731  0.01831932 -0.02158299  0.11829853
 -0.05098166 -0.04944857  0.01355618 -0.02753647  0.02610994 -0.01771426
 -0.01896007]",7.006455422308491,0,0
68,89,2024-09-19 21:12:48.747396864,TASK_BEGIN,11,0.6693688599910963,0.3597905467058662,-0.8464182323128396,0.5612096677511869,2.0403667885978924,-0.2570577584478219,5.733279229459381,-0.620860947148228,1,2024-09-19 21:12:51.212072998,1726780371.212074,2024-09-19 21:12:51.212073984,4,[ 1.12105922 -1.29196957  6.43852933 -0.16818927],-1.0,-6.793465209301,[ 1.12105922 -1.29196957  6.43852933 -0.16818927],[-0.23110043  0.45221996  0.3318503  -0.15695158],[1.25487185 0.7614707  0.42469975],"[ 1.51545264  0.72001011  0.44894304  1.47885899  0.73196418  0.42541359
 -0.03659365  0.01195407 -0.02352945  0.03247064  0.03831652  0.00286331
 -0.00611355  0.16073057 -0.02146731  0.01831932 -0.02158299  0.11829853
 -0.05098166 -0.04944857  0.01355618 -0.02753647  0.02610994 -0.01771426
 -0.01896007]",7.006455422308491,0,0
69,90,2024-09-19 21:12:48.824590080,TASK_BEGIN,11,0.6644632642979224,0.3662061894083414,-0.9246356117143228,0.551775749802048,1.9806409299282888,-0.2428910689228408,5.9989504221936265,-0.6641177765292298,1,2024-09-19 21:12:51.212072998,1726780371.212074,2024-09-19 21:12:51.212073984,4,[ 1.12105922 -1.29196957  6.43852933 -0.16818927],-1.0,-6.793465209301,[ 1.12105922 -1.29196957  6.43852933 -0.16818927],[-0.23110043  0.45221996  0.3318503  -0.15695158],[1.25487185 0.7614707  0.42469975],"[ 1.51545264  0.72001011  0.44894304  1.47885899  0.73196418  0.42541359
 -0.03659365  0.01195407 -0.02352945  0.03247064  0.03831652  0.00286331
 -0.00611355  0.16073057 -0.02146731  0.01831932 -0.02158299  0.11829853
 -0.05098166 -0.04944857  0.01355618 -0.02753647  0.02610994 -0.01771426
 -0.01896007]",7.006455422308491,0,0
70,91,2024-09-19 21:12:49.762752000,TASK_BEGIN,11,0.6574923681780104,0.3722806289813249,-0.9862606627605904,0.5399716600252269,1.921475269528262,-0.2292723672888592,6.267431936297933,-0.7039145833413899,1,2024-09-19 21:12:52.487803955,1726780372.4878044,2024-09-19 21:12:52.487804416,4,[ 1.27241151  9.30593201 -2.60980003  2.31413101],-1.0,-17.383137616441328,[ 1.27241151  9.30593201 -2.60980003  2.31413101],[-0.31779295 -0.00314634 -0.12864846 -0.16143207],[1.25487185 0.7614707  0.42469975],"[ 1.50054494e+00  8.00125905e-01  4.19878970e-01  1.44716531e+00
  7.88464904e-01  4.30300908e-01 -5.33796229e-02 -1.16610009e-02
  1.04219374e-02  5.04013249e-02  5.00481377e-02  1.31369857e-01
  3.09213358e-02  4.58700986e-01 -3.60933399e-02  2.71157475e-02
  1.76106205e-02  2.08144474e-01  3.60457672e-02  3.07116095e-01
  2.17282900e-02  2.31122194e-02 -2.89606987e-02 -1.04611471e-03
 -1.16657436e-05]",10.60282132624968,0,0
71,92,2024-09-19 21:12:49.830276864,TASK_BEGIN,11,0.6489726849756967,0.3777524700092984,-1.0297258344654294,0.5261731074218153,1.8645090943400413,-0.216591139737114,6.521986988777199,-0.7369833775484416,1,2024-09-19 21:12:52.487803955,1726780372.4878044,2024-09-19 21:12:52.487804416,4,[ 1.27241151  9.30593201 -2.60980003  2.31413101],-1.0,-17.383137616441328,[ 1.27241151  9.30593201 -2.60980003  2.31413101],[-0.31779295 -0.00314634 -0.12864846 -0.16143207],[1.25487185 0.7614707  0.42469975],"[ 1.50054494e+00  8.00125905e-01  4.19878970e-01  1.44716531e+00
  7.88464904e-01  4.30300908e-01 -5.33796229e-02 -1.16610009e-02
  1.04219374e-02  5.04013249e-02  5.00481377e-02  1.31369857e-01
  3.09213358e-02  4.58700986e-01 -3.60933399e-02  2.71157475e-02
  1.76106205e-02  2.08144474e-01  3.60457672e-02  3.07116095e-01
  2.17282900e-02  2.31122194e-02 -2.89606987e-02 -1.04611471e-03
 -1.16657436e-05]",10.60282132624968,0,0
72,93,2024-09-19 21:12:49.897603072,TASK_BEGIN,11,0.6394972436891544,0.3823553089860779,-1.0554393970672886,0.5111487761078817,1.8112167892794844,-0.2052254373359602,6.74776145761981,-0.7604858382842792,1,2024-09-19 21:12:52.699389893,1726780372.6993902,2024-09-19 21:12:52.699390208,4,[ 3.82352607 -7.56802777 -7.198485   -1.35979437],-1.0,-19.027213177874142,[ 3.82352607 -7.56802777 -7.198485   -1.35979437],[-0.9999999  -0.06937271  0.1292881  -0.26731402],[1.25487185 0.7614707  0.42469975],"[ 1.51839763e+00  7.98292771e-01  4.17836715e-01  1.42500959e+00
  8.36615868e-01  4.34890300e-01 -9.33880436e-02  3.83230968e-02
  1.70535854e-02  5.20794768e-02  2.74544432e-02 -6.14030945e-01
 -2.79315918e-01  4.17296936e-01 -1.40860222e-02  2.72773835e-02
  2.04038865e-03 -3.09039729e-01 -2.31433240e-01 -4.38418174e-02
  5.20061404e-03 -1.55972581e-02  4.03893180e-04 -4.15299413e-03
 -1.63064650e-02]",11.218116315166478,0,0
73,94,2024-09-19 21:12:49.965110016,TASK_BEGIN,11,0.6296469577888387,0.3858260703526773,-1.0652548630354337,0.4959082924861237,1.7629205216150756,-0.195536602853597,6.933009817904,-0.7722826840518815,1,2024-09-19 21:12:52.699389893,1726780372.6993902,2024-09-19 21:12:52.699390208,4,[ 3.82352607 -7.56802777 -7.198485   -1.35979437],-1.0,-19.027213177874142,[ 3.82352607 -7.56802777 -7.198485   -1.35979437],[-0.9999999  -0.06937271  0.1292881  -0.26731402],[1.25487185 0.7614707  0.42469975],"[ 1.51839763e+00  7.98292771e-01  4.17836715e-01  1.42500959e+00
  8.36615868e-01  4.34890300e-01 -9.33880436e-02  3.83230968e-02
  1.70535854e-02  5.20794768e-02  2.74544432e-02 -6.14030945e-01
 -2.79315918e-01  4.17296936e-01 -1.40860222e-02  2.72773835e-02
  2.04038865e-03 -3.09039729e-01 -2.31433240e-01 -4.38418174e-02
  5.20061404e-03 -1.55972581e-02  4.03893180e-04 -4.15299413e-03
 -1.63064650e-02]",11.218116315166478,0,0
74,95,2024-09-19 21:12:50.031635968,TASK_BEGIN,11,0.6199201677682699,0.3879160326952339,-1.0618817293112894,0.4815018573133908,1.7207842144387742,-0.1878499055723861,7.070134562776764,-0.7712222449298152,1,2024-09-19 21:12:52.699389893,1726780372.6993902,2024-09-19 21:12:52.699390208,4,[ 3.82352607 -7.56802777 -7.198485   -1.35979437],-1.0,-19.027213177874142,[ 3.82352607 -7.56802777 -7.198485   -1.35979437],[-0.9999999  -0.06937271  0.1292881  -0.26731402],[1.25487185 0.7614707  0.42469975],"[ 1.51839763e+00  7.98292771e-01  4.17836715e-01  1.42500959e+00
  8.36615868e-01  4.34890300e-01 -9.33880436e-02  3.83230968e-02
  1.70535854e-02  5.20794768e-02  2.74544432e-02 -6.14030945e-01
 -2.79315918e-01  4.17296936e-01 -1.40860222e-02  2.72773835e-02
  2.04038865e-03 -3.09039729e-01 -2.31433240e-01 -4.38418174e-02
  5.20061404e-03 -1.55972581e-02  4.03893180e-04 -4.15299413e-03
 -1.63064650e-02]",11.218116315166478,0,0
75,96,2024-09-19 21:12:50.100445952,TASK_BEGIN,11,0.6106984448567043,0.388401795331223,-1.0485173674143458,0.4688420824605498,1.6858069063343375,-0.1824401918312945,7.156361409451351,-0.7573704117320141,1,2024-09-19 21:12:52.699389893,1726780372.6993902,2024-09-19 21:12:52.699390208,4,[ 3.82352607 -7.56802777 -7.198485   -1.35979437],-1.0,-19.027213177874142,[ 3.82352607 -7.56802777 -7.198485   -1.35979437],[-0.9999999  -0.06937271  0.1292881  -0.26731402],[1.25487185 0.7614707  0.42469975],"[ 1.51839763e+00  7.98292771e-01  4.17836715e-01  1.42500959e+00
  8.36615868e-01  4.34890300e-01 -9.33880436e-02  3.83230968e-02
  1.70535854e-02  5.20794768e-02  2.74544432e-02 -6.14030945e-01
 -2.79315918e-01  4.17296936e-01 -1.40860222e-02  2.72773835e-02
  2.04038865e-03 -3.09039729e-01 -2.31433240e-01 -4.38418174e-02
  5.20061404e-03 -1.55972581e-02  4.03893180e-04 -4.15299413e-03
 -1.63064650e-02]",11.218116315166478,0,0
76,97,2024-09-19 21:12:50.157660928,TASK_BEGIN,11,0.602233318171062,0.387091895229733,-1.0286507562602545,0.4585741537702378,1.658799490407738,-0.1795295805947964,7.1938944032679215,-0.7320968741640609,1,2024-09-19 21:12:52.699389893,1726780372.6993902,2024-09-19 21:12:52.699390208,4,[ 3.82352607 -7.56802777 -7.198485   -1.35979437],-1.0,-19.027213177874142,[ 3.82352607 -7.56802777 -7.198485   -1.35979437],[-0.9999999  -0.06937271  0.1292881  -0.26731402],[1.25487185 0.7614707  0.42469975],"[ 1.51839763e+00  7.98292771e-01  4.17836715e-01  1.42500959e+00
  8.36615868e-01  4.34890300e-01 -9.33880436e-02  3.83230968e-02
  1.70535854e-02  5.20794768e-02  2.74544432e-02 -6.14030945e-01
 -2.79315918e-01  4.17296936e-01 -1.40860222e-02  2.72773835e-02
  2.04038865e-03 -3.09039729e-01 -2.31433240e-01 -4.38418174e-02
  5.20061404e-03 -1.55972581e-02  4.03893180e-04 -4.15299413e-03
 -1.63064650e-02]",11.218116315166478,0,0
77,98,2024-09-19 21:12:51.086680832,TASK_BEGIN,11,0.5946219490584389,0.3838308803852699,-1.0058411439128987,0.4509899348945619,1.6403256381361369,-0.1792848728477192,7.189674228546767,-0.698026748584309,1,2024-09-19 21:12:53.869491943,1726780373.8694928,2024-09-19 21:12:53.869492736,4,[-1.87631451 -1.01849541  4.99849632  9.27523636],-1.0,-27.501966404214627,[-1.87631451 -1.01849541  4.99849632  9.27523636],[-0.23046717 -0.01981807 -0.79508746  0.42913792],[1.25487185 0.7614707  0.42469975],"[ 1.38297479e+00  7.59757157e-01  5.11203177e-01  1.34679436e+00
  8.15884889e-01  4.23791585e-01 -3.61804362e-02  5.61277316e-02
 -8.74115926e-02  3.76673635e-02  3.74163801e-02 -1.57150320e+00
 -6.55823241e-01 -1.61405705e+00  7.84565234e-03  2.74880502e-02
 -1.40672884e-02 -1.41048067e-01  1.83854039e-01 -7.50839085e-05
 -3.13651475e-03 -2.38776170e-02  1.00080625e-02  5.19570823e-02
  5.18058522e-02]",10.876299441567301,0,0
78,99,2024-09-19 21:12:51.149277952,TASK_BEGIN,11,0.5877629641832003,0.3785067478640547,-0.9833233824517876,0.4459651480160512,1.6306388376456165,-0.1818065087620551,7.154850209769754,-0.6589192875261998,1,2024-09-19 21:12:53.869491943,1726780373.8694928,2024-09-19 21:12:53.869492736,4,[-1.87631451 -1.01849541  4.99849632  9.27523636],-1.0,-27.501966404214627,[-1.87631451 -1.01849541  4.99849632  9.27523636],[-0.23046717 -0.01981807 -0.79508746  0.42913792],[1.25487185 0.7614707  0.42469975],"[ 1.38297479e+00  7.59757157e-01  5.11203177e-01  1.34679436e+00
  8.15884889e-01  4.23791585e-01 -3.61804362e-02  5.61277316e-02
 -8.74115926e-02  3.76673635e-02  3.74163801e-02 -1.57150320e+00
 -6.55823241e-01 -1.61405705e+00  7.84565234e-03  2.74880502e-02
 -1.40672884e-02 -1.41048067e-01  1.83854039e-01 -7.50839085e-05
 -3.13651475e-03 -2.38776170e-02  1.00080625e-02  5.19570823e-02
  5.18058522e-02]",10.876299441567301,0,0
79,100,2024-09-19 21:12:51.226402048,TASK_BEGIN,11,0.581322015702547,0.3710636631386119,-0.963456915697942,0.4429084722170112,1.629669415709107,-0.1871160545498118,7.103865049518585,-0.6194873638300066,1,2024-09-19 21:12:53.869491943,1726780373.8694928,2024-09-19 21:12:53.869492736,4,[-1.87631451 -1.01849541  4.99849632  9.27523636],-1.0,-27.501966404214627,[-1.87631451 -1.01849541  4.99849632  9.27523636],[-0.23046717 -0.01981807 -0.79508746  0.42913792],[1.25487185 0.7614707  0.42469975],"[ 1.38297479e+00  7.59757157e-01  5.11203177e-01  1.34679436e+00
  8.15884889e-01  4.23791585e-01 -3.61804362e-02  5.61277316e-02
 -8.74115926e-02  3.76673635e-02  3.74163801e-02 -1.57150320e+00
 -6.55823241e-01 -1.61405705e+00  7.84565234e-03  2.74880502e-02
 -1.40672884e-02 -1.41048067e-01  1.83854039e-01 -7.50839085e-05
 -3.13651475e-03 -2.38776170e-02  1.00080625e-02  5.19570823e-02
  5.18058522e-02]",10.876299441567301,0,0
80,101,2024-09-19 21:12:51.288492032,TASK_BEGIN,11,0.57474052639519,0.3615159850905159,-0.9472318931294712,0.4407534411979749,1.6370722026137323,-0.1951522467169689,7.05314089032134,-0.5851226516442314,1,2024-09-19 21:12:54.083482910,1726780374.0834837,2024-09-19 21:12:54.083483648,4,[ -2.20902181 -11.50294101   2.79213286   8.442964  ],-1.0,-28.944677272770754,[ -2.20902181 -11.50294101   2.79213286   8.442964  ],[-0.15679826  0.14020264 -0.99989593  0.05326348],[1.25487185 0.7614707  0.42469975],"[ 1.40015254e+00  7.59427082e-01  5.65343889e-01  1.34778941e+00
  8.16641065e-01  4.24144118e-01 -5.23631246e-02  5.72139825e-02
 -1.41199771e-01  5.01544826e-02  5.01697338e-02 -1.57098686e+00
 -6.55767329e-01 -1.56667563e+00  3.19702300e-02  3.05421453e-02
 -1.42505660e-02  1.71834375e-03 -2.07119724e-03 -2.83900573e-08
 -3.20210132e-02 -3.05842833e-02  1.46411956e-02 -3.35527148e-04
 -3.61768490e-04]",14.88022942808296,0,0
81,102,2024-09-19 21:12:51.366132992,TASK_BEGIN,11,0.5672890105321109,0.3499581042035612,-0.9340693700321516,0.4380408219135118,1.6522974353565136,-0.2057781165839884,7.019560252654128,-0.5615035723653605,1,2024-09-19 21:12:54.083482910,1726780374.0834837,2024-09-19 21:12:54.083483648,4,[ -2.20902181 -11.50294101   2.79213286   8.442964  ],-1.0,-28.944677272770754,[ -2.20902181 -11.50294101   2.79213286   8.442964  ],[-0.15679826  0.14020264 -0.99989593  0.05326348],[1.25487185 0.7614707  0.42469975],"[ 1.40015254e+00  7.59427082e-01  5.65343889e-01  1.34778941e+00
  8.16641065e-01  4.24144118e-01 -5.23631246e-02  5.72139825e-02
 -1.41199771e-01  5.01544826e-02  5.01697338e-02 -1.57098686e+00
 -6.55767329e-01 -1.56667563e+00  3.19702300e-02  3.05421453e-02
 -1.42505660e-02  1.71834375e-03 -2.07119724e-03 -2.83900573e-08
 -3.20210132e-02 -3.05842833e-02  1.46411956e-02 -3.35527148e-04
 -3.61768490e-04]",14.88022942808296,0,0
82,103,2024-09-19 21:12:51.428619008,TASK_BEGIN,11,0.5581431950165631,0.3365668005516606,-0.9219842115690152,0.4331016812869193,1.6746329148208343,-0.2187917624617319,7.018831350477256,-0.554089728030102,1,2024-09-19 21:12:54.083482910,1726780374.0834837,2024-09-19 21:12:54.083483648,4,[ -2.20902181 -11.50294101   2.79213286   8.442964  ],-1.0,-28.944677272770754,[ -2.20902181 -11.50294101   2.79213286   8.442964  ],[-0.15679826  0.14020264 -0.99989593  0.05326348],[1.25487185 0.7614707  0.42469975],"[ 1.40015254e+00  7.59427082e-01  5.65343889e-01  1.34778941e+00
  8.16641065e-01  4.24144118e-01 -5.23631246e-02  5.72139825e-02
 -1.41199771e-01  5.01544826e-02  5.01697338e-02 -1.57098686e+00
 -6.55767329e-01 -1.56667563e+00  3.19702300e-02  3.05421453e-02
 -1.42505660e-02  1.71834375e-03 -2.07119724e-03 -2.83900573e-08
 -3.20210132e-02 -3.05842833e-02  1.46411956e-02 -3.35527148e-04
 -3.61768490e-04]",14.88022942808296,0,0
83,104,2024-09-19 21:12:51.490542080,TASK_BEGIN,11,0.5464650325822532,0.3215969982459116,-0.9080518104022112,0.424312069535676,1.7031840458501717,-0.2339278569752361,7.063737948160486,-0.5675321795106354,1,2024-09-19 21:12:54.083482910,1726780374.0834837,2024-09-19 21:12:54.083483648,4,[ -2.20902181 -11.50294101   2.79213286   8.442964  ],-1.0,-28.944677272770754,[ -2.20902181 -11.50294101   2.79213286   8.442964  ],[-0.15679826  0.14020264 -0.99989593  0.05326348],[1.25487185 0.7614707  0.42469975],"[ 1.40015254e+00  7.59427082e-01  5.65343889e-01  1.34778941e+00
  8.16641065e-01  4.24144118e-01 -5.23631246e-02  5.72139825e-02
 -1.41199771e-01  5.01544826e-02  5.01697338e-02 -1.57098686e+00
 -6.55767329e-01 -1.56667563e+00  3.19702300e-02  3.05421453e-02
 -1.42505660e-02  1.71834375e-03 -2.07119724e-03 -2.83900573e-08
 -3.20210132e-02 -3.05842833e-02  1.46411956e-02 -3.35527148e-04
 -3.61768490e-04]",14.88022942808296,0,0
84,105,2024-09-19 21:12:52.469400832,TASK_BEGIN,11,0.5314809165270963,0.3053751377765933,-0.8890915695077097,0.4103715019434736,1.7368096817030927,-0.2508465592712409,7.162577436221037,-0.6050974861900579,1,2024-09-19 21:12:54.723663086,1726780374.7236633,2024-09-19 21:12:54.723663360,4,[-1.98792462 -4.41841984  8.32872912 -1.87584081],-1.0,-33.10282414303194,[-1.98792462 -4.41841984  8.32872912 -1.87584081],[ 0.02207495  0.61943555 -0.99877065  0.15035617],[1.25487185 0.7614707  0.42469975],"[ 1.35767822e+00  7.17446990e-01  5.88402848e-01  1.34771098e+00
  8.16576148e-01  4.24763220e-01 -9.96723434e-03  9.91291579e-02
 -1.63639628e-01  4.09284294e-02  3.78190273e-02 -1.57080227e+00
 -6.55767015e-01 -1.57066689e+00  2.38670941e-02  2.85400447e-02
 -2.43163024e-02  4.77712654e-05 -5.77449662e-05  8.49448463e-16
 -2.38685375e-02 -2.85412388e-02  2.43283085e-02 -1.72160172e-02
 -1.92785317e-02]",10.115252563685804,0,0
85,106,2024-09-19 21:12:52.525348864,TASK_BEGIN,11,0.5125519617038305,0.288292862438554,-0.8624255478080572,0.3905339786527452,1.774074900602921,-0.2691247338515612,7.318278935667139,-0.6682504580371887,1,2024-09-19 21:12:54.723663086,1726780374.7236633,2024-09-19 21:12:54.723663360,4,[-1.98792462 -4.41841984  8.32872912 -1.87584081],-1.0,-33.10282414303194,[-1.98792462 -4.41841984  8.32872912 -1.87584081],[ 0.02207495  0.61943555 -0.99877065  0.15035617],[1.25487185 0.7614707  0.42469975],"[ 1.35767822e+00  7.17446990e-01  5.88402848e-01  1.34771098e+00
  8.16576148e-01  4.24763220e-01 -9.96723434e-03  9.91291579e-02
 -1.63639628e-01  4.09284294e-02  3.78190273e-02 -1.57080227e+00
 -6.55767015e-01 -1.57066689e+00  2.38670941e-02  2.85400447e-02
 -2.43163024e-02  4.77712654e-05 -5.77449662e-05  8.49448463e-16
 -2.38685375e-02 -2.85412388e-02  2.43283085e-02 -1.72160172e-02
 -1.92785317e-02]",10.115252563685804,0,0
86,107,2024-09-19 21:12:52.589580032,TASK_BEGIN,11,0.4892311078257079,0.2707990075905419,-0.8265088284014737,0.3647115883809589,1.8132660223174255,-0.2882655706278411,7.52824690254443,-0.7564498458743283,1,2024-09-19 21:12:54.723663086,1726780374.7236633,2024-09-19 21:12:54.723663360,4,[-1.98792462 -4.41841984  8.32872912 -1.87584081],-1.0,-33.10282414303194,[-1.98792462 -4.41841984  8.32872912 -1.87584081],[ 0.02207495  0.61943555 -0.99877065  0.15035617],[1.25487185 0.7614707  0.42469975],"[ 1.35767822e+00  7.17446990e-01  5.88402848e-01  1.34771098e+00
  8.16576148e-01  4.24763220e-01 -9.96723434e-03  9.91291579e-02
 -1.63639628e-01  4.09284294e-02  3.78190273e-02 -1.57080227e+00
 -6.55767015e-01 -1.57066689e+00  2.38670941e-02  2.85400447e-02
 -2.43163024e-02  4.77712654e-05 -5.77449662e-05  8.49448463e-16
 -2.38685375e-02 -2.85412388e-02  2.43283085e-02 -1.72160172e-02
 -1.92785317e-02]",10.115252563685804,0,0
87,108,2024-09-19 21:12:52.672646912,TASK_BEGIN,11,0.4613027703221636,0.2533863837870713,-0.7812731036668562,0.3334134834567243,1.8524693671963115,-0.3077239801006334,7.784460784532505,-0.8670844882880488,1,2024-09-19 21:12:54.723663086,1726780374.7236633,2024-09-19 21:12:54.723663360,4,[-1.98792462 -4.41841984  8.32872912 -1.87584081],-1.0,-33.10282414303194,[-1.98792462 -4.41841984  8.32872912 -1.87584081],[ 0.02207495  0.61943555 -0.99877065  0.15035617],[1.25487185 0.7614707  0.42469975],"[ 1.35767822e+00  7.17446990e-01  5.88402848e-01  1.34771098e+00
  8.16576148e-01  4.24763220e-01 -9.96723434e-03  9.91291579e-02
 -1.63639628e-01  4.09284294e-02  3.78190273e-02 -1.57080227e+00
 -6.55767015e-01 -1.57066689e+00  2.38670941e-02  2.85400447e-02
 -2.43163024e-02  4.77712654e-05 -5.77449662e-05  8.49448463e-16
 -2.38685375e-02 -2.85412388e-02  2.43283085e-02 -1.72160172e-02
 -1.92785317e-02]",10.115252563685804,0,0
88,109,2024-09-19 21:12:52.728776960,TASK_BEGIN,11,0.4288025316164967,0.2365723139607705,-0.7281306385778071,0.2975511727818529,1.8896985002342,-0.3269334573230674,8.073604920302587,-0.9955076347289687,1,2024-09-19 21:12:55.043745117,1726780375.0437455,2024-09-19 21:12:55.043745536,4,[-1.30363344  5.53661758 -7.67449201  2.92754646],-1.0,-35.08973716315975,[-1.30363344  5.53661758 -7.67449201  2.92754646],[ 0.20899071  0.9928774  -0.42819673  0.31154484],[1.25487185 0.7614707  0.42469975],"[ 1.32357546e+00  6.90938407e-01  4.94101924e-01  1.34770890e+00
  8.16574429e-01  4.24780477e-01  2.41334486e-02  1.25636022e-01
 -6.93214466e-02  3.33157802e-02  4.17280412e-02 -1.57079746e+00
 -6.55767015e-01 -1.57077175e+00  3.03741909e-02 -2.79489668e-02
  2.25988468e-02  9.03678214e-06 -1.09234863e-05  6.19763091e-19
 -3.03744641e-02  2.79487409e-02 -2.25965865e-02  6.67074213e-02
  7.25813790e-02]",9.7626252188759,0,0
89,110,2024-09-19 21:12:52.807928064,TASK_BEGIN,11,0.3920203484747577,0.220873210770588,-0.6696708248488208,0.258190611629623,1.9230537591682373,-0.3453278942168556,8.377681328119396,-1.1352484984741698,1,2024-09-19 21:12:55.043745117,1726780375.0437455,2024-09-19 21:12:55.043745536,4,[-1.30363344  5.53661758 -7.67449201  2.92754646],-1.0,-35.08973716315975,[-1.30363344  5.53661758 -7.67449201  2.92754646],[ 0.20899071  0.9928774  -0.42819673  0.31154484],[1.25487185 0.7614707  0.42469975],"[ 1.32357546e+00  6.90938407e-01  4.94101924e-01  1.34770890e+00
  8.16574429e-01  4.24780477e-01  2.41334486e-02  1.25636022e-01
 -6.93214466e-02  3.33157802e-02  4.17280412e-02 -1.57079746e+00
 -6.55767015e-01 -1.57077175e+00  3.03741909e-02 -2.79489668e-02
  2.25988468e-02  9.03678214e-06 -1.09234863e-05  6.19763091e-19
 -3.03744641e-02  2.79487409e-02 -2.25965865e-02  6.67074213e-02
  7.25813790e-02]",9.7626252188759,0,0
90,111,2024-09-19 21:12:52.869085952,TASK_BEGIN,11,0.3514941203637438,0.2067738967415387,-0.6091911655236824,0.2163461536565646,1.950896750960437,-0.3623656708801558,8.675608993082228,-1.2784846334560789,1,2024-09-19 21:12:55.043745117,1726780375.0437455,2024-09-19 21:12:55.043745536,4,[-1.30363344  5.53661758 -7.67449201  2.92754646],-1.0,-35.08973716315975,[-1.30363344  5.53661758 -7.67449201  2.92754646],[ 0.20899071  0.9928774  -0.42819673  0.31154484],[1.25487185 0.7614707  0.42469975],"[ 1.32357546e+00  6.90938407e-01  4.94101924e-01  1.34770890e+00
  8.16574429e-01  4.24780477e-01  2.41334486e-02  1.25636022e-01
 -6.93214466e-02  3.33157802e-02  4.17280412e-02 -1.57079746e+00
 -6.55767015e-01 -1.57077175e+00  3.03741909e-02 -2.79489668e-02
  2.25988468e-02  9.03678214e-06 -1.09234863e-05  6.19763091e-19
 -3.03744641e-02  2.79487409e-02 -2.25965865e-02  6.67074213e-02
  7.25813790e-02]",9.7626252188759,0,0
91,112,2024-09-19 21:12:53.797135872,TASK_BEGIN,11,0.3079929058149296,0.1946953657417896,-0.5502518134075903,0.172875461187564,1.972014157239904,-0.377565717397998,8.94551774568302,-1.4167236364222602,1,2024-09-19 21:12:56.224595947,1726780376.2245963,2024-09-19 21:12:56.224596224,4,[  5.43191867  -0.4152657   -4.39130012 -12.17478881],-1.0,-41.88335858818901,[  5.43191867  -0.4152657   -4.39130012 -12.17478881],[ 0.49195534 -0.8606659  -0.7731041   0.04877943],[1.25487185 0.7614707  0.42469975],"[ 1.31190770e+00  8.95488585e-01  5.24707685e-01  1.34770842e+00
  8.16574027e-01  4.24784480e-01  3.58007210e-02 -7.89145579e-02
 -9.99232051e-02  4.89843285e-02  4.88948332e-02 -1.57079633e+00
 -6.55767015e-01 -1.57079627e+00 -2.91520409e-02  1.46455034e-02
  2.38216895e-02  2.06918813e-08 -2.50119430e-08  6.76504192e-19
  2.91520402e-02 -1.46455039e-02 -2.38216845e-02 -1.23346927e-02
 -1.21558137e-02]",14.043648832859233,0,0
92,113,2024-09-19 21:12:53.861774848,TASK_BEGIN,11,0.2624898455757094,0.1849658868975532,-0.4963308436201673,0.1284766647141516,1.9857087778646487,-0.3905500398906636,9.166852585741962,-1.5415360981588444,1,2024-09-19 21:12:56.224595947,1726780376.2245963,2024-09-19 21:12:56.224596224,4,[  5.43191867  -0.4152657   -4.39130012 -12.17478881],-1.0,-41.88335858818901,[  5.43191867  -0.4152657   -4.39130012 -12.17478881],[ 0.49195534 -0.8606659  -0.7731041   0.04877943],[1.25487185 0.7614707  0.42469975],"[ 1.31190770e+00  8.95488585e-01  5.24707685e-01  1.34770842e+00
  8.16574027e-01  4.24784480e-01  3.58007210e-02 -7.89145579e-02
 -9.99232051e-02  4.89843285e-02  4.88948332e-02 -1.57079633e+00
 -6.55767015e-01 -1.57079627e+00 -2.91520409e-02  1.46455034e-02
  2.38216895e-02  2.06918813e-08 -2.50119430e-08  6.76504192e-19
  2.91520402e-02 -1.46455039e-02 -2.38216845e-02 -1.23346927e-02
 -1.21558137e-02]",14.043648832859233,0,0
93,114,2024-09-19 21:12:53.932524800,TASK_BEGIN,11,0.2161412937542264,0.1777971654257083,-0.450572813611712,0.0837676087414218,1.9917542580684249,-0.4010715767188548,9.32182815377759,-1.645221316643022,1,2024-09-19 21:12:56.224595947,1726780376.2245963,2024-09-19 21:12:56.224596224,4,[  5.43191867  -0.4152657   -4.39130012 -12.17478881],-1.0,-41.88335858818901,[  5.43191867  -0.4152657   -4.39130012 -12.17478881],[ 0.49195534 -0.8606659  -0.7731041   0.04877943],[1.25487185 0.7614707  0.42469975],"[ 1.31190770e+00  8.95488585e-01  5.24707685e-01  1.34770842e+00
  8.16574027e-01  4.24784480e-01  3.58007210e-02 -7.89145579e-02
 -9.99232051e-02  4.89843285e-02  4.88948332e-02 -1.57079633e+00
 -6.55767015e-01 -1.57079627e+00 -2.91520409e-02  1.46455034e-02
  2.38216895e-02  2.06918813e-08 -2.50119430e-08  6.76504192e-19
  2.91520402e-02 -1.46455039e-02 -2.38216845e-02 -1.23346927e-02
 -1.21558137e-02]",14.043648832859233,0,0
94,115,2024-09-19 21:12:53.985804288,TASK_BEGIN,11,0.1702827581104572,0.1732676029776816,-0.4156265838539118,0.039414268455095,1.9902534536895875,-0.4090130019000339,9.396496774798914,-1.7213791532488316,1,2024-09-19 21:12:56.224595947,1726780376.2245963,2024-09-19 21:12:56.224596224,4,[  5.43191867  -0.4152657   -4.39130012 -12.17478881],-1.0,-41.88335858818901,[  5.43191867  -0.4152657   -4.39130012 -12.17478881],[ 0.49195534 -0.8606659  -0.7731041   0.04877943],[1.25487185 0.7614707  0.42469975],"[ 1.31190770e+00  8.95488585e-01  5.24707685e-01  1.34770842e+00
  8.16574027e-01  4.24784480e-01  3.58007210e-02 -7.89145579e-02
 -9.99232051e-02  4.89843285e-02  4.88948332e-02 -1.57079633e+00
 -6.55767015e-01 -1.57079627e+00 -2.91520409e-02  1.46455034e-02
  2.38216895e-02  2.06918813e-08 -2.50119430e-08  6.76504192e-19
  2.91520402e-02 -1.46455039e-02 -2.38216845e-02 -1.23346927e-02
 -1.21558137e-02]",14.043648832859233,0,0
95,116,2024-09-19 21:12:54.067894016,TASK_BEGIN,11,0.1264159660973493,0.1713191473543541,-0.3935158079757337,-0.0037633015872683,1.9815345498521848,-0.4143649159938762,9.381729759529604,-1.765373071929666,1,2024-09-19 21:12:56.224595947,1726780376.2245963,2024-09-19 21:12:56.224596224,4,[  5.43191867  -0.4152657   -4.39130012 -12.17478881],-1.0,-41.88335858818901,[  5.43191867  -0.4152657   -4.39130012 -12.17478881],[ 0.49195534 -0.8606659  -0.7731041   0.04877943],[1.25487185 0.7614707  0.42469975],"[ 1.31190770e+00  8.95488585e-01  5.24707685e-01  1.34770842e+00
  8.16574027e-01  4.24784480e-01  3.58007210e-02 -7.89145579e-02
 -9.99232051e-02  4.89843285e-02  4.88948332e-02 -1.57079633e+00
 -6.55767015e-01 -1.57079627e+00 -2.91520409e-02  1.46455034e-02
  2.38216895e-02  2.06918813e-08 -2.50119430e-08  6.76504192e-19
  2.91520402e-02 -1.46455039e-02 -2.38216845e-02 -1.23346927e-02
 -1.21558137e-02]",14.043648832859233,0,0
96,117,2024-09-19 21:12:54.135555840,TASK_BEGIN,11,0.0861495471740095,0.1717721687099626,-0.3854665228268543,-0.044774583310827,1.9661571929231272,-0.4172013274098009,9.273991871499655,-1.7746384490926086,1,2024-09-19 21:12:56.224595947,1726780376.2245963,2024-09-19 21:12:56.224596224,4,[  5.43191867  -0.4152657   -4.39130012 -12.17478881],-1.0,-41.88335858818901,[  5.43191867  -0.4152657   -4.39130012 -12.17478881],[ 0.49195534 -0.8606659  -0.7731041   0.04877943],[1.25487185 0.7614707  0.42469975],"[ 1.31190770e+00  8.95488585e-01  5.24707685e-01  1.34770842e+00
  8.16574027e-01  4.24784480e-01  3.58007210e-02 -7.89145579e-02
 -9.99232051e-02  4.89843285e-02  4.88948332e-02 -1.57079633e+00
 -6.55767015e-01 -1.57079627e+00 -2.91520409e-02  1.46455034e-02
  2.38216895e-02  2.06918813e-08 -2.50119430e-08  6.76504192e-19
  2.91520402e-02 -1.46455039e-02 -2.38216845e-02 -1.23346927e-02
 -1.21558137e-02]",14.043648832859233,0,0
97,118,2024-09-19 21:12:54.193682944,TASK_BEGIN,11,0.0510884014681717,0.1743536951117589,-0.3917461097969406,-0.0825204004216363,1.9449538429453144,-0.4176562327036209,9.07563555979198,-1.748811974382893,1,2024-09-19 21:12:56.758275146,1726780376.7582753,2024-09-19 21:12:56.758275328,4,[-2.07328665  7.120189    0.60854679  0.85246244],-1.0,-44.73165228376146,[-2.07328665  7.120189    0.60854679  0.85246244],[ 0.21636446 -0.06874005 -0.9998165   0.15327469],[1.25487185 0.7614707  0.42469975],"[ 1.34697811e+00  8.55653692e-01  5.92985050e-01  1.34770842e+00
  8.16574026e-01  4.24784489e-01  7.30310280e-04 -3.90796661e-02
 -1.68200561e-01  3.61086393e-02  4.06770498e-02 -1.57079633e+00
 -6.55767015e-01 -1.57079632e+00  2.35148844e-02 -2.82260833e-02
 -1.47875694e-02  1.30630928e-09 -1.57904099e-09 -2.43708002e-18
 -2.35148845e-02  2.82260832e-02  1.47875697e-02  6.87692305e-02
  7.20609810e-02]",7.607134515509102,0,0
98,119,2024-09-19 21:12:55.109798912,TASK_BEGIN,11,0.0226963713209048,0.1787290515808114,-0.4116601140495905,-0.1158657058627206,1.91899434985388,-0.4158947062850825,8.794659953238599,-1.6897122453321514,1,2024-09-19 21:12:57.295921143,1726780377.2959216,2024-09-19 21:12:57.295921664,4,[-2.85128565  6.41480655 -9.66842293  8.87789524],-1.0,-47.44035124744376,[-2.85128565  6.41480655 -9.66842293  8.87789524],[ 0.44010735  0.13428628 -0.987128    0.5642601 ],[1.25487185 0.7614707  0.42469975],"[ 1.30951113e+00  8.35801523e-01  5.30677853e-01  1.34770842e+00
  8.16574026e-01  4.24784489e-01  3.81972879e-02 -1.92274977e-02
 -1.05893364e-01  4.02762214e-02  4.39606969e-02 -1.57079633e+00
 -6.55767015e-01 -1.57079633e+00  2.98916971e-02 -2.87858965e-02
  2.89479768e-02  8.24693794e-11 -9.96876716e-11 -2.28823835e-18
 -2.98916971e-02  2.87858965e-02 -2.89479768e-02  7.02796465e-02
  7.27424821e-02]",14.731869580989002,0,0
99,120,2024-09-19 21:12:55.187021056,TASK_BEGIN,11,0.0021609416997408,0.1845298749296211,-0.4437530244471275,-0.1436899986442264,1.889473730574811,-0.4120837660214122,8.443989713272286,-1.6011848320884785,1,2024-09-19 21:12:57.295921143,1726780377.2959216,2024-09-19 21:12:57.295921664,4,[-2.85128565  6.41480655 -9.66842293  8.87789524],-1.0,-47.44035124744376,[-2.85128565  6.41480655 -9.66842293  8.87789524],[ 0.44010735  0.13428628 -0.987128    0.5642601 ],[1.25487185 0.7614707  0.42469975],"[ 1.30951113e+00  8.35801523e-01  5.30677853e-01  1.34770842e+00
  8.16574026e-01  4.24784489e-01  3.81972879e-02 -1.92274977e-02
 -1.05893364e-01  4.02762214e-02  4.39606969e-02 -1.57079633e+00
 -6.55767015e-01 -1.57079633e+00  2.98916971e-02 -2.87858965e-02
  2.89479768e-02  8.24693794e-11 -9.96876716e-11 -2.28823835e-18
 -2.98916971e-02  2.87858965e-02 -2.89479768e-02  7.02796465e-02
  7.27424821e-02]",14.731869580989002,0,0
100,121,2024-09-19 21:12:55.249020928,TASK_BEGIN,11,-0.0097105807756191,0.1913765929066064,-0.4861214092719529,-0.1649428237480766,1.857603227159415,-0.4063769610969809,8.040190449667925,-1.4887582295261523,1,2024-09-19 21:12:58.040445068,1726780378.040446,2024-09-19 21:12:58.040445952,4,[-3.82687454 15.63545354 -2.4035434  -1.26670586],-1.0,-51.01097269957947,[-3.82687454 15.63545354 -2.4035434  -1.26670586],[ 0.1921198  0.9252268 -0.89491    0.5812903],[1.25487185 0.7614707  0.42469975],"[ 1.33571168e+00  7.55079806e-01  5.10082427e-01  1.34770842e+00
  8.16574026e-01  4.24784489e-01  1.19967388e-02  6.14942203e-02
 -8.52979379e-02  8.96478615e-03  1.23518019e-02 -1.57079633e+00
 -6.55767015e-01 -1.57079633e+00  2.38108786e-02 -2.73536773e-02
  2.83357688e-02  1.72426609e-12 -2.08461926e-12 -9.36285414e-19
 -2.38108786e-02  2.73536773e-02 -2.83357688e-02 -2.41388163e-02
 -2.30618481e-02]",16.021039408209763,1,2
101,122,2024-09-19 21:12:55.311264768,TASK_BEGIN,11,-0.0125387936667019,0.1988954341813813,-0.5367471485087957,-0.1787324566609108,1.824524429535809,-0.3989149189251681,7.601707225580117,-1.3591132654738571,1,2024-09-19 21:12:58.040445068,1726780378.040446,2024-09-19 21:12:58.040445952,4,[-3.82687454 15.63545354 -2.4035434  -1.26670586],-1.0,-51.01097269957947,[-3.82687454 15.63545354 -2.4035434  -1.26670586],[ 0.1921198  0.9252268 -0.89491    0.5812903],[1.25487185 0.7614707  0.42469975],"[ 1.33571168e+00  7.55079806e-01  5.10082427e-01  1.34770842e+00
  8.16574026e-01  4.24784489e-01  1.19967388e-02  6.14942203e-02
 -8.52979379e-02  8.96478615e-03  1.23518019e-02 -1.57079633e+00
 -6.55767015e-01 -1.57079633e+00  2.38108786e-02 -2.73536773e-02
  2.83357688e-02  1.72426609e-12 -2.08461926e-12 -9.36285414e-19
 -2.38108786e-02  2.73536773e-02 -2.83357688e-02 -2.41388163e-02
 -2.30618481e-02]",16.021039408209763,1,2
102,123,2024-09-19 21:12:55.391899136,TASK_BEGIN,11,-0.0063661004112637,0.2067313099415187,-0.5938277371969312,-0.1844270000870478,1.791207129562126,-0.3898334838057267,7.147217588265432,-1.2195255624800196,1,2024-09-19 21:12:58.040445068,1726780378.040446,2024-09-19 21:12:58.040445952,4,[-3.82687454 15.63545354 -2.4035434  -1.26670586],-1.0,-51.01097269957947,[-3.82687454 15.63545354 -2.4035434  -1.26670586],[ 0.1921198  0.9252268 -0.89491    0.5812903],[1.25487185 0.7614707  0.42469975],"[ 1.33571168e+00  7.55079806e-01  5.10082427e-01  1.34770842e+00
  8.16574026e-01  4.24784489e-01  1.19967388e-02  6.14942203e-02
 -8.52979379e-02  8.96478615e-03  1.23518019e-02 -1.57079633e+00
 -6.55767015e-01 -1.57079633e+00  2.38108786e-02 -2.73536773e-02
  2.83357688e-02  1.72426609e-12 -2.08461926e-12 -9.36285414e-19
 -2.38108786e-02  2.73536773e-02 -2.83357688e-02 -2.41388163e-02
 -2.30618481e-02]",16.021039408209763,1,2
103,124,2024-09-19 21:12:55.450479104,TASK_BEGIN,11,0.0083743771213514,0.2145601991052745,-0.6560543415609048,-0.1817325737387522,1.758338381735436,-0.3792715675603424,6.694682803433571,-1.0774384154464531,1,2024-09-19 21:12:58.040445068,1726780378.040446,2024-09-19 21:12:58.040445952,4,[-3.82687454 15.63545354 -2.4035434  -1.26670586],-1.0,-51.01097269957947,[-3.82687454 15.63545354 -2.4035434  -1.26670586],[ 0.1921198  0.9252268 -0.89491    0.5812903],[1.25487185 0.7614707  0.42469975],"[ 1.33571168e+00  7.55079806e-01  5.10082427e-01  1.34770842e+00
  8.16574026e-01  4.24784489e-01  1.19967388e-02  6.14942203e-02
 -8.52979379e-02  8.96478615e-03  1.23518019e-02 -1.57079633e+00
 -6.55767015e-01 -1.57079633e+00  2.38108786e-02 -2.73536773e-02
  2.83357688e-02  1.72426609e-12 -2.08461926e-12 -9.36285414e-19
 -2.38108786e-02  2.73536773e-02 -2.83357688e-02 -2.41388163e-02
 -2.30618481e-02]",16.021039408209763,1,2
104,125,2024-09-19 21:12:55.527246080,TASK_BEGIN,11,0.0308907245752735,0.2221032857497958,-0.7226598383850211,-0.170753632795709,1.7262633993618686,-0.3673729041407795,6.261043145018069,-0.9401384084693236,1,2024-09-19 21:12:58.040445068,1726780378.040446,2024-09-19 21:12:58.040445952,4,[-3.82687454 15.63545354 -2.4035434  -1.26670586],-1.0,-51.01097269957947,[-3.82687454 15.63545354 -2.4035434  -1.26670586],[ 0.1921198  0.9252268 -0.89491    0.5812903],[1.25487185 0.7614707  0.42469975],"[ 1.33571168e+00  7.55079806e-01  5.10082427e-01  1.34770842e+00
  8.16574026e-01  4.24784489e-01  1.19967388e-02  6.14942203e-02
 -8.52979379e-02  8.96478615e-03  1.23518019e-02 -1.57079633e+00
 -6.55767015e-01 -1.57079633e+00  2.38108786e-02 -2.73536773e-02
  2.83357688e-02  1.72426609e-12 -2.08461926e-12 -9.36285414e-19
 -2.38108786e-02  2.73536773e-02 -2.83357688e-02 -2.41388163e-02
 -2.30618481e-02]",16.021039408209763,1,2
105,126,2024-09-19 21:12:56.470141952,TASK_BEGIN,11,0.0600650578510279,0.2291393636489867,-0.793095902047527,-0.152052041822078,1.6950309496449585,-0.3542843510712145,5.862118260733936,-0.8144193547013014,1,2024-09-19 21:12:58.999001953,1726780378.9990022,2024-09-19 21:12:58.999002112,4,[ 1.1905766  -8.62646176  0.946856   -4.49574046],-1.0,-55.247678623618896,[ 1.1905766  -8.62646176  0.946856   -4.49574046],[ 0.39852375  0.934492   -0.81006217  0.05119298],[1.25487185 0.7614707  0.42469975],"[ 1.34794521e+00  6.55804141e-01  5.88358463e-01  1.34770842e+00
  8.16574026e-01  4.24784489e-01 -2.36789705e-04  1.60769885e-01
 -1.63573974e-01  4.01252930e-02  3.95314863e-02 -1.57079633e+00
 -6.55767015e-01 -1.57079633e+00 -2.30877872e-02  2.37333432e-02
 -2.14522674e-02  1.24271727e-14 -1.40149394e-14  1.18913506e-18
  2.30877872e-02 -2.37333432e-02  2.14522674e-02 -1.77953285e-02
 -1.75142590e-02]",10.2434214167552,1,2
106,127,2024-09-19 21:12:56.539454720,TASK_BEGIN,11,0.0945013860719078,0.2355082878534971,-0.8665556845204272,-0.1266685879011338,1.664555922837455,-0.3401652936270865,5.512464997373294,-0.7062361953916287,1,2024-09-19 21:12:58.999001953,1726780378.9990022,2024-09-19 21:12:58.999002112,4,[ 1.1905766  -8.62646176  0.946856   -4.49574046],-1.0,-55.247678623618896,[ 1.1905766  -8.62646176  0.946856   -4.49574046],[ 0.39852375  0.934492   -0.81006217  0.05119298],[1.25487185 0.7614707  0.42469975],"[ 1.34794521e+00  6.55804141e-01  5.88358463e-01  1.34770842e+00
  8.16574026e-01  4.24784489e-01 -2.36789705e-04  1.60769885e-01
 -1.63573974e-01  4.01252930e-02  3.95314863e-02 -1.57079633e+00
 -6.55767015e-01 -1.57079633e+00 -2.30877872e-02  2.37333432e-02
 -2.14522674e-02  1.24271727e-14 -1.40149394e-14  1.18913506e-18
  2.30877872e-02 -2.37333432e-02  2.14522674e-02 -1.77953285e-02
 -1.75142590e-02]",10.2434214167552,1,2
107,128,2024-09-19 21:12:56.600711168,TASK_BEGIN,11,0.1326020343032298,0.2411008502797725,-0.9418089425053264,-0.0960418653094221,1.6348423628326345,-0.3252144958071717,5.225180772491901,-0.6204532367740193,1,2024-09-19 21:12:58.999001953,1726780378.9990022,2024-09-19 21:12:58.999002112,4,[ 1.1905766  -8.62646176  0.946856   -4.49574046],-1.0,-55.247678623618896,[ 1.1905766  -8.62646176  0.946856   -4.49574046],[ 0.39852375  0.934492   -0.81006217  0.05119298],[1.25487185 0.7614707  0.42469975],"[ 1.34794521e+00  6.55804141e-01  5.88358463e-01  1.34770842e+00
  8.16574026e-01  4.24784489e-01 -2.36789705e-04  1.60769885e-01
 -1.63573974e-01  4.01252930e-02  3.95314863e-02 -1.57079633e+00
 -6.55767015e-01 -1.57079633e+00 -2.30877872e-02  2.37333432e-02
 -2.14522674e-02  1.24271727e-14 -1.40149394e-14  1.18913506e-18
  2.30877872e-02 -2.37333432e-02  2.14522674e-02 -1.77953285e-02
 -1.75142590e-02]",10.2434214167552,1,2
108,129,2024-09-19 21:12:56.662704128,TASK_BEGIN,11,0.1726778065515679,0.2458378512896883,-1.0175276577932986,-0.0618121149064932,1.606155420859383,-0.3096970577691393,5.011600556028427,-0.5607262773081352,1,2024-09-19 21:12:58.999001953,1726780378.9990022,2024-09-19 21:12:58.999002112,4,[ 1.1905766  -8.62646176  0.946856   -4.49574046],-1.0,-55.247678623618896,[ 1.1905766  -8.62646176  0.946856   -4.49574046],[ 0.39852375  0.934492   -0.81006217  0.05119298],[1.25487185 0.7614707  0.42469975],"[ 1.34794521e+00  6.55804141e-01  5.88358463e-01  1.34770842e+00
  8.16574026e-01  4.24784489e-01 -2.36789705e-04  1.60769885e-01
 -1.63573974e-01  4.01252930e-02  3.95314863e-02 -1.57079633e+00
 -6.55767015e-01 -1.57079633e+00 -2.30877872e-02  2.37333432e-02
 -2.14522674e-02  1.24271727e-14 -1.40149394e-14  1.18913506e-18
  2.30877872e-02 -2.37333432e-02  2.14522674e-02 -1.77953285e-02
 -1.75142590e-02]",10.2434214167552,1,2
109,130,2024-09-19 21:12:56.739891200,TASK_BEGIN,11,0.2130777176932722,0.24964729605919,-1.0927962598172891,-0.0255685375329213,1.57907364282374,-0.2939499281950378,4.880759228120894,-0.5294544804368673,1,2024-09-19 21:12:58.999001953,1726780378.9990022,2024-09-19 21:12:58.999002112,4,[ 1.1905766  -8.62646176  0.946856   -4.49574046],-1.0,-55.247678623618896,[ 1.1905766  -8.62646176  0.946856   -4.49574046],[ 0.39852375  0.934492   -0.81006217  0.05119298],[1.25487185 0.7614707  0.42469975],"[ 1.34794521e+00  6.55804141e-01  5.88358463e-01  1.34770842e+00
  8.16574026e-01  4.24784489e-01 -2.36789705e-04  1.60769885e-01
 -1.63573974e-01  4.01252930e-02  3.95314863e-02 -1.57079633e+00
 -6.55767015e-01 -1.57079633e+00 -2.30877872e-02  2.37333432e-02
 -2.14522674e-02  1.24271727e-14 -1.40149394e-14  1.18913506e-18
  2.30877872e-02 -2.37333432e-02  2.14522674e-02 -1.77953285e-02
 -1.75142590e-02]",10.2434214167552,1,2
110,131,2024-09-19 21:12:56.810107904,TASK_BEGIN,11,0.2523031876466162,0.2524485700114987,-1.1673882336937476,0.0113743200201334,1.5544465017621558,-0.2783649965173262,4.838620638890207,-0.5277365746980542,1,2024-09-19 21:12:58.999001953,1726780378.9990022,2024-09-19 21:12:58.999002112,4,[ 1.1905766  -8.62646176  0.946856   -4.49574046],-1.0,-55.247678623618896,[ 1.1905766  -8.62646176  0.946856   -4.49574046],[ 0.39852375  0.934492   -0.81006217  0.05119298],[1.25487185 0.7614707  0.42469975],"[ 1.34794521e+00  6.55804141e-01  5.88358463e-01  1.34770842e+00
  8.16574026e-01  4.24784489e-01 -2.36789705e-04  1.60769885e-01
 -1.63573974e-01  4.01252930e-02  3.95314863e-02 -1.57079633e+00
 -6.55767015e-01 -1.57079633e+00 -2.30877872e-02  2.37333432e-02
 -2.14522674e-02  1.24271727e-14 -1.40149394e-14  1.18913506e-18
  2.30877872e-02 -2.37333432e-02  2.14522674e-02 -1.77953285e-02
 -1.75142590e-02]",10.2434214167552,1,2
111,132,2024-09-19 21:12:56.862978048,TASK_BEGIN,11,0.289077157775241,0.2541478206428229,-1.2416457683490023,0.0480999392079095,1.5333061149983798,-0.2633645802976392,4.887287334152806,-0.5553115490332508,1,2024-09-19 21:12:58.999001953,1726780378.9990022,2024-09-19 21:12:58.999002112,4,[ 1.1905766  -8.62646176  0.946856   -4.49574046],-1.0,-55.247678623618896,[ 1.1905766  -8.62646176  0.946856   -4.49574046],[ 0.39852375  0.934492   -0.81006217  0.05119298],[1.25487185 0.7614707  0.42469975],"[ 1.34794521e+00  6.55804141e-01  5.88358463e-01  1.34770842e+00
  8.16574026e-01  4.24784489e-01 -2.36789705e-04  1.60769885e-01
 -1.63573974e-01  4.01252930e-02  3.95314863e-02 -1.57079633e+00
 -6.55767015e-01 -1.57079633e+00 -2.30877872e-02  2.37333432e-02
 -2.14522674e-02  1.24271727e-14 -1.40149394e-14  1.18913506e-18
  2.30877872e-02 -2.37333432e-02  2.14522674e-02 -1.77953285e-02
 -1.75142590e-02]",10.2434214167552,1,2
112,133,2024-09-19 21:12:57.819785216,TASK_BEGIN,11,0.3223709051198286,0.2546443167730332,-1.3160964686967462,0.0840912680614446,1.5167451606542823,-0.249380761342525,5.024457201567075,-0.6104850816592876,1,2024-09-19 21:13:00.380783203,1726780380.3807833,2024-09-19 21:13:00.380783360,4,[-5.44662095 -4.47988717  7.54392608 -7.11298152],-1.0,-60.72889716421946,[-5.44662095 -4.47988717  7.54392608 -7.11298152],[0.20573321 0.9993398  0.65926516 0.33268723],[1.25487185 0.7614707  0.42469975],"[ 1.29658240e+00  6.67279181e-01  4.86961313e-01  1.32808671e+00
  8.33930552e-01  4.24797569e-01  3.15043060e-02  1.66651371e-01
 -6.21637438e-02  1.71768830e-02  1.70086489e-02 -1.57312603e+00
 -5.72318239e-01 -1.57192201e+00  2.47006621e-02  2.60577407e-02
 -2.91752282e-02  9.59200316e-04  5.31154368e-04 -1.02395969e-08
 -2.46874043e-02 -2.60816883e-02  2.91680154e-02 -2.32035680e-02
 -2.36499137e-02]",12.580997549396852,1,2
113,134,2024-09-19 21:12:57.883581952,TASK_BEGIN,11,0.3514140451366971,0.2538451377782875,-1.3910831855689156,0.1191537688098706,1.5057682138004131,-0.2368394228702182,5.243281047563089,-0.6900743114311021,1,2024-09-19 21:13:00.380783203,1726780380.3807833,2024-09-19 21:13:00.380783360,4,[-5.44662095 -4.47988717  7.54392608 -7.11298152],-1.0,-60.72889716421946,[-5.44662095 -4.47988717  7.54392608 -7.11298152],[0.20573321 0.9993398  0.65926516 0.33268723],[1.25487185 0.7614707  0.42469975],"[ 1.29658240e+00  6.67279181e-01  4.86961313e-01  1.32808671e+00
  8.33930552e-01  4.24797569e-01  3.15043060e-02  1.66651371e-01
 -6.21637438e-02  1.71768830e-02  1.70086489e-02 -1.57312603e+00
 -5.72318239e-01 -1.57192201e+00  2.47006621e-02  2.60577407e-02
 -2.91752282e-02  9.59200316e-04  5.31154368e-04 -1.02395969e-08
 -2.46874043e-02 -2.60816883e-02  2.91680154e-02 -2.32035680e-02
 -2.36499137e-02]",12.580997549396852,1,2
114,135,2024-09-19 21:12:57.944014080,TASK_BEGIN,11,0.3757060912913345,0.251685092508124,-1.4666047276370444,0.1533255740413664,1.501158276193523,-0.226143952584965,5.532670391900167,-0.7894551171453803,1,2024-09-19 21:13:00.380783203,1726780380.3807833,2024-09-19 21:13:00.380783360,4,[-5.44662095 -4.47988717  7.54392608 -7.11298152],-1.0,-60.72889716421946,[-5.44662095 -4.47988717  7.54392608 -7.11298152],[0.20573321 0.9993398  0.65926516 0.33268723],[1.25487185 0.7614707  0.42469975],"[ 1.29658240e+00  6.67279181e-01  4.86961313e-01  1.32808671e+00
  8.33930552e-01  4.24797569e-01  3.15043060e-02  1.66651371e-01
 -6.21637438e-02  1.71768830e-02  1.70086489e-02 -1.57312603e+00
 -5.72318239e-01 -1.57192201e+00  2.47006621e-02  2.60577407e-02
 -2.91752282e-02  9.59200316e-04  5.31154368e-04 -1.02395969e-08
 -2.46874043e-02 -2.60816883e-02  2.91680154e-02 -2.32035680e-02
 -2.36499137e-02]",12.580997549396852,1,2
115,136,2024-09-19 21:12:58.021637888,TASK_BEGIN,11,0.3950260523886947,0.2481498368827887,-1.542317853921816,0.1867978166843768,1.5034102918196377,-0.2176569072481671,5.878004253073395,-0.9027855020659016,1,2024-09-19 21:13:00.380783203,1726780380.3807833,2024-09-19 21:13:00.380783360,4,[-5.44662095 -4.47988717  7.54392608 -7.11298152],-1.0,-60.72889716421946,[-5.44662095 -4.47988717  7.54392608 -7.11298152],[0.20573321 0.9993398  0.65926516 0.33268723],[1.25487185 0.7614707  0.42469975],"[ 1.29658240e+00  6.67279181e-01  4.86961313e-01  1.32808671e+00
  8.33930552e-01  4.24797569e-01  3.15043060e-02  1.66651371e-01
 -6.21637438e-02  1.71768830e-02  1.70086489e-02 -1.57312603e+00
 -5.72318239e-01 -1.57192201e+00  2.47006621e-02  2.60577407e-02
 -2.91752282e-02  9.59200316e-04  5.31154368e-04 -1.02395969e-08
 -2.46874043e-02 -2.60816883e-02  2.91680154e-02 -2.32035680e-02
 -2.36499137e-02]",12.580997549396852,1,2
116,137,2024-09-19 21:12:58.084506112,TASK_BEGIN,11,0.409422334135512,0.2433006140686725,-1.6174521874106456,0.2198215999695015,1.5127468108413449,-0.2116868859865782,6.262045067168512,-1.023385581358791,1,2024-09-19 21:13:00.380783203,1726780380.3807833,2024-09-19 21:13:00.380783360,4,[-5.44662095 -4.47988717  7.54392608 -7.11298152],-1.0,-60.72889716421946,[-5.44662095 -4.47988717  7.54392608 -7.11298152],[0.20573321 0.9993398  0.65926516 0.33268723],[1.25487185 0.7614707  0.42469975],"[ 1.29658240e+00  6.67279181e-01  4.86961313e-01  1.32808671e+00
  8.33930552e-01  4.24797569e-01  3.15043060e-02  1.66651371e-01
 -6.21637438e-02  1.71768830e-02  1.70086489e-02 -1.57312603e+00
 -5.72318239e-01 -1.57192201e+00  2.47006621e-02  2.60577407e-02
 -2.91752282e-02  9.59200316e-04  5.31154368e-04 -1.02395969e-08
 -2.46874043e-02 -2.60816883e-02  2.91680154e-02 -2.32035680e-02
 -2.36499137e-02]",12.580997549396852,1,2
117,138,2024-09-19 21:12:58.146076928,TASK_BEGIN,11,0.4191691889885124,0.2372972434139019,-1.6904564061930551,0.2525827366200673,1.5291853818850436,-0.2084895974720859,6.665905569663205,-1.1441933570706515,1,2024-09-19 21:13:00.380783203,1726780380.3807833,2024-09-19 21:13:00.380783360,4,[-5.44662095 -4.47988717  7.54392608 -7.11298152],-1.0,-60.72889716421946,[-5.44662095 -4.47988717  7.54392608 -7.11298152],[0.20573321 0.9993398  0.65926516 0.33268723],[1.25487185 0.7614707  0.42469975],"[ 1.29658240e+00  6.67279181e-01  4.86961313e-01  1.32808671e+00
  8.33930552e-01  4.24797569e-01  3.15043060e-02  1.66651371e-01
 -6.21637438e-02  1.71768830e-02  1.70086489e-02 -1.57312603e+00
 -5.72318239e-01 -1.57192201e+00  2.47006621e-02  2.60577407e-02
 -2.91752282e-02  9.59200316e-04  5.31154368e-04 -1.02395969e-08
 -2.46874043e-02 -2.60816883e-02  2.91680154e-02 -2.32035680e-02
 -2.36499137e-02]",12.580997549396852,1,2
118,139,2024-09-19 21:12:58.223770112,TASK_BEGIN,11,0.4246938159581672,0.2304137075896928,-1.7584929450834528,0.2850662775119493,1.5526175677601324,-0.2082812129341417,7.07010019809008,-1.258239735821665,1,2024-09-19 21:13:01.025034912,1726780381.0250356,2024-09-19 21:13:01.025035520,4,[-1.92345262  7.8344896  -2.13724473 11.89184085],-1.0,-63.027036235027296,[-1.92345262  7.8344896  -2.13724473 11.89184085],[ 0.36944786  0.99996835 -0.29785052  0.09251557],[1.25487185 0.7614707  0.42469975],"[ 1.25060859e+00  7.38515823e-01  4.93486333e-01  1.32810951e+00
  8.33889109e-01  4.24784968e-01  7.75009235e-02  9.53732860e-02
 -6.87013654e-02  5.01270411e-02  5.01505877e-02 -1.57088120e+00
 -5.72319339e-01 -1.57083731e+00  2.36766001e-02 -2.93277971e-02
  2.66162550e-02  3.51092625e-05  1.92968859e-05 -1.35139327e-16
 -2.36761175e-02  2.93269191e-02 -2.66165242e-02 -2.46770019e-04
 -3.12488723e-04]",14.308974325503943,1,2
119,147,2024-09-19 21:13:00.507507968,TASK_BEGIN,11,0.3723494266557982,0.2030873132218774,-1.4781114508894615,0.4505576983509314,1.9430914237838008,-0.3167441120239638,8.66601021223721,-1.4136094493196942,1,2024-09-19 21:13:03.178468994,1726780383.17847,2024-09-19 21:13:03.178469888,5,[ 6.7519941   6.20345603 -4.71850025  7.76662433],-1.0,-4.90099501,[ 6.7519941   6.20345603 -4.71850025  7.76662433],[0.59052986 0.8461456  0.17794482 0.48280558],[1.40984722 0.69110316 0.42469975],"[ 1.36781853  0.85240787  0.42841256  1.41518657  0.8836808   0.43382153
  0.04736804  0.03127293  0.00540897  0.05296509  0.05240103 -0.03402659
  0.07997932  0.0445959   0.01551496 -0.01629827  0.02789759 -0.04631399
  0.03539777  0.00707546  0.0248      0.02372876 -0.02394226  0.00567422
  0.00203846]",13.39538050038271,0,0
120,148,2024-09-19 21:13:00.581353984,TASK_BEGIN,11,0.3585765681917678,0.2104958477635933,-1.2859727325517138,0.4466079673543714,1.996708841482376,-0.3380648434893268,8.625364218468519,-1.336134773821401,1,2024-09-19 21:13:03.178468994,1726780383.17847,2024-09-19 21:13:03.178469888,5,[ 6.7519941   6.20345603 -4.71850025  7.76662433],-1.0,-4.90099501,[ 6.7519941   6.20345603 -4.71850025  7.76662433],[0.59052986 0.8461456  0.17794482 0.48280558],[1.40984722 0.69110316 0.42469975],"[ 1.36781853  0.85240787  0.42841256  1.41518657  0.8836808   0.43382153
  0.04736804  0.03127293  0.00540897  0.05296509  0.05240103 -0.03402659
  0.07997932  0.0445959   0.01551496 -0.01629827  0.02789759 -0.04631399
  0.03539777  0.00707546  0.0248      0.02372876 -0.02394226  0.00567422
  0.00203846]",13.39538050038271,0,0
121,149,2024-09-19 21:13:00.643838976,TASK_BEGIN,11,0.3434893085557444,0.2211068520959744,-1.065978530717545,0.43594218433361,2.0423360054289925,-0.3583157073367451,8.560614438801656,-1.2496278537427623,1,2024-09-19 21:13:03.178468994,1726780383.17847,2024-09-19 21:13:03.178469888,5,[ 6.7519941   6.20345603 -4.71850025  7.76662433],-1.0,-4.90099501,[ 6.7519941   6.20345603 -4.71850025  7.76662433],[0.59052986 0.8461456  0.17794482 0.48280558],[1.40984722 0.69110316 0.42469975],"[ 1.36781853  0.85240787  0.42841256  1.41518657  0.8836808   0.43382153
  0.04736804  0.03127293  0.00540897  0.05296509  0.05240103 -0.03402659
  0.07997932  0.0445959   0.01551496 -0.01629827  0.02789759 -0.04631399
  0.03539777  0.00707546  0.0248      0.02372876 -0.02394226  0.00567422
  0.00203846]",13.39538050038271,0,0
122,150,2024-09-19 21:13:00.724450304,TASK_BEGIN,11,0.3270568406956425,0.2347162723233305,-0.8268592185692629,0.4190351879658293,2.07682219639736,-0.3765988169696068,8.483179200759176,-1.159360377363673,1,2024-09-19 21:13:03.178468994,1726780383.17847,2024-09-19 21:13:03.178469888,5,[ 6.7519941   6.20345603 -4.71850025  7.76662433],-1.0,-4.90099501,[ 6.7519941   6.20345603 -4.71850025  7.76662433],[0.59052986 0.8461456  0.17794482 0.48280558],[1.40984722 0.69110316 0.42469975],"[ 1.36781853  0.85240787  0.42841256  1.41518657  0.8836808   0.43382153
  0.04736804  0.03127293  0.00540897  0.05296509  0.05240103 -0.03402659
  0.07997932  0.0445959   0.01551496 -0.01629827  0.02789759 -0.04631399
  0.03539777  0.00707546  0.0248      0.02372876 -0.02394226  0.00567422
  0.00203846]",13.39538050038271,0,0
123,151,2024-09-19 21:13:00.782516224,TASK_BEGIN,11,0.3092754490782702,0.2509585224778797,-0.5787779792202731,0.3966907131856502,2.0974457040258887,-0.3921834464748729,8.401661513669751,-1.0701792694229135,1,2024-09-19 21:13:03.178468994,1726780383.17847,2024-09-19 21:13:03.178469888,5,[ 6.7519941   6.20345603 -4.71850025  7.76662433],-1.0,-4.90099501,[ 6.7519941   6.20345603 -4.71850025  7.76662433],[0.59052986 0.8461456  0.17794482 0.48280558],[1.40984722 0.69110316 0.42469975],"[ 1.36781853  0.85240787  0.42841256  1.41518657  0.8836808   0.43382153
  0.04736804  0.03127293  0.00540897  0.05296509  0.05240103 -0.03402659
  0.07997932  0.0445959   0.01551496 -0.01629827  0.02789759 -0.04631399
  0.03539777  0.00707546  0.0248      0.02372876 -0.02394226  0.00567422
  0.00203846]",13.39538050038271,0,0
124,152,2024-09-19 21:13:00.845004032,TASK_BEGIN,11,0.2901801233713516,0.2693446737031869,-0.3327003898381583,0.370024942716043,2.102132771959751,-0.4045458725914504,8.321404894811618,-0.9863079783657844,1,2024-09-19 21:13:03.178468994,1726780383.17847,2024-09-19 21:13:03.178469888,5,[ 6.7519941   6.20345603 -4.71850025  7.76662433],-1.0,-4.90099501,[ 6.7519941   6.20345603 -4.71850025  7.76662433],[0.59052986 0.8461456  0.17794482 0.48280558],[1.40984722 0.69110316 0.42469975],"[ 1.36781853  0.85240787  0.42841256  1.41518657  0.8836808   0.43382153
  0.04736804  0.03127293  0.00540897  0.05296509  0.05240103 -0.03402659
  0.07997932  0.0445959   0.01551496 -0.01629827  0.02789759 -0.04631399
  0.03539777  0.00707546  0.0248      0.02372876 -0.02394226  0.00567422
  0.00203846]",13.39538050038271,0,0
125,153,2024-09-19 21:13:00.922264064,TASK_BEGIN,11,0.2698795623735585,0.289300276471906,-0.0997973692569652,0.3404154542330631,2.089671381993296,-0.4133903611001455,8.244874367718397,-0.911240319924817,1,2024-09-19 21:13:03.178468994,1726780383.17847,2024-09-19 21:13:03.178469888,5,[ 6.7519941   6.20345603 -4.71850025  7.76662433],-1.0,-4.90099501,[ 6.7519941   6.20345603 -4.71850025  7.76662433],[0.59052986 0.8461456  0.17794482 0.48280558],[1.40984722 0.69110316 0.42469975],"[ 1.36781853  0.85240787  0.42841256  1.41518657  0.8836808   0.43382153
  0.04736804  0.03127293  0.00540897  0.05296509  0.05240103 -0.03402659
  0.07997932  0.0445959   0.01551496 -0.01629827  0.02789759 -0.04631399
  0.03539777  0.00707546  0.0248      0.02372876 -0.02394226  0.00567422
  0.00203846]",13.39538050038271,0,0
126,154,2024-09-19 21:13:01.844387840,TASK_BEGIN,11,0.2485850871982449,0.3101998964386114,0.1092097081270439,0.3094010230717356,2.0598745219222154,-0.4186558669073587,8.172599261969074,-0.8476809496554175,1,2024-09-19 21:13:03.923600830,1726780383.9236019,2024-09-19 21:13:03.923601920,5,[ 0.47543229  2.75527388 -9.91557453  6.81842882],-1.0,-11.361512828387072,[ 0.47543229  2.75527388 -9.91557453  6.81842882],[ 0.9999259   0.26710588 -0.15902579  0.20863274],[1.40984722 0.69110316 0.42469975],"[ 1.41049395e+00  8.74268121e-01  4.63277950e-01  1.50176934e+00
  8.97820691e-01  4.24754337e-01  9.12753890e-02  2.35525703e-02
 -3.85236134e-02  3.70588183e-02  3.86861852e-02 -5.96094205e-04
  1.16860517e-03 -8.35180866e-02 -1.36037981e-02 -2.36369911e-02
  2.73092746e-02  3.36209067e-04 -6.59191749e-04 -4.64828524e-09
  1.35873251e-02  2.36285896e-02 -2.72921539e-02  5.12433848e-02
  5.01962901e-02]",12.639475450759814,0,0
127,155,2024-09-19 21:13:01.905530112,TASK_BEGIN,11,0.226601974407654,0.3314013141289272,0.2847175087117571,0.278574068227195,2.0136175772734006,-0.4205035808695141,8.104110689094114,-0.7974600690640321,1,2024-09-19 21:13:04.136833008,1726780384.1368332,2024-09-19 21:13:04.136833280,5,[ 5.17307505 10.69352337 -2.08721359  1.46312587],-1.0,-13.12541872310217,[ 5.17307505 10.69352337 -2.08721359  1.46312587],[0.60398465 0.9011018  0.2459897  0.5994695 ],[1.40984722 0.69110316 0.42469975],"[ 1.45443662e+00  8.62597243e-01  4.16850907e-01  1.50174976e+00
  8.97810704e-01  4.24774613e-01  4.73131417e-02  3.52134607e-02
  7.92370520e-03  4.47637643e-02  5.04845890e-02 -1.96558638e-04
  3.85341896e-04 -8.35183979e-02 -1.06228058e-02 -1.56723711e-02
 -3.76815114e-03  1.10358285e-04 -2.16349452e-04 -3.35849705e-14
  1.06173967e-02  1.56696120e-02  3.77372809e-03 -9.70730383e-03
 -7.20993467e-04]",12.315421185299593,0,0
128,156,2024-09-19 21:13:01.968439296,TASK_BEGIN,11,0.2042914948157519,0.3522790543169457,0.4187699899854501,0.2495188235940748,1.952705589204642,-0.419275195369011,8.038532500120015,-0.7614253399123876,1,2024-09-19 21:13:04.136833008,1726780384.1368332,2024-09-19 21:13:04.136833280,5,[ 5.17307505 10.69352337 -2.08721359  1.46312587],-1.0,-13.12541872310217,[ 5.17307505 10.69352337 -2.08721359  1.46312587],[0.60398465 0.9011018  0.2459897  0.5994695 ],[1.40984722 0.69110316 0.42469975],"[ 1.45443662e+00  8.62597243e-01  4.16850907e-01  1.50174976e+00
  8.97810704e-01  4.24774613e-01  4.73131417e-02  3.52134607e-02
  7.92370520e-03  4.47637643e-02  5.04845890e-02 -1.96558638e-04
  3.85341896e-04 -8.35183979e-02 -1.06228058e-02 -1.56723711e-02
 -3.76815114e-03  1.10358285e-04 -2.16349452e-04 -3.35849705e-14
  1.06173967e-02  1.56696120e-02  3.77372809e-03 -9.70730383e-03
 -7.20993467e-04]",12.315421185299593,0,0
129,157,2024-09-19 21:13:02.046544896,TASK_BEGIN,11,0.1820371949828797,0.3722542428467018,0.5054866568876779,0.2237736369645068,1.879618127820018,-0.4154232545769437,7.975011288475584,-0.7394200918998276,1,2024-09-19 21:13:04.136833008,1726780384.1368332,2024-09-19 21:13:04.136833280,5,[ 5.17307505 10.69352337 -2.08721359  1.46312587],-1.0,-13.12541872310217,[ 5.17307505 10.69352337 -2.08721359  1.46312587],[0.60398465 0.9011018  0.2459897  0.5994695 ],[1.40984722 0.69110316 0.42469975],"[ 1.45443662e+00  8.62597243e-01  4.16850907e-01  1.50174976e+00
  8.97810704e-01  4.24774613e-01  4.73131417e-02  3.52134607e-02
  7.92370520e-03  4.47637643e-02  5.04845890e-02 -1.96558638e-04
  3.85341896e-04 -8.35183979e-02 -1.06228058e-02 -1.56723711e-02
 -3.76815114e-03  1.10358285e-04 -2.16349452e-04 -3.35849705e-14
  1.06173967e-02  1.56696120e-02  3.77372809e-03 -9.70730383e-03
 -7.20993467e-04]",12.315421185299593,0,0
130,158,2024-09-19 21:13:02.117167872,TASK_BEGIN,11,0.1602428303239959,0.3908191204074794,0.5415848650710521,0.2027433065961489,1.797254770303216,-0.4094363330873188,7.913230475456468,-0.730423734226101,1,2024-09-19 21:13:04.884867920,1726780384.8848684,2024-09-19 21:13:04.884868352,5,[-1.82184505 -1.363455    8.47871977 -6.35344576],-1.0,-19.027213177874142,[-1.82184505 -1.363455    8.47871977 -6.35344576],[0.9296483  0.31093648 0.37766448 0.5229073 ],[1.40984722 0.69110316 0.42469975],"[ 1.38403625e+00  8.36678638e-01  4.44729477e-01  1.50174033e+00
  8.97805892e-01  4.24784287e-01  1.17704081e-01  6.11272539e-02
 -1.99451901e-02  4.35144890e-02  1.49582342e-02 -4.10140883e-06
  8.04060590e-06 -8.35184358e-02  2.82827931e-02  2.36957367e-02
 -2.74492302e-02  2.29774785e-06 -4.50461918e-06  9.50163617e-20
 -2.82829057e-02 -2.36957941e-02  2.74493439e-02 -1.48191320e-02
 -2.23422530e-02]",10.397174479253671,0,0
131,159,2024-09-19 21:13:02.184830720,TASK_BEGIN,11,0.1393620194453166,0.4075564597038099,0.527000491275519,0.1875411453062085,1.7087636607161767,-0.401786661019954,7.85389414211653,-0.7328013595780242,1,2024-09-19 21:13:04.884867920,1726780384.8848684,2024-09-19 21:13:04.884868352,5,[-1.82184505 -1.363455    8.47871977 -6.35344576],-1.0,-19.027213177874142,[-1.82184505 -1.363455    8.47871977 -6.35344576],[0.9296483  0.31093648 0.37766448 0.5229073 ],[1.40984722 0.69110316 0.42469975],"[ 1.38403625e+00  8.36678638e-01  4.44729477e-01  1.50174033e+00
  8.97805892e-01  4.24784287e-01  1.17704081e-01  6.11272539e-02
 -1.99451901e-02  4.35144890e-02  1.49582342e-02 -4.10140883e-06
  8.04060590e-06 -8.35184358e-02  2.82827931e-02  2.36957367e-02
