,Unnamed: 0,time,MARKER,pid,L_O_DSI,L_D_DSI,L_O_DSphi,L_D_DSphi,R_O_DSI,R_D_DSI,R_O_DSphi,R_D_DSphi,trial_id,timestamps,floatTimestamps,dateTimestamps,episode,states,actions,rewards,chosen_actions,optimal_actions,desired_goal,achieved_goal,numDemonstrations,steps,seed,continuous_optimal,binary_optimal,discrete_optimal
1,1,2024-09-20 21:34:14.934569984,TASK_BEGIN,14,-0.3149563856787777,0.2282774027473661,2.8853759235254204,-0.7316873813871353,1.1652326176509384,0.0914824023711948,5.89343983114817,-1.1172075543615818,2,2024-09-20 21:34:14.588862976,1726868054.588863,2024-09-20 21:34:14.588862840,0,"[ 1.34413363e+00  7.50354609e-01  5.26119027e-01  1.28113899e+00
  8.87750217e-01  4.24784489e-01 -6.29946352e-02  1.37395608e-01
 -1.01334538e-01  2.88063845e-06  1.40874438e-06 -4.20046746e-18
  6.45715123e-17 -2.18708464e-15 -4.13932505e-05 -2.30268165e-05
  1.56408690e-04  5.56890076e-18 -3.56059189e-17  1.65137779e-19
  4.13932505e-05  2.30268165e-05 -1.56408690e-04  3.33068069e-07
 -3.33068068e-07]","[0.0009765625, 0.0009765625, -0.0009765625, 0.0]",-1.0,"[0.0009765625, 0.0009765625, -0.0009765625, 0.0]",[-0.08075567  0.9999275  -0.2206855   0.3377328 ],[1.44986394 0.65957002 0.60988618],[1.281139   0.88775022 0.42470209],21,651,180,0.3582897569821533,0,0
2,2,2024-09-20 21:34:15.002924800,TASK_BEGIN,14,-0.1542254290413625,0.1831166729747154,3.5541367499465446,-0.9818902873183843,1.1268225698889844,0.0459424218346,5.679450154493257,-1.0619840067419886,2,2024-09-20 21:34:14.648459776,1726868054.6484597,2024-09-20 21:34:14.648459031,0,"[ 1.34418787e+00  7.50386046e-01  5.25903840e-01  1.28113899e+00
  8.87750217e-01  4.24784489e-01 -6.30488798e-02  1.37364171e-01
 -1.01119350e-01  2.90209221e-06  1.38729063e-06  2.65710452e-17
  6.05927919e-17 -2.18704343e-15 -4.14187879e-05 -2.30279414e-05
  1.56472474e-04 -1.07488892e-17 -3.87034462e-17  1.37784719e-18
  4.14187879e-05  2.30279414e-05 -1.56472474e-04  3.33100113e-07
 -3.33100112e-07]","[0.0009765625, 0.0009765625, -0.0009765625, 0.0]",-1.0,"[0.0009765625, 0.0009765625, -0.0009765625, 0.0]",[-0.08122709  0.99992716 -0.21938345  0.3381455 ],[1.44986394 0.65957002 0.60988618],[1.281139   0.88775022 0.42470209],21,651,180,0.3581711293156268,0,0
3,3,2024-09-20 21:34:15.069048064,TASK_BEGIN,14,-0.0029115055651276,0.1408555736897422,4.151684647863647,-1.2147032907695845,1.0898377612132395,0.0014434363139977,5.480966400365446,-1.0033285871364697,2,2024-09-20 21:34:14.705938432,1726868054.7059383,2024-09-20 21:34:14.705937791,0,"[ 1.34424215e+00  7.50417484e-01  5.25688561e-01  1.28113899e+00
  8.87750217e-01  4.24784489e-01 -6.31031540e-02  1.37332733e-01
 -1.00904071e-01  2.92356778e-06  1.36581506e-06  5.20391147e-17
  5.66475953e-17 -2.18686327e-15 -4.14442657e-05 -2.30290685e-05
  1.56536093e-04 -1.10809446e-17 -2.80926888e-17  3.46927704e-19
  4.14442657e-05  2.30290685e-05 -1.56536093e-04  3.33132113e-07
 -3.33132113e-07]","[0.0009765625, 0.0009765625, -0.0009765625, 0.0]",-1.0,"[0.0009765625, 0.0009765625, -0.0009765625, 0.0]",[-0.08169853  0.9999268  -0.21808001  0.3385581 ],[1.44986394 0.65957002 0.60988618],[1.281139   0.88775022 0.42470209],21,651,180,0.3580575494320704,0,0
4,4,2024-09-20 21:34:15.138756096,TASK_BEGIN,14,0.1353097935858144,0.1025261722780069,4.652497144623216,-1.4235326640956845,1.0536913763095197,-0.0412706164126385,5.298064128009295,-0.9405269787826191,2,2024-09-20 21:34:14.764567040,1726868054.7645671,2024-09-20 21:34:14.764566941,0,"[ 1.34429645e+00  7.50448924e-01  5.25473191e-01  1.28113899e+00
  8.87750217e-01  4.24784489e-01 -6.31574578e-02  1.37301293e-01
 -1.00688702e-01  2.94506510e-06  1.34431773e-06  7.03547134e-17
  4.91298827e-17 -2.18678587e-15 -4.14696829e-05 -2.30301978e-05
  1.56599546e-04 -3.60839885e-17 -3.08686667e-17  2.90423648e-18
  4.14696829e-05  2.30301978e-05 -1.56599546e-04  3.33164071e-07
 -3.33164070e-07]","[0.0009765625, 0.0009765625, -0.0009765625, 0.0]",-1.0,"[0.0009765625, 0.0009765625, -0.0009765625, 0.0]",[-0.08217015  0.99992645 -0.2167752   0.33897078],[1.44986394 0.65957002 0.60988618],[1.281139   0.88775022 0.42470209],21,651,180,0.35794605624782905,0,0
5,5,2024-09-20 21:34:15.206124032,TASK_BEGIN,14,0.2574252455201071,0.0689011724654711,5.039342130620845,-1.6039353082081804,1.017548976150202,-0.0814034531107806,5.130260673052024,-0.8735650203206576,2,2024-09-20 21:34:14.823564800,1726868054.8235648,2024-09-20 21:34:14.823564012,0,"[ 1.34435078e+00  7.50480365e-01  5.25257731e-01  1.28113899e+00
  8.87750217e-01  4.24784489e-01 -6.32117911e-02  1.37269852e-01
 -1.00473242e-01  2.96658412e-06  1.32279871e-06  8.28856601e-17
  4.12544547e-17 -2.18628202e-15 -4.14950389e-05 -2.30313292e-05
  1.56662833e-04 -2.81439953e-17 -2.48535857e-17  5.89617555e-19
  4.14950389e-05  2.30313292e-05 -1.56662833e-04  3.33195987e-07
 -3.33195986e-07]","[0.0009765625, 0.0009765625, -0.0009765625, 0.0]",-1.0,"[0.0009765625, 0.0009765625, -0.0009765625, 0.0]",[-0.08264194  0.9999261  -0.21546902  0.3393835 ],[1.44986394 0.65957002 0.60988618],[1.281139   0.88775022 0.42470209],21,651,180,0.3578355177715976,0,0
6,6,2024-09-20 21:34:15.273572096,TASK_BEGIN,14,0.3611295551391686,0.0404816982325055,5.304038618351752,-1.7537324803483445,0.9804475672458556,-0.1181446167121048,4.976978075398715,-0.8033030105786717,2,2024-09-20 21:34:14.882032384,1726868054.8820324,2024-09-20 21:34:14.882032029,0,"[ 1.34440515e+00  7.50511808e-01  5.25042180e-01  1.28113899e+00
  8.87750217e-01  4.24784489e-01 -6.32661539e-02  1.37238409e-01
 -1.00257691e-01  2.98812477e-06  1.30125806e-06  9.62258055e-17
  3.50875804e-17 -2.18642665e-15 -4.15203330e-05 -2.30324627e-05
  1.56725953e-04 -3.09695126e-17 -1.51418078e-17 -3.40279383e-18
  4.15203330e-05  2.30324627e-05 -1.56725953e-04  3.33227862e-07
 -3.33227861e-07]","[0.0009765625, 0.0009765625, -0.0009765625, 0.0]",-1.0,"[0.0009765625, 0.0009765625, -0.0009765625, 0.0]",[-0.08311388  0.99992573 -0.21416162  0.3397961 ],[1.44986394 0.65957002 0.60988618],[1.281139   0.88775022 0.42470209],21,651,180,0.3577259076384864,0,0
7,7,2024-09-20 21:34:16.209047040,TASK_BEGIN,14,0.4448543370629801,0.0175088863111302,5.447299532924746,-1.8728661085013552,0.9414421647114304,-0.1507239656334909,4.8379351603701135,-0.7314849783315457,2,2024-09-20 21:34:15.836766976,1726868055.836767,2024-09-20 21:34:15.836766160,0,"[ 1.34533374e+00  7.51046552e-01  5.21364233e-01  1.28113899e+00
  8.87750217e-01  4.24784489e-01 -6.41947437e-02  1.36703665e-01
 -9.65797439e-02  3.35756778e-06  9.31815069e-07  8.76796700e-17
  3.43372181e-19 -2.18184916e-15 -4.19407822e-05 -2.30520439e-05
  1.57773660e-04 -3.83965026e-17 -3.64617714e-18  1.05061581e-19
  4.19407822e-05  2.30520439e-05 -1.57773660e-04  3.33763567e-07
 -3.33763566e-07]","[0.0009765625, 0.0009765625, -0.0009765625, 0.0]",-1.0,"[0.0009765625, 0.0009765625, -0.0009765625, 0.0]",[-0.09154743  0.99991846 -0.1924019   0.34655455],[1.44986394 0.65957002 0.60988618],[1.281139   0.88775022 0.42470209],21,651,180,0.3559022180645125,0,0
8,8,2024-09-20 21:34:16.274136064,TASK_BEGIN,14,0.5077802480476575,-8.527109743743994e-06,5.477788077081199,-1.963047458783999,0.8996946655709558,-0.1784592148711888,4.713393636736218,-0.660578421998284,2,2024-09-20 21:34:15.894766336,1726868055.8947663,2024-09-20 21:34:15.894765916,0,"[ 1.34538862e+00  7.51078021e-01  5.21147097e-01  1.28113899e+00
  8.87750217e-01  4.24784489e-01 -6.42496220e-02  1.36672197e-01
 -9.63626080e-02  3.37948772e-06  9.09895140e-07  8.94584555e-17
  8.99764616e-20 -2.18229366e-15 -4.19649556e-05 -2.30532133e-05
  1.57833827e-04 -4.17028331e-17  8.85026918e-19  1.29165446e-18
  4.19649556e-05  2.30532133e-05 -1.57833827e-04  3.33794713e-07
 -3.33794712e-07]","[0.0009765625, 0.0009765625, -0.0009765625, 0.0]",-1.0,"[0.0009765625, 0.0009765625, -0.0009765625, 0.0]",[-0.09207348  0.9999178  -0.19117747  0.3469223 ],[1.44986394 0.65957002 0.60988618],[1.281139   0.88775022 0.42470209],21,651,180,0.35579682084188435,0,0
9,9,2024-09-20 21:34:16.349627904,TASK_BEGIN,14,0.5498134092192674,-0.0122592750368564,5.410607871545092,-2.027275180585484,0.8544820062490595,-0.2007785330332421,4.604169341632529,-0.5934799783311973,2,2024-09-20 21:34:15.950765056,1726868055.9507651,2024-09-20 21:34:15.950764939,0,"[ 1.34544352e+00  7.51109491e-01  5.20929875e-01  1.28113899e+00
  8.87750217e-01  4.24784489e-01 -6.43045281e-02  1.36640727e-01
 -9.61453861e-02  3.40142817e-06  8.87954683e-07  8.29707574e-17
  2.32880022e-21 -2.18338818e-15 -4.19890676e-05 -2.30543845e-05
  1.57893835e-04 -4.63266260e-17 -2.32759613e-18 -1.27721231e-18
  4.19890676e-05  2.30543845e-05 -1.57893835e-04  3.33825818e-07
 -3.33825817e-07]","[0.0009765625, 0.0009765625, -0.0009765625, 0.0]",-1.0,"[0.0009765625, 0.0009765625, -0.0009765625, 0.0]",[-0.09259979  0.99991715 -0.1899522   0.34728992],[1.44986394 0.65957002 0.60988618],[1.281139   0.88775022 0.42470209],21,651,180,0.3556923828891681,0,0
10,10,2024-09-20 21:34:16.411201024,TASK_BEGIN,14,0.5715214728147825,-0.0195922068935246,5.265499673696405,-2.06931987207234,0.8051763332318771,-0.2172153699280245,4.511291768747644,-0.5331291885254094,2,2024-09-20 21:34:16.064766720,1726868056.0647666,2024-09-20 21:34:16.064765916,0,"[ 1.34555342e+00  7.51172435e-01  5.20495175e-01  1.28113899e+00
  8.87750217e-01  4.24784489e-01 -6.44144237e-02  1.36577782e-01
 -9.57106856e-02  3.44537045e-06  8.44012408e-07  7.43948180e-17
 -5.91656925e-19 -2.18399095e-15 -4.20371076e-05 -2.30567326e-05
  1.58013377e-04 -4.16181796e-17 -4.41772125e-18 -6.59204747e-19
  4.20371076e-05  2.30567326e-05 -1.58013377e-04  3.33887903e-07
 -3.33887902e-07]","[0.0009765625, 0.0009765625, -0.0009765625, 0.0]",-1.0,"[0.0009765625, 0.0009765625, -0.0009765625, 0.0]",[-0.09365265  0.99991584 -0.18749802  0.34802532],[1.44986394 0.65957002 0.60988618],[1.281139   0.88775022 0.42470209],21,651,180,0.35548630613528875,0,0
11,11,2024-09-20 21:34:16.473224192,TASK_BEGIN,14,0.5740528479194322,-0.0224782186012958,5.06503045778484,-2.0932660622794312,0.7512546456731648,-0.2273888905919237,4.435384812739868,-0.4821015406193381,2,2024-09-20 21:34:16.120768000,1726868056.120768,2024-09-20 21:34:16.120768113,0,"[ 1.34560841e+00  7.51203910e-01  5.20277697e-01  1.28113899e+00
  8.87750217e-01  4.24784489e-01 -6.44694129e-02  1.36546308e-01
 -9.54932075e-02  3.46737216e-06  8.22010702e-07  9.03195374e-17
  1.02623572e-19 -2.18356939e-15 -4.20610359e-05 -2.30579093e-05
  1.58072912e-04 -3.69910240e-17 -1.70775346e-18 -3.84422386e-18
  4.20610359e-05  2.30579093e-05 -1.58072912e-04  3.33918882e-07
 -3.33918881e-07]","[0.0009765625, 0.0009765625, -0.0009765625, 0.0]",-1.0,"[0.0009765625, 0.0009765625, -0.0009765625, 0.0]",[-0.09416925  0.9999152  -0.18627176  0.34839788],[1.44986394 0.65957002 0.60988618],[1.281139   0.88775022 0.42470209],21,651,180,0.35538606175898296,0,0
12,12,2024-09-20 21:34:16.556513792,TASK_BEGIN,14,0.5590775490152825,-0.0214770678419001,4.832933746788185,-2.1031568363940725,0.6923419777028611,-0.2309922484589692,4.376041838673911,-0.4422786693030949,2,2024-09-20 21:34:16.177772032,1726868056.177772,2024-09-20 21:34:16.177772020,0,"[ 1.34566342e+00  7.51235386e-01  5.20060133e-01  1.28113899e+00
  8.87750217e-01  4.24784489e-01 -6.45244296e-02  1.36514832e-01
 -9.52756442e-02  3.48939417e-06  7.99988691e-07  8.04487947e-17
 -4.40883217e-19 -2.18498738e-15 -4.20849033e-05 -2.30590880e-05
  1.58132291e-04 -2.98384183e-17  4.61526284e-19 -2.90594345e-18
  4.20849033e-05  2.30590880e-05 -1.58132291e-04  3.33949821e-07
 -3.33949820e-07]","[0.0009765625, 0.0009765625, -0.0009765625, 0.0]",-1.0,"[0.0009765625, 0.0009765625, -0.0009765625, 0.0]",[-0.09455017  0.99991465 -0.18507513  0.34883475],[1.44986394 0.65957002 0.60988618],[1.281139   0.88775022 0.42470209],21,651,180,0.35528670049326144,0,0
13,13,2024-09-20 21:34:16.624260096,TASK_BEGIN,14,0.5287567900310503,-0.0172143031009765,4.592542999360862,-2.102720613074575,0.6282498348528237,-0.2278029871134524,4.3314169507139,-0.4146741373795772,2,2024-09-20 21:34:16.234767872,1726868056.234768,2024-09-20 21:34:16.234766893,0,"[ 1.34571847e+00  7.51266863e-01  5.19842485e-01  1.28113899e+00
  8.87750217e-01  4.24784489e-01 -6.45794738e-02  1.36483354e-01
 -9.50579963e-02  3.51143643e-06  7.77946429e-07  8.93526666e-17
  3.10015356e-19 -2.18508999e-15 -4.21087098e-05 -2.30602684e-05
  1.58191513e-04 -5.28969067e-17  4.82103480e-19 -1.99626094e-18
  4.21087098e-05  2.30602684e-05 -1.58191513e-04  3.33980717e-07
 -3.33980716e-07]","[0.0009765625, 0.0009765625, -0.0009765625, 0.0]",-1.0,"[0.0009765625, 0.0009765625, -0.0009765625, 0.0]",[-0.09493117  0.99991405 -0.18387736  0.3492717 ],[1.44986394 0.65957002 0.60988618],[1.281139   0.88775022 0.42470209],21,651,180,0.3551883158883625,0,0
14,14,2024-09-20 21:34:17.554495232,TASK_BEGIN,14,0.4856954462797023,-0.0103621475698418,4.365234099429548,-2.095147419002374,0.5589844954331186,-0.2177109060569679,4.298114858367623,-0.3994392253757751,2,2024-09-20 21:34:17.166231808,1726868057.1662319,2024-09-20 21:34:17.167231004,0,"[ 1.34660284e+00  7.51770705e-01  5.16348764e-01  1.28113899e+00
  8.87750217e-01  4.24784489e-01 -6.54638460e-02  1.35979513e-01
 -9.15642750e-02  3.86682234e-06  4.22560537e-07  9.08499602e-17
 -6.79258669e-19 -2.18512012e-15 -4.24814440e-05 -2.30793916e-05
  1.59118292e-04 -3.76086989e-17  6.04908941e-19  1.34245997e-18
  4.24814440e-05  2.30793916e-05 -1.59118292e-04  3.34469237e-07
 -3.34469236e-07]","[0.0009765625, 0.0009765625, -0.0009765625, 0.0]",-1.0,"[0.0009765625, 0.0009765625, -0.0009765625, 0.0]",[-0.10124311  0.99990463 -0.1625189   0.3552561 ],[1.44986394 0.65957002 0.60988618],[1.281139   0.88775022 0.42470209],21,651,180,0.35384975484372755,0,0
15,15,2024-09-20 21:34:17.637537792,TASK_BEGIN,14,0.4328231801277629,-0.0016126839378764,4.168998122601719,-2.0829326241606614,0.4847416825458949,-0.2007472829347339,4.271408184360004,-0.3960109612365336,2,2024-09-20 21:34:17.280907008,1726868057.280907,2024-09-20 21:34:17.280907029,0,"[ 1.34671386e+00  7.51833712e-01  5.15910571e-01  1.28113899e+00
  8.87750217e-01  4.24784489e-01 -6.55748684e-02  1.35916505e-01
 -9.11260815e-02  3.91159811e-06  3.77784767e-07  1.05036252e-16
 -3.33271421e-19 -2.18556222e-15 -4.25269693e-05 -2.30818120e-05
  1.59231452e-04 -4.34804755e-17  2.81423189e-18  3.03806157e-18
  4.25269693e-05  2.30818120e-05 -1.59231452e-04  3.34529518e-07
 -3.34529517e-07]","[0.0009765625, 0.0009765625, -0.0009765625, 0.0]",-1.0,"[0.0009765625, 0.0009765625, -0.0009765625, 0.0]",[-0.10206853  0.99990344 -0.15947333  0.35583112],[1.44986394 0.65957002 0.60988618],[1.281139   0.88775022 0.42470209],21,651,180,0.353683592597107,0,0
16,16,2024-09-20 21:34:17.703272192,TASK_BEGIN,14,0.3731963990018159,0.0083586315229037,4.017369972766313,-2.067821498635018,0.4059258186840925,-0.1771072709703744,4.245738560128805,-0.4033201420521314,2,2024-09-20 21:34:17.336907520,1726868057.3369076,2024-09-20 21:34:17.336907029,0,"[ 1.34676941e+00  7.51865218e-01  5.15691353e-01  1.28113899e+00
  8.87750217e-01  4.24784489e-01 -6.56304185e-02  1.35884999e-01
 -9.09068636e-02  3.93401487e-06  3.55368006e-07  8.39134997e-17
 -1.06770444e-18 -2.18603638e-15 -4.25496443e-05 -2.30830246e-05
  1.59287813e-04 -3.65356062e-17 -1.15523959e-18  6.44324037e-19
  4.25496443e-05  2.30830246e-05 -1.59287813e-04  3.34559591e-07
 -3.34559590e-07]","[0.0009765625, 0.0009765625, -0.0009765625, 0.0]",-1.0,"[0.0009765625, 0.0009765625, -0.0009765625, 0.0]",[-0.10248159  0.99990284 -0.15794846  0.35611877],[1.44986394 0.65957002 0.60988618],[1.281139   0.88775022 0.42470209],21,651,180,0.3536160917062004,0,0
17,17,2024-09-20 21:34:17.765309184,TASK_BEGIN,14,0.309764953594726,0.0189312512882168,3.9187714729949854,-2.050832792181579,0.3232159408145423,-0.14717244931167,4.215385546424161,-0.4199877581833661,2,2024-09-20 21:34:18.137230592,1726868058.1372306,2024-09-20 21:34:18.137230027,0,"[ 1.34754979e+00  7.52306460e-01  5.12613940e-01  1.28113899e+00
  8.87750217e-01  4.24784489e-01 -6.64107968e-02  1.35443757e-01
 -8.78294510e-02  4.24984023e-06  3.95426596e-08  7.25324414e-17
 -9.06120958e-19 -2.18428563e-15 -4.28610431e-05 -2.31001616e-05
  1.60061851e-04 -3.90332824e-17  6.41436229e-20  1.75452725e-19
  4.28610431e-05  2.31001616e-05 -1.60061851e-04  3.34975883e-07
 -3.34975882e-07]","[0.0009765625, 0.0009765625, -0.0009765625, 0.0]",-1.0,"[0.0009765625, 0.0009765625, -0.0009765625, 0.0]",[-0.10981804  0.9998942  -0.13547345  0.36056262],[1.44986394 0.65957002 0.60988618],[1.281139   0.88775022 0.42470209],21,651,180,0.35369069298492584,0,0
18,18,2024-09-20 21:34:17.827298048,TASK_BEGIN,14,0.2451641953975577,0.0295712597395843,3.87615241152681,-2.03230812687564,0.237641410320409,-0.1115354205532938,4.1752289852,-0.4444862819473495,2,2024-09-20 21:34:18.193296128,1726868058.1932962,2024-09-20 21:34:18.193295945,0,"[ 1.34760572e+00  7.52337989e-01  5.12393536e-01  1.28113899e+00
  8.87750217e-01  4.24784489e-01 -6.64667261e-02  1.35412228e-01
 -8.76090466e-02  4.27253934e-06  1.68435512e-08  8.03286032e-17
  4.85630321e-19 -2.18424409e-15 -4.28828592e-05 -2.31013967e-05
  1.60116087e-04 -3.76015148e-17 -2.03737656e-18  2.28276326e-18
  4.28828592e-05  2.31013967e-05 -1.60116087e-04  3.35005274e-07
 -3.35005273e-07]","[0.0009765625, 0.0009765625, -0.0009765625, 0.0]",-1.0,"[0.0009765625, 0.0009765625, -0.0009765625, 0.0]",[-0.11006929  0.9998936  -0.13385816  0.36078596],[1.44986394 0.65957002 0.60988618],[1.281139   0.88775022 0.42470209],21,651,180,0.35378741339771336,0,0
19,19,2024-09-20 21:34:17.904483072,TASK_BEGIN,14,0.1815761513783909,0.0398497488296168,3.886907294110864,-2.0119794021877864,0.1505805961712994,-0.0710070471935061,4.121516056995902,-0.4752559094334075,2,2024-09-20 21:34:18.250298112,1726868058.250298,2024-09-20 21:34:18.250298143,0,"[ 1.34766167e+00  7.52369520e-01  5.12173054e-01  1.28113899e+00
  8.87750217e-01  4.24784489e-01 -6.65226802e-02  1.35380698e-01
 -8.73885646e-02  4.29525687e-06 -5.87397606e-09  7.52957415e-17
  9.35503148e-19 -2.18376641e-15 -4.29046191e-05 -2.31026332e-05
  1.60170185e-04 -3.72243248e-17 -5.07857651e-19  1.07966202e-18
  4.29046191e-05  2.31026332e-05 -1.60170185e-04  3.35034619e-07
 -3.35034618e-07]","[0.0009765625, 0.0009765625, -0.0009765625, 0.0]",-1.0,"[0.0009765625, 0.0009765625, -0.0009765625, 0.0]",[-0.11035999  0.99989307 -0.13224772  0.36096883],[1.44986394 0.65957002 0.60988618],[1.281139   0.88775022 0.42470209],21,651,180,0.35388473936157994,0,0
20,20,2024-09-20 21:34:17.966846976,TASK_BEGIN,14,0.1206737653009263,0.0494433757282544,3.9432584284360175,-1.9890954423565697,0.0636505146144059,-0.0265864856663035,4.052428698031603,-0.510746761634112,2,2024-09-20 21:34:18.362292992,1726868058.362293,2024-09-20 21:34:18.362293016,0,"[ 1.34777366e+00  7.52432585e-01  5.11731858e-01  1.28113899e+00
  8.87750217e-01  4.24784489e-01 -6.66346620e-02  1.35317632e-01
 -8.69473690e-02  4.34074448e-06  8.67784661e-08  7.41390273e-17
 -4.88255645e-19 -2.18310648e-15 -4.29479717e-05 -2.31047279e-05
  1.60277972e-04 -4.32389922e-17  3.69144030e-18  3.27574963e-19
  4.29479717e-05  2.31047279e-05 -1.60277972e-04  3.35111589e-07
 -2.43004140e-07]","[0.0009765625, 0.0009765625, -0.0009765625, 0.0]",-1.0,"[0.0009765625, 0.0009765625, -0.0009765625, 0.0]",[-0.11096775  0.99989206 -0.12902708  0.36130777],[1.44986394 0.65957002 0.60988618],[1.281139   0.88775022 0.42470209],21,651,180,0.35408165766580113,0,0
21,21,2024-09-20 21:34:18.918632192,TASK_BEGIN,14,0.0636335285542408,0.058121503752872,4.033269632665768,-1.9626377299533015,-0.0214240847478675,0.02059765360482,3.968294871755989,-0.5493720624886792,2,2024-09-20 21:34:19.315900928,1726868059.315901,2024-09-20 21:34:19.315899949,0,"[ 1.34872939e+00  7.52968891e-01  5.07969427e-01  1.28113899e+00
  8.87750217e-01  4.24784489e-01 -6.75903929e-02  1.34781327e-01
 -8.31849378e-02  4.73032668e-06  1.01910434e-07  6.78037295e-17
  1.35345887e-20 -2.18762761e-15 -4.33075801e-05 -2.31263796e-05
  1.61172546e-04 -4.97068240e-17 -2.44722354e-18 -1.47883447e-18
  4.33075801e-05  2.31263796e-05 -1.61172546e-04  3.35582520e-07
 -3.32337440e-07]","[0.0009765625, 0.0009765625, -0.0009765625, 0.0]",-1.0,"[0.0009765625, 0.0009765625, -0.0009765625, 0.0]",[-0.11528887  0.9998808  -0.10071155  0.36269763],[1.44986394 0.65957002 0.60988618],[1.281139   0.88775022 0.42470209],21,651,180,0.3557719832305504,0,0
22,22,2024-09-20 21:34:18.986445056,TASK_BEGIN,14,0.011192009951624,0.0657311200357337,4.1424016450541,-1.9316177860296089,-0.1028539622607774,0.0693458133236793,3.871398013753245,-0.5893985818673437,2,2024-09-20 21:34:19.373420544,1726868059.3734205,2024-09-20 21:34:19.373419969,0,"[ 1.34878582e+00  7.53000452e-01  5.07747435e-01  1.28113899e+00
  8.87750217e-01  4.24784489e-01 -6.76468244e-02  1.34749765e-01
 -8.29629459e-02  4.75340163e-06  8.13102434e-08  7.16072269e-17
 -1.48606972e-19 -2.18738447e-15 -4.33282472e-05 -2.31276448e-05
  1.61223992e-04 -3.93680733e-17 -3.49168968e-20  1.65735310e-18
  4.33282472e-05  2.31276448e-05 -1.61223992e-04  3.35611025e-07
 -3.33921108e-07]","[0.0009765625, 0.0009765625, -0.0009765625, 0.0]",-1.0,"[0.0009765625, 0.0009765625, -0.0009765625, 0.0]",[-0.1155334   0.99988    -0.09902611  0.36276153],[1.44986394 0.65957002 0.60988618],[1.281139   0.88775022 0.42470209],21,651,180,0.35586895239417343,0,0
23,23,2024-09-20 21:34:19.054163200,TASK_BEGIN,14,-0.0362641313879973,0.0721842549233387,4.255362525830867,-1.8954272222113733,-0.1787546254994022,0.1184297002577746,3.765328074650698,-0.6288256777577111,2,2024-09-20 21:34:19.430791168,1726868059.4307911,2024-09-20 21:34:19.430790818,0,"[ 1.34884227e+00  7.53032015e-01  5.07525370e-01  1.28113899e+00
  8.87750217e-01  4.24784489e-01 -6.77032791e-02  1.34718202e-01
 -8.27408805e-02  4.77649410e-06  5.95065445e-08  6.85635971e-17
 -2.17721817e-19 -2.18871957e-15 -4.33488612e-05 -2.31289101e-05
  1.61275311e-04 -4.63443392e-17  8.22887609e-19 -2.49551419e-18
  4.33488612e-05  2.31289101e-05 -1.61275311e-04  3.35639460e-07
 -3.34759414e-07]","[0.0009765625, 0.0009765625, -0.0009765625, 0.0]",-1.0,"[0.0009765625, 0.0009765625, -0.0009765625, 0.0]",[-0.11577803  0.9998793  -0.09733962  0.3628255 ],[1.44986394 0.65957002 0.60988618],[1.281139   0.88775022 0.42470209],21,651,180,0.3559654896568073,0,0
24,24,2024-09-20 21:34:19.121844992,TASK_BEGIN,14,-0.0785790337196596,0.0774443230879692,4.358001576326951,-1.8541875586684249,-0.2471597102986993,0.1666313122873824,3.6539907269710814,-0.6653196729499602,2,2024-09-20 21:34:19.489689088,1726868059.489689,2024-09-20 21:34:19.489689012,0,"[ 1.34889875e+00  7.53063580e-01  5.07303231e-01  1.28113899e+00
  8.87750217e-01  4.24784489e-01 -6.77597567e-02  1.34686638e-01
 -8.25187417e-02  4.79960400e-06  3.70677867e-08  6.95272104e-17
  8.35218413e-19 -2.18904170e-15 -4.33694223e-05 -2.31301760e-05
  1.61326502e-04 -3.43627953e-17 -3.04095604e-18  6.08696880e-20
  4.33694223e-05  2.31301760e-05 -1.61326502e-04  3.35667818e-07
 -3.35209522e-07]","[0.0009765625, 0.0009765625, -0.0009765625, 0.0]",-1.0,"[0.0009765625, 0.0009765625, -0.0009765625, 0.0]",[-0.11602265  0.9998786  -0.09565194  0.3628894 ],[1.44986394 0.65957002 0.60988618],[1.281139   0.88775022 0.42470209],21,651,180,0.3560624992349142,0,0
25,25,2024-09-20 21:34:19.189569024,TASK_BEGIN,14,-0.1157013520119543,0.0815104837420733,4.438968943152562,-1.809008316134378,-0.3061562220657841,0.2127982878835781,3.54070891538486,-0.6962702188306341,2,2024-09-20 21:34:19.547010304,1726868059.5470104,2024-09-20 21:34:19.547010057,0,"[ 1.34895525e+00  7.53095146e-01  5.07081019e-01  1.28113899e+00
  8.87750217e-01  4.24784489e-01 -6.78162574e-02  1.34655071e-01
 -8.22965298e-02  4.82273126e-06  1.42900320e-08  7.83669055e-17
  4.86854030e-19 -2.18866501e-15 -4.33899305e-05 -2.31314427e-05
  1.61377566e-04 -3.70112485e-17 -2.58968086e-18 -9.55339899e-19
  4.33899305e-05  2.31314427e-05 -1.61377566e-04  3.35696103e-07
 -3.35457440e-07]","[0.0009765625, 0.0009765625, -0.0009765625, 0.0]",-1.0,"[0.0009765625, 0.0009765625, -0.0009765625, 0.0]",[-0.11626734  0.9998778  -0.09396312  0.36295345],[1.44986394 0.65957002 0.60988618],[1.281139   0.88775022 0.42470209],21,651,180,0.35616054642351014,0,0
26,26,2024-09-20 21:34:19.257256960,TASK_BEGIN,14,-0.1475821654900819,0.0844035955495916,4.490836475436224,-1.7620466527580103,-0.3541089852744257,0.2559139269864081,3.427787614300022,-0.7189856487754424,2,2024-09-20 21:34:19.605075200,1726868059.6050751,2024-09-20 21:34:19.605074998,0,"[ 1.34901177e+00  7.53126714e-01  5.06858734e-01  1.28113899e+00
  8.87750217e-01  4.24784489e-01 -6.78727809e-02  1.34623504e-01
 -8.20742448e-02  4.84587581e-06 -8.67251231e-09  8.62017155e-17
  9.72767454e-19 -2.18967526e-15 -4.34103860e-05 -2.31327104e-05
  1.61428504e-04 -5.03537297e-17  1.56359574e-18 -2.19550015e-18
  4.34103860e-05  2.31327104e-05 -1.61428504e-04  3.35724323e-07
 -3.35600036e-07]","[0.0009765625, 0.0009765625, -0.0009765625, 0.0]",-1.0,"[0.0009765625, 0.0009765625, -0.0009765625, 0.0]",[-0.11652485  0.9998771  -0.09228355  0.36301452],[1.44986394 0.65957002 0.60988618],[1.281139   0.88775022 0.42470209],21,651,180,0.35626130676549067,0,0
27,27,2024-09-20 21:34:19.324974080,TASK_BEGIN,14,-0.174116841167173,0.08615582765154,4.510508969033818,-1.7163149440631913,-0.3898912141195075,0.2951612644020509,3.316538285226175,-0.7309721947127321,2,2024-09-20 21:34:19.718350848,1726868059.718351,2024-09-20 21:34:19.718349900,0,"[ 1.34912489e+00  7.53189854e-01  5.06413946e-01  1.28113899e+00
  8.87750217e-01  4.24784489e-01 -6.79858962e-02  1.34560363e-01
 -8.16294567e-02  4.89221399e-06  8.65776092e-08  7.16640470e-17
  2.42290404e-18 -2.19108376e-15 -4.34511405e-05 -2.31348624e-05
  1.61530002e-04 -4.58158272e-17 -4.47950928e-18 -1.05798957e-18
  4.34511405e-05  2.31348624e-05 -1.61530002e-04  3.35799241e-07
 -2.41327126e-07]","[0.0009765625, 0.0009765625, -0.0009765625, 0.0]",-1.0,"[0.0009765625, 0.0009765625, -0.0009765625, 0.0]",[-0.11737487  0.9998757  -0.08919519  0.36306015],[1.44986394 0.65957002 0.60988618],[1.281139   0.88775022 0.42470209],21,651,180,0.3564620445265615,0,0
28,28,2024-09-20 21:34:20.235985152,TASK_BEGIN,14,-0.1951391205702795,0.0868062022633627,4.499005800286724,-1.675284758156025,-0.4130587551867171,0.3299615575971997,3.2075767384925595,-0.7302198122807714,2,2024-09-20 21:34:20.623383808,1726868060.6233838,2024-09-20 21:34:20.623383104,0,"[ 1.35003303e+00  7.53695202e-01  5.02845325e-01  1.28113899e+00
  8.87750217e-01  4.24784489e-01 -6.88940354e-02  1.34055015e-01
 -7.80608362e-02  5.26537997e-06  1.19488222e-07  6.77708612e-17
 -4.45001236e-19 -2.19383411e-15 -4.37697481e-05 -2.31557095e-05
  1.62324276e-04 -3.66327409e-17  4.35612476e-18  4.54019072e-19
  4.37697481e-05  2.31557095e-05 -1.62324276e-04  3.36222468e-07
 -3.29925744e-07]","[0.0009765625, 0.0009765625, -0.0009765625, 0.0]",-1.0,"[0.0009765625, 0.0009765625, -0.0009765625, 0.0]",[-0.12217676  0.9998651  -0.06213016  0.36499503],[1.44986394 0.65957002 0.60988618],[1.281139   0.88775022 0.42470209],21,651,180,0.3575035999582202,0,0
29,29,2024-09-20 21:34:20.311439872,TASK_BEGIN,14,-0.2104649066601617,0.0864072195406327,4.460811751069583,-1.6424035614403611,-0.4239444094125423,0.3599821561201011,3.1012647153658306,-0.715445194098406,2,2024-09-20 21:34:20.680385792,1726868060.6803858,2024-09-20 21:34:20.680384812,0,"[ 1.35008997e+00  7.53726800e-01  5.02621687e-01  1.28113899e+00
  8.87750217e-01  4.24784489e-01 -6.89509801e-02  1.34023417e-01
 -7.78371979e-02  5.28884285e-06  1.00827345e-07  6.08901325e-17
 -1.48096448e-19 -2.19429164e-15 -4.37892311e-05 -2.31570027e-05
  1.62372895e-04 -3.98750219e-17  3.81507980e-19  5.00727876e-19
  4.37892311e-05  2.31570027e-05 -1.62372895e-04  3.36249792e-07
 -3.32970693e-07]","[0.0009765625, 0.0009765625, -0.0009765625, 0.0]",-1.0,"[0.0009765625, 0.0009765625, -0.0009765625, 0.0]",[-0.12229027  0.99986446 -0.06022742  0.36522734],[1.44986394 0.65957002 0.60988618],[1.281139   0.88775022 0.42470209],21,651,180,0.357538192469536,0,0
30,30,2024-09-20 21:34:20.378966016,TASK_BEGIN,14,-0.2199635275785952,0.0850431069382977,4.40293760958824,-1.620639926053594,-0.4236708861815432,0.3851227443731539,2.998198020767869,-0.686261268441222,2,2024-09-20 21:34:20.738384640,1726868060.7383847,2024-09-20 21:34:20.738384080,0,"[ 1.35014694e+00  7.53758399e-01  5.02397979e-01  1.28113899e+00
  8.87750217e-01  4.24784489e-01 -6.90079463e-02  1.33991818e-01
 -7.76134901e-02  5.31232219e-06  7.98487161e-08  7.38522523e-17
  4.47684381e-19 -2.19430414e-15 -4.38086643e-05 -2.31582945e-05
  1.62421397e-04 -3.82714998e-17 -7.30770783e-19 -1.01127530e-18
  4.38086643e-05  2.31582945e-05 -1.62421397e-04  3.36277086e-07
 -3.34569454e-07]","[0.0009765625, 0.0009765625, -0.0009765625, 0.0]",-1.0,"[0.0009765625, 0.0009765625, -0.0009765625, 0.0]",[-0.12240376  0.9998638  -0.05832339  0.36545968],[1.44986394 0.65957002 0.60988618],[1.281139   0.88775022 0.42470209],21,651,180,0.3575752880893399,0,0
31,31,2024-09-20 21:34:20.446923008,TASK_BEGIN,14,-0.2236202782730278,0.0828497248697661,4.333801584486837,-1.6121384484460737,-0.4140733863471413,0.4054901680043403,2.89962468490584,-0.6432560758164596,2,2024-09-20 21:34:20.798384128,1726868060.7983842,2024-09-20 21:34:20.798384080,0,"[ 1.35020393e+00  7.53790000e-01  5.02174202e-01  1.28113899e+00
  8.87750217e-01  4.24784489e-01 -6.90649340e-02  1.33960217e-01
 -7.73897130e-02  5.33581793e-06  5.76552543e-08  9.00628782e-17
  7.83491538e-19 -2.19456034e-15 -4.38280481e-05 -2.31595861e-05
  1.62469782e-04 -4.43770719e-17  3.11419728e-18 -1.27465475e-18
  4.38280481e-05  2.31595861e-05 -1.62469782e-04  3.36304308e-07
 -3.35415037e-07]","[0.0009765625, 0.0009765625, -0.0009765625, 0.0]",-1.0,"[0.0009765625, 0.0009765625, -0.0009765625, 0.0]",[-0.12237736  0.9998633  -0.05678997  0.36573127],[1.44986394 0.65957002 0.60988618],[1.281139   0.88775022 0.42470209],21,651,180,0.3576132733205152,0,0
32,32,2024-09-20 21:34:20.514673152,TASK_BEGIN,14,-0.2215630346982318,0.0800228170149137,4.26208314026447,-1.6180172884441064,-0.3975106135462827,0.4213621249367074,2.807697511941156,-0.5879873566911824,2,2024-09-20 21:34:20.911382016,1726868060.911382,2024-09-20 21:34:20.911381883,0,"[ 1.35031797e+00  7.53853207e-01  5.01726441e-01  1.28113899e+00
  8.87750217e-01  4.24784489e-01 -6.91789732e-02  1.33897010e-01
 -7.69419514e-02  5.38285832e-06  1.16462107e-08  9.29571246e-17
  5.48142485e-20 -2.19341125e-15 -4.38666675e-05 -2.31621708e-05
  1.62566200e-04 -3.88835400e-17  5.80103562e-20 -2.75042426e-18
  4.38666675e-05  2.31621708e-05 -1.62566200e-04  3.36358518e-07
 -3.36117352e-07]","[0.0009765625, 0.0009765625, -0.0009765625, 0.0]",-1.0,"[0.0009765625, 0.0009765625, -0.0009765625, 0.0]",[-0.12230223  0.9998623  -0.05377976  0.36628097],[1.44986394 0.65957002 0.60988618],[1.281139   0.88775022 0.42470209],21,651,180,0.35768624479110583,0,0
33,33,2024-09-20 21:34:20.581656064,TASK_BEGIN,14,-0.214054250046538,0.0768088997054559,4.195746872213391,-1.6383033036407944,-0.3765766658541986,0.4331355322567451,2.7254487526312188,-0.5228818702447005,2,2024-09-20 21:34:20.968381184,1726868060.9683812,2024-09-20 21:34:20.968380906,0,"[ 1.35037502e+00  7.53884813e-01  5.01502456e-01  1.28113899e+00
  8.87750217e-01  4.24784489e-01 -6.92360246e-02  1.33865405e-01
 -7.67179672e-02  5.40640283e-06 -1.17143872e-08  8.19158799e-17
  2.96485242e-18 -2.19356269e-15 -4.38859035e-05 -2.31634642e-05
  1.62614235e-04 -4.03002621e-17  4.57494809e-18 -1.52848783e-18
  4.38859035e-05  2.31634642e-05 -1.62614235e-04  3.36385516e-07
 -3.36259926e-07]","[0.0009765625, 0.0009765625, -0.0009765625, 0.0]",-1.0,"[0.0009765625, 0.0009765625, -0.0009765625, 0.0]",[-0.12226489  0.99986184 -0.05227355  0.36655566],[1.44986394 0.65957002 0.60988618],[1.281139   0.88775022 0.42470209],21,651,180,0.3577225616520311,0,0
34,34,2024-09-20 21:34:20.649583104,TASK_BEGIN,14,-0.2014771924336852,0.0734846058063986,4.1414454677906125,-1.6719950120758578,-0.3537894654195566,0.4412643577579976,2.656341140235034,-0.4509956270446847,2,2024-09-20 21:34:21.023894784,1726868061.0238948,2024-09-20 21:34:21.023894090,0,"[ 1.35043209e+00  7.53916420e-01  5.01278404e-01  1.28113899e+00
  8.87750217e-01  4.24784489e-01 -6.92930971e-02  1.33833797e-01
 -7.64939144e-02  5.42995485e-06 -1.35260185e-08  8.26503737e-17
  2.48487775e-18 -2.19329575e-15 -4.39050854e-05 -2.31674522e-05
  1.62662161e-04 -3.74805782e-17 -3.42884005e-18  1.28827373e-18
  4.39050854e-05  2.31674522e-05 -1.62662161e-04  3.36311046e-07
 -8.65740783e-08]","[0.0009765625, 0.0009765625, -0.0009765625, 0.0]",-1.0,"[0.0009765625, 0.0009765625, -0.0009765625, 0.0]",[-0.1222273   0.9998613  -0.0507667   0.36683044],[1.44986394 0.65957002 0.60988618],[1.281139   0.88775022 0.42470209],21,651,180,0.3577633033018663,0,0
35,35,2024-09-20 21:34:21.593691136,TASK_BEGIN,14,-0.1843434920592576,0.0703371335346775,4.10432842379883,-1.7172385051806225,-0.3313325953076793,0.4461999305658615,2.6034399646363577,-0.3756410384732898,2,2024-09-20 21:34:21.958330368,1726868061.9583304,2024-09-20 21:34:21.958329881,0,"[ 1.35571600e+00  7.54421015e-01  4.97776989e-01  1.28113899e+00
  8.87750217e-01  4.24784489e-01 -7.45770019e-02  1.33329203e-01
 -7.29924995e-02  5.84617088e-06 -1.47798067e-08  6.75958003e-17
  2.39971562e-19 -2.19421070e-15 -3.87582175e-03 -2.33022200e-05
  9.03066320e-05 -4.41132707e-17  6.65183024e-18  9.52391954e-19
  3.87582175e-03  2.33022200e-05 -9.03066320e-05  3.00272810e-07
 -1.55588562e-07]","[0.14803314208984375, 0.0009765625, -0.0009765625, 0.0]",-1.0,"[0.14803314208984375, 0.0009765625, -0.0009765625, 0.0]",[-0.12635511  0.9998504  -0.02577233  0.3659183 ],[1.44986394 0.65957002 0.60988618],[1.281139   0.88775022 0.42470209],21,651,180,0.41145466672124015,0,0
36,36,2024-09-20 21:34:21.661503232,TASK_BEGIN,14,-0.1633111062229916,0.0676545434867193,4.088000448140142,-1.7715723073719083,-0.3108615075875482,0.4483442209526302,2.5686146353834585,-0.2999812368134051,2,2024-09-20 21:34:22.015120384,1726868062.0151205,2024-09-20 21:34:22.015120164,0,"[ 1.36359813e+00  7.54450065e-01  4.97647639e-01  1.28113899e+00
  8.87750217e-01  4.24784489e-01 -8.24591326e-02  1.33300152e-01
 -7.28631500e-02  5.91602946e-06  2.87087801e-08  8.83255885e-17
  4.19256553e-19 -2.19410813e-15 -6.10070373e-03 -2.31944072e-05
  1.02767637e-04 -3.30556750e-17 -1.33996297e-18  1.06361853e-18
  6.10070373e-03  2.31944072e-05 -1.02767637e-04  2.60405398e-07
 -1.79857062e-07]","[0.24999237060546875, 0.0009765625, -0.0009765625, 0.0]",-1.0,"[0.24999237060546875, 0.0009765625, -0.0009765625, 0.0]",[-0.16274072  0.99983805 -0.02022254  0.35508364],[1.44986394 0.65957002 0.60988618],[1.281139   0.88775022 0.42470209],21,651,180,0.48030315229549314,0,0
37,37,2024-09-20 21:34:21.728688896,TASK_BEGIN,14,-0.1391726171486549,0.0657228085657461,4.094401108167238,-1.832179011603442,-0.293360301065428,0.448023472724627,2.5522478234882,-0.2267167910968053,2,2024-09-20 21:34:22.126790144,1726868062.12679,2024-09-20 21:34:22.126790086,0,"[ 1.37980840e+00  7.54508358e-01  4.97383471e-01  1.28113899e+00
  8.87750217e-01  4.24784489e-01 -9.86694075e-02  1.33241859e-01
 -7.25989818e-02  5.97262867e-06  6.55266938e-08  9.89300927e-17
  1.30810166e-18 -2.19394600e-15 -5.87770065e-03 -2.31663885e-05
  9.95227582e-05 -3.29551001e-17 -2.49157203e-18 -1.67874862e-20
  5.87770065e-03  2.31663885e-05 -9.95227582e-05  2.31555835e-07
 -2.09711624e-07]","[0.24999237060546875, 0.0009765625, -0.0009765625, 0.0]",-1.0,"[0.24999237060546875, 0.0009765625, -0.0009765625, 0.0]",[-0.26585704  0.9997854  -0.00199692  0.3236705 ],[1.44986394 0.65957002 0.60988618],[1.281139   0.88775022 0.42470209],21,651,180,0.5156704486000004,0,0
38,38,2024-09-20 21:34:21.793604096,TASK_BEGIN,14,-0.1127983054490117,0.0648182417859725,4.12367356316679,-1.896107037380226,-0.2790807294052349,0.4454886688154333,2.5535252316424883,-0.157940487300889,2,2024-09-20 21:34:22.183886336,1726868062.1838863,2024-09-20 21:34:22.183886033,0,"[ 1.38788425e+00  7.54537243e-01  4.97251103e-01  1.28113899e+00
  8.87750217e-01  4.24784489e-01 -1.06745253e-01  1.33212974e-01
 -7.24666136e-02  5.99171958e-06  6.30946365e-08  9.46085359e-17
  2.14744224e-18 -2.19429411e-15 -5.87365349e-03 -2.31559870e-05
  9.94554046e-05 -3.41335550e-17 -5.08531744e-18  7.95498970e-19
  5.87365349e-03  2.31559870e-05 -9.94554046e-05  2.21636732e-07
 -2.10261073e-07]","[0.24999237060546875, 0.0009765625, -0.0009765625, 0.0]",-1.0,"[0.24999237060546875, 0.0009765625, -0.0009765625, 0.0]",[-0.30563626  0.99974674 -0.00129872  0.31288502],[1.44986394 0.65957002 0.60988618],[1.281139   0.88775022 0.42470209],21,651,180,0.5322640186381106,0,0
39,39,2024-09-20 21:34:21.855698944,TASK_BEGIN,14,-0.0850641510089264,0.0651873750975953,4.174180546092683,-1.96046956837052,-0.2676178633266711,0.4409395067947214,2.5709745139745253,-0.09516146896065,2,2024-09-20 21:34:22.240479488,1726868062.2404795,2024-09-20 21:34:22.240479051,0,"[ 1.39594569e+00  7.54565945e-01  4.97118327e-01  1.28113899e+00
  8.87750217e-01  4.24784489e-01 -1.14806698e-01  1.33184272e-01
 -7.23338376e-02  6.00794073e-06  5.55487977e-08  8.68952311e-17
  4.36129671e-19 -2.19316799e-15 -5.87277559e-03 -2.31430447e-05
  9.95253471e-05 -3.57052498e-17 -4.34703772e-18  3.31946073e-19
  5.87277559e-03  2.31430447e-05 -9.95253471e-05  2.12806563e-07
 -2.06882534e-07]","[0.24999237060546875, 0.0009765625, -0.0009765625, 0.0]",-1.0,"[0.24999237060546875, 0.0009765625, -0.0009765625, 0.0]",[-0.3435382   0.9996746  -0.00618536  0.30645812],[1.44986394 0.65957002 0.60988618],[1.281139   0.88775022 0.42470209],21,651,180,0.5455744870058148,0,0
40,40,2024-09-20 21:34:21.917722880,TASK_BEGIN,14,-0.056805732283155,0.0670179757715412,4.242642299399213,-2.022624479612115,-0.2581158004137943,0.4345528539980809,2.602926444090906,-0.0394328618559841,2,2024-09-20 21:34:22.299476480,1726868062.2994764,2024-09-20 21:34:22.299475877,0,"[ 1.40399125e+00  7.54594442e-01  4.96985094e-01  1.28113899e+00
  8.87750217e-01  4.24784489e-01 -1.22852259e-01  1.33155775e-01
 -7.22006048e-02  6.02267465e-06  4.53326742e-08  9.82212211e-17
  2.35029050e-19 -2.19299479e-15 -5.87107758e-03 -2.31249216e-05
  9.95777672e-05 -4.83994462e-17  1.73316044e-19 -9.82828861e-19
  5.87107758e-03  2.31249216e-05 -9.95777672e-05  2.04216729e-07
 -2.01131704e-07]","[0.24999237060546875, 0.0009765625, -0.0009765625, 0.0]",-1.0,"[0.24999237060546875, 0.0009765625, -0.0009765625, 0.0]",[-0.3769398   0.9994484  -0.01534067  0.29830253],[1.44986394 0.65957002 0.60988618],[1.281139   0.88775022 0.42470209],21,651,180,0.5569844075774351,0,0
41,41,2024-09-20 21:34:21.994850048,TASK_BEGIN,14,-0.0288179789354925,0.0704133449342174,4.324305823038802,-2.08029770981543,-0.2495120349191285,0.4264938067754401,2.647732239750998,0.0085132964243486,2,2024-09-20 21:34:22.355476224,1726868062.3554761,2024-09-20 21:34:22.355475877,0,"[ 1.41190435e+00  7.54622803e-01  4.96851460e-01  1.28113899e+00
  8.87750217e-01  4.24784489e-01 -1.30765354e-01  1.33127414e-01
 -7.20669704e-02  6.03405807e-06  3.63019697e-08  9.06970137e-17
  2.32090663e-19 -2.19348086e-15 -5.76724880e-03 -2.31083663e-05
  9.93246849e-05 -4.00038440e-17  3.38308486e-18  5.54514665e-19
  5.76724880e-03  2.31083663e-05 -9.93246849e-05  1.97187864e-07
 -1.95581286e-07]","[0.24607086181640625, 0.0009765625, -0.0009765625, 0.0]",-1.0,"[0.24607086181640625, 0.0009765625, -0.0009765625, 0.0]",[-0.4188159   0.99914676 -0.0343459   0.26990834],[1.44986394 0.65957002 0.60988618],[1.281139   0.88775022 0.42470209],21,651,180,0.5644840635340975,0,0
42,42,2024-09-20 21:34:22.934642176,TASK_BEGIN,14,-0.001884659767767,0.0753791454793261,4.413229451542771,-2.131625649995631,-0.2407259611083279,0.4169049511170546,2.7036606401115053,0.0481941357145986,2,2024-09-20 21:34:22.580952576,1726868062.5809526,2024-09-20 21:34:22.580951951,0,"[ 1.44074812e+00  7.54735874e-01  4.96314206e-01  1.28113899e+00
  8.87750217e-01  4.24784489e-01 -1.59609127e-01  1.33014344e-01
 -7.15297170e-02  6.01449130e-06  5.90806729e-08  6.86107208e-17
 -5.76766160e-19 -2.19211884e-15 -3.48179597e-03 -2.31560577e-05
  9.28208229e-05 -4.32919837e-17 -2.47342493e-18  1.13586869e-18
  3.48179597e-03  2.31560577e-05 -9.28208229e-05  2.05150155e-07
 -2.03573542e-07]","[0.1578369140625, 0.0009765625, -0.0009765625, 0.0]",-1.0,"[0.1578369140625, 0.0009765625, -0.0009765625, 0.0]",[-0.66174215  0.90155035 -0.09091903  0.22537617],[1.44986394 0.65957002 0.60988618],[1.281139   0.88775022 0.42470209],21,651,180,0.5443224462050594,0,0
43,43,2024-09-20 21:34:23.011528192,TASK_BEGIN,14,0.0232178874435133,0.0818213223949442,4.5028327206758405,-2.1751610444837537,-0.2307721992646014,0.4058893101672929,2.768637030442791,0.0793631067589046,2,2024-09-20 21:34:23.370971648,1726868063.3709717,2024-09-20 21:34:23.370970994,0,"[ 1.44222099e+00  7.55184425e-01  4.93178566e-01  1.28113899e+00
  8.87750217e-01  4.24784489e-01 -1.61081999e-01  1.32565792e-01
 -6.83940766e-02  6.12730892e-06  8.67876813e-08  6.73059920e-17
  5.23474766e-19 -2.19330836e-15 -6.07459147e-05 -2.34137099e-05
  1.64756209e-04 -3.79643297e-17 -2.33670738e-18 -8.78331399e-19
  6.07459147e-05  2.34137099e-05 -1.64756209e-04  3.40690089e-07
 -2.48532875e-07]","[0.0009765625, 0.0009765625, -0.0009765625, 0.0]",-1.0,"[0.0009765625, 0.0009765625, -0.0009765625, 0.0]",[-0.6954354   0.86406595 -0.08927808  0.23351264],[1.44986394 0.65957002 0.60988618],[1.281139   0.88775022 0.42470209],21,651,180,0.499899261974336,0,0
44,44,2024-09-20 21:34:23.073097984,TASK_BEGIN,14,0.0457884595171326,0.0895483267845298,4.586669193408008,-2.2099083845333265,-0.2188288054875914,0.3935019889394852,2.8402195070687744,0.1019903959883396,2,2024-09-20 21:34:23.425970176,1726868063.42597,2024-09-20 21:34:23.425970018,0,"[ 1.44229806e+00  7.55216378e-01  4.92949953e-01  1.28113899e+00
  8.87750217e-01  4.24784489e-01 -1.61159064e-01  1.32533840e-01
 -6.81654636e-02  6.15164184e-06  1.32735727e-07  7.25948431e-17
 -1.12639468e-18 -2.19292897e-15 -6.07780474e-05 -2.34160981e-05
  1.64794070e-04 -4.11530397e-17 -2.84709570e-18  2.45993120e-18
  6.07780474e-05  2.34160981e-05 -1.64794070e-04  3.40717221e-07
 -2.92725197e-07]","[0.0009765625, 0.0009765625, -0.0009765625, 0.0]",-1.0,"[0.0009765625, 0.0009765625, -0.0009765625, 0.0]",[-0.6962119   0.86380386 -0.08814378  0.23371291],[1.44986394 0.65957002 0.60988618],[1.281139   0.88775022 0.42470209],21,651,180,0.5000018114525424,0,0
45,45,2024-09-20 21:34:23.135585024,TASK_BEGIN,14,0.0653145314162266,0.0982768719994442,4.659231162016987,-2.235397080438431,-0.2042698101725892,0.3797492925812837,2.91599934505337,0.1161875702705289,2,2024-09-20 21:34:23.483495168,1726868063.4834952,2024-09-20 21:34:23.483494920,0,"[ 1.44237515e+00  7.55248333e-01  4.92721288e-01  1.28113899e+00
  8.87750217e-01  4.24784489e-01 -1.61236160e-01  1.32501885e-01
 -6.79367985e-02  6.17599922e-06  1.44978048e-07  9.92568724e-17
 -9.84394485e-19 -2.19266561e-15 -6.08095156e-05 -2.34181564e-05
  1.64832045e-04 -3.77952615e-17 -1.19226891e-18 -1.60894360e-18
  6.08095156e-05  2.34181564e-05 -1.64832045e-04  3.40754074e-07
 -3.15761626e-07]","[0.0009765625, 0.0009765625, -0.0009765625, 0.0]",-1.0,"[0.0009765625, 0.0009765625, -0.0009765625, 0.0]",[-0.69698685  0.8635413  -0.087009    0.23391326],[1.44986394 0.65957002 0.60988618],[1.281139   0.88775022 0.42470209],21,651,180,0.5001047400505374,0,0
46,46,2024-09-20 21:34:23.213314816,TASK_BEGIN,14,0.0815622723443898,0.1076477091568294,4.716616926666805,-2.2517307635607207,-0.1866375868067476,0.3645867311645386,2.994227783175925,0.1220968578006471,2,2024-09-20 21:34:23.595500544,1726868063.5955005,2024-09-20 21:34:23.595500047,0,"[ 1.44252943e+00  7.55312250e-01  4.92263800e-01  1.28113899e+00
  8.87750217e-01  4.24784489e-01 -1.61390440e-01  1.32437968e-01
 -6.74793105e-02  6.22478303e-06  1.25179589e-07  9.23676752e-17
 -9.02407223e-19 -2.19160056e-15 -6.08714003e-05 -2.34222876e-05
  1.64908073e-04 -4.02109443e-17  2.36115332e-19  5.03143280e-19
  6.08714003e-05  2.34222876e-05 -1.64908073e-04  3.40818177e-07
 -3.34040384e-07]","[0.0009765625, 0.0009765625, -0.0009765625, 0.0]",-1.0,"[0.0009765625, 0.0009765625, -0.0009765625, 0.0]",[-0.69853276  0.8630144  -0.0847378   0.23431388],[1.44986394 0.65957002 0.60988618],[1.281139   0.88775022 0.42470209],21,651,180,0.5003128292505138,0,0
47,47,2024-09-20 21:34:23.275966720,TASK_BEGIN,14,0.0946055997913901,0.1172555841218947,4.756900897317313,-2.259537651330737,-0.1655562801613435,0.3479180000957319,3.074387143552598,0.1198100024482717,2,2024-09-20 21:34:23.651400448,1726868063.6514006,2024-09-20 21:34:23.651399949,0,"[ 1.44260662e+00  7.55344212e-01  4.92034977e-01  1.28113899e+00
  8.87750217e-01  4.24784489e-01 -1.61467624e-01  1.32406006e-01
 -6.72504874e-02  6.24920588e-06  1.05925622e-07  6.85441460e-17
 -8.98144868e-19 -2.19178644e-15 -6.09020823e-05 -2.34243436e-05
  1.64946058e-04 -4.16581970e-17 -3.16392334e-18 -4.42884185e-19
  6.09020823e-05  2.34243436e-05 -1.64946058e-04  3.40847937e-07
 -3.37318316e-07]","[0.0009765625, 0.0009765625, -0.0009765625, 0.0]",-1.0,"[0.0009765625, 0.0009765625, -0.0009765625, 0.0]",[-0.6993037   0.8627501  -0.08360159  0.23451418],[1.44986394 0.65957002 0.60988618],[1.281139   0.88775022 0.42470209],21,651,180,0.5004162582242971,0,0
48,48,2024-09-20 21:34:23.338432000,TASK_BEGIN,14,0.1048036587569975,0.1266884555222387,4.780076576905821,-2.2598028690078253,-0.1406590723826348,0.3296107500835572,3.1575139165141954,0.1093697935588638,2,2024-09-20 21:34:23.707382784,1726868063.7073827,2024-09-20 21:34:23.707381883,0,"[ 1.44268383e+00  7.55376176e-01  4.91806101e-01  1.28113899e+00
  8.87750217e-01  4.24784489e-01 -1.61544835e-01  1.32374041e-01
 -6.70216115e-02  6.27364782e-06  8.41754450e-08  7.39532028e-17
 -1.03789857e-18 -2.19165174e-15 -6.09326879e-05 -2.34263986e-05
  1.64983997e-04 -4.04807973e-17  3.28596865e-18  2.22471943e-18
  6.09326879e-05  2.34263986e-05 -1.64983997e-04  3.40876744e-07
 -3.39038650e-07]","[0.0009765625, 0.0009765625, -0.0009765625, 0.0]",-1.0,"[0.0009765625, 0.0009765625, -0.0009765625, 0.0]",[-0.70007336  0.8624853  -0.08246478  0.23471455],[1.44986394 0.65957002 0.60988618],[1.281139   0.88775022 0.42470209],21,651,180,0.5005177536286909,0,0
49,49,2024-09-20 21:34:24.261957120,TASK_BEGIN,14,0.112747845002948,0.135566432643839,4.787653597848275,-2.253639666400626,-0.1116125759293192,0.3095414574197149,3.246120507792423,0.090853175390526,2,2024-09-20 21:34:24.612520192,1726868064.6125202,2024-09-20 21:34:24.612520066,0,"[ 1.44392304e+00  7.55887926e-01  4.88136977e-01  1.28113899e+00
  8.87750217e-01  4.24784489e-01 -1.62784046e-01  1.31862291e-01
 -6.33524875e-02  6.66707150e-06  1.28367228e-07  8.47376291e-17
  6.02982827e-19 -2.19019116e-15 -6.14238334e-05 -2.34596025e-05
  1.65582396e-04 -4.31278516e-17  2.77778858e-18  2.91852447e-19
  6.14238334e-05  2.34596025e-05 -1.65582396e-04  3.41305743e-07
 -3.41105282e-07]","[0.0009765625, 0.0009765625, -0.0009765625, 0.0]",-1.0,"[0.0009765625, 0.0009765625, -0.0009765625, 0.0]",[-0.70998555  0.8579117  -0.06563881  0.23673825],[1.44986394 0.65957002 0.60988618],[1.281139   0.88775022 0.42470209],21,651,180,0.5022459516137942,0,0
50,50,2024-09-20 21:34:24.335385088,TASK_BEGIN,14,0.1191858779525932,0.14357497737015,4.7821667094338585,-2.242090776309562,-0.0782469297780495,0.2876607033665647,3.343656556642697,0.0644773256745385,2,2024-09-20 21:34:24.724523264,1726868064.7245233,2024-09-20 21:34:24.724522996,0,"[ 1.44407845e+00  7.55951938e-01  4.87677407e-01  1.28113899e+00
  8.87750217e-01  4.24784489e-01 -1.62939453e-01  1.31798280e-01
 -6.28929177e-02  6.71655000e-06  7.91212209e-08  8.70284115e-17
 -9.42774643e-19 -2.19034443e-15 -6.14857324e-05 -2.34638048e-05
  1.65656029e-04 -4.02546149e-17 -1.83286424e-18 -2.31178016e-18
  6.14857324e-05  2.34638048e-05 -1.65656029e-04  3.41357941e-07
 -3.41303577e-07]","[0.0009765625, 0.0009765625, -0.0009765625, 0.0]",-1.0,"[0.0009765625, 0.0009765625, -0.0009765625, 0.0]",[-0.7110444   0.8573251  -0.06370487  0.23659387],[1.44986394 0.65957002 0.60988618],[1.281139   0.88775022 0.42470209],21,651,180,0.5024311245016616,0,0
51,51,2024-09-20 21:34:24.396967168,TASK_BEGIN,14,0.1249209784328378,0.1504899103732207,4.766707118976083,-2.2260181798598326,-0.0407337793698476,0.2640542432788388,3.4536065225139727,0.0306637398484404,2,2024-09-20 21:34:24.780931328,1726868064.7809312,2024-09-20 21:34:24.780930955,0,"[ 1.44415619e+00  7.55983947e-01  4.87447545e-01  1.28113899e+00
  8.87750217e-01  4.24784489e-01 -1.63017199e-01  1.31766270e-01
 -6.26630563e-02  6.74131392e-06  5.43987599e-08  8.75045671e-17
 -8.65554497e-19 -2.19027335e-15 -6.15167289e-05 -2.34659103e-05
  1.65692751e-04 -3.59443298e-17  1.22969546e-18 -1.50628571e-18
  6.15167289e-05  2.34659103e-05 -1.65692751e-04  3.41383929e-07
 -3.41355618e-07]","[0.0009765625, 0.0009765625, -0.0009765625, 0.0]",-1.0,"[0.0009765625, 0.0009765625, -0.0009765625, 0.0]",[-0.71157265  0.85703087 -0.06273738  0.23652165],[1.44986394 0.65957002 0.60988618],[1.281139   0.88775022 0.42470209],21,651,180,0.5025163947123653,0,0
52,52,2024-09-20 21:34:24.458999040,TASK_BEGIN,14,0.1307031630070796,0.1561882712966786,4.744380101290644,-2.2060746903912967,0.0002693310318431,0.2389790238748689,3.5783952172465936,-0.0099530829196659,2,2024-09-20 21:34:24.837922304,1726868064.8379223,2024-09-20 21:34:24.837921922,0,"[ 1.44423397e+00  7.56015959e-01  4.87217633e-01  1.28113899e+00
  8.87750217e-01  4.24784489e-01 -1.63094973e-01  1.31734259e-01
 -6.24331440e-02  6.76609422e-06  2.96400450e-08  8.90104799e-17
  8.37445591e-19 -2.19050415e-15 -6.15477571e-05 -2.34680187e-05
  1.65729411e-04 -4.33075918e-17 -4.47891548e-19 -1.41903849e-18
  6.15477571e-05  2.34680187e-05 -1.65729411e-04  3.41409847e-07
 -3.41395103e-07]","[0.0009765625, 0.0009765625, -0.0009765625, 0.0]",-1.0,"[0.0009765625, 0.0009765625, -0.0009765625, 0.0]",[-0.71210027  0.85673624 -0.06176954  0.23644954],[1.44986394 0.65957002 0.60988618],[1.281139   0.88775022 0.42470209],21,651,180,0.5026020900514642,0,0
53,53,2024-09-20 21:34:24.536652032,TASK_BEGIN,14,0.1371487313089858,0.1606415265054006,4.717693801595431,-2.18272306628887,0.0435864190798694,0.2128689706931027,3.7183309727273146,-0.0565302000156168,2,2024-09-20 21:34:24.893377536,1726868064.8933775,2024-09-20 21:34:24.893377000,0,"[ 1.44431177e+00  7.56047973e-01  4.86987670e-01  1.28113899e+00
  8.87750217e-01  4.24784489e-01 -1.63172776e-01  1.31702245e-01
 -6.22031811e-02  6.79089087e-06  4.85464209e-09  7.74235563e-17
  1.98225541e-19 -2.19109393e-15 -6.15788171e-05 -2.34701301e-05
  1.65766009e-04 -3.53210546e-17 -2.18726099e-18 -3.74824847e-18
  6.15788171e-05  2.34701301e-05 -1.65766009e-04  3.41435697e-07
 -3.41428018e-07]","[0.0009765625, 0.0009765625, -0.0009765625, 0.0]",-1.0,"[0.0009765625, 0.0009765625, -0.0009765625, 0.0]",[-0.7126275   0.8564406  -0.06080151  0.23637713],[1.44986394 0.65957002 0.60988618],[1.281139   0.88775022 0.42470209],21,651,180,0.5026834321033073,0,0
54,54,2024-09-20 21:34:24.607686144,TASK_BEGIN,14,0.1447000545171285,0.1638985686095936,4.688099241035864,-2.1562871860604997,0.0876408300952553,0.1863153678862244,3.870921274797309,-0.1079816084794479,2,2024-09-20 21:34:25.006911744,1726868065.0069118,2024-09-20 21:34:25.006911180,0,"[ 1.44446746e+00  7.56112008e-01  4.86527592e-01  1.28113899e+00
  8.87750217e-01  4.24784489e-01 -1.63328465e-01  1.31638209e-01
 -6.17431032e-02  6.84053081e-06  8.72325380e-08  8.25046454e-17
 -4.04491506e-19 -2.19133060e-15 -6.16410351e-05 -2.34739905e-05
  1.65839018e-04 -3.37456613e-17 -4.55755853e-18 -2.87897670e-18
  6.16410351e-05  2.34739905e-05 -1.65839018e-04  3.41504991e-07
 -2.54252447e-07]","[0.0009765625, 0.0009765625, -0.0009765625, 0.0]",-1.0,"[0.0009765625, 0.0009765625, -0.0009765625, 0.0]",[-0.7136989   0.8558427  -0.05886479  0.23618183],[1.44986394 0.65957002 0.60988618],[1.281139   0.88775022 0.42470209],21,651,180,0.502883010879424,0,0
55,55,2024-09-20 21:34:24.675435008,TASK_BEGIN,14,0.1536118691512108,0.1660672743679719,4.655931337770367,-2.127039556948073,0.1307058064587207,0.1600231129423537,4.030884442295703,-0.162915214023061,2,2024-09-20 21:34:25.062912000,1726868065.062912,2024-09-20 21:34:25.062911912,0,"[ 1.44454535e+00  7.56144029e-01  4.86297478e-01  1.28113899e+00
  8.87750217e-01  4.24784489e-01 -1.63406352e-01  1.31606188e-01
 -6.15129886e-02  6.86538211e-06  1.28921812e-07  7.34505754e-17
  2.97738862e-18 -2.19198234e-15 -6.16721899e-05 -2.34764375e-05
  1.65875430e-04 -4.36294653e-17  4.78151720e-18  2.36884146e-20
  6.16721899e-05  2.34764375e-05 -1.65875430e-04  3.41513781e-07
 -2.96075926e-07]","[0.0009765625, 0.0009765625, -0.0009765625, 0.0]",-1.0,"[0.0009765625, 0.0009765625, -0.0009765625, 0.0]",[-0.714255    0.8555371  -0.05789645  0.23602653],[1.44986394 0.65957002 0.60988618],[1.281139   0.88775022 0.42470209],21,651,180,0.5029918194734837,0,0
56,56,2024-09-20 21:34:25.618899200,TASK_BEGIN,14,0.1639630685433286,0.1672948957264989,4.620851012529186,-2.095327111264198,0.171220519244164,0.1347427074536092,4.190979504770604,-0.2196436985974315,2,2024-09-20 21:34:25.967968768,1726868065.9679687,2024-09-20 21:34:25.967968064,0,"[ 1.44579539e+00  7.56656695e-01  4.82608862e-01  1.28113899e+00
  8.87750217e-01  4.24784489e-01 -1.64656401e-01  1.31093522e-01
 -5.78243731e-02  7.26508000e-06  7.63597019e-08  6.70528415e-17
  1.31307488e-19 -2.18924398e-15 -6.21752941e-05 -2.35108157e-05
  1.66449994e-04 -4.04172840e-17  9.20702570e-19  4.95000800e-19
  6.21752941e-05  2.35108157e-05 -1.66449994e-04  3.41913608e-07
 -3.40121794e-07]","[0.0009765625, 0.0009765625, -0.0009765625, 0.0]",-1.0,"[0.0009765625, 0.0009765625, -0.0009765625, 0.0]",[-0.7179723   0.84871155 -0.03922248  0.23254092],[1.44986394 0.65957002 0.60988618],[1.281139   0.88775022 0.42470209],21,651,180,0.5044737568703062,0,0
57,57,2024-09-20 21:34:25.686682880,TASK_BEGIN,14,0.1756972704457381,0.1677471006628134,4.582643366348558,-2.061710515387893,0.2080600951887141,0.1111911379606345,4.343447782194949,-0.2763514706245349,2,2024-09-20 21:34:26.078996480,1726868066.0789964,2024-09-20 21:34:26.078995896,0,"[ 1.44595216e+00  7.56720822e-01  4.82146899e-01  1.28113899e+00
  8.87750217e-01  4.24784489e-01 -1.64813169e-01  1.31029396e-01
 -5.73624094e-02  7.31532439e-06  2.81933954e-08  6.69977412e-17
 -5.39243855e-19 -2.18953088e-15 -6.22388157e-05 -2.35151649e-05
  1.66520786e-04 -3.44202868e-17  2.68515987e-18  3.66414409e-20
  6.22388157e-05  2.35151649e-05 -1.66520786e-04  3.41962739e-07
 -3.41476810e-07]","[0.0009765625, 0.0009765625, -0.0009765625, 0.0]",-1.0,"[0.0009765625, 0.0009765625, -0.0009765625, 0.0]",[-0.7173711   0.84744877 -0.03624418  0.23189144],[1.44986394 0.65957002 0.60988618],[1.281139   0.88775022 0.42470209],21,651,180,0.5046118689251957,0,0
58,58,2024-09-20 21:34:25.744483840,TASK_BEGIN,14,0.1886709715426522,0.1675896750377178,4.542030499730286,-2.027061264869506,0.2406527077795148,0.0899862704499618,4.481526764928935,-0.3313536624400081,2,2024-09-20 21:34:26.135033856,1726868066.1350338,2024-09-20 21:34:26.135033006,0,"[ 1.44603059e+00  7.56752889e-01  4.81915844e-01  1.28113899e+00
  8.87750217e-01  4.24784489e-01 -1.64891596e-01  1.30997329e-01
 -5.71313546e-02  7.34046990e-06  3.41846330e-09  6.98949156e-17
 -4.64487627e-19 -2.18980103e-15 -6.22706314e-05 -2.35173435e-05
  1.66556100e-04 -4.01249002e-17  3.50412278e-18 -2.28911800e-18
  6.22706314e-05  2.35173435e-05 -1.66556100e-04  3.41987165e-07
 -3.41734111e-07]","[0.0009765625, 0.0009765625, -0.0009765625, 0.0]",-1.0,"[0.0009765625, 0.0009765625, -0.0009765625, 0.0]",[-0.7170701   0.84681344 -0.0347543   0.23156653],[1.44986394 0.65957002 0.60988618],[1.281139   0.88775022 0.42470209],21,651,180,0.5046814281604484,0,0
59,59,2024-09-20 21:34:25.806971136,TASK_BEGIN,14,0.202678518668909,0.166974627076395,4.501183694081244,-1.9925720482464675,0.2689229059017455,0.0716107395396108,4.600492967171777,-0.3833012179954259,2,2024-09-20 21:34:26.190044928,1726868066.1900449,2024-09-20 21:34:26.190044969,0,"[ 1.44610905e+00  7.56784958e-01  4.81684740e-01  1.28113899e+00
  8.87750217e-01  4.24784489e-01 -1.64970052e-01  1.30965259e-01
 -5.69002512e-02  7.36562712e-06 -1.35019222e-08  6.69780727e-17
 -7.06425504e-19 -2.19048252e-15 -6.23024751e-05 -2.35214845e-05
  1.66591364e-04 -4.89037788e-17 -2.87845411e-18 -1.67260563e-19
  6.23024751e-05  2.35214845e-05 -1.66591364e-04  3.41936401e-07
 -1.80927636e-07]","[0.0009765625, 0.0009765625, -0.0009765625, 0.0]",-1.0,"[0.0009765625, 0.0009765625, -0.0009765625, 0.0]",[-0.71676886  0.8461756  -0.03326398  0.23124155],[1.44986394 0.65957002 0.60988618],[1.281139   0.88775022 0.42470209],21,651,180,0.50475142701858,0,0
60,60,2024-09-20 21:34:25.885077760,TASK_BEGIN,14,0.2174466725022432,0.1660295658243604,4.463822095556597,-1.9596860036123676,0.2931425296725639,0.0564001697038067,4.698066885448647,-0.4312520660872224,2,2024-09-20 21:34:26.250443520,1726868066.2504435,2024-09-20 21:34:26.250442918,0,"[ 1.44618753e+00  7.56817030e-01  4.81453588e-01  1.28113899e+00
  8.87750217e-01  4.24784489e-01 -1.65048536e-01  1.30933187e-01
 -5.66690993e-02  7.39080501e-06  8.68566756e-08  7.16329859e-17
 -8.77762964e-19 -2.19121347e-15 -6.23343759e-05 -2.35213358e-05
  1.66626564e-04 -4.16302970e-17  2.98151258e-18  7.11123938e-19
  6.23343759e-05  2.35213358e-05 -1.66626564e-04  3.42053711e-07
 -2.53453992e-07]","[0.0009765625, 0.0009765625, -0.0009765625, 0.0]",-1.0,"[0.0009765625, 0.0009765625, -0.0009765625, 0.0]",[-0.7164676   0.84553516 -0.03177331  0.2309162 ],[1.44986394 0.65957002 0.60988618],[1.281139   0.88775022 0.42470209],21,651,180,0.5048231887972541,0,0
61,61,2024-09-20 21:34:25.949061888,TASK_BEGIN,14,0.2326254956299897,0.1648490604819622,4.434956439779633,-1.92997774001844,0.3137911630486967,0.0445390328310998,4.774308257067815,-0.4746231795572406,2,2024-09-20 21:34:26.308539392,1726868066.3085394,2024-09-20 21:34:26.308538865,0,"[ 1.44626604e+00  7.56849105e-01  4.81222388e-01  1.28113899e+00
  8.87750217e-01  4.24784489e-01 -1.65127049e-01  1.30901113e-01
 -5.64378991e-02  7.41600271e-06  1.29226927e-07  8.40386384e-17
 -1.65613034e-19 -2.19091602e-15 -6.23663011e-05 -2.35238519e-05
  1.66661714e-04 -3.97534642e-17  2.30199008e-18  1.12709079e-18
  6.23663011e-05  2.35238519e-05 -1.66661714e-04  3.42060922e-07
 -2.95921509e-07]","[0.0009765625, 0.0009765625, -0.0009765625, 0.0]",-1.0,"[0.0009765625, 0.0009765625, -0.0009765625, 0.0]",[-0.71616584  0.84489197 -0.03028235  0.2305907 ],[1.44986394 0.65957002 0.60988618],[1.281139   0.88775022 0.42470209],21,651,180,0.5048960564558899,0,0
62,62,2024-09-20 21:34:26.024689920,TASK_BEGIN,14,0.2478055773982677,0.1634860870594602,4.420405687486258,-1.9050138320147936,0.33145987075201,0.0360548409708521,4.831175262102508,-0.513087172981078,2,2024-09-20 21:34:26.364722432,1726868066.3647225,2024-09-20 21:34:26.364721971,0,"[ 1.44634458e+00  7.56881181e-01  4.80991140e-01  1.28113899e+00
  8.87750217e-01  4.24784489e-01 -1.65205590e-01  1.30869036e-01
 -5.62066505e-02  7.44121056e-06  1.39205937e-07  7.24363602e-17
  1.12673329e-18 -2.19077708e-15 -6.23982667e-05 -2.35260478e-05
  1.66696812e-04 -4.02869224e-17  1.67300332e-19  3.04278736e-19
  6.23982667e-05  2.35260478e-05 -1.66696812e-04  3.42084218e-07
 -3.18056540e-07]","[0.0009765625, 0.0009765625, -0.0009765625, 0.0]",-1.0,"[0.0009765625, 0.0009765625, -0.0009765625, 0.0]",[-0.71586376  0.8442464  -0.02879079  0.23026527],[1.44986394 0.65957002 0.60988618],[1.281139   0.88775022 0.42470209],21,651,180,0.5049676194018641,0,0
63,63,2024-09-20 21:34:26.960864000,TASK_BEGIN,14,0.2625553586857884,0.1619440188645008,4.426222932333402,-1.8862241711108327,0.3467616945212928,0.0308152053516612,4.871923570299284,-0.5464800752182111,2,2024-09-20 21:34:27.338441472,1726868067.3384414,2024-09-20 21:34:27.338440965,0,"[ 1.44768418e+00  7.57426864e-01  4.77052612e-01  1.28113899e+00
  8.87750217e-01  4.24784489e-01 -1.66545191e-01  1.30323354e-01
 -5.22681233e-02  7.87203266e-06  2.72094970e-08  8.57467905e-17
 -1.01118924e-18 -2.19067138e-15 -6.29476792e-05 -2.35638205e-05
  1.67285553e-04 -3.60639126e-17  7.10694212e-19 -3.03747381e-19
  6.29476792e-05  2.35638205e-05 -1.67285553e-04  3.42482997e-07
 -3.41989783e-07]","[0.0009765625, 0.0009765625, -0.0009765625, 0.0]",-1.0,"[0.0009765625, 0.0009765625, -0.0009765625, 0.0]",[-7.0720160e-01  8.3264297e-01  6.5951736e-04  2.2462691e-01],[1.44986394 0.65957002 0.60988618],[1.281139   0.88775022 0.42470209],21,651,180,0.5060162412726006,0,0
64,64,2024-09-20 21:34:27.036252928,TASK_BEGIN,14,0.276451727455499,0.1601744630591529,4.458064485240733,-1.8748040084994424,0.3602140246355311,0.0285364470647233,4.900542456712943,-0.5747503075325258,2,2024-09-20 21:34:27.394442752,1726868067.3944428,2024-09-20 21:34:27.394442186,0,"[ 1.44776324e+00  7.57458985e-01  4.76820510e-01  1.28113899e+00
  8.87750217e-01  4.24784489e-01 -1.66624251e-01  1.30291232e-01
 -5.20360206e-02  7.89750834e-06  2.10994670e-09  6.62497190e-17
 -2.24384805e-19 -2.19162680e-15 -6.29803653e-05 -2.35660698e-05
  1.67319736e-04 -4.11343975e-17 -9.89099766e-19  5.42361166e-19
  6.29803653e-05  2.35660698e-05 -1.67319736e-04  3.42505911e-07
 -3.42249064e-07]","[0.0009765625, 0.0009765625, -0.0009765625, 0.0]",-1.0,"[0.0009765625, 0.0009765625, -0.0009765625, 0.0]",[-0.70665425  0.8319175   0.00242908  0.22430782],[1.44986394 0.65957002 0.60988618],[1.281139   0.88775022 0.42470209],21,651,180,0.5060385785790764,0,0
65,65,2024-09-20 21:34:27.100118016,TASK_BEGIN,14,0.2890963638410368,0.1580870135344433,4.520390058522126,-1.8716158245005032,0.3721221234502171,0.0288048088745123,4.92140133235498,-0.5979571263150127,2,2024-09-20 21:34:27.453437440,1726868067.4534376,2024-09-20 21:34:27.453436814,0,"[ 1.44784233e+00  7.57491109e-01  4.76588360e-01  1.28113899e+00
  8.87750217e-01  4.24784489e-01 -1.66703340e-01  1.30259108e-01
 -5.18038712e-02  7.92299487e-06 -1.50623053e-08  6.75192841e-17
 -2.85405546e-19 -2.19165979e-15 -6.30130841e-05 -2.35702984e-05
  1.67353877e-04 -4.45158775e-17  2.71580486e-18  1.88238914e-18
  6.30130841e-05  2.35702984e-05 -1.67353877e-04  3.42452980e-07
 -1.79951270e-07]","[0.0009765625, 0.0009765625, -0.0009765625, 0.0]",-1.0,"[0.0009765625, 0.0009765625, -0.0009765625, 0.0]",[-0.7061059   0.8311889   0.00419884  0.22398849],[1.44986394 0.65957002 0.60988618],[1.281139   0.88775022 0.42470209],21,651,180,0.506060801040743,0,0
66,66,2024-09-20 21:34:27.162890752,TASK_BEGIN,14,0.3001270057433726,0.1555721668271035,4.615463645992712,-1.8770564352248185,0.3825384636694344,0.0311026429271677,4.939088479872407,-0.6163202729237606,2,2024-09-20 21:34:27.512440832,1726868067.512441,2024-09-20 21:34:27.512439988,0,"[ 1.44792145e+00  7.57523235e-01  4.76356164e-01  1.28113899e+00
  8.87750217e-01  4.24784489e-01 -1.66782458e-01  1.30226982e-01
 -5.15716752e-02  7.94850125e-06  8.64239190e-08  6.41873766e-17
 -1.63319553e-19 -2.19108938e-15 -6.30458672e-05 -2.35702011e-05
  1.67387961e-04 -3.35431704e-17 -2.23084529e-18  9.66902019e-21
  6.30458672e-05  2.35702011e-05 -1.67387961e-04  3.42569583e-07
 -2.52643172e-07]","[0.0009765625, 0.0009765625, -0.0009765625, 0.0]",-1.0,"[0.0009765625, 0.0009765625, -0.0009765625, 0.0]",[-0.7055568   0.8304574   0.00596901  0.22366898],[1.44986394 0.65957002 0.60988618],[1.281139   0.88775022 0.42470209],21,651,180,0.5060841272278276,0,0
67,67,2024-09-20 21:34:27.224958976,TASK_BEGIN,14,0.3092283518281304,0.1525309861013778,4.742424229973232,-1.890935180792508,0.391330842488166,0.0348308401968293,4.958159454394115,-0.6302696824738686,2,2024-09-20 21:34:27.570437632,1726868067.5704377,2024-09-20 21:34:27.570437059,0,"[ 1.44800060e+00  7.57555364e-01  4.76123922e-01  1.28113899e+00
  8.87750217e-01  4.24784489e-01 -1.66861605e-01  1.30194854e-01
 -5.13394328e-02  7.97402671e-06  1.29478170e-07  7.13212852e-17
 -7.06598681e-19 -2.19100160e-15 -6.30786793e-05 -2.35727901e-05
  1.67422001e-04 -4.66575629e-17 -3.83880150e-18  1.19162918e-18
  6.30786793e-05  2.35727901e-05 -1.67422001e-04  3.42575154e-07
 -2.95744849e-07]","[0.0009765625, 0.0009765625, -0.0009765625, 0.0]",-1.0,"[0.0009765625, 0.0009765625, -0.0009765625, 0.0]",[-0.7050067   0.82972276  0.00773955  0.22334935],[1.44986394 0.65957002 0.60988618],[1.281139   0.88775022 0.42470209],21,651,180,0.5061016806720116,0,0
68,68,2024-09-20 21:34:27.307153152,TASK_BEGIN,14,0.3161463969642163,0.1488986824818781,4.896859248095504,-1.9124579637161712,0.3983106849516176,0.0393237900163431,4.982552951424857,-0.6404042242059418,2,2024-09-20 21:34:27.681958656,1726868067.6819587,2024-09-20 21:34:27.681958055,0,"[ 1.44815898e+00  7.57619629e-01  4.75659298e-01  1.28113899e+00
  8.87750217e-01  4.24784489e-01 -1.67019986e-01  1.30130589e-01
 -5.08748087e-02  8.02510945e-06  1.32707564e-07  8.06409455e-17
 -1.07308425e-18 -2.19154607e-15 -6.31444388e-05 -2.35773448e-05
  1.67489944e-04 -3.54443746e-17  3.49421888e-18 -2.06152226e-18
  6.31444388e-05  2.35773448e-05 -1.67489944e-04  3.42618666e-07
 -3.29918586e-07]","[0.0009765625, 0.0009765625, -0.0009765625, 0.0]",-1.0,"[0.0009765625, 0.0009765625, -0.0009765625, 0.0]",[-0.70390356  0.8282442   0.0112813   0.2227099 ],[1.44986394 0.65957002 0.60988618],[1.281139   0.88775022 0.42470209],21,651,180,0.506135035347694,0,0
69,69,2024-09-20 21:34:27.364958976,TASK_BEGIN,14,0.3207248810207496,0.1446494715923455,5.071141423652056,-1.9403541894737917,0.4033530611828692,0.0438614274857291,5.014757062605132,-0.6473292341664767,2,2024-09-20 21:34:27.740051200,1726868067.7400513,2024-09-20 21:34:27.740051072,0,"[ 1.44823821e+00  7.57651765e-01  4.75426916e-01  1.28113899e+00
  8.87750217e-01  4.24784489e-01 -1.67099221e-01  1.30098452e-01
 -5.06424272e-02  8.05067154e-06  1.16830809e-07  9.40779387e-17
 -3.96199353e-19 -2.19165379e-15 -6.31773840e-05 -2.35796228e-05
  1.67523845e-04 -3.51873325e-17 -1.01226186e-18 -1.71312141e-18
  6.31773840e-05  2.35796228e-05 -1.67523845e-04  3.42641063e-07
 -3.36027337e-07]","[0.0009765625, 0.0009765625, -0.0009765625, 0.0]",-1.0,"[0.0009765625, 0.0009765625, -0.0009765625, 0.0]",[-0.7033508   0.8275003   0.01305268  0.22238989],[1.44986394 0.65957002 0.60988618],[1.281139   0.88775022 0.42470209],21,651,180,0.5061521418672482,0,0
70,70,2024-09-20 21:34:28.304420864,TASK_BEGIN,14,0.3229794762481594,0.13978054777156,5.25539684653376,-1.973086861581684,0.4064885443131369,0.0476906212709229,5.055058961373749,-0.6514557399812247,2,2024-09-20 21:34:28.651770112,1726868068.65177,2024-09-20 21:34:28.651769822,0,"[ 1.44950994e+00  7.58166287e-01  4.71702588e-01  1.28113899e+00
  8.87750217e-01  4.24784489e-01 -1.68370946e-01  1.29583930e-01
 -4.69180984e-02  8.46160273e-06  1.03544829e-09  7.46070458e-17
 -3.65421988e-19 -2.19471719e-15 -6.37106988e-05 -2.36163991e-05
  1.68060203e-04 -4.46042382e-17 -1.45620023e-18 -5.96533400e-18
  6.37106988e-05  2.36163991e-05 -1.68060203e-04  3.42990815e-07
 -3.42730482e-07]","[0.0009765625, 0.0009765625, -0.0009765625, 0.0]",-1.0,"[0.0009765625, 0.0009765625, -0.0009765625, 0.0]",[-0.6950877   0.81785995  0.03770636  0.21566482],[1.44986394 0.65957002 0.60988618],[1.281139   0.88775022 0.42470209],21,651,180,0.5062254535909775,0,0
71,71,2024-09-20 21:34:28.382969088,TASK_BEGIN,14,0.323182696228081,0.1342873605799855,5.438655857236093,-2.009040235593828,0.4079940114243727,0.0500649208349311,5.101293813386565,-0.6529104142470031,2,2024-09-20 21:34:28.762770432,1726868068.7627704,2024-09-20 21:34:28.762770066,0,"[ 1.44966943e+00  7.58230648e-01  4.71236231e-01  1.28113899e+00
  8.87750217e-01  4.24784489e-01 -1.68530441e-01  1.29519569e-01
 -4.64517421e-02  8.51321764e-06  8.60478442e-08  9.43419861e-17
 -6.49174411e-19 -2.19500560e-15 -6.37782173e-05 -2.36206790e-05
  1.68126478e-04 -3.77401126e-17  2.07503227e-18 -1.37333057e-18
  6.37782173e-05  2.36206790e-05 -1.68126478e-04  3.43051485e-07
 -2.51988360e-07]","[0.0009765625, 0.0009765625, -0.0009765625, 0.0]",-1.0,"[0.0009765625, 0.0009765625, -0.0009765625, 0.0]",[-0.6945423   0.8171009   0.03932696  0.21467876],[1.44986394 0.65957002 0.60988618],[1.281139   0.88775022 0.42470209],21,651,180,0.5063153774454039,0,0
72,72,2024-09-20 21:34:28.444999936,TASK_BEGIN,14,0.3219063242989267,0.1281453045491834,5.609785029181267,-2.0466058359075645,0.4084976061959154,0.0502974417026641,5.149363066640436,-0.6516465609402643,2,2024-09-20 21:34:28.820770560,1726868068.8207705,2024-09-20 21:34:28.820770066,0,"[ 1.44974923e+00  7.58262832e-01  4.71002986e-01  1.28113899e+00
  8.87750217e-01  4.24784489e-01 -1.68610233e-01  1.29487385e-01
 -4.62184968e-02  8.53905300e-06  1.29659078e-07  7.42518216e-17
  7.66658346e-19 -2.19452366e-15 -6.38120468e-05 -2.36233452e-05
  1.68159553e-04 -3.03766138e-17 -1.41524977e-18  1.17785530e-18
  6.38120468e-05  2.36233452e-05 -1.68159553e-04  3.43055380e-07
 -2.95633117e-07]","[0.0009765625, 0.0009765625, -0.0009765625, 0.0]",-1.0,"[0.0009765625, 0.0009765625, -0.0009765625, 0.0]",[-0.6943032   0.81672347  0.04019151  0.21418162],[1.44986394 0.65957002 0.60988618],[1.281139   0.88775022 0.42470209],21,651,180,0.5063486081514733,0,0
73,73,2024-09-20 21:34:28.507600128,TASK_BEGIN,14,0.3200007960913008,0.1213029600264153,5.758128020101819,-2.084149307361025,0.4090411259870501,0.0478161465191001,5.194374466323279,-0.64768887825671,2,2024-09-20 21:34:28.879769856,1726868068.8797698,2024-09-20 21:34:28.879770066,0,"[ 1.44982905e+00  7.58295019e-01  4.70769696e-01  1.28113899e+00
  8.87750217e-01  4.24784489e-01 -1.68690055e-01  1.29455198e-01
 -4.59852067e-02  8.56489677e-06  1.39980494e-07  9.07066369e-17
  7.74679942e-19 -2.19459289e-15 -6.38459288e-05 -2.36256892e-05
  1.68192590e-04 -3.87931453e-17 -2.13791208e-18  5.97831078e-19
  6.38459288e-05  2.36256892e-05 -1.68192590e-04  3.43075527e-07
 -3.18379789e-07]","[0.0009765625, 0.0009765625, -0.0009765625, 0.0]",-1.0,"[0.0009765625, 0.0009765625, -0.0009765625, 0.0]",[-0.6938717   0.8163181   0.04096336  0.21370016],[1.44986394 0.65957002 0.60988618],[1.281139   0.88775022 0.42470209],21,651,180,0.5063586834158996,0,0
74,74,2024-09-20 21:34:28.587633920,TASK_BEGIN,14,0.3185391885214524,0.1136837267514627,5.873977174243615,-2.119899485867704,0.4110077682639219,0.0422186236967028,5.231916574646696,-0.6413465851008487,2,2024-09-20 21:34:28.938710272,1726868068.9387102,2024-09-20 21:34:28.938710008,0,"[ 1.44990890e+00  7.58327208e-01  4.70536361e-01  1.28113899e+00
  8.87750217e-01  4.24784489e-01 -1.68769906e-01  1.29423009e-01
 -4.57518719e-02  8.59075303e-06  1.32957711e-07  8.28587498e-17
  6.12166975e-19 -2.19486189e-15 -6.38798603e-05 -2.36280527e-05
  1.68225585e-04 -4.07294278e-17 -7.06597202e-20 -4.95634527e-19
  6.38798603e-05  2.36280527e-05 -1.68225585e-04  3.43095708e-07
 -3.30235093e-07]","[0.0009765625, 0.0009765625, -0.0009765625, 0.0]",-1.0,"[0.0009765625, 0.0009765625, -0.0009765625, 0.0]",[-0.6931199   0.81586766  0.04155731  0.21324548],[1.44986394 0.65957002 0.60988618],[1.281139   0.88775022 0.42470209],21,651,180,0.5063654846792629,0,0
75,75,2024-09-20 21:34:28.647862784,TASK_BEGIN,14,0.3187609519267305,0.105192717505058,5.948952594478971,-2.151848743482139,0.4159051517613405,0.0333236995849884,5.258955228144513,-0.6332642243020724,2,2024-09-20 21:34:28.998079744,1726868068.9980798,2024-09-20 21:34:28.998079148,0,"[ 1.44998878e+00  7.58359400e-01  4.70302982e-01  1.28113899e+00
  8.87750217e-01  4.24784489e-01 -1.68849786e-01  1.29390817e-01
 -4.55184926e-02  8.61662257e-06  1.16895936e-07  9.18918971e-17
 -2.20888639e-19 -2.19477768e-15 -6.39138420e-05 -2.36304072e-05
  1.68258541e-04 -4.37541673e-17  1.24887839e-18  2.05850184e-18
  6.39138420e-05  2.36304072e-05 -1.68258541e-04  3.43116524e-07
 -3.36419197e-07]","[0.0009765625, 0.0009765625, -0.0009765625, 0.0]",-1.0,"[0.0009765625, 0.0009765625, -0.0009765625, 0.0]",[-0.6923665   0.81541604  0.04215123  0.2127908 ],[1.44986394 0.65957002 0.60988618],[1.281139   0.88775022 0.42470209],21,651,180,0.5064135835104404,0,0
76,76,2024-09-20 21:34:28.710350080,TASK_BEGIN,14,0.3220111252308242,0.0957298994694784,5.976368343881742,-2.1777709245982204,0.425096455056117,0.0212088648455105,5.2739918402263575,-0.6242816434072259,2,2024-09-20 21:34:29.057915392,1726868069.0579154,2024-09-20 21:34:29.057915086,0,"[ 1.45006869e+00  7.58391595e-01  4.70069558e-01  1.28113899e+00
  8.87750217e-01  4.24784489e-01 -1.68929696e-01  1.29358623e-01
 -4.52850688e-02  8.64250573e-06  9.61202971e-08  6.68567736e-17
  8.46422544e-19 -2.19580763e-15 -6.39478742e-05 -2.36327612e-05
  1.68291457e-04 -3.25330734e-17  1.47801099e-18 -4.18769198e-18
  6.39478742e-05  2.36327612e-05 -1.68291457e-04  3.43137416e-07
 -3.39649699e-07]","[0.0009765625, 0.0009765625, -0.0009765625, 0.0]",-1.0,"[0.0009765625, 0.0009765625, -0.0009765625, 0.0]",[-0.6922258   0.81502956  0.04254602  0.2124146 ],[1.44986394 0.65957002 0.60988618],[1.281139   0.88775022 0.42470209],21,651,180,0.5065077725107073,0,0
77,77,2024-09-20 21:34:29.662574848,TASK_BEGIN,14,0.3296423976182543,0.0852116822045469,5.951709352897461,-2.1954042086725822,0.4395794682440095,0.0062235321302844,5.276471428554296,-0.6151835020680051,2,2024-09-20 21:34:30.023384064,1726868070.023384,2024-09-20 21:34:30.023383836,0,"[ 1.45143173e+00  7.58939296e-01  4.66094614e-01  1.28113899e+00
  8.87750217e-01  4.24784489e-01 -1.70292737e-01  1.28810921e-01
 -4.13101248e-02  9.08456934e-06  8.57325487e-08  8.14291546e-17
  1.15014137e-18 -2.19520597e-15 -6.45344528e-05 -2.36728800e-05
  1.68845229e-04 -4.50507380e-17  2.55208745e-18 -2.06597763e-19
  6.45344528e-05  2.36728800e-05 -1.68845229e-04  3.43498144e-07
 -2.51512405e-07]","[0.0009765625, 0.0009765625, -0.0009765625, 0.0]",-1.0,"[0.0009765625, 0.0009765625, -0.0009765625, 0.0]",[-0.70072937  0.80945635  0.0459804   0.20726146],[1.44986394 0.65957002 0.60988618],[1.281139   0.88775022 0.42470209],21,651,180,0.5071957310775137,0,0
78,78,2024-09-20 21:34:29.724620032,TASK_BEGIN,14,0.3428820186596168,0.0735960692657033,5.873162054646215,-2.2027232782008075,0.4598628282505943,-0.0110256296690934,5.265925611389019,-0.6064776641039995,2,2024-09-20 21:34:30.079904512,1726868070.0799046,2024-09-20 21:34:30.079904100,0,"[ 1.45151218e+00  7.58971537e-01  4.65860401e-01  1.28113899e+00
  8.87750217e-01  4.24784489e-01 -1.70373186e-01  1.28778680e-01
 -4.10759121e-02  9.11069748e-06  1.29754614e-07  8.95228317e-17
 -7.61091412e-19 -2.19485947e-15 -6.45694452e-05 -2.36756287e-05
  1.68877478e-04 -3.29610763e-17 -1.40527479e-18 -2.83122292e-18
  6.45694452e-05  2.36756287e-05 -1.68877478e-04  3.43500320e-07
 -2.95597594e-07]","[0.0009765625, 0.0009765625, -0.0009765625, 0.0]",-1.0,"[0.0009765625, 0.0009765625, -0.0009765625, 0.0]",[-0.7012414   0.8091262   0.04617728  0.20697479],[1.44986394 0.65957002 0.60988618],[1.281139   0.88775022 0.42470209],21,651,180,0.5072401640791535,0,0
79,79,2024-09-20 21:34:29.801804032,TASK_BEGIN,14,0.3627098158522032,0.0608998055499701,5.741907812096752,-2.198161274451912,0.4859451431673867,-0.0297198733148458,5.241537735394034,-0.5983179182051644,2,2024-09-20 21:34:30.192907520,1726868070.1929076,2024-09-20 21:34:30.192906785,0,"[ 1.45167317e+00  7.59036027e-01  4.65391846e-01  1.28113899e+00
  8.87750217e-01  4.24784489e-01 -1.70534175e-01  1.28714190e-01
 -4.06073571e-02  9.16298066e-06  1.33027307e-07  7.57474546e-17
  7.00523349e-19 -2.19512024e-15 -6.46396057e-05 -2.36804999e-05
  1.68941876e-04 -3.78817231e-17 -1.68267855e-18  3.08540535e-19
  6.46396057e-05  2.36804999e-05 -1.68941876e-04  3.43537342e-07
 -3.30546428e-07]","[0.0009765625, 0.0009765625, -0.0009765625, 0.0]",-1.0,"[0.0009765625, 0.0009765625, -0.0009765625, 0.0]",[-0.70225185  0.80844694  0.04651752  0.2064288 ],[1.44986394 0.65957002 0.60988618],[1.281139   0.88775022 0.42470209],21,651,180,0.5073504242053866,0,0
80,80,2024-09-20 21:34:29.863862016,TASK_BEGIN,14,0.3897663435530534,0.047203370160317,5.562032219221262,-2.1807264339882844,0.5173716025872068,-0.0489028990135148,5.202470090186022,-0.5905979503104345,2,2024-09-20 21:34:30.250904064,1726868070.250904,2024-09-20 21:34:30.250903855,0,"[ 1.45175371e+00  7.59068276e-01  4.65157504e-01  1.28113899e+00
  8.87750217e-01  4.24784489e-01 -1.70614715e-01  1.28681942e-01
 -4.03730150e-02  9.18914064e-06  1.16774468e-07  6.74096588e-17
 -1.99343277e-19 -2.19502115e-15 -6.46747715e-05 -2.36829366e-05
  1.68974024e-04 -4.76670728e-17 -5.44839989e-19 -1.03618957e-18
  6.46747715e-05  2.36829366e-05 -1.68974024e-04  3.43556513e-07
 -3.36791331e-07]","[0.0009765625, 0.0009765625, -0.0009765625, 0.0]",-1.0,"[0.0009765625, 0.0009765625, -0.0009765625, 0.0]",[-0.7027561   0.8081063   0.04668757  0.20615554],[1.44986394 0.65957002 0.60988618],[1.281139   0.88775022 0.42470209],21,651,180,0.5074059692316635,0,0
81,81,2024-09-20 21:34:29.925898240,TASK_BEGIN,14,0.4242550284289669,0.0326523906600847,5.340251107521424,-2.1500779679074093,0.5533296497905634,-0.0675733624163625,5.148732843412761,-0.5831361791547194,2,2024-09-20 21:34:30.309944320,1726868070.3099444,2024-09-20 21:34:30.309943895,0,"[ 1.45183428e+00  7.59100527e-01  4.64923119e-01  1.28113899e+00
  8.87750217e-01  4.24784489e-01 -1.70695285e-01  1.28649690e-01
 -4.01386299e-02  9.21531347e-06  9.57609005e-08  7.19484085e-17
  3.82779847e-19 -2.19474233e-15 -6.47099948e-05 -2.36853730e-05
  1.69006138e-04 -3.54311969e-17 -2.93807196e-18  2.82080246e-18
  6.47099948e-05  2.36853730e-05 -1.69006138e-04  3.43575758e-07
 -3.40052705e-07]","[0.0009765625, 0.0009765625, -0.0009765625, 0.0]",-1.0,"[0.0009765625, 0.0009765625, -0.0009765625, 0.0]",[-0.70326006  0.807765    0.04685775  0.20588225],[1.44986394 0.65957002 0.60988618],[1.281139   0.88775022 0.42470209],21,651,180,0.5074620400213785,0,0
82,82,2024-09-20 21:34:30.003563008,TASK_BEGIN,14,0.4658215796300617,0.0174624244815019,5.085649007024231,-2.106620710425541,0.5927486402832834,-0.0847763730747363,5.0820798223901935,-0.5758453724594091,2,2024-09-20 21:34:30.365941248,1726868070.3659413,2024-09-20 21:34:30.365940965,0,"[ 1.45191488e+00  7.59132781e-01  4.64688691e-01  1.28113899e+00
  8.87750217e-01  4.24784489e-01 -1.70775885e-01  1.28617436e-01
 -3.99042019e-02  9.24149922e-06  7.22619091e-08  6.96896321e-17
 -1.47960785e-19 -2.19424458e-15 -6.47452761e-05 -2.36878108e-05
  1.69038219e-04 -4.28449924e-17 -2.78973173e-20  9.00128390e-19
  6.47452761e-05  2.36878108e-05 -1.69038219e-04  3.43594951e-07
 -3.41760277e-07]","[0.0009765625, 0.0009765625, -0.0009765625, 0.0]",-1.0,"[0.0009765625, 0.0009765625, -0.0009765625, 0.0]",[-0.7037634   0.8074231   0.04702787  0.20560886],[1.44986394 0.65957002 0.60988618],[1.281139   0.88775022 0.42470209],21,651,180,0.5075188426677808,0,0
83,83,2024-09-20 21:34:30.065584896,TASK_BEGIN,14,0.5134624994137219,0.0019217832758052,4.809351150177247,-2.051595576120022,0.6343758874301612,-0.0996766782035602,5.006444177560956,-0.5688455420795027,2,2024-09-20 21:34:30.422942208,1726868070.4229422,2024-09-20 21:34:30.422941941,0,"[ 1.45199551e+00  7.59165038e-01  4.64454220e-01  1.28113899e+00
  8.87750217e-01  4.24784489e-01 -1.70856516e-01  1.28585179e-01
 -3.96697310e-02  9.26769783e-06  4.74624517e-08  9.77126953e-17
  3.82950853e-20 -2.19406251e-15 -6.47806156e-05 -2.36902512e-05
  1.69070266e-04 -3.20983628e-17 -7.15808159e-19 -1.03255920e-18
  6.47806156e-05  2.36902512e-05 -1.69070266e-04  3.43614046e-07
 -3.42658615e-07]","[0.0009765625, 0.0009765625, -0.0009765625, 0.0]",-1.0,"[0.0009765625, 0.0009765625, -0.0009765625, 0.0]",[-0.70426625  0.80708045  0.04719787  0.20533529],[1.44986394 0.65957002 0.60988618],[1.281139   0.88775022 0.42470209],21,651,180,0.5075828996385596,0,0
84,84,2024-09-20 21:34:30.994241024,TASK_BEGIN,14,0.5655219098903452,-0.013615761510217,4.523978708100487,-1.9871125286389792,0.6768222928728649,-0.1116076401300552,4.927594223519914,-0.5624945729830365,2,2024-09-20 21:34:31.337970944,1726868071.337971,2024-09-20 21:34:31.337970994,0,"[ 1.45328976e+00  7.59681506e-01  4.60696909e-01  1.28113899e+00
  8.87750217e-01  4.24784489e-01 -1.72150765e-01  1.28068711e-01
 -3.59124197e-02  9.68859158e-06  1.29810086e-07  7.09183833e-17
  8.13722500e-19 -2.19547940e-15 -6.53542562e-05 -2.37297717e-05
  1.69578768e-04 -4.59445403e-17  1.98715353e-19  6.99117777e-19
  6.53542562e-05  2.37297717e-05 -1.69578768e-04  3.43908433e-07
 -2.95646912e-07]","[0.0009765625, 0.0009765625, -0.0009765625, 0.0]",-1.0,"[0.0009765625, 0.0009765625, -0.0009765625, 0.0]",[-0.7144508   0.80232346  0.05167065  0.20250165],[1.44986394 0.65957002 0.60988618],[1.281139   0.88775022 0.42470209],21,651,180,0.5089013206335213,0,0
85,85,2024-09-20 21:34:31.062087936,TASK_BEGIN,14,0.6197767094924646,-0.0287461845644067,4.242878137034474,-1.9160937103953624,0.7186030805598196,-0.1201037031182736,4.852030229921113,-0.5572931462649645,2,2024-09-20 21:34:31.458775296,1726868071.4587753,2024-09-20 21:34:31.458775193,0,"[ 1.45345209e+00  7.59746113e-01  4.60226487e-01  1.28113899e+00
  8.87750217e-01  4.24784489e-01 -1.72313100e-01  1.28004105e-01
 -3.54419982e-02  9.74142515e-06  1.32948517e-07  8.51922611e-17
 -9.54170033e-19 -2.19536659e-15 -6.54270890e-05 -2.37348195e-05
  1.69641798e-04 -4.06835315e-17  1.13538571e-18  2.02674681e-18
  6.54270890e-05  2.37348195e-05 -1.69641798e-04  3.43942002e-07
 -3.30853786e-07]","[0.0009765625, 0.0009765625, -0.0009765625, 0.0]",-1.0,"[0.0009765625, 0.0009765625, -0.0009765625, 0.0]",[-0.7155881   0.8016108   0.05239271  0.20218614],[1.44986394 0.65957002 0.60988618],[1.281139   0.88775022 0.42470209],21,651,180,0.5090561138287267,0,0
86,86,2024-09-20 21:34:31.125763840,TASK_BEGIN,14,0.6735736362207355,-0.0430294826229267,3.979237073191322,-1.842115878141203,0.7582096246258593,-0.1249251805415878,4.785575679770191,-0.5536990571398074,2,2024-09-20 21:34:31.518274560,1726868071.5182745,2024-09-20 21:34:31.518274217,0,"[ 1.45353331e+00  7.59778420e-01  4.59991214e-01  1.28113899e+00
  8.87750217e-01  4.24784489e-01 -1.72394314e-01  1.27971797e-01
 -3.52067248e-02  9.76785921e-06  1.16495796e-07  7.86850074e-17
  3.66035445e-19 -2.19569805e-15 -6.54636026e-05 -2.37373449e-05
  1.69673271e-04 -4.30884702e-17 -6.91110630e-19 -2.02671963e-18
  6.54636026e-05  2.37373449e-05 -1.69673271e-04  3.43959450e-07
 -3.37143597e-07]","[0.0009765625, 0.0009765625, -0.0009765625, 0.0]",-1.0,"[0.0009765625, 0.0009765625, -0.0009765625, 0.0]",[-0.7161557   0.8012535   0.05275386  0.20202835],[1.44986394 0.65957002 0.60988618],[1.281139   0.88775022 0.42470209],21,651,180,0.509134630112533,0,0
87,87,2024-09-20 21:34:31.197443840,TASK_BEGIN,14,0.7240025717157429,-0.0560017299218727,3.7452181426544526,-1.7691582130829455,0.7942294101508578,-0.1260730028133463,4.732230018739796,-0.5519685277269742,2,2024-09-20 21:34:31.581273856,1726868071.5812738,2024-09-20 21:34:31.581272996,0,"[ 1.45361455e+00  7.59810730e-01  4.59755899e-01  1.28113899e+00
  8.87750217e-01  4.24784489e-01 -1.72475559e-01  1.27939487e-01
 -3.49714098e-02  9.79430540e-06  9.52475124e-08  7.57208827e-17
  5.46564312e-19 -2.19636758e-15 -6.55001816e-05 -2.37398703e-05
  1.69704717e-04 -3.72135855e-17 -6.96464745e-19 -4.05277656e-18
  6.55001816e-05  2.37398703e-05 -1.69704717e-04  3.43976969e-07
 -3.40427528e-07]","[0.0009765625, 0.0009765625, -0.0009765625, 0.0]",-1.0,"[0.0009765625, 0.0009765625, -0.0009765625, 0.0]",[-0.7167226   0.80089545  0.05311488  0.20187047],[1.44986394 0.65957002 0.60988618],[1.281139   0.88775022 0.42470209],21,651,180,0.5092139962323842,0,0
88,88,2024-09-20 21:34:31.264950016,TASK_BEGIN,14,0.7681171558257847,-0.0671931615190861,3.5511683139897774,-1.7012783432061074,0.8255026847277596,-0.1237853334697494,4.693551197215305,-0.5520841144598821,2,2024-09-20 21:34:31.641863936,1726868071.641864,2024-09-20 21:34:31.641862840,0,"[ 1.45369583e+00  7.59843042e-01  4.59520542e-01  1.28113899e+00
  8.87750217e-01  4.24784489e-01 -1.72556835e-01  1.27907175e-01
 -3.47360533e-02  9.82076378e-06  7.14960112e-08  8.29678079e-17
  6.07052159e-19 -2.19719817e-15 -6.55368264e-05 -2.37423973e-05
  1.69736135e-04 -3.69807731e-17 -4.87851285e-18  9.12339156e-19
  6.55368264e-05  2.37423973e-05 -1.69736135e-04  3.43994432e-07
 -3.42146016e-07]","[0.0009765625, 0.0009765625, -0.0009765625, 0.0]",-1.0,"[0.0009765625, 0.0009765625, -0.0009765625, 0.0]",[-0.7172887   0.8005367   0.05347606  0.20171247],[1.44986394 0.65957002 0.60988618],[1.281139   0.88775022 0.42470209],21,651,180,0.509294118361029,0,0
89,89,2024-09-20 21:34:31.328445184,TASK_BEGIN,14,0.8032056400772597,-0.0761598272548579,3.4049051963108004,-1.6422553688561294,0.8512668662405103,-0.1185127381208886,4.6685182434663455,-0.5537299106048846,2,2024-09-20 21:34:31.701540096,1726868071.70154,2024-09-20 21:34:31.701540086,0,"[ 1.45377714e+00  7.59875358e-01  4.59285144e-01  1.28113899e+00
  8.87750217e-01  4.24784489e-01 -1.72638142e-01  1.27874860e-01
 -3.45006552e-02  9.84723431e-06  4.64351246e-08  1.02064914e-16
 -3.67068920e-19 -2.19702076e-15 -6.55735374e-05 -2.37449274e-05
  1.69767526e-04 -3.35412583e-17  2.07626233e-18 -1.54710877e-18
  6.55735374e-05  2.37449274e-05 -1.69767526e-04  3.44011792e-07
 -3.43049206e-07]","[0.0009765625, 0.0009765625, -0.0009765625, 0.0]",-1.0,"[0.0009765625, 0.0009765625, -0.0009765625, 0.0]",[-0.71785384  0.8001772   0.05383715  0.20155452],[1.44986394 0.65957002 0.60988618],[1.281139   0.88775022 0.42470209],21,651,180,0.5093750973324747,0,0
90,90,2024-09-20 21:34:31.397239040,TASK_BEGIN,14,0.8270865851227078,-0.0825299460522413,3.3111209625866715,-1.595253689776302,0.8712159397605095,-0.110875901220386,4.6537401391697895,-0.5562704895834947,2,2024-09-20 21:34:31.757543936,1726868071.757544,2024-09-20 21:34:31.757542771,0,"[ 1.45385847e+00  7.59907676e-01  4.59049705e-01  1.28113899e+00
  8.87750217e-01  4.24784489e-01 -1.72719481e-01  1.27842542e-01
 -3.42652157e-02  9.87371692e-06  2.06865969e-08  6.98092001e-17
  1.86508858e-18 -2.19794513e-15 -6.56103149e-05 -2.37474610e-05
  1.69798891e-04 -4.46871921e-17  4.17238461e-18 -5.52132006e-19
  6.56103149e-05  2.37474610e-05 -1.69798891e-04  3.44029042e-07
 -3.43527763e-07]","[0.0009765625, 0.0009765625, -0.0009765625, 0.0]",-1.0,"[0.0009765625, 0.0009765625, -0.0009765625, 0.0]",[-0.7184185   0.799817    0.05419838  0.2013964 ],[1.44986394 0.65957002 0.60988618],[1.281139   0.88775022 0.42470209],21,651,180,0.5094568542167128,0,0
91,91,2024-09-20 21:34:32.339248128,TASK_BEGIN,14,0.8383771547464572,-0.0860575503572258,3.2710042885986743,-1.562564854946571,0.8854347266820255,-0.1016157568560927,4.643934772682041,-0.5587472105969699,2,2024-09-20 21:34:32.434414080,1726868072.4344141,2024-09-20 21:34:32.434413865,0,"[ 1.45445567e+00  8.06688644e-01  4.56955188e-01  1.28113899e+00
  8.87750217e-01  4.24784489e-01 -1.73316681e-01  8.10615738e-02
 -3.21706988e-02  1.00813696e-04  4.66131530e-04  9.46317288e-17
 -8.76185642e-19 -2.20019433e-15 -3.46132650e-05 -5.85663469e-03
  9.25188710e-05 -3.49086064e-17  5.51310082e-18 -1.63087900e-19
  3.46132650e-05  5.85663469e-03 -9.25188710e-05  9.97754553e-05
 -8.82394972e-05]","[0.0009765625, 0.24999237060546875, -0.0009765625, 0.0]",-1.0,"[0.0009765625, 0.24999237060546875, -0.0009765625, 0.0]",[-0.88934034  0.65072864  0.11230589  0.36351463],[1.44986394 0.65957002 0.60988618],[1.281139   0.88775022 0.42470209],21,651,180,0.6032540771604877,0,0
92,92,2024-09-20 21:34:32.409892096,TASK_BEGIN,14,0.8366744992151239,-0.0866666538926982,3.2821728828087404,-1.5454576769949926,0.8942342658325322,-0.0915439575089132,4.632659943514499,-0.5599481731177294,2,2024-09-20 21:34:32.434414080,1726868072.4344141,2024-09-20 21:34:32.434413865,0,"[ 1.45445567e+00  8.06688644e-01  4.56955188e-01  1.28113899e+00
  8.87750217e-01  4.24784489e-01 -1.73316681e-01  8.10615738e-02
 -3.21706988e-02  1.00813696e-04  4.66131530e-04  9.46317288e-17
 -8.76185642e-19 -2.20019433e-15 -3.46132650e-05 -5.85663469e-03
  9.25188710e-05 -3.49086064e-17  5.51310082e-18 -1.63087900e-19
  3.46132650e-05  5.85663469e-03 -9.25188710e-05  9.97754553e-05
 -8.82394972e-05]","[0.0009765625, 0.24999237060546875, -0.0009765625, 0.0]",-1.0,"[0.0009765625, 0.24999237060546875, -0.0009765625, 0.0]",[-0.88934034  0.65072864  0.11230589  0.36351463],[1.44986394 0.65957002 0.60988618],[1.281139   0.88775022 0.42470209],21,651,180,0.6032540771604877,0,0
93,93,2024-09-20 21:34:32.477602048,TASK_BEGIN,14,0.8226192255340141,-0.084470765470463,3.33891916049606,-1.5441173761744995,0.8979616614474188,-0.0814921976617461,4.613259124890775,-0.558586825570709,2,2024-09-20 21:34:32.434414080,1726868072.4344141,2024-09-20 21:34:32.434413865,0,"[ 1.45445567e+00  8.06688644e-01  4.56955188e-01  1.28113899e+00
  8.87750217e-01  4.24784489e-01 -1.73316681e-01  8.10615738e-02
 -3.21706988e-02  1.00813696e-04  4.66131530e-04  9.46317288e-17
 -8.76185642e-19 -2.20019433e-15 -3.46132650e-05 -5.85663469e-03
  9.25188710e-05 -3.49086064e-17  5.51310082e-18 -1.63087900e-19
  3.46132650e-05  5.85663469e-03 -9.25188710e-05  9.97754553e-05
 -8.82394972e-05]","[0.0009765625, 0.24999237060546875, -0.0009765625, 0.0]",-1.0,"[0.0009765625, 0.24999237060546875, -0.0009765625, 0.0]",[-0.88934034  0.65072864  0.11230589  0.36351463],[1.44986394 0.65957002 0.60988618],[1.281139   0.88775022 0.42470209],21,651,180,0.6032540771604877,0,0
94,94,2024-09-20 21:34:32.540391936,TASK_BEGIN,14,0.7978513070912734,-0.079767941013143,3.4326833684807925,-1.5576307125768798,0.8968647533120618,-0.072256523128648,4.579906609872738,-0.5535375396412497,2,2024-09-20 21:34:32.434414080,1726868072.4344141,2024-09-20 21:34:32.434413865,0,"[ 1.45445567e+00  8.06688644e-01  4.56955188e-01  1.28113899e+00
  8.87750217e-01  4.24784489e-01 -1.73316681e-01  8.10615738e-02
 -3.21706988e-02  1.00813696e-04  4.66131530e-04  9.46317288e-17
 -8.76185642e-19 -2.20019433e-15 -3.46132650e-05 -5.85663469e-03
  9.25188710e-05 -3.49086064e-17  5.51310082e-18 -1.63087900e-19
  3.46132650e-05  5.85663469e-03 -9.25188710e-05  9.97754553e-05
 -8.82394972e-05]","[0.0009765625, 0.24999237060546875, -0.0009765625, 0.0]",-1.0,"[0.0009765625, 0.24999237060546875, -0.0009765625, 0.0]",[-0.88934034  0.65072864  0.11230589  0.36351463],[1.44986394 0.65957002 0.60988618],[1.281139   0.88775022 0.42470209],21,651,180,0.6032540771604877,0,0
95,95,2024-09-20 21:34:32.613146112,TASK_BEGIN,14,0.7648853341597793,-0.0730224766618505,3.552693658212895,-1.5840086626609988,0.8910513841188246,-0.0645397313285385,4.528598776004393,-0.5440218965219971,2,2024-09-20 21:34:32.434414080,1726868072.4344141,2024-09-20 21:34:32.434413865,0,"[ 1.45445567e+00  8.06688644e-01  4.56955188e-01  1.28113899e+00
  8.87750217e-01  4.24784489e-01 -1.73316681e-01  8.10615738e-02
 -3.21706988e-02  1.00813696e-04  4.66131530e-04  9.46317288e-17
 -8.76185642e-19 -2.20019433e-15 -3.46132650e-05 -5.85663469e-03
  9.25188710e-05 -3.49086064e-17  5.51310082e-18 -1.63087900e-19
  3.46132650e-05  5.85663469e-03 -9.25188710e-05  9.97754553e-05
 -8.82394972e-05]","[0.0009765625, 0.24999237060546875, -0.0009765625, 0.0]",-1.0,"[0.0009765625, 0.24999237060546875, -0.0009765625, 0.0]",[-0.88934034  0.65072864  0.11230589  0.36351463],[1.44986394 0.65957002 0.60988618],[1.281139   0.88775022 0.42470209],21,651,180,0.6032540771604877,0,0
96,96,2024-09-20 21:34:32.674715136,TASK_BEGIN,14,0.7269191019056653,-0.0648388288308824,3.686829601599062,-1.6203027003088653,0.8805237480542512,-0.0588995015131916,4.457885965948188,-0.5296681652641259,2,2024-09-20 21:34:33.062154496,1726868073.0621545,2024-09-20 21:34:33.062154100,0,"[ 1.45521338e+00  8.20106872e-01  4.54609869e-01  1.28113899e+00
  8.87750217e-01  4.24784489e-01 -1.74074383e-01  6.76433450e-02
 -2.98253803e-02  4.02868544e-04  2.33034903e-04  6.64310666e-17
 -8.48437916e-19 -2.20222932e-15 -2.76221447e-05 -6.50490080e-03
  8.48778717e-05 -4.01908777e-17  3.51383721e-18 -4.28629733e-18
  2.76221447e-05  6.50490080e-03 -8.48778717e-05 -1.08111127e-04
  1.08607985e-04]","[0.0009765625, 0.24999237060546875, -0.0009765625, 0.0]",-1.0,"[0.0009765625, 0.24999237060546875, -0.0009765625, 0.0]",[-0.9239642   0.57347137  0.16243742  0.41064316],[1.44986394 0.65957002 0.60988618],[1.281139   0.88775022 0.42470209],21,651,180,0.6104675485826694,0,0
97,97,2024-09-20 21:34:32.737507072,TASK_BEGIN,14,0.6875742902522187,-0.0559224606704767,3.822815697015156,-1.6628894951287156,0.8652457650147538,-0.0557094922453854,4.369062473541851,-0.5104230045872316,2,2024-09-20 21:34:33.118153984,1726868073.118154,2024-09-20 21:34:33.118154100,0,"[ 1.45520627e+00  8.28461581e-01  4.54484403e-01  1.28113899e+00
  8.87750217e-01  4.24784489e-01 -1.74067273e-01  5.92886361e-02
 -2.96999141e-02  2.71383740e-04  3.64898629e-04  9.41167427e-17
 -4.37191538e-19 -2.20225858e-15 -3.64128314e-05 -5.78528079e-03
  9.41280816e-05 -3.44399976e-17  4.64995042e-18 -2.29348764e-18
  3.64128314e-05  5.78528079e-03 -9.41280816e-05  7.55100788e-06
 -7.29224373e-06]","[0.0009765625, 0.24999237060546875, -0.0009765625, 0.0]",-1.0,"[0.0009765625, 0.24999237060546875, -0.0009765625, 0.0]",[-0.9470618   0.5311614   0.19959623  0.4580499 ],[1.44986394 0.65957002 0.60988618],[1.281139   0.88775022 0.42470209],21,651,180,0.6118175728062725,0,0
98,98,2024-09-20 21:34:33.692110080,TASK_BEGIN,14,0.6505831857118449,-0.0470230995087652,3.9496801550279694,-1.7079185311072127,0.8452190918201641,-0.0551383746094817,4.265693805899748,-0.4863604442255166,2,2024-09-20 21:34:33.342183936,1726868073.3421838,2024-09-20 21:34:33.342182908,0,"[ 1.45511025e+00  8.61594746e-01  4.53982456e-01  1.28113899e+00
  8.87750217e-01  4.24784489e-01 -1.73971254e-01  2.61554711e-02
 -2.91979672e-02  1.64112300e-04  4.72551677e-04  7.16334585e-17
  1.02185446e-18 -2.20206361e-15 -3.36596144e-05 -5.85847131e-03
  9.41061789e-05 -3.16504031e-17 -8.50922379e-19  2.78761526e-18
  3.36596144e-05  5.85847131e-03 -9.41061789e-05  9.02305465e-05
 -9.02114757e-05]","[0.0009765625, 0.24999237060546875, -0.0009765625, 0.0]",-1.0,"[0.0009765625, 0.24999237060546875, -0.0009765625, 0.0]",[-0.9996589   0.32360658  0.22825661  0.51433367],[1.44986394 0.65957002 0.60988618],[1.281139   0.88775022 0.42470209],21,651,180,0.5938118266712179,0,0
99,99,2024-09-20 21:34:33.754595072,TASK_BEGIN,14,0.6194699298940332,-0.038868360854377,4.059102461768634,-1.751798889700842,0.8205625296916784,-0.0571481655764002,4.152723213760331,-0.4574848609753028,2,2024-09-20 21:34:33.401181440,1726868073.4011815,2024-09-20 21:34:33.401180955,0,"[ 1.45506865e+00  8.69876402e-01  4.53857818e-01  1.28113899e+00
  8.87750217e-01  4.24784489e-01 -1.73929656e-01  1.78738153e-02
 -2.90733292e-02  1.66207723e-04  4.70470811e-04  9.45418910e-17
  3.18488237e-19 -2.20159521e-15 -3.31208779e-05 -5.85870200e-03
  9.43000918e-05 -3.20587270e-17  4.60699007e-19  1.52626615e-18
  3.31208779e-05  5.85870200e-03 -9.43000918e-05  9.34312995e-05
 -9.34213475e-05]","[0.0009765625, 0.24999237060546875, -0.0009765625, 0.0]",-1.0,"[0.0009765625, 0.24999237060546875, -0.0009765625, 0.0]",[-0.9998687   0.26264673  0.23421618  0.52516204],[1.44986394 0.65957002 0.60988618],[1.281139   0.88775022 0.42470209],21,651,180,0.5878099963373427,0,0
100,100,2024-09-20 21:34:33.817080064,TASK_BEGIN,14,0.5972801217611207,-0.0321035279463961,4.146186418469364,-1.7915720310624466,0.7915945551598268,-0.0615119976422467,4.035541881082217,-0.4236120878749567,2,2024-09-20 21:34:33.457183488,1726868073.4571834,2024-09-20 21:34:33.457182908,0,"[ 1.45511204e+00  8.73107310e-01  4.53727693e-01  1.28113899e+00
  8.87750217e-01  4.24784489e-01 -1.73973050e-01  1.46429071e-02
 -2.89432035e-02  3.21045877e-04  3.15640261e-04  7.80905432e-17
  4.34611870e-19 -2.20201416e-15 -4.57476124e-05 -1.57248659e-03
  9.19905794e-05 -4.25567851e-17  4.27670555e-19  2.88259854e-18
  4.57476124e-05  1.57248659e-03 -9.19905794e-05  1.67317664e-04
 -1.67312465e-04]","[0.0009765625, 0.08528900146484375, -0.0009765625, 0.0]",-1.0,"[0.0009765625, 0.08528900146484375, -0.0009765625, 0.0]",[-0.99990934  0.19019349  0.22473106  0.5327539 ],[1.44986394 0.65957002 0.60988618],[1.281139   0.88775022 0.42470209],21,651,180,0.5236576116655866,0,0
101,101,2024-09-20 21:34:33.880072960,TASK_BEGIN,14,0.5863804667415802,-0.0272487828873073,4.20951082853794,-1.8251018493577185,0.758910498643399,-0.0678519531506337,3.91925017060078,-0.3843746223800434,2,2024-09-20 21:34:33.743831552,1726868073.7438316,2024-09-20 21:34:33.743830857,0,"[ 1.45553627e+00  8.73471266e-01  4.52556346e-01  1.28113899e+00
  8.87750217e-01  4.24784489e-01 -1.74397277e-01  1.42789513e-02
 -2.77718573e-02  6.69931293e-04  3.20160245e-06  8.49765045e-17
  7.08947347e-19 -2.20325310e-15 -7.01599604e-05 -3.11692360e-05
  1.70913169e-04 -3.83121045e-17  1.71971046e-18 -1.10770762e-18
  7.01599604e-05  3.11692360e-05 -1.70913169e-04  9.31910105e-06
  2.16067721e-06]","[0.0009765625, 0.0009765625, -0.0009765625, 0.0]",-1.0,"[0.0009765625, 0.0009765625, -0.0009765625, 0.0]",[-0.9999189   0.1609693   0.22945476  0.53956366],[1.44986394 0.65957002 0.60988618],[1.281139   0.88775022 0.42470209],21,651,180,0.5113207824326257,0,0
102,102,2024-09-20 21:34:33.963241216,TASK_BEGIN,14,0.5883211726843472,-0.0246770909944507,4.250659743672377,-1.851115499440256,0.7234222424539726,-0.0756920376749455,3.8081426669653258,-0.3393586895550517,2,2024-09-20 21:34:33.743831552,1726868073.7438316,2024-09-20 21:34:33.743830857,0,"[ 1.45553627e+00  8.73471266e-01  4.52556346e-01  1.28113899e+00
  8.87750217e-01  4.24784489e-01 -1.74397277e-01  1.42789513e-02
 -2.77718573e-02  6.69931293e-04  3.20160245e-06  8.49765045e-17
  7.08947347e-19 -2.20325310e-15 -7.01599604e-05 -3.11692360e-05
  1.70913169e-04 -3.83121045e-17  1.71971046e-18 -1.10770762e-18
  7.01599604e-05  3.11692360e-05 -1.70913169e-04  9.31910105e-06
  2.16067721e-06]","[0.0009765625, 0.0009765625, -0.0009765625, 0.0]",-1.0,"[0.0009765625, 0.0009765625, -0.0009765625, 0.0]",[-0.9999189   0.1609693   0.22945476  0.53956366],[1.44986394 0.65957002 0.60988618],[1.281139   0.88775022 0.42470209],21,651,180,0.5113207824326257,0,0
103,103,2024-09-20 21:34:34.028082944,TASK_BEGIN,14,0.6037569480297225,-0.0246113176760103,4.273478031926877,-1.8691693038633983,0.6863166817765318,-0.0845119445726707,3.7053697544352975,-0.2883147472313696,2,2024-09-20 21:34:33.743831552,1726868073.7438316,2024-09-20 21:34:33.743830857,0,"[ 1.45553627e+00  8.73471266e-01  4.52556346e-01  1.28113899e+00
  8.87750217e-01  4.24784489e-01 -1.74397277e-01  1.42789513e-02
 -2.77718573e-02  6.69931293e-04  3.20160245e-06  8.49765045e-17
  7.08947347e-19 -2.20325310e-15 -7.01599604e-05 -3.11692360e-05
  1.70913169e-04 -3.83121045e-17  1.71971046e-18 -1.10770762e-18
  7.01599604e-05  3.11692360e-05 -1.70913169e-04  9.31910105e-06
  2.16067721e-06]","[0.0009765625, 0.0009765625, -0.0009765625, 0.0]",-1.0,"[0.0009765625, 0.0009765625, -0.0009765625, 0.0]",[-0.9999189   0.1609693   0.22945476  0.53956366],[1.44986394 0.65957002 0.60988618],[1.281139   0.88775022 0.42470209],21,651,180,0.5113207824326257,0,0
104,104,2024-09-20 21:34:34.098077184,TASK_BEGIN,14,0.632442273753114,-0.0271357138439161,4.283235765420076,-1.8795959537037956,0.6489291077150003,-0.0937866038375304,3.612790738349559,-0.2313529985156751,2,2024-09-20 21:34:33.743831552,1726868073.7438316,2024-09-20 21:34:33.743830857,0,"[ 1.45553627e+00  8.73471266e-01  4.52556346e-01  1.28113899e+00
  8.87750217e-01  4.24784489e-01 -1.74397277e-01  1.42789513e-02
 -2.77718573e-02  6.69931293e-04  3.20160245e-06  8.49765045e-17
  7.08947347e-19 -2.20325310e-15 -7.01599604e-05 -3.11692360e-05
  1.70913169e-04 -3.83121045e-17  1.71971046e-18 -1.10770762e-18
  7.01599604e-05  3.11692360e-05 -1.70913169e-04  9.31910105e-06
  2.16067721e-06]","[0.0009765625, 0.0009765625, -0.0009765625, 0.0]",-1.0,"[0.0009765625, 0.0009765625, -0.0009765625, 0.0]",[-0.9999189   0.1609693   0.22945476  0.53956366],[1.44986394 0.65957002 0.60988618],[1.281139   0.88775022 0.42470209],21,651,180,0.5113207824326257,0,0
105,105,2024-09-20 21:34:35.041498112,TASK_BEGIN,14,0.6733173551345876,-0.0322132489176746,4.285862607076477,-1.883441234242208,0.6125925971824181,-0.1030088979022236,3.5311233426188418,-0.169083988585858,2,2024-09-20 21:34:34.653322240,1726868074.6533222,2024-09-20 21:34:34.653322068,0,"[ 1.33186036e+00  9.09276667e-01  4.50445751e-01  1.28113899e+00
  8.87750217e-01  4.24784489e-01 -5.07213676e-02 -2.15264498e-02
 -2.56612615e-02  5.78442178e-04  1.12958347e-04  8.71287276e-17
 -1.09480462e-18 -2.20315718e-15  5.77808851e-03 -1.56559075e-03
  6.96983363e-05 -3.71323151e-17  1.95720691e-18  1.43243521e-18
 -5.77808851e-03  1.56559075e-03 -6.96983363e-05  3.00151073e-05
 -3.00147634e-05]","[-0.2460784912109375, 0.0676422119140625, -0.0009765625, 0.0]",-1.0,"[-0.2460784912109375, 0.0676422119140625, -0.0009765625, 0.0]",[-0.42163497 -0.54476947  0.16587506  0.7144618 ],[1.44986394 0.65957002 0.60988618],[1.281139   0.88775022 0.42470209],21,651,180,0.4182556662838889,0,0
106,106,2024-09-20 21:34:35.103502848,TASK_BEGIN,14,0.7246809086089702,-0.0397023888746189,4.287261466231135,-1.8823526660376535,0.5785352872654076,-0.1117064064406978,3.4604048547100303,-0.102695565726701,2,2024-09-20 21:34:34.709325824,1726868074.7093258,2024-09-20 21:34:34.709324998,0,"[ 1.32383589e+00  9.10455134e-01  4.50321613e-01  1.28113899e+00
  8.87750217e-01  4.24784489e-01 -4.26968921e-02 -2.27049169e-02
 -2.55371238e-02  6.14451777e-04  7.69490133e-05  8.50138474e-17
 -7.95467411e-19 -2.20241105e-15  5.79091621e-03 -6.52721618e-04
  6.80809138e-05 -3.46893964e-17 -2.32870739e-18  1.10410088e-18
 -5.79091621e-03  6.52721618e-04 -6.80809138e-05  4.43650372e-05
 -4.43648545e-05]","[-0.2460784912109375, 0.0323486328125, -0.0009765625, 0.0]",-1.0,"[-0.2460784912109375, 0.0323486328125, -0.0009765625, 0.0]",[-0.28356498 -0.5716796   0.17615394  0.6778609 ],[1.44986394 0.65957002 0.60988618],[1.281139   0.88775022 0.42470209],21,651,180,0.40967586816080503,0,0
107,107,2024-09-20 21:34:35.177736192,TASK_BEGIN,14,0.7844220685003314,-0.0493741549055555,4.292584996568867,-1.8783836404897232,0.5478333753679283,-0.1194622173161451,3.400574299283825,-0.0339459256747617,2,2024-09-20 21:34:35.383626752,1726868075.3836267,2024-09-20 21:34:35.383626023,0,"[ 1.26982417e+00  9.11106117e-01  4.48579419e-01  1.23456140e+00
  8.80249173e-01  4.25287600e-01 -3.52627763e-02 -3.08569443e-02
 -2.32918198e-02  7.33571640e-04 -8.01341854e-06  3.87887061e-03
 -2.07730874e-02  2.79699887e-01 -6.77295721e-04 -2.69625870e-03
  3.47697040e-03 -7.10806260e-03  4.09247375e-02  6.72255060e-02
 -5.79386023e-03  2.35394021e-05  4.64172180e-06  1.72455334e-06
  1.06179233e-05]","[-0.25, 0.0009765625, -0.0009765625, 0.0]",-1.0,"[-0.25, 0.0009765625, -0.0009765625, 0.0]",[-0.15639888 -0.59252965  0.11017772  0.7387045 ],[1.44986394 0.65957002 0.60988618],[1.281139   0.88775022 0.42470209],21,651,180,0.404620055302899,0,0
108,108,2024-09-20 21:34:35.245455104,TASK_BEGIN,14,0.8502531463631163,-0.0609300932965918,4.305555790746662,-1.8737311039025395,0.5213694040375404,-0.1259369336941361,3.3519160609923606,0.0349268291482811,2,2024-09-20 21:34:35.383626752,1726868075.3836267,2024-09-20 21:34:35.383626023,0,"[ 1.26982417e+00  9.11106117e-01  4.48579419e-01  1.23456140e+00
  8.80249173e-01  4.25287600e-01 -3.52627763e-02 -3.08569443e-02
 -2.32918198e-02  7.33571640e-04 -8.01341854e-06  3.87887061e-03
 -2.07730874e-02  2.79699887e-01 -6.77295721e-04 -2.69625870e-03
  3.47697040e-03 -7.10806260e-03  4.09247375e-02  6.72255060e-02
 -5.79386023e-03  2.35394021e-05  4.64172180e-06  1.72455334e-06
  1.06179233e-05]","[-0.25, 0.0009765625, -0.0009765625, 0.0]",-1.0,"[-0.25, 0.0009765625, -0.0009765625, 0.0]",[-0.15639888 -0.59252965  0.11017772  0.7387045 ],[1.44986394 0.65957002 0.60988618],[1.281139   0.88775022 0.42470209],21,651,180,0.404620055302899,0,0
109,109,2024-09-20 21:34:35.305798144,TASK_BEGIN,14,0.9198715964258768,-0.0740149337419844,4.328146870793537,-1.870480052814862,0.4997658307217919,-0.1308830874923578,3.315209338833662,0.1013498711033775,2,2024-09-20 21:34:35.383626752,1726868075.3836267,2024-09-20 21:34:35.383626023,0,"[ 1.26982417e+00  9.11106117e-01  4.48579419e-01  1.23456140e+00
  8.80249173e-01  4.25287600e-01 -3.52627763e-02 -3.08569443e-02
 -2.32918198e-02  7.33571640e-04 -8.01341854e-06  3.87887061e-03
 -2.07730874e-02  2.79699887e-01 -6.77295721e-04 -2.69625870e-03
  3.47697040e-03 -7.10806260e-03  4.09247375e-02  6.72255060e-02
 -5.79386023e-03  2.35394021e-05  4.64172180e-06  1.72455334e-06
  1.06179233e-05]","[-0.25, 0.0009765625, -0.0009765625, 0.0]",-1.0,"[-0.25, 0.0009765625, -0.0009765625, 0.0]",[-0.15639888 -0.59252965  0.11017772  0.7387045 ],[1.44986394 0.65957002 0.60988618],[1.281139   0.88775022 0.42470209],21,651,180,0.404620055302899,0,0
110,110,2024-09-20 21:34:35.368282880,TASK_BEGIN,14,0.9910267378103204,-0.0882198842468268,4.360751963340983,-1.8704286735222844,0.4833262879662514,-0.1341534004503264,3.2915849384544984,0.1626039403065366,2,2024-09-20 21:34:35.383626752,1726868075.3836267,2024-09-20 21:34:35.383626023,0,"[ 1.26982417e+00  9.11106117e-01  4.48579419e-01  1.23456140e+00
  8.80249173e-01  4.25287600e-01 -3.52627763e-02 -3.08569443e-02
 -2.32918198e-02  7.33571640e-04 -8.01341854e-06  3.87887061e-03
 -2.07730874e-02  2.79699887e-01 -6.77295721e-04 -2.69625870e-03
  3.47697040e-03 -7.10806260e-03  4.09247375e-02  6.72255060e-02
 -5.79386023e-03  2.35394021e-05  4.64172180e-06  1.72455334e-06
  1.06179233e-05]","[-0.25, 0.0009765625, -0.0009765625, 0.0]",-1.0,"[-0.25, 0.0009765625, -0.0009765625, 0.0]",[-0.15639888 -0.59252965  0.11017772  0.7387045 ],[1.44986394 0.65957002 0.60988618],[1.281139   0.88775022 0.42470209],21,651,180,0.404620055302899,0,0
111,111,2024-09-20 21:34:35.446388992,TASK_BEGIN,14,1.061539255383236,-0.1030833918931569,4.402583633147776,-1.87501268999815,0.4720362360017489,-0.1357144578532809,3.282206041359544,0.2160509817298074,2,2024-09-20 21:34:35.383626752,1726868075.3836267,2024-09-20 21:34:35.383626023,0,"[ 1.26982417e+00  9.11106117e-01  4.48579419e-01  1.23456140e+00
  8.80249173e-01  4.25287600e-01 -3.52627763e-02 -3.08569443e-02
 -2.32918198e-02  7.33571640e-04 -8.01341854e-06  3.87887061e-03
 -2.07730874e-02  2.79699887e-01 -6.77295721e-04 -2.69625870e-03
  3.47697040e-03 -7.10806260e-03  4.09247375e-02  6.72255060e-02
 -5.79386023e-03  2.35394021e-05  4.64172180e-06  1.72455334e-06
  1.06179233e-05]","[-0.25, 0.0009765625, -0.0009765625, 0.0]",-1.0,"[-0.25, 0.0009765625, -0.0009765625, 0.0]",[-0.15639888 -0.59252965  0.11017772  0.7387045 ],[1.44986394 0.65957002 0.60988618],[1.281139   0.88775022 0.42470209],21,651,180,0.404620055302899,0,0
112,112,2024-09-20 21:34:36.366269952,TASK_BEGIN,14,1.129334661140743,-0.1180999352791355,4.45200814263287,-1.88529880615401,0.4656229146001472,-0.1356668238718266,3.2878955177256017,0.2593616343192004,2,2024-09-20 21:34:36.179623168,1726868076.1796231,2024-09-20 21:34:36.179622850,0,"[ 1.26803021e+00  9.52757966e-01  4.46033330e-01  1.22982423e+00
  8.78164154e-01  4.24784001e-01 -3.82059774e-02 -7.45938118e-02
 -2.12493291e-02  2.73396298e-04  4.83424050e-04 -4.91836850e-06
  5.19328399e-06  3.15023456e-01  3.48545141e-04 -5.86490003e-03
  9.59454937e-05  2.75561098e-06 -2.90963769e-06 -2.16546180e-18
 -3.48617903e-04  5.86483112e-03 -9.56705044e-05  8.24319644e-05
 -8.24295992e-05]","[-0.01470947265625, 0.24999237060546875, -0.0009765625, 0.0]",-1.0,"[-0.01470947265625, 0.24999237060546875, -0.0009765625, 0.0]",[ 0.3458193  -0.76194173  0.37621385  0.42661738],[1.44986394 0.65957002 0.60988618],[1.281139   0.88775022 0.42470209],21,651,180,0.5189921974208355,0,0
113,113,2024-09-20 21:34:36.427885056,TASK_BEGIN,14,1.1925023219307818,-0.1327399110669973,4.506816381754882,-1.902015725358615,0.4636054510320065,-0.1342512376717068,3.3087860937191467,0.290680630319158,2,2024-09-20 21:34:36.179623168,1726868076.1796231,2024-09-20 21:34:36.179622850,0,"[ 1.26803021e+00  9.52757966e-01  4.46033330e-01  1.22982423e+00
  8.78164154e-01  4.24784001e-01 -3.82059774e-02 -7.45938118e-02
 -2.12493291e-02  2.73396298e-04  4.83424050e-04 -4.91836850e-06
  5.19328399e-06  3.15023456e-01  3.48545141e-04 -5.86490003e-03
  9.59454937e-05  2.75561098e-06 -2.90963769e-06 -2.16546180e-18
 -3.48617903e-04  5.86483112e-03 -9.56705044e-05  8.24319644e-05
 -8.24295992e-05]","[-0.01470947265625, 0.24999237060546875, -0.0009765625, 0.0]",-1.0,"[-0.01470947265625, 0.24999237060546875, -0.0009765625, 0.0]",[ 0.3458193  -0.76194173  0.37621385  0.42661738],[1.44986394 0.65957002 0.60988618],[1.281139   0.88775022 0.42470209],21,651,180,0.5189921974208355,0,0
114,114,2024-09-20 21:34:36.489893120,TASK_BEGIN,14,1.2493552594926505,-0.146475638177825,4.5645559552469015,-1.9256009409729695,0.4652756275328086,-0.1318204644486315,3.3441196692800967,0.3086917429174209,2,2024-09-20 21:34:36.179623168,1726868076.1796231,2024-09-20 21:34:36.179622850,0,"[ 1.26803021e+00  9.52757966e-01  4.46033330e-01  1.22982423e+00
  8.78164154e-01  4.24784001e-01 -3.82059774e-02 -7.45938118e-02
 -2.12493291e-02  2.73396298e-04  4.83424050e-04 -4.91836850e-06
  5.19328399e-06  3.15023456e-01  3.48545141e-04 -5.86490003e-03
  9.59454937e-05  2.75561098e-06 -2.90963769e-06 -2.16546180e-18
 -3.48617903e-04  5.86483112e-03 -9.56705044e-05  8.24319644e-05
 -8.24295992e-05]","[-0.01470947265625, 0.24999237060546875, -0.0009765625, 0.0]",-1.0,"[-0.01470947265625, 0.24999237060546875, -0.0009765625, 0.0]",[ 0.3458193  -0.76194173  0.37621385  0.42661738],[1.44986394 0.65957002 0.60988618],[1.281139   0.88775022 0.42470209],21,651,180,0.5189921974208355,0,0
115,115,2024-09-20 21:34:36.567072000,TASK_BEGIN,14,1.29847794007739,-0.1588077297321705,4.622909721640893,-1.9562349125470428,0.4696508386021386,-0.1287817085575549,3.392388015622041,0.3125943135563366,2,2024-09-20 21:34:36.179623168,1726868076.1796231,2024-09-20 21:34:36.179622850,0,"[ 1.26803021e+00  9.52757966e-01  4.46033330e-01  1.22982423e+00
  8.78164154e-01  4.24784001e-01 -3.82059774e-02 -7.45938118e-02
 -2.12493291e-02  2.73396298e-04  4.83424050e-04 -4.91836850e-06
  5.19328399e-06  3.15023456e-01  3.48545141e-04 -5.86490003e-03
  9.59454937e-05  2.75561098e-06 -2.90963769e-06 -2.16546180e-18
 -3.48617903e-04  5.86483112e-03 -9.56705044e-05  8.24319644e-05
 -8.24295992e-05]","[-0.01470947265625, 0.24999237060546875, -0.0009765625, 0.0]",-1.0,"[-0.01470947265625, 0.24999237060546875, -0.0009765625, 0.0]",[ 0.3458193  -0.76194173  0.37621385  0.42661738],[1.44986394 0.65957002 0.60988618],[1.281139   0.88775022 0.42470209],21,651,180,0.5189921974208355,0,0
116,116,2024-09-20 21:34:36.624866048,TASK_BEGIN,14,1.3387705456657246,-0.1692901639445573,4.680004946658058,-1.9938405920979665,0.4754958704956881,-0.1255320763477641,3.451836951349012,0.3020484676314515,2,2024-09-20 21:34:36.238705408,1726868076.2387054,2024-09-20 21:34:36.238704881,0,"[ 1.26801367e+00  9.56827287e-01  4.45903757e-01  1.22982418e+00
  8.78164102e-01  4.24784209e-01 -3.81894910e-02 -7.86631850e-02
 -2.11195481e-02  3.95061185e-04  3.61760982e-04 -2.83042219e-06
  2.98863052e-06  3.15023456e-01 -7.38041744e-05 -2.28673662e-03
  9.34876682e-05  1.58572565e-06 -1.67436084e-06 -6.32053232e-19
  7.37623034e-05  2.28669696e-03 -9.33298705e-05  1.49594411e-04
 -1.49593159e-04]","[0.0009765625, 0.11273956298828125, -0.0009765625, 0.0]",-1.0,"[0.0009765625, 0.11273956298828125, -0.0009765625, 0.0]",[ 0.38773385 -0.8419346   0.40315384  0.3742955 ],[1.44986394 0.65957002 0.60988618],[1.281139   0.88775022 0.42470209],21,651,180,0.4465175002094163,0,0
117,117,2024-09-20 21:34:36.707331840,TASK_BEGIN,14,1.3694898459629594,-0.1775544241770022,4.734664224913282,-2.038062815450183,0.4814314752883903,-0.1224024298149724,3.521084744497182,0.2771432688258574,2,2024-09-20 21:34:36.588852736,1726868076.5888526,2024-09-20 21:34:36.588851854,0,"[ 1.25756872e+00  9.57347108e-01  4.44710820e-01  1.22982410e+00
  8.78164034e-01  4.24784479e-01 -2.77446159e-02 -7.91830745e-02
 -1.99263412e-02  7.66408880e-04  8.42494811e-07 -1.02830789e-07
  1.08578585e-07  3.15023456e-01  6.25958566e-03 -2.62709773e-06
  6.10079304e-05  5.76068365e-08 -6.08268091e-08 -3.47214660e-18
 -6.25958718e-03  2.62565714e-06 -6.10022951e-05  7.25462147e-06
 -1.40388071e-06]","[-0.25, 0.0009765625, -0.0009765625, 0.0]",-1.0,"[-0.25, 0.0009765625, -0.0009765625, 0.0]",[ 0.45530805 -0.8898901   0.44944927  0.32627666],[1.44986394 0.65957002 0.60988618],[1.281139   0.88775022 0.42470209],21,651,180,0.4120846693434057,0,0
118,118,2024-09-20 21:34:36.769515264,TASK_BEGIN,14,1.3902668899355797,-0.1833311569020061,4.786751744619582,-2.0882704526880103,0.4860568400753056,-0.1196136464314533,3.599609203995382,0.2383950496568025,2,2024-09-20 21:34:36.588852736,1726868076.5888526,2024-09-20 21:34:36.588851854,0,"[ 1.25756872e+00  9.57347108e-01  4.44710820e-01  1.22982410e+00
  8.78164034e-01  4.24784479e-01 -2.77446159e-02 -7.91830745e-02
 -1.99263412e-02  7.66408880e-04  8.42494811e-07 -1.02830789e-07
  1.08578585e-07  3.15023456e-01  6.25958566e-03 -2.62709773e-06
  6.10079304e-05  5.76068365e-08 -6.08268091e-08 -3.47214660e-18
 -6.25958718e-03  2.62565714e-06 -6.10022951e-05  7.25462147e-06
 -1.40388071e-06]","[-0.25, 0.0009765625, -0.0009765625, 0.0]",-1.0,"[-0.25, 0.0009765625, -0.0009765625, 0.0]",[ 0.45530805 -0.8898901   0.44944927  0.32627666],[1.44986394 0.65957002 0.60988618],[1.281139   0.88775022 0.42470209],21,651,180,0.4120846693434057,0,0
119,119,2024-09-20 21:34:37.702833920,TASK_BEGIN,14,1.401091598007948,-0.1864666381690699,4.837599197610842,-2.1435983434295296,0.4880353962582207,-0.1172506187185439,3.688039562694519,0.186752277931805,2,2024-09-20 21:34:38.085463040,1726868078.085463,2024-09-20 21:34:38.085463182,0,"[ 1.22950216e+00  8.38492153e-01  4.40966179e-01  1.22802954e+00
  7.97355826e-01  4.25624410e-01 -1.47262148e-03 -4.11363271e-02
 -1.53417698e-02  1.19839031e-03 -2.78956693e-05 -6.26100513e-04
 -2.48795596e-03 -5.72460277e-03 -6.91175070e-05 -3.64134227e-03
 -1.17454995e-03 -3.31149634e-02  2.13152434e-03 -3.10484329e-04
  1.70797716e-05 -5.87752801e-03 -9.84107031e-05 -9.30152895e-05
  1.69161729e-04]","[0.0009765625, -0.25, -0.0009765625, 0.0]",-1.0,"[0.0009765625, -0.25, -0.0009765625, 0.0]",[ 0.582369   -0.2539588   0.8320733  -0.21820638],[1.44986394 0.65957002 0.60988618],[1.281139   0.88775022 0.42470209],21,651,180,0.4861971622626613,0,0
120,120,2024-09-20 21:34:37.785794048,TASK_BEGIN,14,1.4022807746368986,-0.1869316648903422,4.89019130112862,-2.2029963870878877,0.4861711510112986,-0.1152645770616784,3.788219532230329,0.1235853725583565,2,2024-09-20 21:34:38.140462848,1726868078.1404629,2024-09-20 21:34:38.140461961,0,"[ 1.22953634e+00  8.30313495e-01  4.40912078e-01  1.22800821e+00
  7.89709468e-01  4.25009594e-01 -1.52813357e-03 -4.06040269e-02
 -1.59024832e-02  1.19028151e-03 -1.33383026e-06  1.41947642e-02
 -1.26392319e-03 -5.75129418e-03  3.31508386e-05 -7.04846487e-04
  2.80843320e-03 -6.22056589e-02  1.09105520e-03  1.71878585e-03
  1.76029578e-05 -5.78461339e-03 -2.30926362e-05 -9.62000079e-05
  1.02449614e-06]","[0.0009765625, -0.25, -0.0009765625, 0.0]",-1.0,"[0.0009765625, -0.25, -0.0009765625, 0.0]",[ 0.6593961  -0.12615429  0.88462573 -0.29743767],[1.44986394 0.65957002 0.60988618],[1.281139   0.88775022 0.42470209],21,651,180,0.48710249719931314,0,0
121,121,2024-09-20 21:34:37.853513984,TASK_BEGIN,14,1.394446327786739,-0.184820052819554,4.94887431989463,-2.265262427164902,0.4795263429960205,-0.1135099488784867,3.902955160355549,0.0506434222043229,2,2024-09-20 21:34:38.140462848,1726868078.1404629,2024-09-20 21:34:38.140461961,0,"[ 1.22953634e+00  8.30313495e-01  4.40912078e-01  1.22800821e+00
  7.89709468e-01  4.25009594e-01 -1.52813357e-03 -4.06040269e-02
 -1.59024832e-02  1.19028151e-03 -1.33383026e-06  1.41947642e-02
 -1.26392319e-03 -5.75129418e-03  3.31508386e-05 -7.04846487e-04
  2.80843320e-03 -6.22056589e-02  1.09105520e-03  1.71878585e-03
  1.76029578e-05 -5.78461339e-03 -2.30926362e-05 -9.62000079e-05
  1.02449614e-06]","[0.0009765625, -0.25, -0.0009765625, 0.0]",-1.0,"[0.0009765625, -0.25, -0.0009765625, 0.0]",[ 0.6593961  -0.12615429  0.88462573 -0.29743767],[1.44986394 0.65957002 0.60988618],[1.281139   0.88775022 0.42470209],21,651,180,0.48710249719931314,0,0
122,122,2024-09-20 21:34:37.921022976,TASK_BEGIN,14,1.3784595419677366,-0.1803358088195005,5.018781699506692,-2.329094026202834,0.4675852836921469,-0.1118072457168293,4.035429396156118,-0.0300372460852974,2,2024-09-20 21:34:38.254866432,1726868078.2548664,2024-09-20 21:34:38.254866014,0,"[ 1.22960003e+00  8.13911885e-01  4.40765412e-01  1.22830946e+00
  7.72311571e-01  4.25558325e-01 -1.29057485e-03 -4.16003140e-02
 -1.52070865e-02  1.17649022e-03  6.03018552e-06 -1.92641785e-03
 -1.63988467e-03 -2.27056074e-03 -1.56031499e-04 -4.18043082e-03
 -1.98981899e-03 -3.78663035e-02  6.35070541e-04 -6.39606119e-03
  1.63760393e-05 -5.91942369e-03 -1.33889719e-04 -9.06478097e-05
  1.47051393e-04]","[0.0009765625, -0.25, -0.0009765625, 0.0]",-1.0,"[0.0009765625, -0.25, -0.0009765625, 0.0]",[ 0.58237857 -0.24248701  0.8753795  -0.25379452],[1.44986394 0.65957002 0.60988618],[1.281139   0.88775022 0.42470209],21,651,180,0.532524682995146,0,0
123,123,2024-09-20 21:34:37.983947008,TASK_BEGIN,14,1.355394051446395,-0.1737721337861038,5.105307111391118,-2.393192032252885,0.4504095031496633,-0.1100104645975672,4.188418221616355,-0.1162643946877924,2,2024-09-20 21:34:38.254866432,1726868078.2548664,2024-09-20 21:34:38.254866014,0,"[ 1.22960003e+00  8.13911885e-01  4.40765412e-01  1.22830946e+00
  7.72311571e-01  4.25558325e-01 -1.29057485e-03 -4.16003140e-02
 -1.52070865e-02  1.17649022e-03  6.03018552e-06 -1.92641785e-03
 -1.63988467e-03 -2.27056074e-03 -1.56031499e-04 -4.18043082e-03
 -1.98981899e-03 -3.78663035e-02  6.35070541e-04 -6.39606119e-03
  1.63760393e-05 -5.91942369e-03 -1.33889719e-04 -9.06478097e-05
  1.47051393e-04]","[0.0009765625, -0.25, -0.0009765625, 0.0]",-1.0,"[0.0009765625, -0.25, -0.0009765625, 0.0]",[ 0.58237857 -0.24248701  0.8753795  -0.25379452],[1.44986394 0.65957002 0.60988618],[1.281139   0.88775022 0.42470209],21,651,180,0.532524682995146,0,0
124,124,2024-09-20 21:34:38.045979904,TASK_BEGIN,14,1.3264388948807473,-0.1654864812238456,5.213606536632732,-2.456368572035522,0.428705800698813,-0.1080560766527293,4.363570806117097,-0.2058217352986816,2,2024-09-20 21:34:38.424590080,1726868078.42459,2024-09-20 21:34:38.424589891,0,"[ 1.22968503e+00  7.89304854e-01  4.40542265e-01  1.22847002e+00
  7.47611437e-01  4.25445908e-01 -1.21500654e-03 -4.16934167e-02
 -1.50963572e-02  1.15602430e-03 -2.88440128e-06 -3.86397160e-03
 -5.84084042e-04 -6.12079750e-04 -7.36640106e-05 -4.50053246e-03
 -2.69037551e-03 -3.67630294e-02  2.82632824e-04 -3.53905063e-03
  1.68982328e-05 -5.91783172e-03 -1.32384941e-04 -9.09522454e-05
  2.06811207e-04]","[0.0009765625, -0.25, -0.0009765625, 0.0]",-1.0,"[0.0009765625, -0.25, -0.0009765625, 0.0]",[ 0.6290355  -0.09905341  0.8925564  -0.3567731 ],[1.44986394 0.65957002 0.60988618],[1.281139   0.88775022 0.42470209],21,651,180,0.5483202547668238,0,0
125,125,2024-09-20 21:34:38.123243264,TASK_BEGIN,14,1.292802942099578,-0.1558741718721347,5.347883787981737,-2.517579600808421,0.4037562946753819,-0.1059789103745677,4.560999717168812,-0.2965586988198362,2,2024-09-20 21:34:38.424590080,1726868078.42459,2024-09-20 21:34:38.424589891,0,"[ 1.22968503e+00  7.89304854e-01  4.40542265e-01  1.22847002e+00
  7.47611437e-01  4.25445908e-01 -1.21500654e-03 -4.16934167e-02
 -1.50963572e-02  1.15602430e-03 -2.88440128e-06 -3.86397160e-03
 -5.84084042e-04 -6.12079750e-04 -7.36640106e-05 -4.50053246e-03
 -2.69037551e-03 -3.67630294e-02  2.82632824e-04 -3.53905063e-03
  1.68982328e-05 -5.91783172e-03 -1.32384941e-04 -9.09522454e-05
