,Unnamed: 0,time,MARKER,pid,L_O_DSI,L_D_DSI,L_O_DSphi,L_D_DSphi,R_O_DSI,R_D_DSI,R_O_DSphi,R_D_DSphi,trial_id,dateTimestamps,floatTimestamps,timestamps,episode,actions,rewards,discounted_rewards,chosen_actions,optimal_actions,desired_goal,states,continuous_optimal,binary_optimal,discrete_optimal
1,1,2024-09-23 20:43:09.154323968,TASK_BEGIN,15,-0.4211745286500316,0.0678059650577088,-3.293035481121683,-0.0578696131198183,0.1362877694375258,0.0258646869819253,1.263608546428287,-2.6930947548081443,1,2024-09-23 20:43:02.256576172,1727124182.2565765,2024-09-23 20:43:02.256576512,0,[-0.07258104 -0.275365    0.34735537 -0.12264801],-0.0,-4.803465209301,[-0.07258104 -0.275365    0.34735537 -0.12264801],[-0.07258104 -0.275365    0.34735537 -0.12264801],[1.28841016 0.75460077 0.49105753],"[ 1.29221883e+00  7.73255953e-01  4.87423986e-01  1.28463429e+00
  7.74889854e-01  4.71443595e-01 -7.58453879e-03  1.63390189e-03
 -1.59803910e-02  2.56704510e-02  2.13657662e-02 -6.40594773e-04
  5.17752288e-03  1.95547526e-02  9.85386048e-05 -1.76152100e-03
 -6.40123564e-05 -2.13234742e-03 -1.55637772e-04 -4.56314569e-03
 -2.28969927e-03 -5.32114420e-03  6.94049175e-03 -1.25365477e-03
  3.26907815e-03]",0.695024847984314,0,0
2,2,2024-09-23 20:43:09.223891200,TASK_BEGIN,15,-0.4963697007961434,0.0656359789333831,-4.114553645215172,0.1014770172353567,0.2733718745947316,-0.0378271119431776,2.3469074157479803,-2.5641671346645305,1,2024-09-23 20:43:02.256576172,1727124182.2565765,2024-09-23 20:43:02.256576512,0,[-0.07258104 -0.275365    0.34735537 -0.12264801],-0.0,-4.803465209301,[-0.07258104 -0.275365    0.34735537 -0.12264801],[-0.07258104 -0.275365    0.34735537 -0.12264801],[1.28841016 0.75460077 0.49105753],"[ 1.29221883e+00  7.73255953e-01  4.87423986e-01  1.28463429e+00
  7.74889854e-01  4.71443595e-01 -7.58453879e-03  1.63390189e-03
 -1.59803910e-02  2.56704510e-02  2.13657662e-02 -6.40594773e-04
  5.17752288e-03  1.95547526e-02  9.85386048e-05 -1.76152100e-03
 -6.40123564e-05 -2.13234742e-03 -1.55637772e-04 -4.56314569e-03
 -2.28969927e-03 -5.32114420e-03  6.94049175e-03 -1.25365477e-03
  3.26907815e-03]",0.695024847984314,0,0
3,3,2024-09-23 20:43:09.291673856,TASK_BEGIN,15,-0.5680979324606159,0.0634589102250808,-4.898961003050554,0.2512093091917781,0.4034615074941132,-0.0972506277708159,3.379864830440516,-2.4437533202000106,1,2024-09-23 20:43:02.687331055,1727124182.687331,2024-09-23 20:43:02.687331072,0,[-0.01652187 -0.04026195  0.08722635 -0.1425313 ],-0.0,-4.6141895142283555,[-0.01652187 -0.04026195  0.08722635 -0.1425313 ],[-0.01652187 -0.04026195  0.08722635 -0.1425313 ],[1.28841016 0.75460077 0.49105753],"[ 1.28411719e+00  7.66304955e-01  5.06388247e-01  1.27666182e+00
  7.64514774e-01  4.90276326e-01 -7.45536830e-03 -1.79018065e-03
 -1.61119214e-02  2.23834026e-02  2.57313716e-02 -6.31936558e-05
  4.52699775e-03  1.58104565e-02  2.90844258e-05  6.59823364e-04
 -4.51761147e-05 -2.17977200e-03 -1.58895673e-04 -1.10138438e-04
 -3.52160722e-04 -9.40199976e-04  1.94096965e-03  7.38819747e-04
 -7.39463215e-04]",0.658203661441803,0,0
4,4,2024-09-23 20:43:09.359337984,TASK_BEGIN,15,-0.6345578524054183,0.0612006304741428,-5.630601830304015,0.3876462918977586,0.5235446008247086,-0.1508381150437452,4.342787737940512,-2.333815220130191,1,2024-09-23 20:43:02.687331055,1727124182.687331,2024-09-23 20:43:02.687331072,0,[-0.01652187 -0.04026195  0.08722635 -0.1425313 ],-0.0,-4.6141895142283555,[-0.01652187 -0.04026195  0.08722635 -0.1425313 ],[-0.01652187 -0.04026195  0.08722635 -0.1425313 ],[1.28841016 0.75460077 0.49105753],"[ 1.28411719e+00  7.66304955e-01  5.06388247e-01  1.27666182e+00
  7.64514774e-01  4.90276326e-01 -7.45536830e-03 -1.79018065e-03
 -1.61119214e-02  2.23834026e-02  2.57313716e-02 -6.31936558e-05
  4.52699775e-03  1.58104565e-02  2.90844258e-05  6.59823364e-04
 -4.51761147e-05 -2.17977200e-03 -1.58895673e-04 -1.10138438e-04
 -3.52160722e-04 -9.40199976e-04  1.94096965e-03  7.38819747e-04
 -7.39463215e-04]",0.658203661441803,0,0
5,5,2024-09-23 20:43:09.417807104,TASK_BEGIN,15,-0.6943510516315222,0.0587459631415219,-6.2979003345640585,0.5078198035434411,0.6306289298999326,-0.1973477391070254,5.2221546022432594,-2.235921462949844,1,2024-09-23 20:43:02.687331055,1727124182.687331,2024-09-23 20:43:02.687331072,0,[-0.01652187 -0.04026195  0.08722635 -0.1425313 ],-0.0,-4.6141895142283555,[-0.01652187 -0.04026195  0.08722635 -0.1425313 ],[-0.01652187 -0.04026195  0.08722635 -0.1425313 ],[1.28841016 0.75460077 0.49105753],"[ 1.28411719e+00  7.66304955e-01  5.06388247e-01  1.27666182e+00
  7.64514774e-01  4.90276326e-01 -7.45536830e-03 -1.79018065e-03
 -1.61119214e-02  2.23834026e-02  2.57313716e-02 -6.31936558e-05
  4.52699775e-03  1.58104565e-02  2.90844258e-05  6.59823364e-04
 -4.51761147e-05 -2.17977200e-03 -1.58895673e-04 -1.10138438e-04
 -3.52160722e-04 -9.40199976e-04  1.94096965e-03  7.38819747e-04
 -7.39463215e-04]",0.658203661441803,0,0
6,6,2024-09-23 20:43:09.479738112,TASK_BEGIN,15,-0.7465340325736356,0.0559608596258575,-6.893185999589966,0.6095017979624799,0.7218194863015263,-0.2358686276591369,6.01051251568997,-2.151505556743846,1,2024-09-23 20:43:02.687331055,1727124182.687331,2024-09-23 20:43:02.687331072,0,[-0.01652187 -0.04026195  0.08722635 -0.1425313 ],-0.0,-4.6141895142283555,[-0.01652187 -0.04026195  0.08722635 -0.1425313 ],[-0.01652187 -0.04026195  0.08722635 -0.1425313 ],[1.28841016 0.75460077 0.49105753],"[ 1.28411719e+00  7.66304955e-01  5.06388247e-01  1.27666182e+00
  7.64514774e-01  4.90276326e-01 -7.45536830e-03 -1.79018065e-03
 -1.61119214e-02  2.23834026e-02  2.57313716e-02 -6.31936558e-05
  4.52699775e-03  1.58104565e-02  2.90844258e-05  6.59823364e-04
 -4.51761147e-05 -2.17977200e-03 -1.58895673e-04 -1.10138438e-04
 -3.52160722e-04 -9.40199976e-04  1.94096965e-03  7.38819747e-04
 -7.39463215e-04]",0.658203661441803,0,0
7,7,2024-09-23 20:43:09.562196992,TASK_BEGIN,15,-0.7905871716726811,0.0527104999858408,-7.411893448163043,0.6911325757428485,0.7944896309136361,-0.2658337659844666,6.705788535606793,-2.0822016065722133,1,2024-09-23 20:43:02.687331055,1727124182.687331,2024-09-23 20:43:02.687331072,0,[-0.01652187 -0.04026195  0.08722635 -0.1425313 ],-0.0,-4.6141895142283555,[-0.01652187 -0.04026195  0.08722635 -0.1425313 ],[-0.01652187 -0.04026195  0.08722635 -0.1425313 ],[1.28841016 0.75460077 0.49105753],"[ 1.28411719e+00  7.66304955e-01  5.06388247e-01  1.27666182e+00
  7.64514774e-01  4.90276326e-01 -7.45536830e-03 -1.79018065e-03
 -1.61119214e-02  2.23834026e-02  2.57313716e-02 -6.31936558e-05
  4.52699775e-03  1.58104565e-02  2.90844258e-05  6.59823364e-04
 -4.51761147e-05 -2.17977200e-03 -1.58895673e-04 -1.10138438e-04
 -3.52160722e-04 -9.40199976e-04  1.94096965e-03  7.38819747e-04
 -7.39463215e-04]",0.658203661441803,0,0
8,15,2024-09-23 20:43:11.831233024,TASK_BEGIN,15,-0.9168404922691556,-0.001912795304158,-8.794701876005467,0.6688135983502057,0.633556982833177,-0.2447622563921287,9.777545249980394,-2.248560822863701,1,2024-09-23 20:43:05.239620850,1727124185.2396214,2024-09-23 20:43:05.239621376,1,[ 0.11930241  0.5544664  -0.9806173   0.67784667],-1.0,-3.9403989999999998,[ 0.11930241  0.5544664  -0.9806173   0.67784667],[ 0.11930241  0.5544664  -0.9806173   0.67784667],[1.44624489 0.60012145 0.42469975],"[ 1.34301152e+00  8.65638422e-01  4.52722653e-01  1.34939300e+00
  8.84890551e-01  4.24322278e-01  6.38148469e-03  1.92521286e-02
 -2.84003755e-02  5.00435662e-02  5.00439669e-02  8.08524306e-04
 -2.63278363e-03  1.44668796e-02 -3.50364183e-03 -1.39630695e-02
  2.40734016e-02  1.70379244e-02 -9.77211655e-05  1.66443696e-02
  3.18444124e-03  1.18509680e-02 -2.38607932e-02  3.67266260e-06
  2.04888890e-06]",1.6064237356185913,0,0
9,16,2024-09-23 20:43:11.899032320,TASK_BEGIN,15,-0.9235329438868156,-0.0123225024636571,-8.675702451948117,0.6178973738569384,0.5488381336801237,-0.2259851027736796,10.014843314067203,-2.352412823803182,1,2024-09-23 20:43:05.239620850,1727124185.2396214,2024-09-23 20:43:05.239621376,1,[ 0.11930241  0.5544664  -0.9806173   0.67784667],-1.0,-3.9403989999999998,[ 0.11930241  0.5544664  -0.9806173   0.67784667],[ 0.11930241  0.5544664  -0.9806173   0.67784667],[1.44624489 0.60012145 0.42469975],"[ 1.34301152e+00  8.65638422e-01  4.52722653e-01  1.34939300e+00
  8.84890551e-01  4.24322278e-01  6.38148469e-03  1.92521286e-02
 -2.84003755e-02  5.00435662e-02  5.00439669e-02  8.08524306e-04
 -2.63278363e-03  1.44668796e-02 -3.50364183e-03 -1.39630695e-02
  2.40734016e-02  1.70379244e-02 -9.77211655e-05  1.66443696e-02
  3.18444124e-03  1.18509680e-02 -2.38607932e-02  3.67266260e-06
  2.04888890e-06]",1.6064237356185913,0,0
10,17,2024-09-23 20:43:11.966770944,TASK_BEGIN,15,-0.9320955137413904,-0.0230802564665185,-8.516118887152615,0.5671267743051174,0.4625251611655673,-0.2078935113608633,10.248735132947488,-2.464435877727759,1,2024-09-23 20:43:05.239620850,1727124185.2396214,2024-09-23 20:43:05.239621376,1,[ 0.11930241  0.5544664  -0.9806173   0.67784667],-1.0,-3.9403989999999998,[ 0.11930241  0.5544664  -0.9806173   0.67784667],[ 0.11930241  0.5544664  -0.9806173   0.67784667],[1.44624489 0.60012145 0.42469975],"[ 1.34301152e+00  8.65638422e-01  4.52722653e-01  1.34939300e+00
  8.84890551e-01  4.24322278e-01  6.38148469e-03  1.92521286e-02
 -2.84003755e-02  5.00435662e-02  5.00439669e-02  8.08524306e-04
 -2.63278363e-03  1.44668796e-02 -3.50364183e-03 -1.39630695e-02
  2.40734016e-02  1.70379244e-02 -9.77211655e-05  1.66443696e-02
  3.18444124e-03  1.18509680e-02 -2.38607932e-02  3.67266260e-06
  2.04888890e-06]",1.6064237356185913,0,0
11,18,2024-09-23 20:43:12.030158080,TASK_BEGIN,15,-0.942741491857839,-0.03391717918389,-8.326590867480801,0.5189214472997835,0.3791009238922284,-0.1914075421442455,10.481409802639458,-2.5794054959558697,1,2024-09-23 20:43:05.239620850,1727124185.2396214,2024-09-23 20:43:05.239621376,1,[ 0.11930241  0.5544664  -0.9806173   0.67784667],-1.0,-3.9403989999999998,[ 0.11930241  0.5544664  -0.9806173   0.67784667],[ 0.11930241  0.5544664  -0.9806173   0.67784667],[1.44624489 0.60012145 0.42469975],"[ 1.34301152e+00  8.65638422e-01  4.52722653e-01  1.34939300e+00
  8.84890551e-01  4.24322278e-01  6.38148469e-03  1.92521286e-02
 -2.84003755e-02  5.00435662e-02  5.00439669e-02  8.08524306e-04
 -2.63278363e-03  1.44668796e-02 -3.50364183e-03 -1.39630695e-02
  2.40734016e-02  1.70379244e-02 -9.77211655e-05  1.66443696e-02
  3.18444124e-03  1.18509680e-02 -2.38607932e-02  3.67266260e-06
  2.04888890e-06]",1.6064237356185913,0,0
12,19,2024-09-23 20:43:12.092208128,TASK_BEGIN,15,-0.955119445007492,-0.0445476668808161,-8.118206180068157,0.4750708304690758,0.3026760023991482,-0.1772024006077829,10.7130642975894,-2.691967292555406,1,2024-09-23 20:43:05.239620850,1727124185.2396214,2024-09-23 20:43:05.239621376,1,[ 0.11930241  0.5544664  -0.9806173   0.67784667],-1.0,-3.9403989999999998,[ 0.11930241  0.5544664  -0.9806173   0.67784667],[ 0.11930241  0.5544664  -0.9806173   0.67784667],[1.44624489 0.60012145 0.42469975],"[ 1.34301152e+00  8.65638422e-01  4.52722653e-01  1.34939300e+00
  8.84890551e-01  4.24322278e-01  6.38148469e-03  1.92521286e-02
 -2.84003755e-02  5.00435662e-02  5.00439669e-02  8.08524306e-04
 -2.63278363e-03  1.44668796e-02 -3.50364183e-03 -1.39630695e-02
  2.40734016e-02  1.70379244e-02 -9.77211655e-05  1.66443696e-02
  3.18444124e-03  1.18509680e-02 -2.38607932e-02  3.67266260e-06
  2.04888890e-06]",1.6064237356185913,0,0
13,20,2024-09-23 20:43:12.169678080,TASK_BEGIN,15,-0.9683958994511288,-0.0547022985067214,-7.901907813368478,0.4367382861602141,0.236623325510432,-0.165713025780675,10.942729465379408,-2.7972445797008354,1,2024-09-23 20:43:05.239620850,1727124185.2396214,2024-09-23 20:43:05.239621376,1,[ 0.11930241  0.5544664  -0.9806173   0.67784667],-1.0,-3.9403989999999998,[ 0.11930241  0.5544664  -0.9806173   0.67784667],[ 0.11930241  0.5544664  -0.9806173   0.67784667],[1.44624489 0.60012145 0.42469975],"[ 1.34301152e+00  8.65638422e-01  4.52722653e-01  1.34939300e+00
  8.84890551e-01  4.24322278e-01  6.38148469e-03  1.92521286e-02
 -2.84003755e-02  5.00435662e-02  5.00439669e-02  8.08524306e-04
 -2.63278363e-03  1.44668796e-02 -3.50364183e-03 -1.39630695e-02
  2.40734016e-02  1.70379244e-02 -9.77211655e-05  1.66443696e-02
  3.18444124e-03  1.18509680e-02 -2.38607932e-02  3.67266260e-06
  2.04888890e-06]",1.6064237356185913,0,0
14,21,2024-09-23 20:43:12.231484928,TASK_BEGIN,15,-0.9814442891062514,-0.064152813459742,-7.687921594275659,0.404500089730749,0.1832438018818819,-0.1571488970853754,11.16894719292757,-2.891460918166844,1,2024-09-23 20:43:05.239620850,1727124185.2396214,2024-09-23 20:43:05.239621376,1,[ 0.11930241  0.5544664  -0.9806173   0.67784667],-1.0,-3.9403989999999998,[ 0.11930241  0.5544664  -0.9806173   0.67784667],[ 0.11930241  0.5544664  -0.9806173   0.67784667],[1.44624489 0.60012145 0.42469975],"[ 1.34301152e+00  8.65638422e-01  4.52722653e-01  1.34939300e+00
  8.84890551e-01  4.24322278e-01  6.38148469e-03  1.92521286e-02
 -2.84003755e-02  5.00435662e-02  5.00439669e-02  8.08524306e-04
 -2.63278363e-03  1.44668796e-02 -3.50364183e-03 -1.39630695e-02
  2.40734016e-02  1.70379244e-02 -9.77211655e-05  1.66443696e-02
  3.18444124e-03  1.18509680e-02 -2.38607932e-02  3.67266260e-06
  2.04888890e-06]",1.6064237356185913,0,0
15,22,2024-09-23 20:43:13.180334080,TASK_BEGIN,15,-0.9930684572162138,-0.0727157894304498,-7.485110085351235,0.3783742778863038,0.1435920050511972,-0.1515076828802034,11.390279134192962,-2.9723815772053297,1,2024-09-23 20:43:06.303371826,1727124186.3033724,2024-09-23 20:43:06.303372288,1,[-0.02283419 -0.01683355 -0.00953842  0.01569495],-0.0,-9.185019723102169,[-0.02283419 -0.01683355 -0.00953842  0.01569495],[-0.02283419 -0.01683355 -0.00953842  0.01569495],[1.44624489 0.60012145 0.42469975],"[ 1.42603337e+00  6.29135075e-01  4.36565238e-01  1.44872356e+00
  6.33333781e-01  4.25016994e-01  2.26901907e-02  4.19870566e-03
 -1.15482435e-02  3.20584882e-02  2.10571939e-02 -2.17719732e-03
  1.07430346e-03 -4.64935014e-02  2.01584736e-03  8.79108601e-03
 -2.34951144e-03  2.37038329e-02  1.33523824e-03 -6.81957051e-02
 -7.45629301e-04  7.22112680e-05 -2.63107001e-04 -2.93860399e-03
 -4.18086544e-03]",0.48968419432640076,0,0
16,23,2024-09-23 20:43:13.248169984,TASK_BEGIN,15,-1.0021943016488324,-0.0802350748457234,-7.300267335110621,0.3578490024933284,0.1175137487178834,-0.1485911297587568,11.60576303200548,-3.0394750037740823,1,2024-09-23 20:43:06.303371826,1727124186.3033724,2024-09-23 20:43:06.303372288,1,[-0.02283419 -0.01683355 -0.00953842  0.01569495],-0.0,-9.185019723102169,[-0.02283419 -0.01683355 -0.00953842  0.01569495],[-0.02283419 -0.01683355 -0.00953842  0.01569495],[1.44624489 0.60012145 0.42469975],"[ 1.42603337e+00  6.29135075e-01  4.36565238e-01  1.44872356e+00
  6.33333781e-01  4.25016994e-01  2.26901907e-02  4.19870566e-03
 -1.15482435e-02  3.20584882e-02  2.10571939e-02 -2.17719732e-03
  1.07430346e-03 -4.64935014e-02  2.01584736e-03  8.79108601e-03
 -2.34951144e-03  2.37038329e-02  1.33523824e-03 -6.81957051e-02
 -7.45629301e-04  7.22112680e-05 -2.63107001e-04 -2.93860399e-03
 -4.18086544e-03]",0.48968419432640076,0,0
17,24,2024-09-23 20:43:13.315944704,TASK_BEGIN,15,-1.007991186450978,-0.0865581244724565,-7.137597684513794,0.3419626481329739,0.1038821152559528,-0.1480426958521458,11.815237030344113,-3.093808858576082,1,2024-09-23 20:43:06.516473145,1727124186.5164738,2024-09-23 20:43:06.516473856,1,[ 0.07603877  0.01682278 -0.08604877 -0.03382207],-0.0,-9.002237830612435,[ 0.07603877  0.01682278 -0.08604877 -0.03382207],[ 0.07603877  0.01682278 -0.08604877 -0.03382207],[1.44624489 0.60012145 0.42469975],"[ 1.42533972e+00  6.25740235e-01  4.31299575e-01  1.44884887e+00
  6.34469329e-01  4.24831379e-01  2.35091461e-02  8.72909445e-03
 -6.46819520e-03  3.67417125e-02  2.55406505e-02  1.87912794e-03
 -1.29832976e-03 -4.23906832e-02 -2.24052096e-03 -7.52916921e-04
  2.08873921e-03 -1.02830803e-03  7.06815305e-04  2.88170911e-05
  2.25802032e-03  7.77848944e-04 -2.11471058e-03 -7.01633321e-03
 -3.95289798e-03]",0.2766861617565155,0,0
18,25,2024-09-23 20:43:13.383728896,TASK_BEGIN,15,-1.0099192185602412,-0.0915262844656935,-6.998668872425495,0.3294628878142154,0.1009928929474236,-0.1494192970724178,12.019356994110256,-3.137780197058555,1,2024-09-23 20:43:06.516473145,1727124186.5164738,2024-09-23 20:43:06.516473856,1,[ 0.07603877  0.01682278 -0.08604877 -0.03382207],-0.0,-9.002237830612435,[ 0.07603877  0.01682278 -0.08604877 -0.03382207],[ 0.07603877  0.01682278 -0.08604877 -0.03382207],[1.44624489 0.60012145 0.42469975],"[ 1.42533972e+00  6.25740235e-01  4.31299575e-01  1.44884887e+00
  6.34469329e-01  4.24831379e-01  2.35091461e-02  8.72909445e-03
 -6.46819520e-03  3.67417125e-02  2.55406505e-02  1.87912794e-03
 -1.29832976e-03 -4.23906832e-02 -2.24052096e-03 -7.52916921e-04
  2.08873921e-03 -1.02830803e-03  7.06815305e-04  2.88170911e-05
  2.25802032e-03  7.77848944e-04 -2.11471058e-03 -7.01633321e-03
 -3.95289798e-03]",0.2766861617565155,0,0
19,26,2024-09-23 20:43:13.438952960,TASK_BEGIN,15,-1.0077285918247003,-0.0949907364000403,-6.882873613699162,0.3190278857163424,0.1070368984768629,-0.1522820008903578,12.21925984959718,-3.174772973580013,1,2024-09-23 20:43:06.516473145,1727124186.5164738,2024-09-23 20:43:06.516473856,1,[ 0.07603877  0.01682278 -0.08604877 -0.03382207],-0.0,-9.002237830612435,[ 0.07603877  0.01682278 -0.08604877 -0.03382207],[ 0.07603877  0.01682278 -0.08604877 -0.03382207],[1.44624489 0.60012145 0.42469975],"[ 1.42533972e+00  6.25740235e-01  4.31299575e-01  1.44884887e+00
  6.34469329e-01  4.24831379e-01  2.35091461e-02  8.72909445e-03
 -6.46819520e-03  3.67417125e-02  2.55406505e-02  1.87912794e-03
 -1.29832976e-03 -4.23906832e-02 -2.24052096e-03 -7.52916921e-04
  2.08873921e-03 -1.02830803e-03  7.06815305e-04  2.88170911e-05
  2.25802032e-03  7.77848944e-04 -2.11471058e-03 -7.01633321e-03
 -3.95289798e-03]",0.2766861617565155,0,0
20,27,2024-09-23 20:43:13.518783232,TASK_BEGIN,15,-1.0014438924977922,-0.0968473027664599,-6.788136294275844,0.3094973963435852,0.1205261971136679,-0.1562724509651869,12.415956080402358,-3.20874512923078,1,2024-09-23 20:43:06.943072021,1727124186.943073,2024-09-23 20:43:06.943073024,1,[-0.01197067  0.01783819 -0.07825517 -0.00225857],-0.0,-8.647513741157361,[-0.01197067  0.01783819 -0.07825517 -0.00225857],[-0.01197067  0.01783819 -0.07825517 -0.00225857],[1.44624489 0.60012145 0.42469975],"[ 1.42254493e+00  6.27664119e-01  4.21061918e-01  1.44880632e+00
  6.32843630e-01  4.24811095e-01  2.62613834e-02  5.17951038e-03
  3.74917681e-03  3.19287530e-02  2.38494379e-02 -7.02925225e-06
 -1.32115618e-04 -2.07370352e-02  2.61805105e-04 -4.09797754e-04
  1.88938856e-03  3.85534351e-06  7.37332163e-05  3.33668605e-08
 -2.59959465e-04  4.09697818e-04 -1.90433006e-03 -1.08970300e-03
 -9.85469689e-04]",0.2351502925157547,0,0
21,28,2024-09-23 20:43:13.575577856,TASK_BEGIN,15,-0.9913384781179462,-0.0970680240901268,-6.711588819219996,0.3000360174269677,0.1405691137374295,-0.1611504435616327,12.609632885675316,-3.2437222299079984,1,2024-09-23 20:43:06.943072021,1727124186.943073,2024-09-23 20:43:06.943073024,1,[-0.01197067  0.01783819 -0.07825517 -0.00225857],-0.0,-8.647513741157361,[-0.01197067  0.01783819 -0.07825517 -0.00225857],[-0.01197067  0.01783819 -0.07825517 -0.00225857],[1.44624489 0.60012145 0.42469975],"[ 1.42254493e+00  6.27664119e-01  4.21061918e-01  1.44880632e+00
  6.32843630e-01  4.24811095e-01  2.62613834e-02  5.17951038e-03
  3.74917681e-03  3.19287530e-02  2.38494379e-02 -7.02925225e-06
 -1.32115618e-04 -2.07370352e-02  2.61805105e-04 -4.09797754e-04
  1.88938856e-03  3.85534351e-06  7.37332163e-05  3.33668605e-08
 -2.59959465e-04  4.09697818e-04 -1.90433006e-03 -1.08970300e-03
 -9.85469689e-04]",0.2351502925157547,0,0
22,34,2024-09-23 20:43:14.865377024,TASK_BEGIN,15,-0.8756301772240889,-0.073090665373277,-6.505732494659039,0.2364942544306394,0.4095329757063452,-0.2059264275555643,13.505541360554364,-3.597094614233705,1,2024-09-23 20:43:08.665471191,1727124188.6654713,2024-09-23 20:43:08.665471232,2,[-0.99974096 -0.01036484 -0.38106003  0.07584526],-1.0,-1.0,[-0.99974096 -0.01036484 -0.38106003  0.07584526],[-0.99974096 -0.01036484 -0.38106003  0.07584526],[1.40295867 0.68223186 0.42469975],"[ 1.31168750e+00  7.48788096e-01  5.23255310e-01  1.19745402e+00
  7.29842940e-01  4.24737381e-01 -1.14233477e-01 -1.89451555e-02
 -9.85179285e-02  1.54489860e-02  1.54268707e-02 -5.03884423e-08
  7.75206804e-08 -2.38042049e-16  2.65125406e-02  2.71951258e-04
  9.91583423e-03  2.85323085e-08 -4.38958592e-08 -7.50563812e-19
 -2.65125417e-02 -2.71951971e-04 -9.88916867e-03  2.67009395e-02
  2.66912455e-02]",0.9641293287277222,0,0
23,35,2024-09-23 20:43:14.936294144,TASK_BEGIN,15,-0.8498890737706805,-0.0678965092070631,-6.504101763105399,0.2258172738830101,0.4805170031683684,-0.215415612723354,13.543219556219109,-3.6770237180363057,1,2024-09-23 20:43:08.665471191,1727124188.6654713,2024-09-23 20:43:08.665471232,2,[-0.99974096 -0.01036484 -0.38106003  0.07584526],-1.0,-1.0,[-0.99974096 -0.01036484 -0.38106003  0.07584526],[-0.99974096 -0.01036484 -0.38106003  0.07584526],[1.40295867 0.68223186 0.42469975],"[ 1.31168750e+00  7.48788096e-01  5.23255310e-01  1.19745402e+00
  7.29842940e-01  4.24737381e-01 -1.14233477e-01 -1.89451555e-02
 -9.85179285e-02  1.54489860e-02  1.54268707e-02 -5.03884423e-08
  7.75206804e-08 -2.38042049e-16  2.65125406e-02  2.71951258e-04
  9.91583423e-03  2.85323085e-08 -4.38958592e-08 -7.50563812e-19
 -2.65125417e-02 -2.71951971e-04 -9.88916867e-03  2.67009395e-02
  2.66912455e-02]",0.9641293287277222,0,0
24,36,2024-09-23 20:43:15.880480000,TASK_BEGIN,15,-0.8225234961688125,-0.0634420675930233,-6.509300961515875,0.2152383177645795,0.5561477045216487,-0.224836472024265,13.529349098608227,-3.7586077300119296,1,2024-09-23 20:43:08.996459961,1727124188.99646,2024-09-23 20:43:08.996460032,2,[-0.9900544  -0.28219825 -0.7541726   0.09471352],-1.0,-3.9403989999999998,[-0.9900544  -0.28219825 -0.7541726   0.09471352],[-0.9900544  -0.28219825 -0.7541726   0.09471352],[1.40295867 0.68223186 0.42469975],"[ 1.21231465e+00  7.26710817e-01  4.61952267e-01  1.19745402e+00
  7.29842939e-01  4.24775622e-01 -1.48606282e-02  3.13212184e-03
 -3.71766446e-02  5.00551183e-02  5.00539282e-02 -9.52496622e-09
  1.46537942e-08 -2.11957589e-15  2.32952111e-02  6.54849869e-03
  1.75260888e-02  5.34650724e-09 -8.22539576e-09 -1.92404942e-18
 -2.32952113e-02 -6.54849883e-03 -1.75210907e-02 -7.96084830e-05
 -7.61100891e-05]",1.3307534456253052,0,0
25,37,2024-09-23 20:43:15.945009920,TASK_BEGIN,15,-0.7934859629548168,-0.0600565022727789,-6.51924463456178,0.2049243029128341,0.6335839516446371,-0.2337231217598852,13.461532764399132,-3.840731202439079,1,2024-09-23 20:43:08.996459961,1727124188.99646,2024-09-23 20:43:08.996460032,2,[-0.9900544  -0.28219825 -0.7541726   0.09471352],-1.0,-3.9403989999999998,[-0.9900544  -0.28219825 -0.7541726   0.09471352],[-0.9900544  -0.28219825 -0.7541726   0.09471352],[1.40295867 0.68223186 0.42469975],"[ 1.21231465e+00  7.26710817e-01  4.61952267e-01  1.19745402e+00
  7.29842939e-01  4.24775622e-01 -1.48606282e-02  3.13212184e-03
 -3.71766446e-02  5.00551183e-02  5.00539282e-02 -9.52496622e-09
  1.46537942e-08 -2.11957589e-15  2.32952111e-02  6.54849869e-03
  1.75260888e-02  5.34650724e-09 -8.22539576e-09 -1.92404942e-18
 -2.32952113e-02 -6.54849883e-03 -1.75210907e-02 -7.96084830e-05
 -7.61100891e-05]",1.3307534456253052,0,0
26,38,2024-09-23 20:43:16.016073984,TASK_BEGIN,15,-0.7627810999260082,-0.0579477688302018,-6.531532956935401,0.1953041213633332,0.7093221186166621,-0.2415804210846553,13.340376370586208,-3.922578384524592,1,2024-09-23 20:43:09.102844971,1727124189.102338,2024-09-23 20:43:09.102338048,2,[-0.6461403   0.08913933 -0.6584451  -0.12838504],-1.0,-4.90099501,[-0.6461403   0.08913933 -0.6584451  -0.12838504],[-0.6461403   0.08913933 -0.6584451  -0.12838504],[1.40295867 0.68223186 0.42469975],"[ 1.18999395e+00  7.28745493e-01  4.40452937e-01  1.19745402e+00
  7.29842939e-01  4.24779403e-01  7.46006979e-03  1.09744639e-03
 -1.56735339e-02  3.95444478e-02  4.00715644e-02 -5.47721601e-09
  8.42648616e-09 -2.16748533e-15  1.42301410e-02 -3.01075180e-03
  1.52774647e-02  3.07185104e-09 -4.72592467e-09 -6.82957720e-19
 -1.42301411e-02  3.01075172e-03 -1.52745988e-02 -1.78736745e-02
 -1.74436622e-02]",1.2335962057113647,0,0
27,39,2024-09-23 20:43:16.083600128,TASK_BEGIN,15,-0.7305953405581718,-0.0571688276510028,-6.543920267791958,0.1871124961443515,0.7795175524682805,-0.2479427736883265,13.168863820101432,-4.003296213574829,1,2024-09-23 20:43:09.102844971,1727124189.102338,2024-09-23 20:43:09.102338048,2,[-0.6461403   0.08913933 -0.6584451  -0.12838504],-1.0,-4.90099501,[-0.6461403   0.08913933 -0.6584451  -0.12838504],[-0.6461403   0.08913933 -0.6584451  -0.12838504],[1.40295867 0.68223186 0.42469975],"[ 1.18999395e+00  7.28745493e-01  4.40452937e-01  1.19745402e+00
  7.29842939e-01  4.24779403e-01  7.46006979e-03  1.09744639e-03
 -1.56735339e-02  3.95444478e-02  4.00715644e-02 -5.47721601e-09
  8.42648616e-09 -2.16748533e-15  1.42301410e-02 -3.01075180e-03
  1.52774647e-02  3.07185104e-09 -4.72592467e-09 -6.82957720e-19
 -1.42301411e-02  3.01075172e-03 -1.52745988e-02 -1.78736745e-02
 -1.74436622e-02]",1.2335962057113647,0,0
28,40,2024-09-23 20:43:16.151568896,TASK_BEGIN,15,-0.6974069640275135,-0.0576101991688821,-6.554685200916336,0.1813544698058631,0.8404189062981143,-0.2524338248232292,12.951955990965669,-4.081772192163706,1,2024-09-23 20:43:09.752319092,1727124189.75232,2024-09-23 20:43:09.752320000,2,[ 0.9951746  -0.29705316 -0.07596662  0.06175331],-0.0,-9.466174574128356,[ 0.9951746  -0.29705316 -0.07596662  0.06175331],[ 0.9951746  -0.29705316 -0.07596662  0.06175331],[1.40295867 0.68223186 0.42469975],"[ 1.36681739e+00  6.90043609e-01  4.60507751e-01  1.36254858e+00
  6.89143698e-01  4.39741220e-01 -4.26881089e-03 -8.99910764e-04
 -2.07665311e-02  3.70551220e-02  3.63300890e-02  1.15015844e-03
  4.93645885e-03  6.54271701e-05  8.21216619e-03 -5.00548561e-03
 -1.35933594e-02  1.11833365e-03  6.00544341e-03 -1.12965046e-02
  2.31302126e-02 -6.75168886e-03 -2.13607352e-03  2.15307140e-02
  2.20311421e-02]",1.0656263828277588,0,0
29,41,2024-09-23 20:43:16.219350016,TASK_BEGIN,15,-0.6640033410889006,-0.0590306164133032,-6.562793668282448,0.1791625337538592,0.888823354678621,-0.2548268585726074,12.696819562938662,-4.156620789357287,1,2024-09-23 20:43:09.752319092,1727124189.75232,2024-09-23 20:43:09.752320000,2,[ 0.9951746  -0.29705316 -0.07596662  0.06175331],-0.0,-9.466174574128356,[ 0.9951746  -0.29705316 -0.07596662  0.06175331],[ 0.9951746  -0.29705316 -0.07596662  0.06175331],[1.40295867 0.68223186 0.42469975],"[ 1.36681739e+00  6.90043609e-01  4.60507751e-01  1.36254858e+00
  6.89143698e-01  4.39741220e-01 -4.26881089e-03 -8.99910764e-04
 -2.07665311e-02  3.70551220e-02  3.63300890e-02  1.15015844e-03
  4.93645885e-03  6.54271701e-05  8.21216619e-03 -5.00548561e-03
 -1.35933594e-02  1.11833365e-03  6.00544341e-03 -1.12965046e-02
  2.31302126e-02 -6.75168886e-03 -2.13607352e-03  2.15307140e-02
  2.20311421e-02]",1.0656263828277588,0,0
30,42,2024-09-23 20:43:16.271617024,TASK_BEGIN,15,-0.6313920970984266,-0.0611204897233535,-6.567928274159759,0.1815621600386531,0.9224373253462824,-0.2550921846606912,12.413621361978947,-4.226353143596927,1,2024-09-23 20:43:09.752319092,1727124189.75232,2024-09-23 20:43:09.752320000,2,[ 0.9951746  -0.29705316 -0.07596662  0.06175331],-0.0,-9.466174574128356,[ 0.9951746  -0.29705316 -0.07596662  0.06175331],[ 0.9951746  -0.29705316 -0.07596662  0.06175331],[1.40295867 0.68223186 0.42469975],"[ 1.36681739e+00  6.90043609e-01  4.60507751e-01  1.36254858e+00
  6.89143698e-01  4.39741220e-01 -4.26881089e-03 -8.99910764e-04
 -2.07665311e-02  3.70551220e-02  3.63300890e-02  1.15015844e-03
  4.93645885e-03  6.54271701e-05  8.21216619e-03 -5.00548561e-03
 -1.35933594e-02  1.11833365e-03  6.00544341e-03 -1.12965046e-02
  2.31302126e-02 -6.75168886e-03 -2.13607352e-03  2.15307140e-02
  2.20311421e-02]",1.0656263828277588,0,0
31,43,2024-09-23 20:43:17.215773184,TASK_BEGIN,15,-0.6006648793737316,-0.0635734519030604,-6.570495961397808,0.1892341463877271,0.940040949680962,-0.2534025638254773,12.11616390274795,-4.289596413357351,1,2024-09-23 20:43:10.397012939,1727124190.3970134,2024-09-23 20:43:10.397013504,2,[-0.02911805 -0.0200321   0.06265848 -0.08006882],-0.0,-8.912215452306311,[-0.02911805 -0.0200321   0.06265848 -0.08006882],[-0.02911805 -0.0200321   0.06265848 -0.08006882],[1.40295867 0.68223186 0.42469975],"[ 1.37479263e+00  6.84097988e-01  4.60993924e-01  1.39031430e+00
  6.82115790e-01  4.30011487e-01  1.55216746e-02 -1.98219787e-03
 -3.09824368e-02  2.24927969e-02  2.58060067e-02 -2.05188158e-02
  1.20263187e-03 -9.88931876e-03  3.86402636e-05  8.70933239e-04
 -1.00814724e-04  2.27435406e-03  1.85485886e-04  2.75624535e-03
 -6.70440345e-04 -4.78520755e-04  1.40796762e-03  1.16192303e-03
 -7.37861818e-04]",0.1003153920173645,0,0
32,44,2024-09-23 20:43:17.298344960,TASK_BEGIN,15,-0.5728813484626661,-0.0661338402926966,-6.571619173588186,0.2023946187012548,0.9414321622531174,-0.2500802065581464,11.821451700106389,-4.345188530011298,1,2024-09-23 20:43:10.397012939,1727124190.3970134,2024-09-23 20:43:10.397013504,2,[-0.02911805 -0.0200321   0.06265848 -0.08006882],-0.0,-8.912215452306311,[-0.02911805 -0.0200321   0.06265848 -0.08006882],[-0.02911805 -0.0200321   0.06265848 -0.08006882],[1.40295867 0.68223186 0.42469975],"[ 1.37479263e+00  6.84097988e-01  4.60993924e-01  1.39031430e+00
  6.82115790e-01  4.30011487e-01  1.55216746e-02 -1.98219787e-03
 -3.09824368e-02  2.24927969e-02  2.58060067e-02 -2.05188158e-02
  1.20263187e-03 -9.88931876e-03  3.86402636e-05  8.70933239e-04
 -1.00814724e-04  2.27435406e-03  1.85485886e-04  2.75624535e-03
 -6.70440345e-04 -4.78520755e-04  1.40796762e-03  1.16192303e-03
 -7.37861818e-04]",0.1003153920173645,0,0
33,45,2024-09-23 20:43:17.354914048,TASK_BEGIN,15,-0.5489831562905529,-0.0686042508143566,-6.573054244024226,0.2208588604626813,0.9272447389612348,-0.2455052876662963,11.547980885332969,-4.392086777824332,1,2024-09-23 20:43:10.397012939,1727124190.3970134,2024-09-23 20:43:10.397013504,2,[-0.02911805 -0.0200321   0.06265848 -0.08006882],-0.0,-8.912215452306311,[-0.02911805 -0.0200321   0.06265848 -0.08006882],[-0.02911805 -0.0200321   0.06265848 -0.08006882],[1.40295867 0.68223186 0.42469975],"[ 1.37479263e+00  6.84097988e-01  4.60993924e-01  1.39031430e+00
  6.82115790e-01  4.30011487e-01  1.55216746e-02 -1.98219787e-03
 -3.09824368e-02  2.24927969e-02  2.58060067e-02 -2.05188158e-02
  1.20263187e-03 -9.88931876e-03  3.86402636e-05  8.70933239e-04
 -1.00814724e-04  2.27435406e-03  1.85485886e-04  2.75624535e-03
 -6.70440345e-04 -4.78520755e-04  1.40796762e-03  1.16192303e-03
 -7.37861818e-04]",0.1003153920173645,0,0
34,46,2024-09-23 20:43:17.433577984,TASK_BEGIN,15,-0.5296974029484012,-0.0708286913899907,-6.577065788937883,0.2442498223051356,0.8987801000329996,-0.240029666140287,11.313307045786996,-4.429179848504568,1,2024-09-23 20:43:10.502080078,1727124190.5020802,2024-09-23 20:43:10.502080256,2,[-0.01490584 -0.02324639  0.05563555 -0.07278009],-0.0,-8.823093297783249,[-0.01490584 -0.02324639  0.05563555 -0.07278009],[-0.01490584 -0.02324639  0.05563555 -0.07278009],[1.40295867 0.68223186 0.42469975],"[ 1.37427434e+00  6.83333868e-01  4.62756866e-01  1.38982533e+00
  6.82387595e-01  4.31678903e-01  1.55509845e-02 -9.46273146e-04
 -3.10779631e-02  2.36985578e-02  2.48710714e-02 -1.83570590e-02
  1.35148288e-03 -7.48840639e-03  3.21065074e-05  1.06647017e-03
 -9.67350403e-05  2.00281030e-03  1.80685696e-04  2.07271534e-03
 -3.19775430e-04 -5.51555710e-04  1.22636847e-03  1.15779810e-03
 -9.88927781e-04]",0.09136411547660828,0,0
35,47,2024-09-23 20:43:17.494478080,TASK_BEGIN,15,-0.5154219084079532,-0.072680761991522,-6.586303054255103,0.2722309137932402,0.8579101859424986,-0.2339309317483203,11.131539938012104,-4.455111186325564,1,2024-09-23 20:43:10.502080078,1727124190.5020802,2024-09-23 20:43:10.502080256,2,[-0.01490584 -0.02324639  0.05563555 -0.07278009],-0.0,-8.823093297783249,[-0.01490584 -0.02324639  0.05563555 -0.07278009],[-0.01490584 -0.02324639  0.05563555 -0.07278009],[1.40295867 0.68223186 0.42469975],"[ 1.37427434e+00  6.83333868e-01  4.62756866e-01  1.38982533e+00
  6.82387595e-01  4.31678903e-01  1.55509845e-02 -9.46273146e-04
 -3.10779631e-02  2.36985578e-02  2.48710714e-02 -1.83570590e-02
  1.35148288e-03 -7.48840639e-03  3.21065074e-05  1.06647017e-03
 -9.67350403e-05  2.00281030e-03  1.80685696e-04  2.07271534e-03
 -3.19775430e-04 -5.51555710e-04  1.22636847e-03  1.15779810e-03
 -9.88927781e-04]",0.09136411547660828,0,0
36,48,2024-09-23 20:43:17.569352960,TASK_BEGIN,15,-0.5061588490731606,-0.0740678958358708,-6.603588594279999,0.3046330201969214,0.807001781668814,-0.2274158498973479,11.01125741120089,-4.468161576574937,1,2024-09-23 20:43:10.608068848,1727124190.6080692,2024-09-23 20:43:10.608069120,2,[-0.00611532 -0.02414601  0.04804781 -0.0629625 ],-0.0,-8.734862364805416,[-0.00611532 -0.02414601  0.04804781 -0.0629625 ],[-0.00611532 -0.02414601  0.04804781 -0.0629625 ],[1.40295867 0.68223186 0.42469975],"[ 1.37405838e+00  6.82535529e-01  4.64268389e-01  1.38963416e+00
  6.82548070e-01  4.33098315e-01  1.55757872e-02  1.25401540e-05
 -3.11700740e-02  2.46998272e-02  2.39776790e-02 -1.64377495e-02
  1.50566743e-03 -5.66952588e-03  2.70601364e-05  7.83709651e-04
 -9.29181315e-05  1.78158331e-03  1.78115915e-04  1.57061278e-03
 -1.27153542e-04 -5.66735706e-04  1.04719109e-03  7.96086768e-04
 -7.28731399e-04]",0.08170047402381897,0,0
37,49,2024-09-23 20:43:17.633246720,TASK_BEGIN,15,-0.5015579904112104,-0.0749392579179132,-6.63151630780481,0.3414126558159891,0.7487942388761718,-0.2206574599895792,10.954288661252807,-4.466227883912425,1,2024-09-23 20:43:10.714071045,1727124190.7140713,2024-09-23 20:43:10.714071296,2,[-0.00160899 -0.02402876  0.04257041 -0.05257212],-0.0,-8.647513741157361,[-0.00160899 -0.02402876  0.04257041 -0.05257212],[-0.00160899 -0.02402876  0.04257041 -0.05257212],[1.40295867 0.68223186 0.42469975],"[ 1.37399913e+00  6.81739632e-01  4.65593122e-01  1.38959609e+00
  6.82298108e-01  4.34334217e-01  1.55969560e-02  5.58475379e-04
 -3.12589044e-02  2.52391056e-02  2.34814564e-02 -1.47286677e-02
  1.66653909e-03 -4.28709449e-03  2.33770828e-05  2.98133938e-04
 -8.95236204e-05  1.58032400e-03  1.77661362e-04  1.18815986e-03
 -2.96837935e-05 -5.62116000e-04  9.23254143e-04  2.81315817e-04
 -2.54405371e-04]",0.07302874326705933,0,0
38,52,2024-09-23 20:43:18.680849152,TASK_BEGIN,15,-0.5094612492255066,-0.0744886670822164,-6.79151341229562,0.4758753741316017,0.5597124688962976,-0.2010033375780434,11.083764121218373,-4.346901810236709,1,2024-09-23 20:43:12.437367920,1727124192.4373684,2024-09-23 20:43:12.437368320,3,[-0.726354    0.80453867 -0.3874852   0.10158593],-1.0,-1.0,[-0.726354    0.80453867 -0.3874852   0.10158593],[-0.726354    0.80453867 -0.3874852   0.10158593],[1.43213513 0.60561353 0.42469975],"[ 1.31986427e+00  7.73522038e-01  5.23003235e-01  1.20340068e+00
  8.96147783e-01  4.24737381e-01 -1.16463595e-01  1.22625745e-01
 -9.82658538e-02  1.99506093e-02  2.14027786e-02 -5.03884423e-08
  7.75206804e-08 -2.38149203e-16  1.93116756e-02 -2.06866148e-02
  1.01331752e-02  2.85323085e-08 -4.38958592e-08  1.29927174e-18
 -1.93116767e-02  2.06866141e-02 -1.01065096e-02  3.54069365e-02
  3.61055858e-02]",1.065477967262268,0,0
39,53,2024-09-23 20:43:18.756155904,TASK_BEGIN,15,-0.5168400301989212,-0.0734805632786499,-6.86791918707893,0.5266970773703936,0.5014016115735469,-0.1956984971287357,11.174558592768154,-4.262090350879768,1,2024-09-23 20:43:12.437367920,1727124192.4373684,2024-09-23 20:43:12.437368320,3,[-0.726354    0.80453867 -0.3874852   0.10158593],-1.0,-1.0,[-0.726354    0.80453867 -0.3874852   0.10158593],[-0.726354    0.80453867 -0.3874852   0.10158593],[1.43213513 0.60561353 0.42469975],"[ 1.31986427e+00  7.73522038e-01  5.23003235e-01  1.20340068e+00
  8.96147783e-01  4.24737381e-01 -1.16463595e-01  1.22625745e-01
 -9.82658538e-02  1.99506093e-02  2.14027786e-02 -5.03884423e-08
  7.75206804e-08 -2.38149203e-16  1.93116756e-02 -2.06866148e-02
  1.01331752e-02  2.85323085e-08 -4.38958592e-08  1.29927174e-18
 -1.93116767e-02  2.06866141e-02 -1.01065096e-02  3.54069365e-02
  3.61055858e-02]",1.065477967262268,0,0
40,54,2024-09-23 20:43:18.821721856,TASK_BEGIN,15,-0.5251959352583162,-0.0722378121193075,-6.95172791890572,0.5790793752399241,0.4500176235771164,-0.1918047055758945,11.253502153215738,-4.152018348088593,1,2024-09-23 20:43:12.437367920,1727124192.4373684,2024-09-23 20:43:12.437368320,3,[-0.726354    0.80453867 -0.3874852   0.10158593],-1.0,-1.0,[-0.726354    0.80453867 -0.3874852   0.10158593],[-0.726354    0.80453867 -0.3874852   0.10158593],[1.43213513 0.60561353 0.42469975],"[ 1.31986427e+00  7.73522038e-01  5.23003235e-01  1.20340068e+00
  8.96147783e-01  4.24737381e-01 -1.16463595e-01  1.22625745e-01
 -9.82658538e-02  1.99506093e-02  2.14027786e-02 -5.03884423e-08
  7.75206804e-08 -2.38149203e-16  1.93116756e-02 -2.06866148e-02
  1.01331752e-02  2.85323085e-08 -4.38958592e-08  1.29927174e-18
 -1.93116767e-02  2.06866141e-02 -1.01065096e-02  3.54069365e-02
  3.61055858e-02]",1.065477967262268,0,0
41,55,2024-09-23 20:43:18.882837248,TASK_BEGIN,15,-0.5336873865187121,-0.0709610869119135,-7.039542939420796,0.6323223940030761,0.4082131019435598,-0.1899588626840029,11.295962960289424,-4.01576542915516,1,2024-09-23 20:43:12.437367920,1727124192.4373684,2024-09-23 20:43:12.437368320,3,[-0.726354    0.80453867 -0.3874852   0.10158593],-1.0,-1.0,[-0.726354    0.80453867 -0.3874852   0.10158593],[-0.726354    0.80453867 -0.3874852   0.10158593],[1.43213513 0.60561353 0.42469975],"[ 1.31986427e+00  7.73522038e-01  5.23003235e-01  1.20340068e+00
  8.96147783e-01  4.24737381e-01 -1.16463595e-01  1.22625745e-01
 -9.82658538e-02  1.99506093e-02  2.14027786e-02 -5.03884423e-08
  7.75206804e-08 -2.38149203e-16  1.93116756e-02 -2.06866148e-02
  1.01331752e-02  2.85323085e-08 -4.38958592e-08  1.29927174e-18
 -1.93116767e-02  2.06866141e-02 -1.01065096e-02  3.54069365e-02
  3.61055858e-02]",1.065477967262268,0,0
42,56,2024-09-23 20:43:18.960273920,TASK_BEGIN,15,-0.5416260694019835,-0.069878452583915,-7.128205488290306,0.686062212039106,0.3784455782247963,-0.190826754852955,11.277827981098216,-3.8531718010484064,1,2024-09-23 20:43:12.437367920,1727124192.4373684,2024-09-23 20:43:12.437368320,3,[-0.726354    0.80453867 -0.3874852   0.10158593],-1.0,-1.0,[-0.726354    0.80453867 -0.3874852   0.10158593],[-0.726354    0.80453867 -0.3874852   0.10158593],[1.43213513 0.60561353 0.42469975],"[ 1.31986427e+00  7.73522038e-01  5.23003235e-01  1.20340068e+00
  8.96147783e-01  4.24737381e-01 -1.16463595e-01  1.22625745e-01
 -9.82658538e-02  1.99506093e-02  2.14027786e-02 -5.03884423e-08
  7.75206804e-08 -2.38149203e-16  1.93116756e-02 -2.06866148e-02
  1.01331752e-02  2.85323085e-08 -4.38958592e-08  1.29927174e-18
 -1.93116767e-02  2.06866141e-02 -1.01065096e-02  3.54069365e-02
  3.61055858e-02]",1.065477967262268,0,0
43,57,2024-09-23 20:43:19.905474816,TASK_BEGIN,15,-0.5485960462813159,-0.0691958304073646,-7.215290602966943,0.7402482031075964,0.3627208684275427,-0.1949776144726744,11.178202920863647,-3.6651765452379768,1,2024-09-23 20:43:12.977171875,1727124192.9771729,2024-09-23 20:43:12.977172736,3,[-0.66938734 -0.09491242 -0.65194756  0.44038665],-1.0,-5.8519850599,[-0.66938734 -0.09491242 -0.65194756  0.44038665],[-0.66938734 -0.09491242 -0.65194756  0.44038665],[1.43213513 0.60561353 0.42469975],"[ 1.21183665e+00  8.76220090e-01  4.52057605e-01  1.20340067e+00
  8.96147782e-01  4.24781571e-01 -8.43597506e-03  1.99276922e-02
 -2.72760339e-02  5.00446686e-02  5.00444371e-02 -3.15070136e-09
  4.84723287e-09 -2.18162862e-15  1.57104841e-02  4.35384182e-03
  1.57576262e-02  1.76619284e-09 -2.71721976e-09 -9.72673065e-19
 -1.57104842e-02 -4.35384187e-03 -1.57559823e-02 -2.41484642e-07
  2.42987970e-07]",1.2544853687286377,0,0
44,58,2024-09-23 20:43:19.973244928,TASK_BEGIN,15,-0.554502446560624,-0.0690487061803309,-7.299318052155429,0.7949819490917307,0.3623283562759702,-0.2027472709175137,10.982004103672274,-3.454160970749632,1,2024-09-23 20:43:12.977171875,1727124192.9771729,2024-09-23 20:43:12.977172736,3,[-0.66938734 -0.09491242 -0.65194756  0.44038665],-1.0,-5.8519850599,[-0.66938734 -0.09491242 -0.65194756  0.44038665],[-0.66938734 -0.09491242 -0.65194756  0.44038665],[1.43213513 0.60561353 0.42469975],"[ 1.21183665e+00  8.76220090e-01  4.52057605e-01  1.20340067e+00
  8.96147782e-01  4.24781571e-01 -8.43597506e-03  1.99276922e-02
 -2.72760339e-02  5.00446686e-02  5.00444371e-02 -3.15070136e-09
  4.84723287e-09 -2.18162862e-15  1.57104841e-02  4.35384182e-03
  1.57576262e-02  1.76619284e-09 -2.71721976e-09 -9.72673065e-19
 -1.57104842e-02 -4.35384187e-03 -1.57559823e-02 -2.41484642e-07
  2.42987970e-07]",1.2544853687286377,0,0
45,59,2024-09-23 20:43:20.040971008,TASK_BEGIN,15,-0.5595440739170382,-0.0694739980878895,-7.37968110946975,0.8502869071380913,0.3776349920755007,-0.2141388796959142,10.6819872752873,-3.2241927893051607,1,2024-09-23 20:43:13.834422119,1727124193.8344226,2024-09-23 20:43:13.834422528,3,[ 0.9983812  -0.9634274   0.01588787 -0.12255982],-1.0,-13.12541872310217,[ 0.9983812  -0.9634274   0.01588787 -0.12255982],[ 0.9983812  -0.9634274   0.01588787 -0.12255982],[1.43213513 0.60561353 0.42469975],"[ 1.38209471e+00  6.54017580e-01  4.50295853e-01  1.38277731e+00
  6.52747374e-01  4.37953336e-01  6.82602118e-04 -1.27020532e-03
 -1.23425165e-02  2.23185725e-02  2.57821284e-02 -5.76299862e-04
 -2.36475165e-02  1.57710371e-02  7.48431302e-04  2.13876870e-04
 -1.13377644e-04  8.68867893e-04  5.60124580e-04 -5.96837166e-05
  2.29528813e-02 -2.31963314e-02  5.79328297e-04  2.71972380e-04
 -2.39999449e-04]",1.2995998859405518,0,0
46,60,2024-09-23 20:43:20.108037120,TASK_BEGIN,15,-0.5641594720397769,-0.0704024097138803,-7.456369471375637,0.9058689231811852,0.4079027916281769,-0.2287808022295165,10.280120751206802,-2.9810891525281407,1,2024-09-23 20:43:13.834422119,1727124193.8344226,2024-09-23 20:43:13.834422528,3,[ 0.9983812  -0.9634274   0.01588787 -0.12255982],-1.0,-13.12541872310217,[ 0.9983812  -0.9634274   0.01588787 -0.12255982],[ 0.9983812  -0.9634274   0.01588787 -0.12255982],[1.43213513 0.60561353 0.42469975],"[ 1.38209471e+00  6.54017580e-01  4.50295853e-01  1.38277731e+00
  6.52747374e-01  4.37953336e-01  6.82602118e-04 -1.27020532e-03
 -1.23425165e-02  2.23185725e-02  2.57821284e-02 -5.76299862e-04
 -2.36475165e-02  1.57710371e-02  7.48431302e-04  2.13876870e-04
 -1.13377644e-04  8.68867893e-04  5.60124580e-04 -5.96837166e-05
  2.29528813e-02 -2.31963314e-02  5.79328297e-04  2.71972380e-04
 -2.39999449e-04]",1.2995998859405518,0,0
47,61,2024-09-23 20:43:20.170845952,TASK_BEGIN,15,-0.5689839083309159,-0.0716596508207413,-7.529585213095173,0.9609275510155892,0.4511161429860183,-0.2459323730428925,9.7882230831276,-2.732260043458253,1,2024-09-23 20:43:13.834422119,1727124193.8344226,2024-09-23 20:43:13.834422528,3,[ 0.9983812  -0.9634274   0.01588787 -0.12255982],-1.0,-13.12541872310217,[ 0.9983812  -0.9634274   0.01588787 -0.12255982],[ 0.9983812  -0.9634274   0.01588787 -0.12255982],[1.43213513 0.60561353 0.42469975],"[ 1.38209471e+00  6.54017580e-01  4.50295853e-01  1.38277731e+00
  6.52747374e-01  4.37953336e-01  6.82602118e-04 -1.27020532e-03
 -1.23425165e-02  2.23185725e-02  2.57821284e-02 -5.76299862e-04
 -2.36475165e-02  1.57710371e-02  7.48431302e-04  2.13876870e-04
 -1.13377644e-04  8.68867893e-04  5.60124580e-04 -5.96837166e-05
  2.29528813e-02 -2.31963314e-02  5.79328297e-04  2.71972380e-04
 -2.39999449e-04]",1.2995998859405518,0,0
48,62,2024-09-23 20:43:20.244198912,TASK_BEGIN,15,-0.5747960356321713,-0.0729736878889175,-7.599382587751673,1.0140805918555025,0.5039253894862554,-0.2645327105761756,9.22768296635192,-2.4863755440163917,1,2024-09-23 20:43:13.834422119,1727124193.8344226,2024-09-23 20:43:13.834422528,3,[ 0.9983812  -0.9634274   0.01588787 -0.12255982],-1.0,-13.12541872310217,[ 0.9983812  -0.9634274   0.01588787 -0.12255982],[ 0.9983812  -0.9634274   0.01588787 -0.12255982],[1.43213513 0.60561353 0.42469975],"[ 1.38209471e+00  6.54017580e-01  4.50295853e-01  1.38277731e+00
  6.52747374e-01  4.37953336e-01  6.82602118e-04 -1.27020532e-03
 -1.23425165e-02  2.23185725e-02  2.57821284e-02 -5.76299862e-04
 -2.36475165e-02  1.57710371e-02  7.48431302e-04  2.13876870e-04
 -1.13377644e-04  8.68867893e-04  5.60124580e-04 -5.96837166e-05
  2.29528813e-02 -2.31963314e-02  5.79328297e-04  2.71972380e-04
 -2.39999449e-04]",1.2995998859405518,0,0
49,63,2024-09-23 20:43:20.309657088,TASK_BEGIN,15,-0.5824047859987591,-0.0740013511799122,-7.665471892582337,1.0634327771272,0.5618473363489648,-0.2833011709734631,8.628228394678024,-2.252929773928371,1,2024-09-23 20:43:13.834422119,1727124193.8344226,2024-09-23 20:43:13.834422528,3,[ 0.9983812  -0.9634274   0.01588787 -0.12255982],-1.0,-13.12541872310217,[ 0.9983812  -0.9634274   0.01588787 -0.12255982],[ 0.9983812  -0.9634274   0.01588787 -0.12255982],[1.43213513 0.60561353 0.42469975],"[ 1.38209471e+00  6.54017580e-01  4.50295853e-01  1.38277731e+00
  6.52747374e-01  4.37953336e-01  6.82602118e-04 -1.27020532e-03
 -1.23425165e-02  2.23185725e-02  2.57821284e-02 -5.76299862e-04
 -2.36475165e-02  1.57710371e-02  7.48431302e-04  2.13876870e-04
 -1.13377644e-04  8.68867893e-04  5.60124580e-04 -5.96837166e-05
  2.29528813e-02 -2.31963314e-02  5.79328297e-04  2.71972380e-04
 -2.39999449e-04]",1.2995998859405518,0,0
50,64,2024-09-23 20:43:21.230142208,TASK_BEGIN,15,-0.592473257975673,-0.0743870288965595,-7.727226151762123,1.1067595515112487,0.6197409426549362,-0.3008855154567383,8.025921965212033,-2.041721505376831,1,2024-09-23 20:43:14.261034912,1727124194.2610357,2024-09-23 20:43:14.261035776,3,[-0.02688962 -0.03093356 -0.01102991  0.02754954],-0.0,-12.608224854991239,[-0.02688962 -0.03093356 -0.01102991  0.02754954],[-0.02688962 -0.03093356 -0.01102991  0.02754954],[1.43213513 0.60561353 0.42469975],"[ 1.40518791e+00  6.24356000e-01  4.46032466e-01  1.42590113e+00
  6.18751013e-01  4.24896801e-01  2.07132182e-02 -5.60498798e-03
 -2.11356652e-02  2.92412248e-02  3.09967992e-02 -3.10947471e-03
 -2.39264943e-04 -4.32109921e-02  7.68394940e-04  5.45261288e-03
 -2.14487191e-03  3.58946093e-02 -1.48121940e-02 -3.16551659e-02
 -8.69331378e-04 -3.11075725e-04 -2.82165614e-04 -2.47387707e-04
  1.36492566e-03]",0.077806256711483,0,0
51,65,2024-09-23 20:43:21.292198912,TASK_BEGIN,15,-0.6053591205165477,-0.0738419987687158,-7.783725969108476,1.1417118908350108,0.6724173368289175,-0.3160268408574395,7.460499820061964,-1.862231483067461,1,2024-09-23 20:43:14.587177002,1727124194.5871775,2024-09-23 20:43:14.587177472,3,[ 0.01346847  0.00778138 -0.03624695 -0.00255454],-0.0,-12.233747968573143,[ 0.01346847  0.00778138 -0.03624695 -0.00255454],[ 0.01346847  0.00778138 -0.03624695 -0.00255454],[1.43213513 0.60561353 0.42469975],"[ 1.40573481e+00  6.25103785e-01  4.42302329e-01  1.42593332e+00
  6.19886747e-01  4.24698066e-01  2.01985093e-02 -5.21703809e-03
 -1.76042627e-02  3.04081304e-02  3.44272069e-02  5.85762461e-04
 -7.37453273e-04 -4.96446645e-02 -3.23523817e-04 -1.71354684e-04
  9.80022692e-04 -3.34927848e-04  4.21399230e-04 -4.08445786e-08
  3.34041190e-04  1.79723546e-04 -9.30851610e-04 -8.24995758e-04
 -5.96940873e-04]",0.054409466683864594,0,0
52,66,2024-09-23 20:43:21.354202880,TASK_BEGIN,15,-0.6210619447428992,-0.0722132025738722,-7.833605256939041,1.1659597343927808,0.7152084714821831,-0.3277042379418696,6.972036025562449,-1.7229107733974558,1,2024-09-23 20:43:14.587177002,1727124194.5871775,2024-09-23 20:43:14.587177472,3,[ 0.01346847  0.00778138 -0.03624695 -0.00255454],-0.0,-12.233747968573143,[ 0.01346847  0.00778138 -0.03624695 -0.00255454],[ 0.01346847  0.00778138 -0.03624695 -0.00255454],[1.43213513 0.60561353 0.42469975],"[ 1.40573481e+00  6.25103785e-01  4.42302329e-01  1.42593332e+00
  6.19886747e-01  4.24698066e-01  2.01985093e-02 -5.21703809e-03
 -1.76042627e-02  3.04081304e-02  3.44272069e-02  5.85762461e-04
 -7.37453273e-04 -4.96446645e-02 -3.23523817e-04 -1.71354684e-04
  9.80022692e-04 -3.34927848e-04  4.21399230e-04 -4.08445786e-08
  3.34041190e-04  1.79723546e-04 -9.30851610e-04 -8.24995758e-04
 -5.96940873e-04]",0.054409466683864594,0,0
53,67,2024-09-23 20:43:21.432414976,TASK_BEGIN,15,-0.6392750436610511,-0.0695191565796931,-7.874678119367473,1.1772967032950086,0.7444091946990934,-0.3352374129645242,6.597120414544381,-1.6304837466206477,1,2024-09-23 20:43:14.587177002,1727124194.5871775,2024-09-23 20:43:14.587177472,3,[ 0.01346847  0.00778138 -0.03624695 -0.00255454],-0.0,-12.233747968573143,[ 0.01346847  0.00778138 -0.03624695 -0.00255454],[ 0.01346847  0.00778138 -0.03624695 -0.00255454],[1.43213513 0.60561353 0.42469975],"[ 1.40573481e+00  6.25103785e-01  4.42302329e-01  1.42593332e+00
  6.19886747e-01  4.24698066e-01  2.01985093e-02 -5.21703809e-03
 -1.76042627e-02  3.04081304e-02  3.44272069e-02  5.85762461e-04
 -7.37453273e-04 -4.96446645e-02 -3.23523817e-04 -1.71354684e-04
  9.80022692e-04 -3.34927848e-04  4.21399230e-04 -4.08445786e-08
  3.34041190e-04  1.79723546e-04 -9.30851610e-04 -8.24995758e-04
 -5.96940873e-04]",0.054409466683864594,0,0
54,68,2024-09-23 20:43:21.494898944,TASK_BEGIN,15,-0.6594577795962543,-0.0659511666472111,-7.903628265377312,1.1737804182796396,0.7575824881672747,-0.338337213132064,6.365170950412267,-1.589424773715049,1,2024-09-23 20:43:14.587177002,1727124194.5871775,2024-09-23 20:43:14.587177472,3,[ 0.01346847  0.00778138 -0.03624695 -0.00255454],-0.0,-12.233747968573143,[ 0.01346847  0.00778138 -0.03624695 -0.00255454],[ 0.01346847  0.00778138 -0.03624695 -0.00255454],[1.43213513 0.60561353 0.42469975],"[ 1.40573481e+00  6.25103785e-01  4.42302329e-01  1.42593332e+00
  6.19886747e-01  4.24698066e-01  2.01985093e-02 -5.21703809e-03
 -1.76042627e-02  3.04081304e-02  3.44272069e-02  5.85762461e-04
 -7.37453273e-04 -4.96446645e-02 -3.23523817e-04 -1.71354684e-04
  9.80022692e-04 -3.34927848e-04  4.21399230e-04 -4.08445786e-08
  3.34041190e-04  1.79723546e-04 -9.30851610e-04 -8.24995758e-04
 -5.96940873e-04]",0.054409466683864594,0,0
55,69,2024-09-23 20:43:21.567599104,TASK_BEGIN,15,-0.6808726369750029,-0.0618466195012429,-7.916083244372173,1.153918303783634,0.7537145310378368,-0.3371007913768062,6.295591235747961,-1.6017106019045302,1,2024-09-23 20:43:14.587177002,1727124194.5871775,2024-09-23 20:43:14.587177472,3,[ 0.01346847  0.00778138 -0.03624695 -0.00255454],-0.0,-12.233747968573143,[ 0.01346847  0.00778138 -0.03624695 -0.00255454],[ 0.01346847  0.00778138 -0.03624695 -0.00255454],[1.43213513 0.60561353 0.42469975],"[ 1.40573481e+00  6.25103785e-01  4.42302329e-01  1.42593332e+00
  6.19886747e-01  4.24698066e-01  2.01985093e-02 -5.21703809e-03
 -1.76042627e-02  3.04081304e-02  3.44272069e-02  5.85762461e-04
 -7.37453273e-04 -4.96446645e-02 -3.23523817e-04 -1.71354684e-04
  9.80022692e-04 -3.34927848e-04  4.21399230e-04 -4.08445786e-08
  3.34041190e-04  1.79723546e-04 -9.30851610e-04 -8.24995758e-04
 -5.96940873e-04]",0.054409466683864594,0,0
56,70,2024-09-23 20:43:21.629615104,TASK_BEGIN,15,-0.7026194932268601,-0.0576411116249219,-7.907116163528872,1.1168451850780436,0.7331934887878785,-0.3319611312302898,6.396065363374553,-1.6668155873567596,1,2024-09-23 20:43:14.802975830,1727124194.802976,2024-09-23 20:43:14.802976000,3,[ 0.00338446  0.0083457  -0.0377355   0.00060331],-0.0,-11.990296383998537,[ 0.00338446  0.0083457  -0.0377355   0.00060331],[ 0.00338446  0.0083457  -0.0377355   0.00060331],[1.43213513 0.60561353 0.42469975],"[ 1.40593235e+00  6.25644513e-01  4.39647035e-01  1.42594571e+00
  6.19896596e-01  4.24756220e-01  2.00133623e-02 -5.74791706e-03
 -1.48908154e-02  3.01723845e-02  3.44635857e-02  1.91512296e-04
 -2.41132643e-04 -4.96448654e-02 -1.03012808e-04 -1.89425214e-04
  9.83017325e-04 -1.07972623e-04  1.35947754e-04 -4.75410135e-12
  1.06410349e-04  1.92123615e-04 -9.67043952e-04  2.24619981e-04
  2.82149307e-04]",0.05388038605451584,0,0
57,75,2024-09-23 20:43:22.846938880,TASK_BEGIN,15,-0.7887769341186149,-0.0496942905030956,-7.409125132907133,0.6999279346379559,0.4638432418836076,-0.276488526351466,8.914078377077297,-2.611340559082428,1,2024-09-23 20:43:16.635593018,1727124196.6355937,2024-09-23 20:43:16.635593728,4,[ 0.9772065  -0.7800414  -0.27130982  0.14072958],-1.0,-1.0,[ 0.9772065  -0.7800414  -0.27130982  0.14072958],[ 0.9772065  -0.7800414  -0.27130982  0.14072958],[1.33988253 0.67155464 0.42469975],"[ 1.37066452e+00  7.24860343e-01  5.26041599e-01  1.47424008e+00
  6.63277825e-01  4.24737381e-01  1.03575557e-01 -6.15825181e-02
 -1.01304218e-01  2.93648881e-02  2.79215977e-02 -5.03884423e-08
  7.75206804e-08 -2.38786353e-16 -2.51396022e-02  2.05820410e-02
  7.47827312e-03  2.85323085e-08 -4.38958592e-08  2.72836145e-19
  2.51396011e-02 -2.05820417e-02 -7.45160757e-03  4.98792888e-02
  4.91886865e-02]",0.9907478094100952,0,0
58,76,2024-09-23 20:43:22.919714048,TASK_BEGIN,15,-0.7998383992499755,-0.0522045316839367,-7.212020411716521,0.5880422817669809,0.4008533963250908,-0.2660913352092268,9.597326604328702,-2.865860984150429,1,2024-09-23 20:43:16.635593018,1727124196.6355937,2024-09-23 20:43:16.635593728,4,[ 0.9772065  -0.7800414  -0.27130982  0.14072958],-1.0,-1.0,[ 0.9772065  -0.7800414  -0.27130982  0.14072958],[ 0.9772065  -0.7800414  -0.27130982  0.14072958],[1.33988253 0.67155464 0.42469975],"[ 1.37066452e+00  7.24860343e-01  5.26041599e-01  1.47424008e+00
  6.63277825e-01  4.24737381e-01  1.03575557e-01 -6.15825181e-02
 -1.01304218e-01  2.93648881e-02  2.79215977e-02 -5.03884423e-08
  7.75206804e-08 -2.38786353e-16 -2.51396022e-02  2.05820410e-02
  7.47827312e-03  2.85323085e-08 -4.38958592e-08  2.72836145e-19
  2.51396011e-02 -2.05820417e-02 -7.45160757e-03  4.98792888e-02
  4.91886865e-02]",0.9907478094100952,0,0
59,77,2024-09-23 20:43:22.986216192,TASK_BEGIN,15,-0.8097346888148664,-0.0558496642651224,-6.989204420727417,0.47646111894277,0.3437279472342694,-0.2579952502300466,10.250324272530548,-3.11924036453187,1,2024-09-23 20:43:16.635593018,1727124196.6355937,2024-09-23 20:43:16.635593728,4,[ 0.9772065  -0.7800414  -0.27130982  0.14072958],-1.0,-1.0,[ 0.9772065  -0.7800414  -0.27130982  0.14072958],[ 0.9772065  -0.7800414  -0.27130982  0.14072958],[1.33988253 0.67155464 0.42469975],"[ 1.37066452e+00  7.24860343e-01  5.26041599e-01  1.47424008e+00
  6.63277825e-01  4.24737381e-01  1.03575557e-01 -6.15825181e-02
 -1.01304218e-01  2.93648881e-02  2.79215977e-02 -5.03884423e-08
  7.75206804e-08 -2.38786353e-16 -2.51396022e-02  2.05820410e-02
  7.47827312e-03  2.85323085e-08 -4.38958592e-08  2.72836145e-19
  2.51396011e-02 -2.05820417e-02 -7.45160757e-03  4.98792888e-02
  4.91886865e-02]",0.9907478094100952,0,0
60,78,2024-09-23 20:43:23.918535936,TASK_BEGIN,15,-0.8192966245202244,-0.0602223063110995,-6.748033403862344,0.3703118158444202,0.2958558832588645,-0.2528664286876172,10.839399590496368,-3.362494533934714,1,2024-09-23 20:43:17.184666016,1727124197.1846669,2024-09-23 20:43:17.184666880,4,[ 1.0632735   9.65542637 -1.52482346 -1.89087789],-1.0,-5.8519850599,[ 1.0632735   9.65542637 -1.52482346 -1.89087789],[ 0.6384796  -0.3620406  -0.9697326   0.13961266],[1.33988253 0.67155464 0.42469975],"[ 1.44411844e+00  7.29197146e-01  5.17040653e-01  1.47424007e+00
  6.63277824e-01  4.24781571e-01  3.01216367e-02 -6.59193221e-02
 -9.22590820e-02  2.19598686e-02  2.13896824e-02 -3.15070136e-09
  4.84723287e-09 -2.18202060e-15 -2.83701342e-02 -2.35486019e-02
  3.01597504e-02  1.76619285e-09 -2.71721976e-09  2.14679429e-19
  2.83701342e-02  2.35486019e-02 -3.01581065e-02 -2.43278379e-02
 -2.49272295e-02]",10.165604711870639,0,0
61,79,2024-09-23 20:43:23.996624128,TASK_BEGIN,15,-0.8294902372143141,-0.0648191418700874,-6.497806275793879,0.2743729946685322,0.2599743615176997,-0.2511774525036369,11.3388642025655,-3.588140369169079,1,2024-09-23 20:43:17.184666016,1727124197.1846669,2024-09-23 20:43:17.184666880,4,[ 1.0632735   9.65542637 -1.52482346 -1.89087789],-1.0,-5.8519850599,[ 1.0632735   9.65542637 -1.52482346 -1.89087789],[ 0.6384796  -0.3620406  -0.9697326   0.13961266],[1.33988253 0.67155464 0.42469975],"[ 1.44411844e+00  7.29197146e-01  5.17040653e-01  1.47424007e+00
  6.63277824e-01  4.24781571e-01  3.01216367e-02 -6.59193221e-02
 -9.22590820e-02  2.19598686e-02  2.13896824e-02 -3.15070136e-09
  4.84723287e-09 -2.18202060e-15 -2.83701342e-02 -2.35486019e-02
  3.01597504e-02  1.76619285e-09 -2.71721976e-09  2.14679429e-19
  2.83701342e-02  2.35486019e-02 -3.01581065e-02 -2.43278379e-02
 -2.49272295e-02]",10.165604711870639,0,0
62,80,2024-09-23 20:43:24.066533888,TASK_BEGIN,15,-0.8412871888150809,-0.0691057911160613,-6.249236633232045,0.1925544681680599,0.2380138555966724,-0.253174218088116,11.732583193583215,-3.790331515299624,1,2024-09-23 20:43:17.184666016,1727124197.1846669,2024-09-23 20:43:17.184666880,4,[ 1.0632735   9.65542637 -1.52482346 -1.89087789],-1.0,-5.8519850599,[ 1.0632735   9.65542637 -1.52482346 -1.89087789],[ 0.6384796  -0.3620406  -0.9697326   0.13961266],[1.33988253 0.67155464 0.42469975],"[ 1.44411844e+00  7.29197146e-01  5.17040653e-01  1.47424007e+00
  6.63277824e-01  4.24781571e-01  3.01216367e-02 -6.59193221e-02
 -9.22590820e-02  2.19598686e-02  2.13896824e-02 -3.15070136e-09
  4.84723287e-09 -2.18202060e-15 -2.83701342e-02 -2.35486019e-02
  3.01597504e-02  1.76619285e-09 -2.71721976e-09  2.14679429e-19
  2.83701342e-02  2.35486019e-02 -3.01581065e-02 -2.43278379e-02
 -2.49272295e-02]",10.165604711870639,0,0
63,81,2024-09-23 20:43:24.134300928,TASK_BEGIN,15,-0.8554630655933676,-0.0725956717534289,-6.013682907664766,0.1275551523262928,0.2310484147281848,-0.2588679154951397,12.01419331383322,-3.9647106100632152,1,2024-09-23 20:43:17.184666016,1727124197.1846669,2024-09-23 20:43:17.184666880,4,[ 1.0632735   9.65542637 -1.52482346 -1.89087789],-1.0,-5.8519850599,[ 1.0632735   9.65542637 -1.52482346 -1.89087789],[ 0.6384796  -0.3620406  -0.9697326   0.13961266],[1.33988253 0.67155464 0.42469975],"[ 1.44411844e+00  7.29197146e-01  5.17040653e-01  1.47424007e+00
  6.63277824e-01  4.24781571e-01  3.01216367e-02 -6.59193221e-02
 -9.22590820e-02  2.19598686e-02  2.13896824e-02 -3.15070136e-09
  4.84723287e-09 -2.18202060e-15 -2.83701342e-02 -2.35486019e-02
  3.01597504e-02  1.76619285e-09 -2.71721976e-09  2.14679429e-19
  2.83701342e-02  2.35486019e-02 -3.01581065e-02 -2.43278379e-02
 -2.49272295e-02]",10.165604711870639,0,0
64,82,2024-09-23 20:43:24.198491904,TASK_BEGIN,15,-0.8724172039740128,-0.0749267444664294,-5.802149438583118,0.0807506420842996,0.2392684386702037,-0.2680452861721789,12.186242603520478,-4.108167938097292,1,2024-09-23 20:43:17.397773926,1727124197.397775,2024-09-23 20:43:17.397774848,4,[-1.75683201 -7.09217564 -1.63662823 -3.83858135],-1.0,-7.72553055720799,[-1.75683201 -7.09217564 -1.63662823 -3.83858135],[ 0.99145275 -0.658526   -0.21142486  0.08537103],[1.33988253 0.67155464 0.42469975],"[ 1.38335658e+00  6.68106674e-01  4.51182479e-01  1.47424007e+00
  6.63277824e-01  4.24783528e-01  9.08834952e-02 -4.82884949e-03
 -2.63989503e-02  4.82742661e-02  5.01377144e-02 -1.04309533e-09
  1.60476205e-09 -2.18793817e-15  2.30255428e-02  2.26119321e-02
  2.34380004e-02  5.84475490e-10 -8.99193059e-10  3.12219760e-18
 -2.30255428e-02 -2.26119322e-02 -2.34374593e-02 -1.35726660e-02
 -1.11140696e-02]",8.354028192719408,0,0
65,83,2024-09-23 20:43:24.269850112,TASK_BEGIN,15,-0.892101747490961,-0.0759167930513155,-5.62423639197527,0.0522748356233747,0.2619035903873412,-0.2802899925389643,12.25862829286469,-4.218635862244461,1,2024-09-23 20:43:18.037693115,1727124198.037693,2024-09-23 20:43:18.037692928,4,[0.31931151 1.14393381 7.83037983 4.52562679],-1.0,-13.12541872310217,[0.31931151 1.14393381 7.83037983 4.52562679],[0.75971687 0.22429307 0.21018432 0.56816894],[1.33988253 0.67155464 0.42469975],"[ 1.40284044e+00  6.63151375e-01  4.81438590e-01  1.47424007e+00
  6.63277824e-01  4.24784455e-01  7.13996383e-02  1.26448762e-04
 -5.66541352e-02  5.20072396e-02  3.25354283e-02 -3.78908990e-11
  5.82936889e-11 -2.19074061e-15 -1.11194558e-02 -2.50360532e-02
 -2.34036342e-02  2.12269790e-11 -3.26568820e-11 -9.29842967e-19
  1.11194558e-02  2.50360532e-02  2.34036535e-02  1.42680567e-02
  5.92509790e-02]",9.125739682341223,0,0
66,84,2024-09-23 20:43:24.337649152,TASK_BEGIN,15,-0.9140723660735932,-0.0755848556988277,-5.4872847702115015,0.0412189954117888,0.2971443556991491,-0.2950118964158652,12.246668647627398,-4.294933004061243,1,2024-09-23 20:43:18.037693115,1727124198.037693,2024-09-23 20:43:18.037692928,4,[0.31931151 1.14393381 7.83037983 4.52562679],-1.0,-13.12541872310217,[0.31931151 1.14393381 7.83037983 4.52562679],[0.75971687 0.22429307 0.21018432 0.56816894],[1.33988253 0.67155464 0.42469975],"[ 1.40284044e+00  6.63151375e-01  4.81438590e-01  1.47424007e+00
  6.63277824e-01  4.24784455e-01  7.13996383e-02  1.26448762e-04
 -5.66541352e-02  5.20072396e-02  3.25354283e-02 -3.78908990e-11
  5.82936889e-11 -2.19074061e-15 -1.11194558e-02 -2.50360532e-02
 -2.34036342e-02  2.12269790e-11 -3.26568820e-11 -9.29842967e-19
  1.11194558e-02  2.50360532e-02  2.34036535e-02  1.42680567e-02
  5.92509790e-02]",9.125739682341223,0,0
67,85,2024-09-23 20:43:25.281080064,TASK_BEGIN,15,-0.9376081119884576,-0.0741384442824845,-5.39584414901985,0.0458802864745155,0.3421875433053356,-0.3114768883983325,12.169083557265171,-4.336645605997549,1,2024-09-23 20:43:18.999941162,1727124198.999941,2024-09-23 20:43:18.999941120,4,[-4.56468066  6.24420912 -0.27863587 -1.2542662 ],-1.0,-20.638571635634445,[-4.56468066  6.24420912 -0.27863587 -1.2542662 ],[-0.9989743  -0.20132792 -0.6167555   0.1463237 ],[1.33988253 0.67155464 0.42469975],"[ 1.45810762e+00  8.01033920e-01  4.89426611e-01  1.42449119e+00
  7.59318437e-01  4.37105135e-01 -3.36164296e-02 -4.17154831e-02
 -5.23214767e-02  2.16402294e-03 -7.37016615e-04 -3.59986944e-01
  4.39021143e-01  1.48414018e-01  6.53872536e-03 -9.77410272e-03
  9.22786494e-03 -2.37858463e-01 -3.72775955e-01 -1.57584804e-01
 -2.61641119e-02  2.29259672e-02 -8.37822568e-03  1.30355569e-03
  1.07415375e-03]",8.046545681170823,0,0
68,86,2024-09-23 20:43:25.349336064,TASK_BEGIN,15,-0.96183070685312,-0.0719383792675972,-5.351493252654521,0.0640192583902969,0.3934562064704025,-0.3288301250469196,12.04609884830507,-4.3440885587407205,1,2024-09-23 20:43:18.999941162,1727124198.999941,2024-09-23 20:43:18.999941120,4,[-4.56468066  6.24420912 -0.27863587 -1.2542662 ],-1.0,-20.638571635634445,[-4.56468066  6.24420912 -0.27863587 -1.2542662 ],[-0.9989743  -0.20132792 -0.6167555   0.1463237 ],[1.33988253 0.67155464 0.42469975],"[ 1.45810762e+00  8.01033920e-01  4.89426611e-01  1.42449119e+00
  7.59318437e-01  4.37105135e-01 -3.36164296e-02 -4.17154831e-02
 -5.23214767e-02  2.16402294e-03 -7.37016615e-04 -3.59986944e-01
  4.39021143e-01  1.48414018e-01  6.53872536e-03 -9.77410272e-03
  9.22786494e-03 -2.37858463e-01 -3.72775955e-01 -1.57584804e-01
 -2.61641119e-02  2.29259672e-02 -8.37822568e-03  1.30355569e-03
  1.07415375e-03]",8.046545681170823,0,0
69,87,2024-09-23 20:43:25.407280896,TASK_BEGIN,15,-0.9857929693366329,-0.0694553174268439,-5.353025016090686,0.0930919193379005,0.4469082637111951,-0.3461133792967024,11.897845625372687,-4.318404073967617,1,2024-09-23 20:43:18.999941162,1727124198.999941,2024-09-23 20:43:18.999941120,4,[-4.56468066  6.24420912 -0.27863587 -1.2542662 ],-1.0,-20.638571635634445,[-4.56468066  6.24420912 -0.27863587 -1.2542662 ],[-0.9989743  -0.20132792 -0.6167555   0.1463237 ],[1.33988253 0.67155464 0.42469975],"[ 1.45810762e+00  8.01033920e-01  4.89426611e-01  1.42449119e+00
  7.59318437e-01  4.37105135e-01 -3.36164296e-02 -4.17154831e-02
 -5.23214767e-02  2.16402294e-03 -7.37016615e-04 -3.59986944e-01
  4.39021143e-01  1.48414018e-01  6.53872536e-03 -9.77410272e-03
  9.22786494e-03 -2.37858463e-01 -3.72775955e-01 -1.57584804e-01
 -2.61641119e-02  2.29259672e-02 -8.37822568e-03  1.30355569e-03
  1.07415375e-03]",8.046545681170823,0,0
70,88,2024-09-23 20:43:25.483902720,TASK_BEGIN,15,-1.0085565786797095,-0.0672224218497623,-5.396921654251192,0.1304153615641619,0.4983268870520269,-0.3622862766438201,11.743141503605074,-4.2617659924623,1,2024-09-23 20:43:19.217462158,1727124199.2174623,2024-09-23 20:43:19.217462272,4,[6.49821481 4.4061461  1.65161999 5.63990444],-1.0,-22.21786406008532,[6.49821481 4.4061461  1.65161999 5.63990444],[-0.50850844 -0.6598639  -0.9933151   0.00280731],[1.33988253 0.67155464 0.42469975],"[ 1.45552021  0.86659642  0.55215108  1.39523128  0.77386439  0.43551285
 -0.06028893 -0.09273203 -0.11663823  0.05117805  0.05167391 -0.56203571
 -0.04375637 -0.42229857 -0.03180123 -0.02344592 -0.01917691 -0.02212806
 -0.14624689 -0.08507318  0.0251479   0.02329202  0.02298951 -0.00324749
 -0.00466383]",10.347984288107021,0,0
71,89,2024-09-23 20:43:25.552530944,TASK_BEGIN,15,-1.0292696373471957,-0.065782651235224,-5.47796448576787,0.1732665481702102,0.5435839622089335,-0.3762670897850828,11.598603854118512,-4.177565786324667,1,2024-09-23 20:43:19.217462158,1727124199.2174623,2024-09-23 20:43:19.217462272,4,[6.49821481 4.4061461  1.65161999 5.63990444],-1.0,-22.21786406008532,[6.49821481 4.4061461  1.65161999 5.63990444],[-0.50850844 -0.6598639  -0.9933151   0.00280731],[1.33988253 0.67155464 0.42469975],"[ 1.45552021  0.86659642  0.55215108  1.39523128  0.77386439  0.43551285
 -0.06028893 -0.09273203 -0.11663823  0.05117805  0.05167391 -0.56203571
 -0.04375637 -0.42229857 -0.03180123 -0.02344592 -0.01917691 -0.02212806
 -0.14624689 -0.08507318  0.0251479   0.02329202  0.02298951 -0.00324749
 -0.00466383]",10.347984288107021,0,0
72,90,2024-09-23 20:43:25.620250880,TASK_BEGIN,15,-1.0472087568422102,-0.065633136168888,-5.589887395595563,0.2189730869620055,0.5789226645404514,-0.3870021712406846,11.47793795589484,-4.070452021029371,1,2024-09-23 20:43:19.217462158,1727124199.2174623,2024-09-23 20:43:19.217462272,4,[6.49821481 4.4061461  1.65161999 5.63990444],-1.0,-22.21786406008532,[6.49821481 4.4061461  1.65161999 5.63990444],[-0.50850844 -0.6598639  -0.9933151   0.00280731],[1.33988253 0.67155464 0.42469975],"[ 1.45552021  0.86659642  0.55215108  1.39523128  0.77386439  0.43551285
 -0.06028893 -0.09273203 -0.11663823  0.05117805  0.05167391 -0.56203571
 -0.04375637 -0.42229857 -0.03180123 -0.02344592 -0.01917691 -0.02212806
 -0.14624689 -0.08507318  0.0251479   0.02329202  0.02298951 -0.00324749
 -0.00466383]",10.347984288107021,0,0
73,91,2024-09-23 20:43:25.688044288,TASK_BEGIN,15,-1.0617539610639766,-0.0671739424032167,-5.726038237665871,0.2650342207611074,0.6012481041033583,-0.3935548885458511,11.391193575640123,-3.94614102708912,1,2024-09-23 20:43:19.217462158,1727124199.2174623,2024-09-23 20:43:19.217462272,4,[6.49821481 4.4061461  1.65161999 5.63990444],-1.0,-22.21786406008532,[6.49821481 4.4061461  1.65161999 5.63990444],[-0.50850844 -0.6598639  -0.9933151   0.00280731],[1.33988253 0.67155464 0.42469975],"[ 1.45552021  0.86659642  0.55215108  1.39523128  0.77386439  0.43551285
 -0.06028893 -0.09273203 -0.11663823  0.05117805  0.05167391 -0.56203571
 -0.04375637 -0.42229857 -0.03180123 -0.02344592 -0.01917691 -0.02212806
 -0.14624689 -0.08507318  0.0251479   0.02329202  0.02298951 -0.00324749
 -0.00466383]",10.347984288107021,0,0
74,92,2024-09-23 20:43:26.631083008,TASK_BEGIN,15,-1.0723254210551485,-0.0706688284423812,-5.8799398922964174,0.3092463257328767,0.6083555891889992,-0.3951927117895603,11.343854871755807,-3.810988887768755,1,2024-09-23 20:43:19.647173828,1727124199.6471741,2024-09-23 20:43:19.647174144,4,[-1.50757045 -7.84739708  8.88378225  6.99510491],-1.0,-25.282790566840355,[-1.50757045 -7.84739708  8.88378225  6.99510491],[-0.92336243 -0.66156274 -0.5104967  -0.0674476 ],[1.33988253 0.67155464 0.42469975],"[ 1.45882464e+00  8.04920626e-01  5.10831373e-01  1.38766957e+00
  7.49843293e-01  4.23719730e-01 -7.11550700e-02 -5.50773329e-02
 -8.71116434e-02  5.04314046e-02  5.03181329e-02  5.50871573e-02
  5.83149049e-03 -7.31263222e-01  3.41999745e-02  2.20505823e-02
 -2.77053171e-02  2.37266597e-03  6.59097461e-02 -1.74196008e-02
 -3.21528796e-02 -2.27414212e-02  2.69623778e-02 -1.13617124e-03
 -8.05073485e-04]",14.209949343173596,0,0
75,93,2024-09-23 20:43:26.698607872,TASK_BEGIN,15,-1.078357429147927,-0.0762212509959588,-6.045622914205519,0.3497997766430067,0.5990508538200928,-0.3914545440072684,11.335921744790662,-3.6714210392016655,1,2024-09-23 20:43:20.179330078,1727124200.1793303,2024-09-23 20:43:20.179330304,4,[-3.22155234 -3.61829944  4.61531364  6.22202064],-1.0,-28.944677272770754,[-3.22155234 -3.61829944  4.61531364  6.22202064],[-0.5319231   0.07688241 -0.99981225 -0.05322816],[1.33988253 0.67155464 0.42469975],"[ 1.45544868e+00  7.04940751e-01  6.07015362e-01  1.38765078e+00
  7.51014006e-01  4.24702627e-01 -6.77979004e-02  4.60732556e-02
 -1.82312735e-01  5.04188251e-02  5.03536073e-02  2.79807286e-03
  1.13678094e-03 -7.35082741e-01  3.15772143e-02  2.29325078e-02
 -2.85530861e-02 -1.59863980e-03 -6.49080324e-04 -1.68003141e-09
 -3.15934164e-02 -2.28926027e-02  2.86000888e-02 -9.87855005e-04
 -8.45274094e-04]",9.633239476778982,0,0
76,94,2024-09-23 20:43:26.766681856,TASK_BEGIN,15,-1.0793621412657954,-0.0837630516058672,-6.217754507875116,0.3853575536174233,0.573178450468047,-0.3821934202327854,11.361509859950718,-3.533400911908049,1,2024-09-23 20:43:20.179330078,1727124200.1793303,2024-09-23 20:43:20.179330304,4,[-3.22155234 -3.61829944  4.61531364  6.22202064],-1.0,-28.944677272770754,[-3.22155234 -3.61829944  4.61531364  6.22202064],[-0.5319231   0.07688241 -0.99981225 -0.05322816],[1.33988253 0.67155464 0.42469975],"[ 1.45544868e+00  7.04940751e-01  6.07015362e-01  1.38765078e+00
  7.51014006e-01  4.24702627e-01 -6.77979004e-02  4.60732556e-02
 -1.82312735e-01  5.04188251e-02  5.03536073e-02  2.79807286e-03
  1.13678094e-03 -7.35082741e-01  3.15772143e-02  2.29325078e-02
 -2.85530861e-02 -1.59863980e-03 -6.49080324e-04 -1.68003141e-09
 -3.15934164e-02 -2.28926027e-02  2.86000888e-02 -9.87855005e-04
 -8.45274094e-04]",9.633239476778982,0,0
77,95,2024-09-23 20:43:26.834465024,TASK_BEGIN,15,-1.075059869028867,-0.0930531612623346,-6.391714670950246,0.4151450819610146,0.5316061553663924,-0.3676001272930652,11.40953142646628,-3.4020901235785828,1,2024-09-23 20:43:20.179330078,1727124200.1793303,2024-09-23 20:43:20.179330304,4,[-3.22155234 -3.61829944  4.61531364  6.22202064],-1.0,-28.944677272770754,[-3.22155234 -3.61829944  4.61531364  6.22202064],[-0.5319231   0.07688241 -0.99981225 -0.05322816],[1.33988253 0.67155464 0.42469975],"[ 1.45544868e+00  7.04940751e-01  6.07015362e-01  1.38765078e+00
  7.51014006e-01  4.24702627e-01 -6.77979004e-02  4.60732556e-02
 -1.82312735e-01  5.04188251e-02  5.03536073e-02  2.79807286e-03
  1.13678094e-03 -7.35082741e-01  3.15772143e-02  2.29325078e-02
 -2.85530861e-02 -1.59863980e-03 -6.49080324e-04 -1.68003141e-09
 -3.15934164e-02 -2.28926027e-02  2.86000888e-02 -9.87855005e-04
 -8.45274094e-04]",9.633239476778982,0,0
78,96,2024-09-23 20:43:26.902198016,TASK_BEGIN,15,-1.0654920044307692,-0.1036907557273322,-6.563654513670793,0.4390196758212197,0.4761969951435659,-0.3482107967018504,11.46548697271056,-3.281701342763509,1,2024-09-23 20:43:20.179330078,1727124200.1793303,2024-09-23 20:43:20.179330304,4,[-3.22155234 -3.61829944  4.61531364  6.22202064],-1.0,-28.944677272770754,[-3.22155234 -3.61829944  4.61531364  6.22202064],[-0.5319231   0.07688241 -0.99981225 -0.05322816],[1.33988253 0.67155464 0.42469975],"[ 1.45544868e+00  7.04940751e-01  6.07015362e-01  1.38765078e+00
  7.51014006e-01  4.24702627e-01 -6.77979004e-02  4.60732556e-02
 -1.82312735e-01  5.04188251e-02  5.03536073e-02  2.79807286e-03
  1.13678094e-03 -7.35082741e-01  3.15772143e-02  2.29325078e-02
 -2.85530861e-02 -1.59863980e-03 -6.49080324e-04 -1.68003141e-09
 -3.15934164e-02 -2.28926027e-02  2.86000888e-02 -9.87855005e-04
 -8.45274094e-04]",9.633239476778982,0,0
79,97,2024-09-23 20:43:26.969996032,TASK_BEGIN,15,-1.0510453903829855,-0.1151510493238935,-6.730412395465085,0.457417020524552,0.4097475823938152,-0.3248911235232333,11.51367101735058,-3.175410341472458,1,2024-09-23 20:43:20.179330078,1727124200.1793303,2024-09-23 20:43:20.179330304,4,[-3.22155234 -3.61829944  4.61531364  6.22202064],-1.0,-28.944677272770754,[-3.22155234 -3.61829944  4.61531364  6.22202064],[-0.5319231   0.07688241 -0.99981225 -0.05322816],[1.33988253 0.67155464 0.42469975],"[ 1.45544868e+00  7.04940751e-01  6.07015362e-01  1.38765078e+00
  7.51014006e-01  4.24702627e-01 -6.77979004e-02  4.60732556e-02
 -1.82312735e-01  5.04188251e-02  5.03536073e-02  2.79807286e-03
  1.13678094e-03 -7.35082741e-01  3.15772143e-02  2.29325078e-02
 -2.85530861e-02 -1.59863980e-03 -6.49080324e-04 -1.68003141e-09
 -3.15934164e-02 -2.28926027e-02  2.86000888e-02 -9.87855005e-04
 -8.45274094e-04]",9.633239476778982,0,0
80,98,2024-09-23 20:43:27.031638016,TASK_BEGIN,15,-1.032394919859831,-0.1268426970828817,-6.889278190527724,0.4711335417215584,0.3358256539594838,-0.2987880841720129,11.53890387155872,-3.0852176073724698,1,2024-09-23 20:43:20.179330078,1727124200.1793303,2024-09-23 20:43:20.179330304,4,[-3.22155234 -3.61829944  4.61531364  6.22202064],-1.0,-28.944677272770754,[-3.22155234 -3.61829944  4.61531364  6.22202064],[-0.5319231   0.07688241 -0.99981225 -0.05322816],[1.33988253 0.67155464 0.42469975],"[ 1.45544868e+00  7.04940751e-01  6.07015362e-01  1.38765078e+00
  7.51014006e-01  4.24702627e-01 -6.77979004e-02  4.60732556e-02
 -1.82312735e-01  5.04188251e-02  5.03536073e-02  2.79807286e-03
  1.13678094e-03 -7.35082741e-01  3.15772143e-02  2.29325078e-02
 -2.85530861e-02 -1.59863980e-03 -6.49080324e-04 -1.68003141e-09
 -3.15934164e-02 -2.28926027e-02  2.86000888e-02 -9.87855005e-04
 -8.45274094e-04]",9.633239476778982,0,0
81,99,2024-09-23 20:43:27.967187968,TASK_BEGIN,15,-1.0104337328996351,-0.138172236488342,-7.037774939706596,0.481051225608303,0.2584555549496142,-0.2712495041185991,11.52746234770968,-3.011791172455132,1,2024-09-23 20:43:21.346298096,1727124201.3462982,2024-09-23 20:43:21.346298112,4,[ 6.89427739  9.69237624  7.51841954 -0.76329039],-1.0,-36.38145139361287,[ 6.89427739  9.69237624  7.51841954 -0.76329039],[ 0.57460463 -0.33056375 -0.99976134 -0.00853948],[1.33988253 0.67155464 0.42469975],"[ 1.34058748e+00  8.24977677e-01  6.05435971e-01  1.38762244e+00
  7.51083758e-01  4.24784311e-01  4.70349556e-02 -7.38939186e-02
 -1.80651660e-01  3.40163724e-02  3.93298508e-02  6.30269957e-06
  2.56134219e-06 -7.35081152e-01 -2.71150453e-02 -2.94961128e-02
 -2.92349398e-02 -3.53096714e-06 -1.43494308e-06  2.27501208e-18
  2.71150095e-02  2.94962011e-02  2.92350404e-02 -2.47015788e-02
 -1.95052250e-02]",14.21346346316031,0,0
82,100,2024-09-23 20:43:28.046464768,TASK_BEGIN,15,-0.9862467318083878,-0.1485963181180904,-7.173531652062226,0.4879425134250421,0.1816876559486604,-0.2437208322034748,11.467563862953634,-2.9544287534843416,1,2024-09-23 20:43:21.346298096,1727124201.3462982,2024-09-23 20:43:21.346298112,4,[ 6.89427739  9.69237624  7.51841954 -0.76329039],-1.0,-36.38145139361287,[ 6.89427739  9.69237624  7.51841954 -0.76329039],[ 0.57460463 -0.33056375 -0.99976134 -0.00853948],[1.33988253 0.67155464 0.42469975],"[ 1.34058748e+00  8.24977677e-01  6.05435971e-01  1.38762244e+00
  7.51083758e-01  4.24784311e-01  4.70349556e-02 -7.38939186e-02
 -1.80651660e-01  3.40163724e-02  3.93298508e-02  6.30269957e-06
  2.56134219e-06 -7.35081152e-01 -2.71150453e-02 -2.94961128e-02
 -2.92349398e-02 -3.53096714e-06 -1.43494308e-06  2.27501208e-18
  2.71150095e-02  2.94962011e-02  2.92350404e-02 -2.47015788e-02
 -1.95052250e-02]",14.21346346316031,0,0
83,101,2024-09-23 20:43:28.105936896,TASK_BEGIN,15,-0.9611227106371464,-0.1576455394450567,-7.294166330151067,0.4923782919966898,0.1091826023093425,-0.2176321494276362,11.349900801123535,-2.911247955524576,1,2024-09-23 20:43:21.346298096,1727124201.3462982,2024-09-23 20:43:21.346298112,4,[ 6.89427739  9.69237624  7.51841954 -0.76329039],-1.0,-36.38145139361287,[ 6.89427739  9.69237624  7.51841954 -0.76329039],[ 0.57460463 -0.33056375 -0.99976134 -0.00853948],[1.33988253 0.67155464 0.42469975],"[ 1.34058748e+00  8.24977677e-01  6.05435971e-01  1.38762244e+00
  7.51083758e-01  4.24784311e-01  4.70349556e-02 -7.38939186e-02
 -1.80651660e-01  3.40163724e-02  3.93298508e-02  6.30269957e-06
  2.56134219e-06 -7.35081152e-01 -2.71150453e-02 -2.94961128e-02
 -2.92349398e-02 -3.53096714e-06 -1.43494308e-06  2.27501208e-18
  2.71150095e-02  2.94962011e-02  2.92350404e-02 -2.47015788e-02
 -1.95052250e-02]",14.21346346316031,0,0
84,102,2024-09-23 20:43:28.181984768,TASK_BEGIN,15,-0.936546952801484,-0.1649171640191605,-7.397147645841469,0.4946812987811177,0.0439373865178844,-0.1942869701923074,11.168349734262112,-2.879558141368335,1,2024-09-23 20:43:21.346298096,1727124201.3462982,2024-09-23 20:43:21.346298112,4,[ 6.89427739  9.69237624  7.51841954 -0.76329039],-1.0,-36.38145139361287,[ 6.89427739  9.69237624  7.51841954 -0.76329039],[ 0.57460463 -0.33056375 -0.99976134 -0.00853948],[1.33988253 0.67155464 0.42469975],"[ 1.34058748e+00  8.24977677e-01  6.05435971e-01  1.38762244e+00
  7.51083758e-01  4.24784311e-01  4.70349556e-02 -7.38939186e-02
 -1.80651660e-01  3.40163724e-02  3.93298508e-02  6.30269957e-06
  2.56134219e-06 -7.35081152e-01 -2.71150453e-02 -2.94961128e-02
 -2.92349398e-02 -3.53096714e-06 -1.43494308e-06  2.27501208e-18
  2.71150095e-02  2.94962011e-02  2.92350404e-02 -2.47015788e-02
 -1.95052250e-02]",14.21346346316031,0,0
85,103,2024-09-23 20:43:28.249715200,TASK_BEGIN,15,-0.9141114110763944,-0.1700578224724062,-7.4796895651679955,0.4949097365699946,-0.011834779063585,-0.174758812698251,10.920582724954947,-2.8562409510302342,1,2024-09-23 20:43:21.346298096,1727124201.3462982,2024-09-23 20:43:21.346298112,4,[ 6.89427739  9.69237624  7.51841954 -0.76329039],-1.0,-36.38145139361287,[ 6.89427739  9.69237624  7.51841954 -0.76329039],[ 0.57460463 -0.33056375 -0.99976134 -0.00853948],[1.33988253 0.67155464 0.42469975],"[ 1.34058748e+00  8.24977677e-01  6.05435971e-01  1.38762244e+00
  7.51083758e-01  4.24784311e-01  4.70349556e-02 -7.38939186e-02
 -1.80651660e-01  3.40163724e-02  3.93298508e-02  6.30269957e-06
  2.56134219e-06 -7.35081152e-01 -2.71150453e-02 -2.94961128e-02
 -2.92349398e-02 -3.53096714e-06 -1.43494308e-06  2.27501208e-18
  2.71150095e-02  2.94962011e-02  2.92350404e-02 -2.47015788e-02
 -1.95052250e-02]",14.21346346316031,0,0
86,104,2024-09-23 20:43:28.307151104,TASK_BEGIN,15,-0.8953505438220021,-0.17276355245718,-7.538736546857304,0.4929139949551911,-0.0567399277362857,-0.159802930246396,10.608303337832414,-2.838010792458328,1,2024-09-23 20:43:22.096255127,1727124202.0962558,2024-09-23 20:43:22.096255744,4,[ 6.20163335 11.60161024  7.064078   -5.359945  ],-1.0,-40.70335535985003,[ 6.20163335 11.60161024  7.064078   -5.359945  ],[ 0.34650326  0.25228897 -0.9999878   0.07889169],[1.33988253 0.67155464 0.42469975],"[ 1.36234972e+00  7.15427380e-01  6.57168440e-01  1.38762238e+00
  7.51083912e-01  4.24784485e-01  2.52726527e-02  3.56565325e-02
 -2.32383955e-01  3.74930471e-02  4.07618773e-02  1.31782252e-07
  5.35547409e-08 -7.35081152e-01 -2.35617198e-02 -2.93039970e-02
 -2.27715253e-02 -7.38256316e-08 -3.00018593e-08 -3.77531537e-18
  2.35617191e-02  2.93039988e-02  2.27715274e-02 -1.97058545e-02
 -1.74404522e-02]",15.780035985219651,1,2
87,105,2024-09-23 20:43:28.385153024,TASK_BEGIN,15,-0.8815860534508075,-0.1728024184721771,-7.571117820453073,0.4884814909525923,-0.0901850222695431,-0.1498008962850675,10.23715354138186,-2.8215679415370443,1,2024-09-23 20:43:22.096255127,1727124202.0962558,2024-09-23 20:43:22.096255744,4,[ 6.20163335 11.60161024  7.064078   -5.359945  ],-1.0,-40.70335535985003,[ 6.20163335 11.60161024  7.064078   -5.359945  ],[ 0.34650326  0.25228897 -0.9999878   0.07889169],[1.33988253 0.67155464 0.42469975],"[ 1.36234972e+00  7.15427380e-01  6.57168440e-01  1.38762238e+00
  7.51083912e-01  4.24784485e-01  2.52726527e-02  3.56565325e-02
 -2.32383955e-01  3.74930471e-02  4.07618773e-02  1.31782252e-07
  5.35547409e-08 -7.35081152e-01 -2.35617198e-02 -2.93039970e-02
 -2.27715253e-02 -7.38256316e-08 -3.00018593e-08 -3.77531537e-18
  2.35617191e-02  2.93039988e-02  2.27715274e-02 -1.97058545e-02
 -1.74404522e-02]",15.780035985219651,1,2
88,106,2024-09-23 20:43:29.304897024,TASK_BEGIN,15,-0.8738353434767955,-0.1700473828607699,-7.573952771287677,0.4815086185607091,-0.1122832502252256,-0.1447515836853651,9.816507242407658,-2.8037386331265512,1,2024-09-23 20:43:22.416982910,1727124202.4169831,2024-09-23 20:43:22.416983040,4,[ 6.95995549 -6.91439819  3.41044666 -3.24013063],-1.0,-42.46452500230712,[ 6.95995549 -6.91439819  3.41044666 -3.24013063],[ 0.21850076 -0.14891945 -0.99999887  0.02636696],[1.33988253 0.67155464 0.42469975],"[ 1.43251656e+00  7.39302421e-01  6.40519825e-01  1.38762238e+00
  7.51083915e-01  4.24784488e-01 -4.48941860e-02  1.17814943e-02
 -2.15735336e-01  5.01987719e-02  4.95690640e-02  2.51191645e-08
  1.02081299e-08 -7.35081152e-01 -2.30774903e-02  2.91153959e-02
 -2.87738396e-02 -1.40719781e-08 -5.71868467e-09  3.79029495e-18
  2.30774901e-02 -2.91153955e-02  2.87738400e-02 -1.14674441e-02
 -1.15064125e-02]",11.264110554875888,1,2
89,107,2024-09-23 20:43:29.371373824,TASK_BEGIN,15,-0.8727467814881191,-0.1645092704382772,-7.54523904955339,0.4721069993666126,-0.1236737074143736,-0.1442995388234221,9.35916039525579,-2.781661266900102,1,2024-09-23 20:43:22.416982910,1727124202.4169831,2024-09-23 20:43:22.416983040,4,[ 6.95995549 -6.91439819  3.41044666 -3.24013063],-1.0,-42.46452500230712,[ 6.95995549 -6.91439819  3.41044666 -3.24013063],[ 0.21850076 -0.14891945 -0.99999887  0.02636696],[1.33988253 0.67155464 0.42469975],"[ 1.43251656e+00  7.39302421e-01  6.40519825e-01  1.38762238e+00
  7.51083915e-01  4.24784488e-01 -4.48941860e-02  1.17814943e-02
 -2.15735336e-01  5.01987719e-02  4.95690640e-02  2.51191645e-08
  1.02081299e-08 -7.35081152e-01 -2.30774903e-02  2.91153959e-02
 -2.87738396e-02 -1.40719781e-08 -5.71868467e-09  3.79029495e-18
  2.30774901e-02 -2.91153955e-02  2.87738400e-02 -1.14674441e-02
 -1.15064125e-02]",11.264110554875888,1,2
90,108,2024-09-23 20:43:29.436677888,TASK_BEGIN,15,-0.8785044849023437,-0.1563623082004258,-7.484331846426291,0.460592996880327,-0.1252867524515704,-0.1477862996357263,8.880676918133743,-2.75298124929792,1,2024-09-23 20:43:23.167145996,1727124203.1671462,2024-09-23 20:43:23.167146240,4,[-6.74181028 -0.28774508 -7.87369012  3.8324496 ],-1.0,-46.37317747928146,[-6.74181028 -0.28774508 -7.87369012  3.8324496 ],[-0.389168   -0.3341586  -0.99981433 -0.10462295],[1.33988253 0.67155464 0.42469975],"[ 1.49396714e+00  7.96859612e-01  5.93099159e-01  1.38762238e+00
  7.51083916e-01  4.24784489e-01 -1.06344764e-01 -4.57756960e-02
 -1.68314669e-01  5.05941961e-02  5.05210701e-02  5.25232659e-10
  2.13448307e-10 -7.35081152e-01  6.05827833e-03  8.45241058e-03
  2.40915923e-02 -2.94239943e-10 -1.19575602e-10  1.58996126e-18
 -6.05827833e-03 -8.45241057e-03 -2.40915923e-02 -1.59612630e-03
 -1.38725439e-03]",10.524518458328469,1,2
91,109,2024-09-23 20:43:29.506242816,TASK_BEGIN,15,-0.8907230638028379,-0.1459527433087276,-7.392032927885669,0.4473726380873341,-0.1181265489021366,-0.1543268755399231,8.398257083418425,-2.715991996256201,1,2024-09-23 20:43:23.167145996,1727124203.1671462,2024-09-23 20:43:23.167146240,4,[-6.74181028 -0.28774508 -7.87369012  3.8324496 ],-1.0,-46.37317747928146,[-6.74181028 -0.28774508 -7.87369012  3.8324496 ],[-0.389168   -0.3341586  -0.99981433 -0.10462295],[1.33988253 0.67155464 0.42469975],"[ 1.49396714e+00  7.96859612e-01  5.93099159e-01  1.38762238e+00
  7.51083916e-01  4.24784489e-01 -1.06344764e-01 -4.57756960e-02
 -1.68314669e-01  5.05941961e-02  5.05210701e-02  5.25232659e-10
  2.13448307e-10 -7.35081152e-01  6.05827833e-03  8.45241058e-03
  2.40915923e-02 -2.94239943e-10 -1.19575602e-10  1.58996126e-18
 -6.05827833e-03 -8.45241057e-03 -2.40915923e-02 -1.59612630e-03
 -1.38725439e-03]",10.524518458328469,1,2
92,110,2024-09-23 20:43:29.575889920,TASK_BEGIN,15,-0.908421174200239,-0.1337845146339602,-7.270335110562422,0.4327730453886148,-0.1031608829996225,-0.1629120929437914,7.929394184109632,-2.669738280174378,1,2024-09-23 20:43:23.167145996,1727124203.1671462,2024-09-23 20:43:23.167146240,4,[-6.74181028 -0.28774508 -7.87369012  3.8324496 ],-1.0,-46.37317747928146,[-6.74181028 -0.28774508 -7.87369012  3.8324496 ],[-0.389168   -0.3341586  -0.99981433 -0.10462295],[1.33988253 0.67155464 0.42469975],"[ 1.49396714e+00  7.96859612e-01  5.93099159e-01  1.38762238e+00
  7.51083916e-01  4.24784489e-01 -1.06344764e-01 -4.57756960e-02
 -1.68314669e-01  5.05941961e-02  5.05210701e-02  5.25232659e-10
  2.13448307e-10 -7.35081152e-01  6.05827833e-03  8.45241058e-03
  2.40915923e-02 -2.94239943e-10 -1.19575602e-10  1.58996126e-18
 -6.05827833e-03 -8.45241057e-03 -2.40915923e-02 -1.59612630e-03
 -1.38725439e-03]",10.524518458328469,1,2
93,111,2024-09-23 20:43:29.643628032,TASK_BEGIN,15,-0.930135896916234,-0.1204829507145594,-7.122134628029791,0.4169103334813698,-0.0813491625484933,-0.1725166221700693,7.490723731708094,-2.6141238003042684,1,2024-09-23 20:43:23.167145996,1727124203.1671462,2024-09-23 20:43:23.167146240,4,[-6.74181028 -0.28774508 -7.87369012  3.8324496 ],-1.0,-46.37317747928146,[-6.74181028 -0.28774508 -7.87369012  3.8324496 ],[-0.389168   -0.3341586  -0.99981433 -0.10462295],[1.33988253 0.67155464 0.42469975],"[ 1.49396714e+00  7.96859612e-01  5.93099159e-01  1.38762238e+00
  7.51083916e-01  4.24784489e-01 -1.06344764e-01 -4.57756960e-02
 -1.68314669e-01  5.05941961e-02  5.05210701e-02  5.25232659e-10
  2.13448307e-10 -7.35081152e-01  6.05827833e-03  8.45241058e-03
  2.40915923e-02 -2.94239943e-10 -1.19575602e-10  1.58996126e-18
 -6.05827833e-03 -8.45241057e-03 -2.40915923e-02 -1.59612630e-03
 -1.38725439e-03]",10.524518458328469,1,2
94,112,2024-09-23 20:43:29.711461888,TASK_BEGIN,15,-0.954154059245128,-0.1067435308100211,-6.951139676400378,0.3997130557947465,-0.0537326273315234,-0.1821886400555926,7.097132796345244,-2.549969784397994,1,2024-09-23 20:43:23.167145996,1727124203.1671462,2024-09-23 20:43:23.167146240,4,[-6.74181028 -0.28774508 -7.87369012  3.8324496 ],-1.0,-46.37317747928146,[-6.74181028 -0.28774508 -7.87369012  3.8324496 ],[-0.389168   -0.3341586  -0.99981433 -0.10462295],[1.33988253 0.67155464 0.42469975],"[ 1.49396714e+00  7.96859612e-01  5.93099159e-01  1.38762238e+00
  7.51083916e-01  4.24784489e-01 -1.06344764e-01 -4.57756960e-02
 -1.68314669e-01  5.05941961e-02  5.05210701e-02  5.25232659e-10
  2.13448307e-10 -7.35081152e-01  6.05827833e-03  8.45241058e-03
  2.40915923e-02 -2.94239943e-10 -1.19575602e-10  1.58996126e-18
 -6.05827833e-03 -8.45241057e-03 -2.40915923e-02 -1.59612630e-03
 -1.38725439e-03]",10.524518458328469,1,2
95,113,2024-09-23 20:43:30.640258048,TASK_BEGIN,15,-0.978769793591484,-0.0932785024009769,-6.761978699937434,0.3811435242573485,-0.021462899977899,-0.1911135602201728,6.7609461915427245,-2.4789206766592145,1,2024-09-23 20:43:24.232218994,1727124204.232219,2024-09-23 20:43:24.232218880,4,[-6.17827085  0.79875935 -9.48034606  8.54247888],-1.0,-51.500862972583676,[-6.17827085  0.79875935 -9.48034606  8.54247888],[-0.99954265 -0.0682935   0.32368636 -0.12605996],[1.33988253 0.67155464 0.42469975],"[ 1.52062479e+00  7.71816809e-01  4.16919401e-01  1.38762238e+00
  7.51083916e-01  4.24784489e-01 -1.33002412e-01 -2.07328932e-02
  7.86508776e-03 -3.80352986e-04  1.41291976e-02  2.09338060e-12
  8.50721390e-13 -7.35081152e-01  8.18763809e-03 -1.57988373e-02
 -1.61409586e-03 -1.17272533e-12 -4.76585295e-13  8.30843589e-19
 -8.18763809e-03  1.57988373e-02  1.61409586e-03  6.80375119e-04
  1.98154730e-02]",13.744864413257059,1,2
96,114,2024-09-23 20:43:30.723112960,TASK_BEGIN,15,-1.0024676592338846,-0.0807738797529992,-6.560396990304417,0.3614932477874604,0.0143042830640468,-0.1986612834917826,6.491201691235536,-2.403176440847171,1,2024-09-23 20:43:24.232218994,1727124204.232219,2024-09-23 20:43:24.232218880,4,[-6.17827085  0.79875935 -9.48034606  8.54247888],-1.0,-51.500862972583676,[-6.17827085  0.79875935 -9.48034606  8.54247888],[-0.99954265 -0.0682935   0.32368636 -0.12605996],[1.33988253 0.67155464 0.42469975],"[ 1.52062479e+00  7.71816809e-01  4.16919401e-01  1.38762238e+00
  7.51083916e-01  4.24784489e-01 -1.33002412e-01 -2.07328932e-02
  7.86508776e-03 -3.80352986e-04  1.41291976e-02  2.09338060e-12
  8.50721390e-13 -7.35081152e-01  8.18763809e-03 -1.57988373e-02
 -1.61409586e-03 -1.17272533e-12 -4.76585295e-13  8.30843589e-19
 -8.18763809e-03  1.57988373e-02  1.61409586e-03  6.80375119e-04
  1.98154730e-02]",13.744864413257059,1,2
97,115,2024-09-23 20:43:30.790889984,TASK_BEGIN,15,-1.023989135673382,-0.0698593861843595,-6.35338938392418,0.3415640901528017,0.0526084564015216,-0.2044288716863661,6.293223043192706,-2.325130350983252,1,2024-09-23 20:43:24.232218994,1727124204.232219,2024-09-23 20:43:24.232218880,4,[-6.17827085  0.79875935 -9.48034606  8.54247888],-1.0,-51.500862972583676,[-6.17827085  0.79875935 -9.48034606  8.54247888],[-0.99954265 -0.0682935   0.32368636 -0.12605996],[1.33988253 0.67155464 0.42469975],"[ 1.52062479e+00  7.71816809e-01  4.16919401e-01  1.38762238e+00
  7.51083916e-01  4.24784489e-01 -1.33002412e-01 -2.07328932e-02
  7.86508776e-03 -3.80352986e-04  1.41291976e-02  2.09338060e-12
  8.50721390e-13 -7.35081152e-01  8.18763809e-03 -1.57988373e-02
 -1.61409586e-03 -1.17272533e-12 -4.76585295e-13  8.30843589e-19
 -8.18763809e-03  1.57988373e-02  1.61409586e-03  6.80375119e-04
  1.98154730e-02]",13.744864413257059,1,2
98,116,2024-09-23 20:43:30.858354944,TASK_BEGIN,15,-1.0423286531947509,-0.0610843481819262,-6.149128590269007,0.3226620137352566,0.0928398934317991,-0.2082721916032293,6.168482937969633,-2.247014533479066,1,2024-09-23 20:43:24.232218994,1727124204.232219,2024-09-23 20:43:24.232218880,4,[-6.17827085  0.79875935 -9.48034606  8.54247888],-1.0,-51.500862972583676,[-6.17827085  0.79875935 -9.48034606  8.54247888],[-0.99954265 -0.0682935   0.32368636 -0.12605996],[1.33988253 0.67155464 0.42469975],"[ 1.52062479e+00  7.71816809e-01  4.16919401e-01  1.38762238e+00
  7.51083916e-01  4.24784489e-01 -1.33002412e-01 -2.07328932e-02
  7.86508776e-03 -3.80352986e-04  1.41291976e-02  2.09338060e-12
  8.50721390e-13 -7.35081152e-01  8.18763809e-03 -1.57988373e-02
 -1.61409586e-03 -1.17272533e-12 -4.76585295e-13  8.30843589e-19
 -8.18763809e-03  1.57988373e-02  1.61409586e-03  6.80375119e-04
  1.98154730e-02]",13.744864413257059,1,2
99,117,2024-09-23 20:43:30.921084928,TASK_BEGIN,15,-1.05673811892104,-0.0548918214472994,-5.95666535766879,0.306470855878288,0.1347303792332837,-0.2103024943145865,6.114438626281966,-2.170614686931338,1,2024-09-23 20:43:24.232218994,1727124204.232219,2024-09-23 20:43:24.232218880,4,[-6.17827085  0.79875935 -9.48034606  8.54247888],-1.0,-51.500862972583676,[-6.17827085  0.79875935 -9.48034606  8.54247888],[-0.99954265 -0.0682935   0.32368636 -0.12605996],[1.33988253 0.67155464 0.42469975],"[ 1.52062479e+00  7.71816809e-01  4.16919401e-01  1.38762238e+00
  7.51083916e-01  4.24784489e-01 -1.33002412e-01 -2.07328932e-02
  7.86508776e-03 -3.80352986e-04  1.41291976e-02  2.09338060e-12
  8.50721390e-13 -7.35081152e-01  8.18763809e-03 -1.57988373e-02
 -1.61409586e-03 -1.17272533e-12 -4.76585295e-13  8.30843589e-19
 -8.18763809e-03  1.57988373e-02  1.61409586e-03  6.80375119e-04
  1.98154730e-02]",13.744864413257059,1,2
100,118,2024-09-23 20:43:30.983571968,TASK_BEGIN,15,-1.066771427334572,-0.0515870015101969,-5.785501398729225,0.2948947233437451,0.1781749499754159,-0.2108344682276108,6.124151766264961,-2.097073530623019,1,2024-09-23 20:43:24.232218994,1727124204.232219,2024-09-23 20:43:24.232218880,4,[-6.17827085  0.79875935 -9.48034606  8.54247888],-1.0,-51.500862972583676,[-6.17827085  0.79875935 -9.48034606  8.54247888],[-0.99954265 -0.0682935   0.32368636 -0.12605996],[1.33988253 0.67155464 0.42469975],"[ 1.52062479e+00  7.71816809e-01  4.16919401e-01  1.38762238e+00
  7.51083916e-01  4.24784489e-01 -1.33002412e-01 -2.07328932e-02
  7.86508776e-03 -3.80352986e-04  1.41291976e-02  2.09338060e-12
  8.50721390e-13 -7.35081152e-01  8.18763809e-03 -1.57988373e-02
 -1.61409586e-03 -1.17272533e-12 -4.76585295e-13  8.30843589e-19
 -8.18763809e-03  1.57988373e-02  1.61409586e-03  6.80375119e-04
  1.98154730e-02]",13.744864413257059,1,2
101,119,2024-09-23 20:43:31.061262080,TASK_BEGIN,15,-1.072329662346739,-0.0513030635132484,-5.645128100294176,0.2898947058413648,0.2229936817019635,-0.2103018608626659,6.185980985054096,-2.026817858803784,1,2024-09-23 20:43:24.232218994,1727124204.232219,2024-09-23 20:43:24.232218880,4,[-6.17827085  0.79875935 -9.48034606  8.54247888],-1.0,-51.500862972583676,[-6.17827085  0.79875935 -9.48034606  8.54247888],[-0.99954265 -0.0682935   0.32368636 -0.12605996],[1.33988253 0.67155464 0.42469975],"[ 1.52062479e+00  7.71816809e-01  4.16919401e-01  1.38762238e+00
  7.51083916e-01  4.24784489e-01 -1.33002412e-01 -2.07328932e-02
  7.86508776e-03 -3.80352986e-04  1.41291976e-02  2.09338060e-12
  8.50721390e-13 -7.35081152e-01  8.18763809e-03 -1.57988373e-02
 -1.61409586e-03 -1.17272533e-12 -4.76585295e-13  8.30843589e-19
 -8.18763809e-03  1.57988373e-02  1.61409586e-03  6.80375119e-04
  1.98154730e-02]",13.744864413257059,1,2
102,126,2024-09-23 20:43:32.411458048,TASK_BEGIN,15,-1.0260516271728644,-0.1099814434628672,-6.077413378933475,0.5496008126920265,0.5053449418824043,-0.2115352266028879,6.582440758083486,-1.5923741653598742,1,2024-09-23 20:43:26.164871094,1727124206.1648712,2024-09-23 20:43:26.164871168,5,[ 0.99847066  0.72162944 -0.06148827  0.14924589],-1.0,-1.0,[ 0.99847066  0.72162944 -0.06148827  0.14924589],[ 0.99847066  0.72162944 -0.06148827  0.14924589],[1.19794596 0.60811617 0.42469975],"[ 1.37128741e+00  7.71512234e-01  5.32521280e-01  1.48587425e+00
  8.67827206e-01  4.24737381e-01  1.14586837e-01  9.63149720e-02
 -1.07783898e-01  2.97126204e-02  3.10403598e-02 -5.03884423e-08
  7.75206804e-08 -2.38444375e-16 -2.56287744e-02 -1.90400336e-02
  1.88611981e-03  2.85323085e-08 -4.38958592e-08  1.44095433e-18
  2.56287733e-02  1.90400329e-02 -1.85945425e-03  5.22120331e-02
  5.28510615e-02]",0.9116488695144653,0,0
103,127,2024-09-23 20:43:33.355349248,TASK_BEGIN,15,-1.0164355700967116,-0.1205051750080355,-6.349944082550064,0.6308448153578188,0.5239041039119704,-0.2153421416369417,6.477605624337643,-1.5368519487577197,1,2024-09-23 20:43:27.139416016,1727124207.139417,2024-09-23 20:43:27.139416832,5,[-0.51930726 -0.25999475  0.99546045 -0.1301569 ],-1.0,-9.561792499119552,[-0.51930726 -0.25999475  0.99546045 -0.1301569 ],[-0.99998826 -0.6131853  -0.03602006 -0.27962458],[1.19794596 0.60811617 0.42469975],"[ 1.46281327e+00  8.37508522e-01  4.98771408e-01  1.45396569e+00
  8.38871774e-01  4.79683629e-01 -8.84757382e-03  1.36325214e-03
 -1.90877792e-02  2.49707589e-02  2.25037458e-02 -6.28653193e-04
  7.17119209e-03  9.39734413e-03  9.40565596e-04 -7.96829671e-04
  1.89255428e-04  5.48235908e-04 -1.42084176e-03  2.26631904e-03
 -1.28893790e-02 -6.11505113e-03  2.39358764e-02  6.50773384e-05
  1.29404768e-03]",1.3746702671051025,0,0
104,128,2024-09-23 20:43:33.423301888,TASK_BEGIN,15,-1.0087267029297138,-0.1297443301900409,-6.654869424634557,0.7191979774320576,0.53151888100686,-0.2200548353379927,6.335119440882323,-1.4848208760913353,1,2024-09-23 20:43:27.139416016,1727124207.139417,2024-09-23 20:43:27.139416832,5,[-0.51930726 -0.25999475  0.99546045 -0.1301569 ],-1.0,-9.561792499119552,[-0.51930726 -0.25999475  0.99546045 -0.1301569 ],[-0.99998826 -0.6131853  -0.03602006 -0.27962458],[1.19794596 0.60811617 0.42469975],"[ 1.46281327e+00  8.37508522e-01  4.98771408e-01  1.45396569e+00
  8.38871774e-01  4.79683629e-01 -8.84757382e-03  1.36325214e-03
 -1.90877792e-02  2.49707589e-02  2.25037458e-02 -6.28653193e-04
  7.17119209e-03  9.39734413e-03  9.40565596e-04 -7.96829671e-04
  1.89255428e-04  5.48235908e-04 -1.42084176e-03  2.26631904e-03
 -1.28893790e-02 -6.11505113e-03  2.39358764e-02  6.50773384e-05
  1.29404768e-03]",1.3746702671051025,0,0
105,129,2024-09-23 20:43:33.491068160,TASK_BEGIN,15,-1.0037583749896166,-0.1372817218245098,-6.9791038675310455,0.8115946526260441,0.5264135019128813,-0.2254374468454598,6.171443760433559,-1.4376170381444462,1,2024-09-23 20:43:27.139416016,1727124207.139417,2024-09-23 20:43:27.139416832,5,[-0.51930726 -0.25999475  0.99546045 -0.1301569 ],-1.0,-9.561792499119552,[-0.51930726 -0.25999475  0.99546045 -0.1301569 ],[-0.99998826 -0.6131853  -0.03602006 -0.27962458],[1.19794596 0.60811617 0.42469975],"[ 1.46281327e+00  8.37508522e-01  4.98771408e-01  1.45396569e+00
  8.38871774e-01  4.79683629e-01 -8.84757382e-03  1.36325214e-03
 -1.90877792e-02  2.49707589e-02  2.25037458e-02 -6.28653193e-04
  7.17119209e-03  9.39734413e-03  9.40565596e-04 -7.96829671e-04
  1.89255428e-04  5.48235908e-04 -1.42084176e-03  2.26631904e-03
 -1.28893790e-02 -6.11505113e-03  2.39358764e-02  6.50773384e-05
  1.29404768e-03]",1.3746702671051025,0,0
106,130,2024-09-23 20:43:33.558712832,TASK_BEGIN,15,-1.0023266127897976,-0.1428676108834704,-7.308449902116189,0.9042007930919504,0.5071577069526862,-0.231153743673587,6.006940862498264,-1.3969694531331964,1,2024-09-23 20:43:27.139416016,1727124207.139417,2024-09-23 20:43:27.139416832,5,[-0.51930726 -0.25999475  0.99546045 -0.1301569 ],-1.0,-9.561792499119552,[-0.51930726 -0.25999475  0.99546045 -0.1301569 ],[-0.99998826 -0.6131853  -0.03602006 -0.27962458],[1.19794596 0.60811617 0.42469975],"[ 1.46281327e+00  8.37508522e-01  4.98771408e-01  1.45396569e+00
  8.38871774e-01  4.79683629e-01 -8.84757382e-03  1.36325214e-03
 -1.90877792e-02  2.49707589e-02  2.25037458e-02 -6.28653193e-04
  7.17119209e-03  9.39734413e-03  9.40565596e-04 -7.96829671e-04
  1.89255428e-04  5.48235908e-04 -1.42084176e-03  2.26631904e-03
 -1.28893790e-02 -6.11505113e-03  2.39358764e-02  6.50773384e-05
  1.29404768e-03]",1.3746702671051025,0,0
107,131,2024-09-23 20:43:33.626583040,TASK_BEGIN,15,-1.0051510031416224,-0.1464227046426892,-7.628427819137743,0.9925737129676068,0.4729415444981799,-0.2367680902135266,5.863672219034417,-1.3650499913985268,1,2024-09-23 20:43:27.139416016,1727124207.139417,2024-09-23 20:43:27.139416832,5,[-0.51930726 -0.25999475  0.99546045 -0.1301569 ],-1.0,-9.561792499119552,[-0.51930726 -0.25999475  0.99546045 -0.1301569 ],[-0.99998826 -0.6131853  -0.03602006 -0.27962458],[1.19794596 0.60811617 0.42469975],"[ 1.46281327e+00  8.37508522e-01  4.98771408e-01  1.45396569e+00
  8.38871774e-01  4.79683629e-01 -8.84757382e-03  1.36325214e-03
 -1.90877792e-02  2.49707589e-02  2.25037458e-02 -6.28653193e-04
  7.17119209e-03  9.39734413e-03  9.40565596e-04 -7.96829671e-04
  1.89255428e-04  5.48235908e-04 -1.42084176e-03  2.26631904e-03
 -1.28893790e-02 -6.11505113e-03  2.39358764e-02  6.50773384e-05
  1.29404768e-03]",1.3746702671051025,0,0
108,132,2024-09-23 20:43:33.693652992,TASK_BEGIN,15,-1.0127779824512584,-0.1480213189726131,-7.925070309326317,1.072042402360358,0.423869592440548,-0.2417822117143078,5.762918293830623,-1.3443910160289154,1,2024-09-23 20:43:27.459420898,1727124207.4594212,2024-09-23 20:43:27.459421184,5,[-0.59291077 -0.331211    0.9956653  -0.15196347],-1.0,-12.247897700103202,[-0.59291077 -0.331211    0.9956653  -0.15196347],[-0.9935098  -0.524898   -0.37064847 -0.18274814],[1.19794596 0.60811617 0.42469975],"[ 1.40543069e+00  8.04565900e-01  5.96907675e-01  1.39861416e+00
  8.04028965e-01  5.78781175e-01 -6.81653533e-03 -5.36935463e-04
 -1.81264999e-02  2.36595992e-02  2.44686393e-02 -3.76111312e-04
  4.80168274e-03  1.41837047e-02  5.42884514e-04 -5.69922802e-04
  2.59923989e-04 -2.64358555e-03 -6.68798022e-04  9.44965762e-04
 -1.44467889e-02 -7.77277575e-03  2.32132649e-02 -4.79901392e-04
  4.74675497e-04]",1.5547233819961548,1,1
109,133,2024-09-23 20:43:33.758971904,TASK_BEGIN,15,-1.0254695562254967,-0.1478696803641952,-8.185673526682997,1.138244131824666,0.3611545408237399,-0.2456997926299841,5.722872153898007,-1.3376661589381047,1,2024-09-23 20:43:27.459420898,1727124207.4594212,2024-09-23 20:43:27.459421184,5,[-0.59291077 -0.331211    0.9956653  -0.15196347],-1.0,-12.247897700103202,[-0.59291077 -0.331211    0.9956653  -0.15196347],[-0.9935098  -0.524898   -0.37064847 -0.18274814],[1.19794596 0.60811617 0.42469975],"[ 1.40543069e+00  8.04565900e-01  5.96907675e-01  1.39861416e+00
  8.04028965e-01  5.78781175e-01 -6.81653533e-03 -5.36935463e-04
 -1.81264999e-02  2.36595992e-02  2.44686393e-02 -3.76111312e-04
  4.80168274e-03  1.41837047e-02  5.42884514e-04 -5.69922802e-04
  2.59923989e-04 -2.64358555e-03 -6.68798022e-04  9.44965762e-04
 -1.44467889e-02 -7.77277575e-03  2.32132649e-02 -4.79901392e-04
  4.74675497e-04]",1.5547233819961548,1,1
110,134,2024-09-23 20:43:34.706141184,TASK_BEGIN,15,-1.0431410136666002,-0.146282605642096,-8.39953823526185,1.1876540964596782,0.287123530383823,-0.2480996090835537,5.756712464249473,-1.3473447284678204,1,2024-09-23 20:43:28.106520996,1727124208.1065218,2024-09-23 20:43:28.106521856,5,[-0.69636726 -0.7048846   0.677427   -0.23734167],-1.0,-17.383137616441328,[-0.69636726 -0.7048846   0.677427   -0.23734167],[-0.34119135 -0.12677403 -0.59931487  0.08763631],[1.19794596 0.60811617 0.42469975],"[ 1.27476574e+00  7.01458301e-01  7.45784851e-01  1.27017255e+00
  7.01604740e-01  7.29424858e-01 -4.59319285e-03  1.46438643e-04
 -1.63599930e-02  2.45639035e-02  2.35502667e-02 -1.94849391e-04
  2.76640346e-03  1.52597352e-02  9.83401307e-05 -2.91912774e-04
  3.22611549e-04  1.02580924e-04  3.80354913e-03  5.19280457e-04
 -1.35235667e-02 -1.68015535e-02  1.49441077e-02 -3.80180427e-04
  3.65955024e-04]",1.4164451360702515,1,1
111,135,2024-09-23 20:43:34.773933824,TASK_BEGIN,15,-1.065378951760897,-0.1436516283641989,-8.558662211534699,1.2179670975471133,0.2050328001575016,-0.2487059711527284,5.871182812535995,-1.3753096752909415,1,2024-09-23 20:43:28.106520996,1727124208.1065218,2024-09-23 20:43:28.106521856,5,[-0.69636726 -0.7048846   0.677427   -0.23734167],-1.0,-17.383137616441328,[-0.69636726 -0.7048846   0.677427   -0.23734167],[-0.34119135 -0.12677403 -0.59931487  0.08763631],[1.19794596 0.60811617 0.42469975],"[ 1.27476574e+00  7.01458301e-01  7.45784851e-01  1.27017255e+00
  7.01604740e-01  7.29424858e-01 -4.59319285e-03  1.46438643e-04
 -1.63599930e-02  2.45639035e-02  2.35502667e-02 -1.94849391e-04
  2.76640346e-03  1.52597352e-02  9.83401307e-05 -2.91912774e-04
  3.22611549e-04  1.02580924e-04  3.80354913e-03  5.19280457e-04
 -1.35235667e-02 -1.68015535e-02  1.49441077e-02 -3.80180427e-04
  3.65955024e-04]",1.4164451360702515,1,1
112,136,2024-09-23 20:43:34.839454720,TASK_BEGIN,15,-1.091514338705041,-0.1404010728783143,-8.658270090762631,1.228296441736105,0.1187382242753711,-0.247443705423663,6.066077988187797,-1.4226166830260596,1,2024-09-23 20:43:28.106520996,1727124208.1065218,2024-09-23 20:43:28.106521856,5,[-0.69636726 -0.7048846   0.677427   -0.23734167],-1.0,-17.383137616441328,[-0.69636726 -0.7048846   0.677427   -0.23734167],[-0.34119135 -0.12677403 -0.59931487  0.08763631],[1.19794596 0.60811617 0.42469975],"[ 1.27476574e+00  7.01458301e-01  7.45784851e-01  1.27017255e+00
  7.01604740e-01  7.29424858e-01 -4.59319285e-03  1.46438643e-04
 -1.63599930e-02  2.45639035e-02  2.35502667e-02 -1.94849391e-04
  2.76640346e-03  1.52597352e-02  9.83401307e-05 -2.91912774e-04
  3.22611549e-04  1.02580924e-04  3.80354913e-03  5.19280457e-04
 -1.35235667e-02 -1.68015535e-02  1.49441077e-02 -3.80180427e-04
  3.65955024e-04]",1.4164451360702515,1,1
113,137,2024-09-23 20:43:34.901454848,TASK_BEGIN,15,-1.1206931555231747,-0.136937841348755,-8.697086521716617,1.219214799440441,0.0323066744302094,-0.2444602442940547,6.335039452884892,-1.4894978721709813,1,2024-09-23 20:43:28.106520996,1727124208.1065218,2024-09-23 20:43:28.106521856,5,[-0.69636726 -0.7048846   0.677427   -0.23734167],-1.0,-17.383137616441328,[-0.69636726 -0.7048846   0.677427   -0.23734167],[-0.34119135 -0.12677403 -0.59931487  0.08763631],[1.19794596 0.60811617 0.42469975],"[ 1.27476574e+00  7.01458301e-01  7.45784851e-01  1.27017255e+00
  7.01604740e-01  7.29424858e-01 -4.59319285e-03  1.46438643e-04
 -1.63599930e-02  2.45639035e-02  2.35502667e-02 -1.94849391e-04
  2.76640346e-03  1.52597352e-02  9.83401307e-05 -2.91912774e-04
  3.22611549e-04  1.02580924e-04  3.80354913e-03  5.19280457e-04
 -1.35235667e-02 -1.68015535e-02  1.49441077e-02 -3.80180427e-04
  3.65955024e-04]",1.4164451360702515,1,1
114,138,2024-09-23 20:43:34.972192000,TASK_BEGIN,15,-1.1519036119193609,-0.1336081916247222,-8.67733336668956,1.192636456956322,-0.0503279930203722,-0.2401075181605793,6.667523589730051,-1.5755381979683016,1,2024-09-23 20:43:28.106520996,1727124208.1065218,2024-09-23 20:43:28.106521856,5,[-0.69636726 -0.7048846   0.677427   -0.23734167],-1.0,-17.383137616441328,[-0.69636726 -0.7048846   0.677427   -0.23734167],[-0.34119135 -0.12677403 -0.59931487  0.08763631],[1.19794596 0.60811617 0.42469975],"[ 1.27476574e+00  7.01458301e-01  7.45784851e-01  1.27017255e+00
  7.01604740e-01  7.29424858e-01 -4.59319285e-03  1.46438643e-04
 -1.63599930e-02  2.45639035e-02  2.35502667e-02 -1.94849391e-04
  2.76640346e-03  1.52597352e-02  9.83401307e-05 -2.91912774e-04
  3.22611549e-04  1.02580924e-04  3.80354913e-03  5.19280457e-04
 -1.35235667e-02 -1.68015535e-02  1.49441077e-02 -3.80180427e-04
  3.65955024e-04]",1.4164451360702515,1,1
115,139,2024-09-23 20:43:35.041183232,TASK_BEGIN,15,-1.1839725042358884,-0.1306741600247174,-8.60448045032716,1.151527170868013,-0.125600214100233,-0.2348937918825434,7.05118106091207,-1.6798698366267346,1,2024-09-23 20:43:28.106520996,1727124208.1065218,2024-09-23 20:43:28.106521856,5,[-0.69636726 -0.7048846   0.677427   -0.23734167],-1.0,-17.383137616441328,[-0.69636726 -0.7048846   0.677427   -0.23734167],[-0.34119135 -0.12677403 -0.59931487  0.08763631],[1.19794596 0.60811617 0.42469975],"[ 1.27476574e+00  7.01458301e-01  7.45784851e-01  1.27017255e+00
  7.01604740e-01  7.29424858e-01 -4.59319285e-03  1.46438643e-04
 -1.63599930e-02  2.45639035e-02  2.35502667e-02 -1.94849391e-04
  2.76640346e-03  1.52597352e-02  9.83401307e-05 -2.91912774e-04
  3.22611549e-04  1.02580924e-04  3.80354913e-03  5.19280457e-04
 -1.35235667e-02 -1.68015535e-02  1.49441077e-02 -3.80180427e-04
  3.65955024e-04]",1.4164451360702515,1,1
116,140,2024-09-23 20:43:35.112772864,TASK_BEGIN,15,-1.215586110058144,-0.128312028928576,-8.486788665461752,1.0994839962545,-0.1904445614181286,-0.2294245097877723,7.47375274846418,-1.801292388689371,1,2024-09-23 20:43:28.213520020,1727124208.2135198,2024-09-23 20:43:28.213519872,5,[-0.6839843  -0.71646714  0.63459873 -0.24580906],-1.0,-18.209306240276913,[-0.6839843  -0.71646714  0.63459873 -0.24580906],[-0.292418   -0.08258981 -0.53497607  0.07600526],[1.19794596 0.60811617 0.42469975],"[ 1.26183583e+00  6.77006257e-01  7.65100936e-01  1.25688583e+00
  6.77110303e-01  7.49001849e-01 -4.94999237e-03  1.04046509e-04
 -1.60990878e-02  2.44394027e-02  2.36696948e-02  1.32297775e-03
  1.45747256e-02  1.52212035e-02 -9.84952138e-05 -3.42111255e-04
 -6.75988830e-05  3.18133619e-03  1.00001640e-02  4.33152623e-04
 -8.56035744e-03 -1.77531531e-02  1.42362973e-02 -5.22803922e-04
  4.90411012e-04]",1.4138233661651611,1,1
117,141,2024-09-23 20:43:36.029494016,TASK_BEGIN,15,-1.2453768693954193,-0.1266236578780999,-8.33464551424274,1.0402791169060106,-0.2423710755529443,-0.2243431927060631,7.924064387176965,-1.9383371722720029,1,2024-09-23 20:43:29.072124023,1727124209.072125,2024-09-23 20:43:29.072124928,5,[-0.04048555 -0.02028154 -0.00501538 -0.41654688],-1.0,-24.528071279636723,[-0.04048555 -0.02028154 -0.00501538 -0.41654688],[-0.00331522 -0.01622709 -0.24479795  0.02994833],[1.19794596 0.60811617 0.42469975],"[ 1.21090129e+00  5.98819972e-01  7.85405169e-01  1.20789555e+00
  5.98850381e-01  7.66462897e-01 -3.00573531e-03  3.04081856e-05
 -1.89422713e-02  2.41387947e-02  2.39833215e-02 -3.34797478e-04
  8.73379620e-03  1.53174442e-02  5.28406854e-05  3.86744917e-04
 -3.85095573e-05  9.47656158e-04 -9.62141976e-04  5.04749277e-05
 -8.82378219e-04 -4.66590871e-04 -1.88827057e-04  3.49949030e-04
 -3.49838747e-04]",0.5971860885620117,1,1
118,142,2024-09-23 20:43:36.098453248,TASK_BEGIN,15,-1.2720626949042957,-0.1256450752563646,-8.159641244642861,0.9774547987010076,-0.2795202593887861,-0.2202685361661929,8.392228028520924,-2.089305640404981,1,2024-09-23 20:43:29.183079102,1727124209.1830792,2024-09-23 20:43:29.183079168,5,[-0.0270849  -0.01840455 -0.00702805 -0.41546008],-1.0,-25.282790566840355,[-0.0270849  -0.01840455 -0.00702805 -0.41546008],[-0.01199668 -0.01312545 -0.24520215  0.03123792],[1.19794596 0.60811617 0.42469975],"[ 1.21002711e+00  5.98194163e-01  7.85099308e-01  1.20706402e+00
  5.98486660e-01  7.66116877e-01 -2.96308939e-03  2.92497149e-04
 -1.89824315e-02  2.43962150e-02  2.37258321e-02 -1.21339477e-04
  7.84158791e-03  1.53362047e-02  3.44585188e-05  1.46218693e-04
 -3.70081249e-05 -1.05327550e-04 -6.40033904e-04  3.20196461e-05
 -5.93227898e-04 -4.30463705e-04 -2.42536274e-04  1.51013852e-04
 -1.51158060e-04]",0.5960608720779419,1,1
119,143,2024-09-23 20:43:36.166203136,TASK_BEGIN,15,-1.294585831201247,-0.1253400900848969,-7.9734235754752305,0.9140333795485563,-0.3006922596660793,-0.217722523518743,8.869284129431474,-2.252221733012508,1,2024-09-23 20:43:29.183079102,1727124209.1830792,2024-09-23 20:43:29.183079168,5,[-0.0270849  -0.01840455 -0.00702805 -0.41546008],-1.0,-25.282790566840355,[-0.0270849  -0.01840455 -0.00702805 -0.41546008],[-0.01199668 -0.01312545 -0.24520215  0.03123792],[1.19794596 0.60811617 0.42469975],"[ 1.21002711e+00  5.98194163e-01  7.85099308e-01  1.20706402e+00
  5.98486660e-01  7.66116877e-01 -2.96308939e-03  2.92497149e-04
 -1.89824315e-02  2.43962150e-02  2.37258321e-02 -1.21339477e-04
  7.84158791e-03  1.53362047e-02  3.44585188e-05  1.46218693e-04
 -3.70081249e-05 -1.05327550e-04 -6.40033904e-04  3.20196461e-05
 -5.93227898e-04 -4.30463705e-04 -2.42536274e-04  1.51013852e-04
 -1.51158060e-04]",0.5960608720779419,1,1
120,144,2024-09-23 20:43:36.233947904,TASK_BEGIN,15,-1.312195968564325,-0.1255828926580852,-7.786554827273573,0.8523780634129025,-0.3053281620934291,-0.2170587848253307,9.346489267018647,-2.424634590641968,1,2024-09-23 20:43:29.293724121,1727124209.2937238,2024-09-23 20:43:29.293723904,5,[-0.01802298 -0.01536525 -0.00673973 -0.41485336],-1.0,-26.02996266117195,[-0.01802298 -0.01536525 -0.00673973 -0.41485336],[-0.01476017 -0.0052619  -0.24817088  0.03249174],[1.19794596 0.60811617 0.42469975],"[ 1.20944514e+00  5.97671713e-01  7.84787332e-01  1.20651133e+00
  5.98010664e-01  7.65766154e-01 -2.93381295e-03  3.38950967e-04
 -1.90211780e-02  2.44469269e-02  2.36750106e-02 -1.84539201e-04
  7.24254313e-03  1.53470995e-02  2.42924909e-05 -2.09851013e-05
 -3.68985448e-05  5.69139708e-04 -4.31815510e-04  2.04303910e-05
 -3.86801834e-04 -3.52355219e-04 -2.58790965e-04 -4.41986589e-05
  4.40897271e-05]",0.5954511165618896,1,1
121,145,2024-09-23 20:43:36.301734912,TASK_BEGIN,15,-1.32445571388917,-0.1261479791135591,-7.607610368664902,0.7941731559594482,-0.2934432454864287,-0.2184136142070401,9.81450376475417,-2.6033422641291923,1,2024-09-23 20:43:29.403723877,1727124209.403725,2024-09-23 20:43:29.403724800,5,[-0.01181203 -0.01210526 -0.00587842 -0.41433918],-1.0,-26.76966303456023,[-0.01181203 -0.01210526 -0.00587842 -0.41433918],[-0.01743606  0.0003016  -0.2500677   0.03317054],[1.19794596 0.60811617 0.42469975],"[ 1.20906648e+00  5.97262268e-01  7.84482183e-01  1.20615438e+00
  5.97495475e-01  7.65422869e-01 -2.91209164e-03  2.33206515e-04
 -1.90593142e-02  2.43370683e-02  2.37847712e-02 -4.86103218e-05
  6.82861220e-03  1.53523951e-02  1.89624313e-05 -1.80729648e-04
 -3.66919497e-05 -4.43202826e-04 -3.14009531e-04  1.16475245e-05
 -2.50049355e-04 -2.74139082e-04 -2.60737347e-04 -1.62915539e-04
  1.62848835e-04]",0.5949060916900635,1,1
122,146,2024-09-23 20:43:36.368804864,TASK_BEGIN,15,-1.3312004159811992,-0.1267199652151954,-7.442620580360921,0.740433639204929,-0.2655376369304594,-0.2216965593057474,10.262732614954334,-2.78419295347889,1,2024-09-23 20:43:29.403723877,1727124209.403725,2024-09-23 20:43:29.403724800,5,[-0.01181203 -0.01210526 -0.00587842 -0.41433918],-1.0,-26.76966303456023,[-0.01181203 -0.01210526 -0.00587842 -0.41433918],[-0.01743606  0.0003016  -0.2500677   0.03317054],[1.19794596 0.60811617 0.42469975],"[ 1.20906648e+00  5.97262268e-01  7.84482183e-01  1.20615438e+00
  5.97495475e-01  7.65422869e-01 -2.91209164e-03  2.33206515e-04
 -1.90593142e-02  2.43370683e-02  2.37847712e-02 -4.86103218e-05
  6.82861220e-03  1.53523951e-02  1.89624313e-05 -1.80729648e-04
 -3.66919497e-05 -4.43202826e-04 -3.14009531e-04  1.16475245e-05
 -2.50049355e-04 -2.74139082e-04 -2.60737347e-04 -1.62915539e-04
  1.62848835e-04]",0.5949060916900635,1,1
123,147,2024-09-23 20:43:36.431624960,TASK_BEGIN,15,-1.332508683315082,-0.1269181268925353,-7.294899980729268,0.69149868941022,-0.2225231218084035,-0.2266169579225892,10.679021335008027,-2.9620591234973963,1,2024-09-23 20:43:29.510146973,1727124209.510147,2024-09-23 20:43:29.510147072,5,[-0.0079936  -0.00938016 -0.00409691 -0.41366366],-1.0,-27.501966404214627,[-0.0079936  -0.00938016 -0.00409691 -0.41366366],[-0.0196048   0.00610948 -0.2531152   0.03397116],[1.19794596 0.60811617 0.42469975],"[ 1.20881402e+00  5.96948134e-01  7.84208887e-01  1.20591923e+00
  5.97000893e-01  7.65112006e-01 -2.89479137e-03  5.27588632e-05
 -1.90968817e-02  2.41578164e-02  2.39639844e-02 -6.79701853e-05
  6.52653179e-03  1.53548928e-02  1.52634113e-05 -2.03480676e-04
 -3.62972398e-05 -4.49753167e-04 -2.42501288e-04  7.15704160e-06
 -1.69256244e-04 -2.12850477e-04 -2.24082901e-04 -1.85769455e-04
  1.85778701e-04]",0.5942264795303345,1,1
124,148,2024-09-23 20:43:37.380704000,TASK_BEGIN,15,-1.3287000554140178,-0.1263237247066253,-7.1653057182214,0.6470657223383068,-0.1656949504220309,-0.2327310765544682,11.04988730128153,-3.1309799947995653,1,2024-09-23 20:43:30.682154785,1727124210.6821554,2024-09-23 20:43:30.682155264,5,[ 2.6597735e-04  3.5466810e-04  5.4779914e-03 -4.1230571e-01],-1.0,-35.08973716315975,[ 2.6597735e-04  3.5466810e-04  5.4779914e-03 -4.1230571e-01],[-0.02385369  0.00909956 -0.2550088   0.03288211],[1.19794596 0.60811617 0.42469975],"[ 1.20808018e+00  5.95881042e-01  7.83444847e-01  1.20531381e+00
  5.95822331e-01  7.63942421e-01 -2.76636586e-03 -5.87107816e-05
 -1.95024258e-02  2.40438217e-02  2.40786301e-02  1.82785649e-05
  4.87724569e-03  1.53339080e-02  9.69312959e-06  8.70085926e-05
 -3.67992477e-05  2.68932552e-03 -1.12528079e-04 -1.87259257e-06
  1.47063231e-05  1.00181242e-05  6.10583970e-06 -2.04588022e-05
  2.02630902e-05]",0.5933800935745239,1,1
125,149,2024-09-23 20:43:37.448542208,TASK_BEGIN,15,-1.3203223632895913,-0.1245080214935326,-7.052875263009904,0.6063279839364103,-0.0967368846292515,-0.2394984696815676,11.361341047363378,-3.2844436648181903,1,2024-09-23 20:43:30.682154785,1727124210.6821554,2024-09-23 20:43:30.682155264,5,[ 2.6597735e-04  3.5466810e-04  5.4779914e-03 -4.1230571e-01],-1.0,-35.08973716315975,[ 2.6597735e-04  3.5466810e-04  5.4779914e-03 -4.1230571e-01],[-0.02385369  0.00909956 -0.2550088   0.03288211],[1.19794596 0.60811617 0.42469975],"[ 1.20808018e+00  5.95881042e-01  7.83444847e-01  1.20531381e+00
  5.95822331e-01  7.63942421e-01 -2.76636586e-03 -5.87107816e-05
 -1.95024258e-02  2.40438217e-02  2.40786301e-02  1.82785649e-05
  4.87724569e-03  1.53339080e-02  9.69312959e-06  8.70085926e-05
 -3.67992477e-05  2.68932552e-03 -1.12528079e-04 -1.87259257e-06
  1.47063231e-05  1.00181242e-05  6.10583970e-06 -2.04588022e-05
  2.02630902e-05]",0.5933800935745239,1,1
126,150,2024-09-23 20:43:37.516264960,TASK_BEGIN,15,-1.3080979112269615,-0.1210677554152011,-6.95566117391678,0.5681909541931253,-0.0177148967284654,-0.2463450031849155,11.600125859688257,-3.4158058149446364,1,2024-09-23 20:43:30.682154785,1727124210.6821554,2024-09-23 20:43:30.682155264,5,[ 2.6597735e-04  3.5466810e-04  5.4779914e-03 -4.1230571e-01],-1.0,-35.08973716315975,[ 2.6597735e-04  3.5466810e-04  5.4779914e-03 -4.1230571e-01],[-0.02385369  0.00909956 -0.2550088   0.03288211],[1.19794596 0.60811617 0.42469975],"[ 1.20808018e+00  5.95881042e-01  7.83444847e-01  1.20531381e+00
  5.95822331e-01  7.63942421e-01 -2.76636586e-03 -5.87107816e-05
 -1.95024258e-02  2.40438217e-02  2.40786301e-02  1.82785649e-05
  4.87724569e-03  1.53339080e-02  9.69312959e-06  8.70085926e-05
 -3.67992477e-05  2.68932552e-03 -1.12528079e-04 -1.87259257e-06
  1.47063231e-05  1.00181242e-05  6.10583970e-06 -2.04588022e-05
  2.02630902e-05]",0.5933800935745239,1,1
127,151,2024-09-23 20:43:37.570895872,TASK_BEGIN,15,-1.2928461605724426,-0.1156707741601281,-6.871521178305721,0.5314926061570249,0.0689728490493361,-0.2527356148930336,11.75510554887644,-3.5188231775386085,1,2024-09-23 20:43:30.682154785,1727124210.6821554,2024-09-23 20:43:30.682155264,5,[ 2.6597735e-04  3.5466810e-04  5.4779914e-03 -4.1230571e-01],-1.0,-35.08973716315975,[ 2.6597735e-04  3.5466810e-04  5.4779914e-03 -4.1230571e-01],[-0.02385369  0.00909956 -0.2550088   0.03288211],[1.19794596 0.60811617 0.42469975],"[ 1.20808018e+00  5.95881042e-01  7.83444847e-01  1.20531381e+00
  5.95822331e-01  7.63942421e-01 -2.76636586e-03 -5.87107816e-05
 -1.95024258e-02  2.40438217e-02  2.40786301e-02  1.82785649e-05
  4.87724569e-03  1.53339080e-02  9.69312959e-06  8.70085926e-05
 -3.67992477e-05  2.68932552e-03 -1.12528079e-04 -1.87259257e-06
  1.47063231e-05  1.00181242e-05  6.10583970e-06 -2.04588022e-05
  2.02630902e-05]",0.5933800935745239,1,1
128,152,2024-09-23 20:43:37.649004800,TASK_BEGIN,15,-1.2754131056314224,-0.1081063906438487,-6.798641830929077,0.4951757421334447,0.160686274676475,-0.2582502088709847,11.81846956444056,-3.5881954887027354,1,2024-09-23 20:43:30.682154785,1727124210.6821554,2024-09-23 20:43:30.682155264,5,[ 2.6597735e-04  3.5466810e-04  5.4779914e-03 -4.1230571e-01],-1.0,-35.08973716315975,[ 2.6597735e-04  3.5466810e-04  5.4779914e-03 -4.1230571e-01],[-0.02385369  0.00909956 -0.2550088   0.03288211],[1.19794596 0.60811617 0.42469975],"[ 1.20808018e+00  5.95881042e-01  7.83444847e-01  1.20531381e+00
  5.95822331e-01  7.63942421e-01 -2.76636586e-03 -5.87107816e-05
 -1.95024258e-02  2.40438217e-02  2.40786301e-02  1.82785649e-05
  4.87724569e-03  1.53339080e-02  9.69312959e-06  8.70085926e-05
 -3.67992477e-05  2.68932552e-03 -1.12528079e-04 -1.87259257e-06
  1.47063231e-05  1.00181242e-05  6.10583970e-06 -2.04588022e-05
  2.02630902e-05]",0.5933800935745239,1,1
129,153,2024-09-23 20:43:37.711078912,TASK_BEGIN,15,-1.2566073309717194,-0.098328505709013,-6.735716683350312,0.4584138428673723,0.2546584725587777,-0.2626406765564343,11.78637105938646,-3.619970931683051,1,2024-09-23 20:43:31.112629883,1727124211.1126306,2024-09-23 20:43:31.112630528,5,[-2.3927633e-04 -1.2526475e-04  5.9152446e-03 -4.1230768e-01],-1.0,-37.647460510879974,[-2.3927633e-04 -1.2526475e-04  5.9152446e-03 -4.1230768e-01],[-0.02535909  0.00762049 -0.253907    0.03269567],[1.19794596 0.60811617 0.42469975],"[ 1.20810446e+00  5.95885675e-01  7.83527791e-01  1.20538132e+00
  5.95844259e-01  7.63878980e-01 -2.72313964e-03 -4.14157567e-05
 -1.96488115e-02  2.40602549e-02  2.40625407e-02  1.94357319e-05
  4.38802873e-03  1.53250966e-02  9.93421434e-06  8.97940665e-05
 -3.66687590e-05  1.97380602e-03 -1.12444175e-04 -1.85592395e-06
 -8.12602332e-07 -5.04213370e-06  1.57070152e-05  1.13235937e-05
 -1.13036841e-05]",0.5933701992034912,1,1
