,Unnamed: 0,time,MARKER,pid,L_O_DSI,L_D_DSI,L_O_DSphi,L_D_DSphi,R_O_DSI,R_D_DSI,R_O_DSphi,R_D_DSphi,trial_id,dateTimestamps,floatTimestamps,timestamps,episode,actions,rewards,discounted_rewards,chosen_actions,optimal_actions,states,continuous_optimal,binary_optimal,discrete_optimal
1,1,2024-09-24 12:26:24.128129024,TASK_BEGIN,16,-0.2130143524863159,1.0940254018851034,-0.283856288755277,-0.1740740594009114,-0.0733727056724174,0.0248497662725469,-4.948814447733782,0.2253659622071979,2,2024-09-24 12:26:19.701013184,1727180779.7010136,2024-09-24 12:26:19.701013504,0,0,-2.6101331488505934,-46.86441426363503,[1. 0. 0. 0.],[0.23502379 0.12966479 0.42864921 0.20666222],"[-5.4124198e-03  8.7726188e-01 -3.8269993e-02 -6.3904345e-01
  1.5281828e-02  1.4409266e-02  0.0000000e+00  0.0000000e+00
 -4.0000001e-01  3.9458758e-01 -9.9888887e+00]",1.506615448595351,0,0
2,2,2024-09-24 12:26:24.205541888,TASK_BEGIN,16,-0.2070028840691483,1.145813238332405,0.0696654107069495,-0.3373504225255047,-0.055627962974745,0.0757583072477787,-4.660869802703188,-0.1100860704432113,2,2024-09-24 12:26:19.759013916,1727180779.7590146,2024-09-24 12:26:19.759014656,0,0,-2.6108245216158252,-51.12708776104956,[1. 0. 0. 0.],[0.19220711 0.10859277 0.51737197 0.18182815],"[-5.9296289e-03  8.5609162e-01 -3.8287994e-02 -6.9026411e-01
  1.6721899e-02  1.4402851e-02  0.0000000e+00  0.0000000e+00
 -4.0000001e-01  3.9407036e-01 -9.8195267e+00]",1.50903209405532,0,0
3,3,2024-09-24 12:26:24.268028928,TASK_BEGIN,16,-0.1992246910998048,1.195280105263583,0.4161791747473313,-0.4958825504401764,-0.0389333028106229,0.1255085994898566,-4.430294405315433,-0.4223897206345691,2,2024-09-24 12:26:19.819014160,1727180779.819015,2024-09-24 12:26:19.819014912,0,0,-3.0386992468184246,-55.73340591076551,[1. 0. 0. 0.],[0.14861477 0.08279866 0.61882678 0.1497598 ],"[-6.4462028e-03  8.3325374e-01 -3.8195677e-02 -7.4576932e-01
  1.8161274e-02  1.4394045e-02  0.0000000e+00  0.0000000e+00
 -4.0000001e-01  3.9355379e-01 -9.6368237e+00]",1.5120067322527004,0,0
4,4,2024-09-24 12:26:25.207007744,TASK_BEGIN,16,-0.1890251758130734,1.2413725813158851,0.7537151243250715,-0.6474418060507758,-0.0232240823979651,0.1735392182981309,-4.275903916284771,-0.702865998946568,2,2024-09-24 12:26:19.848012939,1727180779.8480139,2024-09-24 12:26:19.848013824,0,0,-2.6106493276291474,-57.78672117928701,[1. 0. 0. 0.],[0.1251152  0.06858259 0.6760878  0.13021442],"[-6.7041717e-03  8.2120132e-01 -3.8195673e-02 -7.7136940e-01
  1.8881010e-02  1.4393987e-02  0.0000000e+00  0.0000000e+00
 -4.0000001e-01  3.9329582e-01 -9.5404043e+00]",1.5132661542123147,0,0
5,5,2024-09-24 12:26:25.287261952,TASK_BEGIN,16,-0.1758915123052222,1.2832642417903388,1.08126484410998,-0.7901721518677495,-0.008074670217426,0.2193089826191603,-4.208480132555443,-0.9451539844946748,2,2024-09-24 12:26:20.199012939,1727180780.199014,2024-09-24 12:26:20.199013888,0,2,3.7968419391937376,10.941054506527736,[0. 0. 1. 0.],[0.41291095 0.34218464 0.05820066 0.18670375],"[-0.01006985  0.74293983 -0.0336997  -0.06523289  0.03063083  0.02981606
  0.          0.         -0.4         0.38993016 -8.914312  ]",1.5077050816756852,0,0
6,6,2024-09-24 12:26:25.346231808,TASK_BEGIN,16,-0.1595816941089114,1.3203959866850905,1.398417662455188,-0.9225391215983934,0.0072228170942701,0.2623145953711792,-4.231733222158176,-1.145141252638739,2,2024-09-24 12:26:20.199012939,1727180780.199014,2024-09-24 12:26:20.199013888,0,2,3.7968419391937376,10.941054506527736,[0. 0. 1. 0.],[0.41291095 0.34218464 0.05820066 0.18670375],"[-0.01006985  0.74293983 -0.0336997  -0.06523289  0.03063083  0.02981606
  0.          0.         -0.4         0.38993016 -8.914312  ]",1.5077050816756852,0,0
7,7,2024-09-24 12:26:25.422941952,TASK_BEGIN,16,-0.1402091402193954,1.3524845205930935,1.704830904208057,-1.0432469920685952,0.0235589853259857,0.3021102714746292,-4.344136793552393,-1.3006558688106409,2,2024-09-24 12:26:20.199012939,1727180780.199014,2024-09-24 12:26:20.199013888,0,2,3.7968419391937376,10.941054506527736,[0. 0. 1. 0.],[0.41291095 0.34218464 0.05820066 0.18670375],"[-0.01006985  0.74293983 -0.0336997  -0.06523289  0.03063083  0.02981606
  0.          0.         -0.4         0.38993016 -8.914312  ]",1.5077050816756852,0,0
8,8,2024-09-24 12:26:25.485847808,TASK_BEGIN,16,-0.1182700770648905,1.3795013845184891,1.999633720670115,-1.1511516014814314,0.0419167035959097,0.3383284001889244,-4.540410924664526,-1.4111997986355267,2,2024-09-24 12:26:21.060674805,1727180781.0606754,2024-09-24 12:26:21.060675328,0,1,-4.312268958138825,-46.878348864947014,[0. 1. 0. 0.],[0.08972949 0.01142699 0.24149364 0.65734988],"[-0.02328984  0.60580206 -0.18056339 -0.5619012   0.12906404  0.28634393
  0.          0.         -0.4         0.37671015 -7.81721   ]",1.5290164563813324,0,0
9,9,2024-09-24 12:26:25.558540032,TASK_BEGIN,16,-0.0946177848441053,1.4016354069288606,2.28087103128878,-1.245177931320775,0.0632881671523429,0.3706998558530318,-4.8124766686925815,-1.4777994615674432,2,2024-09-24 12:26:21.060674805,1727180781.0606754,2024-09-24 12:26:21.060675328,0,1,-4.312268958138825,-46.878348864947014,[0. 1. 0. 0.],[0.08972949 0.01142699 0.24149364 0.65734988],"[-0.02328984  0.60580206 -0.18056339 -0.5619012   0.12906404  0.28634393
  0.          0.         -0.4         0.37671015 -7.81721   ]",1.5290164563813324,0,0
10,10,2024-09-24 12:26:25.615476992,TASK_BEGIN,16,-0.0703856143716014,1.419247830683931,2.5451834647433413,-1.324255777414315,0.0886120540682503,0.3990611423572504,-5.150288200720225,-1.5028810911136328,2,2024-09-24 12:26:21.060674805,1727180781.0606754,2024-09-24 12:26:21.060675328,0,1,-4.312268958138825,-46.878348864947014,[0. 1. 0. 0.],[0.08972949 0.01142699 0.24149364 0.65734988],"[-0.02328984  0.60580206 -0.18056339 -0.5619012   0.12906404  0.28634393
  0.          0.         -0.4         0.37671015 -7.81721   ]",1.5290164563813324,0,0
11,11,2024-09-24 12:26:26.554253056,TASK_BEGIN,16,-0.0468801994175778,1.4328223191581069,2.7879024749327552,-1.387304155059119,0.1187220413070019,0.4233381484534975,-5.542744842498771,-1.4900903375045644,2,2024-09-24 12:26:22.057001953,1727180782.057002,2024-09-24 12:26:22.057001984,0,2,-7.132855020147235,-133.14321291607746,[0. 0. 1. 0.],[6.98474442e-03 1.55671113e-05 1.52715572e-04 9.92846973e-01],"[-0.12593453  0.44061077 -1.1783547   0.3655829   0.5826592   0.26890492
  0.          0.         -0.4         0.27406546 -6.49568   ]",1.5655879660388672,0,0
12,12,2024-09-24 12:26:26.632168960,TASK_BEGIN,16,-0.0254798196969695,1.4429163006925494,3.003531698062339,-1.433299420150679,0.1542334268546678,0.443520232831787,-5.978670726152594,-1.4440456298339486,2,2024-09-24 12:26:22.057001953,1727180782.057002,2024-09-24 12:26:22.057001984,0,2,-7.132855020147235,-133.14321291607746,[0. 0. 1. 0.],[6.98474442e-03 1.55671113e-05 1.52715572e-04 9.92846973e-01],"[-0.12593453  0.44061077 -1.1783547   0.3655829   0.5826592   0.26890492
  0.          0.         -0.4         0.27406546 -6.49568   ]",1.5655879660388672,0,0
13,13,2024-09-24 12:26:26.705209088,TASK_BEGIN,16,-0.0075470587507577,1.450122648279168,3.186437131630764,-1.4614432181654595,0.1953236069083088,0.4596488462780059,-6.447734371734987,-1.370052362024518,2,2024-09-24 12:26:22.057001953,1727180782.057002,2024-09-24 12:26:22.057001984,0,2,-7.132855020147235,-133.14321291607746,[0. 0. 1. 0.],[6.98474442e-03 1.55671113e-05 1.52715572e-04 9.92846973e-01],"[-0.12593453  0.44061077 -1.1783547   0.3655829   0.5826592   0.26890492
  0.          0.         -0.4         0.27406546 -6.49568   ]",1.5655879660388672,0,0
14,14,2024-09-24 12:26:26.772995840,TASK_BEGIN,16,0.0056617483575071,1.4550374299575533,3.3315807221200844,-1.4713923947645289,0.2415057693940814,0.4718251178572172,-6.940969654508334,-1.2738329019510333,2,2024-09-24 12:26:22.319014160,1727180782.319014,2024-09-24 12:26:22.319014144,0,0,-0.650013445676592,-125.0929458017146,[1. 0. 0. 0.],[1.50285885e-03 7.50910696e-07 1.04808344e-05 9.98485909e-01],"[-0.19858122  0.47508    -1.1778083   0.13468482  0.7036479   0.26882988
  0.          0.         -0.4         0.20141879 -6.771434  ]",1.565924221745743,0,0
15,15,2024-09-24 12:26:26.832907008,TASK_BEGIN,16,0.0131008455437773,1.4582197251789497,3.4351186576283266,-1.4634450546763875,0.2915520638119733,0.4802239932194898,-7.450609565211858,-1.1613164275582928,2,2024-09-24 12:26:22.319014160,1727180782.319014,2024-09-24 12:26:22.319014144,0,0,-0.650013445676592,-125.0929458017146,[1. 0. 0. 0.],[1.50285885e-03 7.50910696e-07 1.04808344e-05 9.98485909e-01],"[-0.19858122  0.47508    -1.1778083   0.13468482  0.7036479   0.26882988
  0.          0.         -0.4         0.20141879 -6.771434  ]",1.565924221745743,0,0
16,16,2024-09-24 12:26:26.908606976,TASK_BEGIN,16,0.0140474997022616,1.4601419992163378,3.4946992362066984,-1.4385821288926488,0.3435961585815452,0.4851098738390593,-7.969288328159728,-1.0384685599504966,2,2024-09-24 12:26:22.319014160,1727180782.319014,2024-09-24 12:26:22.319014144,0,0,-0.650013445676592,-125.0929458017146,[1. 0. 0. 0.],[1.50285885e-03 7.50910696e-07 1.04808344e-05 9.98485909e-01],"[-0.19858122  0.47508    -1.1778083   0.13468482  0.7036479   0.26882988
  0.          0.         -0.4         0.20141879 -6.771434  ]",1.565924221745743,0,0
17,17,2024-09-24 12:26:26.973342720,TASK_BEGIN,16,0.0082117001424172,1.461144894606723,3.509488119330784,-1.3983650505058125,0.3953295276164122,0.4868540146340654,-8.488894908084326,-0.9111091585314598,2,2024-09-24 12:26:22.319014160,1727180782.319014,2024-09-24 12:26:22.319014144,0,0,-0.650013445676592,-125.0929458017146,[1. 0. 0. 0.],[1.50285885e-03 7.50910696e-07 1.04808344e-05 9.98485909e-01],"[-0.19858122  0.47508    -1.1778083   0.13468482  0.7036479   0.26882988
  0.          0.         -0.4         0.20141879 -6.771434  ]",1.565924221745743,0,0
18,18,2024-09-24 12:26:27.887331072,TASK_BEGIN,16,-0.0041816063249031,1.461407545183536,3.480112406838256,-1.3447761189881138,0.4442433524089555,0.4859409236048768,-8.999465305139081,-0.7847092425561525,2,2024-09-24 12:26:23.004511962,1727180783.0045125,2024-09-24 12:26:23.004512512,0,1,-1.3011493920228168,-158.07759470655168,[0. 1. 0. 0.],[1.16867593e-04 6.77717140e-08 2.00647242e-07 9.99882864e-01],"[-3.9929244e-01  4.6156907e-01 -1.6969677e+00  3.2309517e-02
  8.3171678e-01  9.0709001e-02  0.0000000e+00  0.0000000e+00
 -4.0000001e-01  7.0757070e-04 -6.6633463e+00]",1.5673767033734263,0,0
19,19,2024-09-24 12:26:27.949815808,TASK_BEGIN,16,-0.0223874714060946,1.4609373806511965,3.40861595281611,-1.2800732798836505,0.4879242776572424,0.4829457843037232,-9.488614092764736,-0.6642062573642211,2,2024-09-24 12:26:23.004511962,1727180783.0045125,2024-09-24 12:26:23.004512512,0,1,-1.3011493920228168,-158.07759470655168,[0. 1. 0. 0.],[1.16867593e-04 6.77717140e-08 2.00647242e-07 9.99882864e-01],"[-3.9929244e-01  4.6156907e-01 -1.6969677e+00  3.2309517e-02
  8.3171678e-01  9.0709001e-02  0.0000000e+00  0.0000000e+00
 -4.0000001e-01  7.0757070e-04 -6.6633463e+00]",1.5673767033734263,0,0
20,20,2024-09-24 12:26:28.027786752,TASK_BEGIN,16,-0.0452496116103572,1.4595854065406748,3.2983282200506605,-1.2066673364829632,0.5243678589948002,0.4784837748807638,-9.94198311928409,-0.5538561098513695,2,2024-09-24 12:26:23.004511962,1727180783.0045125,2024-09-24 12:26:23.004512512,0,1,-1.3011493920228168,-158.07759470655168,[0. 1. 0. 0.],[1.16867593e-04 6.77717140e-08 2.00647242e-07 9.99882864e-01],"[-3.9929244e-01  4.6156907e-01 -1.6969677e+00  3.2309517e-02
  8.3171678e-01  9.0709001e-02  0.0000000e+00  0.0000000e+00
 -4.0000001e-01  7.0757070e-04 -6.6633463e+00]",1.5673767033734263,0,0
21,21,2024-09-24 12:26:28.090406912,TASK_BEGIN,16,-0.0713864377751795,1.4570887334793357,3.1535545788305157,-1.1270059560321812,0.5522189247692488,0.4731509113607386,-10.344813057467798,-0.4570803567817867,2,2024-09-24 12:26:23.655145996,1727180783.6551466,2024-09-24 12:26:23.655146496,0,1,-6.875520959678179,-211.86627874657796,[0. 1. 0. 0.],[5.26461613e-02 2.85216090e-04 8.54796280e-08 9.47068537e-01],"[-0.66990244  0.34981298 -1.84777    -0.70548934  1.3885244   0.9115504
  0.          0.         -0.4        -0.26990244 -5.7692976 ]",1.5675121936469665,0,0
22,22,2024-09-24 12:26:28.152892160,TASK_BEGIN,16,-0.099363691003846,1.4531258090617551,2.979168571874849,-1.0434686936685185,0.5708800421797705,0.467473669323951,-10.684120614988736,-0.3762671103758808,2,2024-09-24 12:26:23.683344971,1727180783.683345,2024-09-24 12:26:23.683345152,0,1,-7.016530531250803,-216.76414649036298,[0. 1. 0. 0.],[6.69447299e-02 4.68949176e-04 1.17736270e-07 9.32586203e-01],"[-0.68266326  0.33892906 -1.8491588  -0.7426054   1.4365083   0.95967996
  0.          0.         -0.4        -0.2826633  -5.682226  ]",1.567591621558719,1,2
23,23,2024-09-24 12:26:28.230563072,TASK_BEGIN,16,-0.127801072629526,1.4473662517660857,2.7803091685374244,-0.9582923828752132,0.5804949286447123,0.4618752469366906,-10.950607701458944,-0.3125661236150369,2,2024-09-24 12:26:23.683344971,1727180783.683345,2024-09-24 12:26:23.683345152,0,1,-7.016530531250803,-216.76414649036298,[0. 1. 0. 0.],[6.69447299e-02 4.68949176e-04 1.17736270e-07 9.32586203e-01],"[-0.68266326  0.33892906 -1.8491588  -0.7426054   1.4365083   0.95967996
  0.          0.         -0.4        -0.2826633  -5.682226  ]",1.567591621558719,1,2
24,24,2024-09-24 12:26:28.301603072,TASK_BEGIN,16,-0.1554323742573408,1.439514695803474,2.5623541115895714,-0.8735433531632056,0.5818341859851285,0.4566652180860125,-11.139557953503369,-0.2658147348802469,2,2024-09-24 12:26:23.683344971,1727180783.683345,2024-09-24 12:26:23.683345152,0,1,-7.016530531250803,-216.76414649036298,[0. 1. 0. 0.],[6.69447299e-02 4.68949176e-04 1.17736270e-07 9.32586203e-01],"[-0.68266326  0.33892906 -1.8491588  -0.7426054   1.4365083   0.95967996
  0.          0.         -0.4        -0.2826633  -5.682226  ]",1.567591621558719,1,2
25,25,2024-09-24 12:26:29.243744000,TASK_BEGIN,16,-0.1811457691739797,1.4293557033017674,2.331159775213049,-0.7911355478141429,0.5761106354948049,0.4520544866291924,-11.250344458218096,-0.2347584582909341,2,2024-09-24 12:26:24.120448975,1727180784.1204493,2024-09-24 12:26:24.120449280,0,2,-16.42426979639929,-346.44836966121665,[0. 0. 1. 0.],[8.17336167e-01 1.20156043e-01 6.86297632e-07 6.25071038e-02],"[-0.89105666  0.11818337 -2.4906642  -1.3082029   2.139193    0.9076869
  0.          0.         -0.4        -0.49105662 -3.9162605 ]",1.5380928800201679,1,2
26,26,2024-09-24 12:26:29.311597824,TASK_BEGIN,16,-0.2039928116043608,1.4167904886359493,2.093363338484906,-0.7128629510531136,0.5647633732486885,0.4481843401899527,-11.28479442473447,-0.2175928590458284,2,2024-09-24 12:26:24.120448975,1727180784.1204493,2024-09-24 12:26:24.120449280,0,2,-16.42426979639929,-346.44836966121665,[0. 0. 1. 0.],[8.17336167e-01 1.20156043e-01 6.86297632e-07 6.25071038e-02],"[-0.89105666  0.11818337 -2.4906642  -1.3082029   2.139193    0.9076869
  0.          0.         -0.4        -0.49105662 -3.9162605 ]",1.5380928800201679,1,2
27,27,2024-09-24 12:26:29.379384064,TASK_BEGIN,16,-0.2231623130305815,1.4018501834462844,1.8565274716866236,-0.6404065787755088,0.5492391741090052,0.445157100516095,-11.245395107944155,-0.2126047106007086,2,2024-09-24 12:26:24.120448975,1727180784.1204493,2024-09-24 12:26:24.120449280,0,2,-16.42426979639929,-346.44836966121665,[0. 0. 1. 0.],[8.17336167e-01 1.20156043e-01 6.86297632e-07 6.25071038e-02],"[-0.89105666  0.11818337 -2.4906642  -1.3082029   2.139193    0.9076869
  0.          0.         -0.4        -0.49105662 -3.9162605 ]",1.5380928800201679,1,2
28,28,2024-09-24 12:26:29.436830976,TASK_BEGIN,16,-0.237965045694398,1.38469224755593,1.6290006785105766,-0.5753073126511308,0.5307853414881836,0.4430657873826218,-11.134403054401073,-0.2186033615105022,2,2024-09-24 12:26:24.120448975,1727180784.1204493,2024-09-24 12:26:24.120449280,0,2,-16.42426979639929,-346.44836966121665,[0. 0. 1. 0.],[8.17336167e-01 1.20156043e-01 6.86297632e-07 6.25071038e-02],"[-0.89105666  0.11818337 -2.4906642  -1.3082029   2.139193    0.9076869
  0.          0.         -0.4        -0.49105662 -3.9162605 ]",1.5380928800201679,1,2
29,29,2024-09-24 12:26:29.514813952,TASK_BEGIN,16,-0.2478704246645145,1.365598038410465,1.419430638450413,-0.5189211410636382,0.5103010138150884,0.4420179900359095,-10.954151131627864,-0.2350065162796354,2,2024-09-24 12:26:24.120448975,1727180784.1204493,2024-09-24 12:26:24.120449280,0,2,-16.42426979639929,-346.44836966121665,[0. 0. 1. 0.],[8.17336167e-01 1.20156043e-01 6.86297632e-07 6.25071038e-02],"[-0.89105666  0.11818337 -2.4906642  -1.3082029   2.139193    0.9076869
  0.          0.         -0.4        -0.49105662 -3.9162605 ]",1.5380928800201679,1,2
30,30,2024-09-24 12:26:29.580471040,TASK_BEGIN,16,-0.2525707222586099,1.3449690802471983,1.2360409669625372,-0.4723764732311943,0.4883176890572771,0.4421389939982394,-10.708102114061736,-0.2616497980987217,2,2024-09-24 12:26:24.180119141,1727180784.1801193,2024-09-24 12:26:24.180119296,0,2,-18.412431895010673,-375.7737457875637,[0. 0. 1. 0.],[7.84361757e-01 1.95606876e-01 6.32249115e-07 2.00307341e-02],"[-0.92825866  0.07545233 -2.6898708  -1.4396739   2.230342    0.9113757
  0.          0.         -0.4        -0.5282586  -3.574412  ]",1.5379762955212966,1,2
31,31,2024-09-24 12:26:29.650571008,TASK_BEGIN,16,-0.2520256752408631,1.3233047778646725,1.0859746892792417,-0.4365466888494411,0.4651278004272832,0.4435427362662665,-10.4019295137102,-0.2984717498781827,2,2024-09-24 12:26:24.299302979,1727180784.299304,2024-09-24 12:26:24.299303936,0,0,-107.40701906002016,-507.5941110976666,[1. 0. 0. 0.],[5.73750759e-01 4.25277267e-01 4.83060331e-07 9.71490596e-04],"[-1.008751   -0.02082348 -2.8511882  -1.6107848   2.4137645   0.9166196
  0.          0.         -0.4        -0.60875106 -2.8042057 ]",1.5072014480665032,1,2
32,32,2024-09-24 12:26:30.581612032,TASK_BEGIN,16,-0.2464743899185404,1.301160086474152,0.9748486799092524,-0.4120215701731702,0.4409984557951014,0.4462749705170134,-10.043910818092446,-0.3452232826715081,2,2024-09-24 12:26:26.134440918,1727180786.134441,2024-09-24 12:26:26.134440960,1,0,-2.6687229487618396,-21.85510508502344,[1. 0. 0. 0.],[0.37685772 0.25693582 0.19936428 0.16684219],"[ 4.7442117e-03  9.6881402e-01  7.0313767e-02 -3.3350375e-01
 -1.3338033e-02 -2.6611086e-02  0.0000000e+00  0.0000000e+00
 -2.0000000e-01  2.0474420e-01 -1.0410312e+01]",1.5031700560091115,0,0
33,33,2024-09-24 12:26:30.658343936,TASK_BEGIN,16,-0.2364103682439797,1.2790987684367738,0.906392142669739,-0.399044957083377,0.4163681088885957,0.4502472161940052,-9.64434695135412,-0.401282665647406,2,2024-09-24 12:26:26.222475098,1727180786.2224758,2024-09-24 12:26:26.222475776,1,0,-2.6889801375937026,-29.175340269536328,[1. 0. 0. 0.],[0.36760729 0.25258702 0.24392828 0.13587741],"[ 6.1693988e-03  9.5078111e-01  7.0365496e-02 -4.1033104e-01
 -1.7326199e-02 -2.6588190e-02  0.0000000e+00  0.0000000e+00
 -2.0000000e-01  2.0616940e-01 -1.0266048e+01]",1.5063285509941573,0,0
34,34,2024-09-24 12:26:30.720829952,TASK_BEGIN,16,-0.2225057505004972,1.2576511919559497,0.8821831265436503,-0.3974397814307294,0.3919505079426318,0.455185225337537,-9.214448478600788,-0.465564969777554,2,2024-09-24 12:26:26.280440186,1727180786.2804403,2024-09-24 12:26:26.280440320,1,0,-2.6972761341435927,-33.958595923578244,[1. 0. 0. 0.],[0.35651096 0.25561243 0.26232975 0.12554686],"[ 7.1202121e-03  9.3675840e-01  7.0399687e-02 -4.6155018e-01
 -1.9983105e-02 -2.6573548e-02  0.0000000e+00  0.0000000e+00
 -2.0000000e-01  2.0712021e-01 -1.0153867e+01]",1.5093646756853094,0,0
35,35,2024-09-24 12:26:30.782401024,TASK_BEGIN,16,-0.2054998007193124,1.2372728854152553,0.9017508478142634,-0.4065984051150885,0.3687323723290993,0.4606111223660371,-8.765289333053083,-0.5365134545806265,2,2024-09-24 12:26:26.338474121,1727180786.338474,2024-09-24 12:26:26.338473984,1,0,-2.70320457373775,-38.65951296101072,[1. 0. 0. 0.],[0.34299581 0.25078415 0.28717906 0.11904098],"[ 8.0714226e-03  9.2113507e-01  7.0433632e-02 -5.1277006e-01
 -2.2638574e-02 -2.6559100e-02  0.0000000e+00  0.0000000e+00
 -2.0000000e-01  2.0807143e-01 -1.0028880e+01]",1.5121119485296015,0,0
36,36,2024-09-24 12:26:30.864468992,TASK_BEGIN,16,-0.186092626995207,1.2183028072033537,0.9631052402638358,-0.4255744044952197,0.34789672134925,0.4658687760915458,-8.307040003899273,-0.6122199563851802,2,2024-09-24 12:26:26.426475098,1727180786.4264758,2024-09-24 12:26:26.426475776,1,0,-2.7094175926724233,-45.55298714171973,[1. 0. 0. 0.],[0.31013112 0.22162888 0.34612939 0.12211061],"[ 9.4992323e-03  8.9469910e-01  7.0484027e-02 -5.8960122e-01
 -2.6619185e-02 -2.6538666e-02  0.0000000e+00  0.0000000e+00
 -2.0000000e-01  2.0949923e-01 -9.8173923e+00]",1.5145203208904652,0,0
37,37,2024-09-24 12:26:30.921569024,TASK_BEGIN,16,-0.1648541718165986,1.2009300636614426,1.0633449291350132,-0.4532238495866929,0.3307190340425721,0.4701908371355383,-7.848612783840358,-0.6906756603700345,2,2024-09-24 12:26:26.484441162,1727180786.484441,2024-09-24 12:26:26.484441088,1,0,-2.7123916994352584,-50.042738832109094,[1. 0. 0. 0.],[0.27301329 0.19957475 0.41307482 0.11433715],"[ 0.01045163  0.8750745   0.07051722 -0.640823   -0.02927127 -0.02652585
  0.          0.         -0.2         0.21045163 -9.660396  ]",1.5156009191808812,0,0
38,38,2024-09-24 12:26:31.000043008,TASK_BEGIN,16,-0.1421304703864986,1.1851776963537235,1.198995087542923,-0.4883289143853098,0.3184661731701887,0.4727950563050269,-7.3978827805520755,-0.7700397850700892,2,2024-09-24 12:26:26.542443115,1727180786.5424438,2024-09-24 12:26:26.542443776,1,0,-3.0174181170544045,-54.75074030578794,[1. 0. 0. 0.],[0.23001753 0.17575879 0.49323997 0.1009837 ],"[ 0.01138862  0.8538165   0.06971767 -0.69417465 -0.03292563 -0.04657383
  0.          0.         -0.2         0.21138862 -9.490332  ]",1.5181126506321196,0,0
39,39,2024-09-24 12:26:31.933545984,TASK_BEGIN,16,-0.1179634576919185,1.1709047022235253,1.3660759449539768,-0.5296800163766813,0.3122852909822594,0.4729887569579848,-6.962215173632992,-0.8488108897624886,2,2024-09-24 12:26:26.803541016,1727180786.803541,2024-09-24 12:26:26.803540992,1,0,-2.719882217599263,-73.7224087402468,[1. 0. 0. 0.],[0.11533338 0.07757782 0.75596846 0.05112034],"[ 0.0156645   0.73790085  0.07035126 -0.92674196 -0.04485555 -0.02651074
  0.          0.         -0.2         0.21566449 -8.563006  ]",1.524132361065608,0,0
40,40,2024-09-24 12:26:32.011204096,TASK_BEGIN,16,-0.0920763729426712,1.1578257435053532,1.56007896387519,-0.5761090373527048,0.313071101582704,0.4702539892097983,-6.54874089486169,-0.925860124093867,2,2024-09-24 12:26:26.803541016,1727180786.803541,2024-09-24 12:26:26.803540992,1,0,-2.719882217599263,-73.7224087402468,[1. 0. 0. 0.],[0.11533338 0.07757782 0.75596846 0.05112034],"[ 0.0156645   0.73790085  0.07035126 -0.92674196 -0.04485555 -0.02651074
  0.          0.         -0.2         0.21566449 -8.563006  ]",1.524132361065608,0,0
41,41,2024-09-24 12:26:32.073251072,TASK_BEGIN,16,-0.063944993442862,1.145551384576181,1.775958078094649,-0.6264736383296136,0.3213580964941679,0.4642908214876934,-6.164238817717195,-1.0003194690847297,2,2024-09-24 12:26:26.803541016,1727180786.803541,2024-09-24 12:26:26.803540992,1,0,-2.719882217599263,-73.7224087402468,[1. 0. 0. 0.],[0.11533338 0.07757782 0.75596846 0.05112034],"[ 0.0156645   0.73790085  0.07035126 -0.92674196 -0.04485555 -0.02651074
  0.          0.         -0.2         0.21566449 -8.563006  ]",1.524132361065608,0,0
42,42,2024-09-24 12:26:32.135736064,TASK_BEGIN,16,-0.0329207734435702,1.13364653147117,2.008213289573892,-0.6796313200020304,0.3372916256026873,0.4550180492311917,-5.814970458619382,-1.071355734653827,2,2024-09-24 12:26:26.803541016,1727180786.803541,2024-09-24 12:26:26.803540992,1,0,-2.719882217599263,-73.7224087402468,[1. 0. 0. 0.],[0.11533338 0.07757782 0.75596846 0.05112034],"[ 0.0156645   0.73790085  0.07035126 -0.92674196 -0.04485555 -0.02651074
  0.          0.         -0.2         0.21566449 -8.563006  ]",1.524132361065608,0,0
43,43,2024-09-24 12:26:32.214594048,TASK_BEGIN,16,0.001629181629877,1.1216906658486987,2.251128989482249,-0.7344519323757833,0.3606577326712,0.4425486219454789,-5.506755950297312,-1.137928563196341,2,2024-09-24 12:26:27.765753906,1727180787.7657547,2024-09-24 12:26:27.765754624,1,0,-4.109295194065325,-65.95181953875301,[1. 0. 0. 0.],[0.13154696 0.00733939 0.21060634 0.65050732],"[ 0.04359158  0.43805683  0.05256608 -0.84981453  0.122049    0.30116937
  0.          0.         -0.2         0.24359158 -6.1642537 ]",1.524375491282945,0,0
44,44,2024-09-24 12:26:32.275559936,TASK_BEGIN,16,0.0401699564577329,1.1093202554841572,2.4991060971230445,-0.7898687151336982,0.390903612722936,0.4271546475440386,-5.245199026648969,-1.1986327259223422,2,2024-09-24 12:26:27.824377930,1727180787.8243787,2024-09-24 12:26:27.824378624,1,0,-4.109757076286371,-72.81759585862545,[1. 0. 0. 0.],[0.1079087  0.00475966 0.2593181  0.62801354],"[ 0.04462425  0.4103577   0.05259814 -0.90118426  0.15216418  0.30114597
  0.          0.         -0.2         0.24462424 -5.942661  ]",1.5301243190471459,0,0
45,45,2024-09-24 12:26:32.337577216,TASK_BEGIN,16,0.0828499673973451,1.0962490207257796,2.7469435954844186,-0.8449276740683666,0.4271231461662388,0.4092293217430033,-5.035695282863712,-1.2516685110185053,2,2024-09-24 12:26:27.884480957,1727180787.8844814,2024-09-24 12:26:27.884481536,1,0,-4.110132172512294,-79.54752604142652,[1. 0. 0. 0.],[0.08802151 0.00290793 0.30630314 0.60276743],"[ 0.0456562   0.3810668   0.05263783 -0.95255315  0.18227702  0.3011226
  0.          0.         -0.2         0.2456562  -5.7083335 ]",1.5350989384422828,0,0
46,46,2024-09-24 12:26:33.293968896,TASK_BEGIN,16,0.1294098479181855,1.0822741836745495,2.9899734603280894,-0.8988011573432405,0.4680555307122674,0.3892521276707869,-4.882919827988479,-1.2949661420810967,2,2024-09-24 12:26:28.391733887,1727180788.3917346,2024-09-24 12:26:28.391734528,1,1,-6.996303246305226,-154.1028376192371,[0. 1. 0. 0.],[9.77913252e-05 1.41054164e-08 9.01359971e-05 9.99812059e-01],"[ 0.04593651  0.06360602 -0.12878814 -1.4426107   0.620573    0.77717125
  0.          0.         -0.2         0.2459365  -3.1686473 ]",1.5665917341634485,1,2
47,47,2024-09-24 12:26:33.350848000,TASK_BEGIN,16,0.1791895371481596,1.067271763114357,3.2240363606259512,-0.9507587228425404,0.512150772914208,0.3677609679543385,-4.789906543587042,-1.326465938914784,2,2024-09-24 12:26:28.391733887,1727180788.3917346,2024-09-24 12:26:28.391734528,1,1,-6.996303246305226,-154.1028376192371,[0. 1. 0. 0.],[9.77913252e-05 1.41054164e-08 9.01359971e-05 9.99812059e-01],"[ 0.04593651  0.06360602 -0.12878814 -1.4426107   0.620573    0.77717125
  0.          0.         -0.2         0.2459365  -3.1686473 ]",1.5665917341634485,1,2
48,48,2024-09-24 12:26:33.428955136,TASK_BEGIN,16,0.2312104353714883,1.0511786852954312,3.4453518737337228,-1.0001118342247886,0.5576882550737972,0.3453303562975653,-4.757200522940762,-1.3444656636310963,2,2024-09-24 12:26:28.391733887,1727180788.3917346,2024-09-24 12:26:28.391734528,1,1,-6.996303246305226,-154.1028376192371,[0. 1. 0. 0.],[9.77913252e-05 1.41054164e-08 9.01359971e-05 9.99812059e-01],"[ 0.04593651  0.06360602 -0.12878814 -1.4426107   0.620573    0.77717125
  0.          0.         -0.2         0.2459365  -3.1686473 ]",1.5665917341634485,1,2
49,49,2024-09-24 12:26:33.490955008,TASK_BEGIN,16,0.2842800185049654,1.0339695294481814,3.65036560593645,-1.0461612827466182,0.6029022859163837,0.3225524292142175,-4.782425014350976,-1.3479102844294593,2,2024-09-24 12:26:28.391733887,1727180788.3917346,2024-09-24 12:26:28.391734528,1,1,-6.996303246305226,-154.1028376192371,[0. 1. 0. 0.],[9.77913252e-05 1.41054164e-08 9.01359971e-05 9.99812059e-01],"[ 0.04593651  0.06360602 -0.12878814 -1.4426107   0.620573    0.77717125
  0.          0.         -0.2         0.2459365  -3.1686473 ]",1.5665917341634485,1,2
50,50,2024-09-24 12:26:33.563883008,TASK_BEGIN,16,0.3370946106196242,1.015643123866367,3.835607723413275,-1.0881701369644567,0.6461190859730916,0.3000130560883086,-4.860199731513193,-1.336578475497766,2,2024-09-24 12:26:28.391733887,1727180788.3917346,2024-09-24 12:26:28.391734528,1,1,-6.996303246305226,-154.1028376192371,[0. 1. 0. 0.],[9.77913252e-05 1.41054164e-08 9.01359971e-05 9.99812059e-01],"[ 0.04593651  0.06360602 -0.12878814 -1.4426107   0.620573    0.77717125
  0.          0.         -0.2         0.2459365  -3.1686473 ]",1.5665917341634485,1,2
51,51,2024-09-24 12:26:33.633001984,TASK_BEGIN,16,0.3883499650535287,0.99622007214165,3.997551169277813,-1.1253641097171905,0.6859400103939233,0.2782539137886994,-4.982228958487113,-1.3111788486002312,2,2024-09-24 12:26:28.391733887,1727180788.3917346,2024-09-24 12:26:28.391734528,1,1,-6.996303246305226,-154.1028376192371,[0. 1. 0. 0.],[9.77913252e-05 1.41054164e-08 9.01359971e-05 9.99812059e-01],"[ 0.04593651  0.06360602 -0.12878814 -1.4426107   0.620573    0.77717125
  0.          0.         -0.2         0.2459365  -3.1686473 ]",1.5665917341634485,1,2
52,52,2024-09-24 12:26:33.688464128,TASK_BEGIN,16,0.4368627514859652,0.975738789951497,4.132523198223304,-1.1569539497241932,0.7214406921747797,0.2577249334295768,-5.137552433854556,-1.2733447298646705,2,2024-09-24 12:26:28.391733887,1727180788.3917346,2024-09-24 12:26:28.391734528,1,1,-6.996303246305226,-154.1028376192371,[0. 1. 0. 0.],[9.77913252e-05 1.41054164e-08 9.01359971e-05 9.99812059e-01],"[ 0.04593651  0.06360602 -0.12878814 -1.4426107   0.620573    0.77717125
  0.          0.         -0.2         0.2459365  -3.1686473 ]",1.5665917341634485,1,2
54,59,2024-09-24 12:26:35.013630976,TASK_BEGIN,16,0.6474209559725761,0.8121608669508243,4.071516671844712,-1.1762512159892262,0.8572224656333087,0.1629672498694842,-6.119073827294027,-0.9059382907959824,2,2024-09-24 12:26:30.528813965,1727180790.5288143,2024-09-24 12:26:30.528814336,2,0,-0.25809385440277666,-0.25809385440277666,[1. 0. 0. 0.],[0.43090875 0.13950975 0.08495477 0.34462673],"[-2.4901230e-03  1.0030518e+00 -1.8448547e-01 -8.5042091e-03
  7.3134331e-03  7.0143007e-02  0.0000000e+00  0.0000000e+00
  0.0000000e+00 -2.4901230e-03 -1.1338543e+01]",1.4899289558174549,0,0
55,60,2024-09-24 12:26:35.968819968,TASK_BEGIN,16,0.6568993901703509,0.7889341931969807,3.914713613917829,-1.1506359470462069,0.8623847964266977,0.1565718486135196,-6.159293358584892,-0.8728734052182674,2,2024-09-24 12:26:31.529200195,1727180791.5292006,2024-09-24 12:26:31.529200640,2,3,-4.469438883506124,-63.76933618729894,[0. 0. 0. 1.],[0.10495576 0.17475561 0.70401397 0.01627466],"[-3.7482660e-02  7.6058328e-01  4.2434428e-03 -8.7836218e-01
 -2.2793349e-02 -3.6740193e-01  0.0000000e+00  0.0000000e+00
  0.0000000e+00 -3.7482660e-02 -9.3987951e+00]",1.5400927617274056,0,0
56,61,2024-09-24 12:26:36.031305216,TASK_BEGIN,16,0.6615233396235121,0.7669316538209738,3.7317902799574783,-1.1201886370590342,0.8635885978049098,0.1517427885146717,-6.179373726161688,-0.8485977908513644,2,2024-09-24 12:26:31.589199951,1727180791.5892005,2024-09-24 12:26:31.589200384,2,3,-4.8492371120611555,-71.9269619827773,[0. 0. 0. 1.],[0.05356468 0.13820672 0.80307453 0.00515407],"[-0.03757699  0.7319255   0.02956773 -0.93122846 -0.06390241 -0.4259251
  0.          0.          0.         -0.03757699 -9.169533  ]",1.5499053796965814,0,0
57,62,2024-09-24 12:26:36.105078784,TASK_BEGIN,16,0.6616850007381087,0.7465905264483816,3.5293022938044643,-1.0860352937200446,0.8610269102664746,0.1483069363820555,-6.186966391858716,-0.8320824867629065,2,2024-09-24 12:26:31.676198975,1727180791.6761992,2024-09-24 12:26:31.676199168,2,3,-5.327341645935229,-85.1764123670475,[0. 0. 0. 1.],[0.01892615 0.10167184 0.87847818 0.00092383],"[-0.0371143   0.68587995  0.07169464 -1.0109693  -0.1376349  -0.5234536
  0.          0.          0.         -0.0371143  -8.801168  ]",1.5615933441171193,0,0
58,63,2024-09-24 12:26:36.172845056,TASK_BEGIN,16,0.6579256201225281,0.7282976045911679,3.313766149771659,-1.049185314809168,0.8552199606926991,0.1460611656202369,-6.189133120907831,-0.8216370376237746,2,2024-09-24 12:26:31.734197998,1727180791.7341988,2024-09-24 12:26:31.734198784,2,3,-5.817931963698394,-94.85419837946854,[0. 0. 0. 1.],[5.80306738e-03 1.52110424e-01 8.42013460e-01 7.30487230e-05],"[-0.03637767  0.6531482   0.1008238  -1.0658674  -0.19534336 -0.59202886
  0.          0.          0.         -0.03637767 -8.539314  ]",1.5634182507793914,0,0
59,64,2024-09-24 12:26:36.233009152,TASK_BEGIN,16,0.6509517661964219,0.7123588413177439,3.0913136339839973,-1.0104733816099916,0.8469744183379955,0.144793480593175,-6.191368548718811,-0.8152047680027156,2,2024-09-24 12:26:31.792197998,1727180791.7921984,2024-09-24 12:26:31.792198400,2,3,-6.083161259587067,-105.12352510811313,[0. 0. 0. 1.],[1.83512427e-03 1.85486076e-01 8.12672456e-01 6.34414266e-06],"[-0.03530081  0.61873806  0.1292277  -1.121647   -0.25996163 -0.65971494
  0.          0.          0.         -0.03530081 -8.264033  ]",1.563980773982611,0,0
60,65,2024-09-24 12:26:36.295089920,TASK_BEGIN,16,0.6416452940120598,0.6989687152989497,2.867566783535453,-0.9705616178946832,0.8372950165347401,0.1443020424290546,-6.197220298212958,-0.8106252512129875,2,2024-09-24 12:26:31.850198975,1727180791.8501992,2024-09-24 12:26:31.850199296,2,3,-6.538234408313949,-115.88197485541276,[0. 0. 0. 1.],[7.36471996e-04 1.79436356e-01 8.19826256e-01 9.15675640e-07],"[-0.03395088  0.5826411   0.1518991  -1.1793337  -0.33024427 -0.7170702
  0.          0.          0.         -0.03395088 -7.975258  ]",1.5646642506006572,0,0
61,66,2024-09-24 12:26:36.376318720,TASK_BEGIN,16,0.6310404895445837,0.6881929414248813,2.647674810516219,-0.9299930864894516,0.8272428715570093,0.1444126229073692,-6.20837789629436,-0.8058641533044039,2,2024-09-24 12:26:31.850198975,1727180791.8501992,2024-09-24 12:26:31.850199296,2,3,-6.538234408313949,-115.88197485541276,[0. 0. 0. 1.],[7.36471996e-04 1.79436356e-01 8.19826256e-01 9.15675640e-07],"[-0.03395088  0.5826411   0.1518991  -1.1793337  -0.33024427 -0.7170702
  0.          0.          0.         -0.03395088 -7.975258  ]",1.5646642506006572,0,0
62,67,2024-09-24 12:26:37.306461184,TASK_BEGIN,16,0.6202751862218231,0.6799719892034597,2.436519922412896,-0.8892955331862517,0.8177832364780642,0.144992787263761,-6.225094657087182,-0.7992362443056483,2,2024-09-24 12:26:32.260229004,1727180792.260229,2024-09-24 12:26:32.260229120,2,3,-7.064206510328583,-181.54783828028212,[0. 0. 0. 1.],[5.52989719e-04 9.73240658e-01 2.62062973e-02 5.47958343e-08],"[-0.02358278  0.28596818  0.15666205 -1.5504755  -0.833244   -0.7523742
  0.          0.          0.         -0.02358278 -5.6018744 ]",1.567827387282844,1,2
63,68,2024-09-24 12:26:37.383670272,TASK_BEGIN,16,0.6105330809026306,0.6741364467557265,2.239101455632033,-0.8491239954629152,0.809678090691676,0.1459552470380038,-6.2467182203599805,-0.7896100504515677,2,2024-09-24 12:26:32.260229004,1727180792.260229,2024-09-24 12:26:32.260229120,2,3,-7.064206510328583,-181.54783828028212,[0. 0. 0. 1.],[5.52989719e-04 9.73240658e-01 2.62062973e-02 5.47958343e-08],"[-0.02358278  0.28596818  0.15666205 -1.5504755  -0.833244   -0.7523742
  0.          0.          0.         -0.02358278 -5.6018744 ]",1.567827387282844,1,2
64,69,2024-09-24 12:26:37.454839808,TASK_BEGIN,16,0.6029715822263598,0.6704237754122846,2.0609733214956267,-0.810400690784126,0.8034365170017596,0.1472440164525109,-6.272066235975178,-0.7765477127128068,2,2024-09-24 12:26:32.260229004,1727180792.260229,2024-09-24 12:26:32.260229120,2,3,-7.064206510328583,-181.54783828028212,[0. 0. 0. 1.],[5.52989719e-04 9.73240658e-01 2.62062973e-02 5.47958343e-08],"[-0.02358278  0.28596818  0.15666205 -1.5504755  -0.833244   -0.7523742
  0.          0.          0.         -0.02358278 -5.6018744 ]",1.567827387282844,1,2
65,70,2024-09-24 12:26:37.507374080,TASK_BEGIN,16,0.5986241121478758,0.6685001785890156,1.9084361135065653,-0.7743851809825951,0.7992993048561908,0.1488070381884746,-6.299575119261268,-0.7603483109610831,2,2024-09-24 12:26:32.260229004,1727180792.260229,2024-09-24 12:26:32.260229120,2,3,-7.064206510328583,-181.54783828028212,[0. 0. 0. 1.],[5.52989719e-04 9.73240658e-01 2.62062973e-02 5.47958343e-08],"[-0.02358278  0.28596818  0.15666205 -1.5504755  -0.833244   -0.7523742
  0.          0.          0.         -0.02358278 -5.6018744 ]",1.567827387282844,1,2
66,71,2024-09-24 12:26:37.575526912,TASK_BEGIN,16,0.5982966979828145,0.6679947765978319,1.7881957119987424,-0.7426165867182929,0.7972479731832383,0.1505666603337661,-6.327371702494257,-0.7419814530083982,2,2024-09-24 12:26:32.260229004,1727180792.260229,2024-09-24 12:26:32.260229120,2,3,-7.064206510328583,-181.54783828028212,[0. 0. 0. 1.],[5.52989719e-04 9.73240658e-01 2.62062973e-02 5.47958343e-08],"[-0.02358278  0.28596818  0.15666205 -1.5504755  -0.833244   -0.7523742
  0.          0.          0.         -0.02358278 -5.6018744 ]",1.567827387282844,1,2
67,72,2024-09-24 12:26:37.653153792,TASK_BEGIN,16,0.6025008179180709,0.6685372881128928,1.7065099689479508,-0.7167262927313897,0.7970752434255566,0.1523966345347137,-6.353487147179514,-0.7228987574182186,2,2024-09-24 12:26:32.260229004,1727180792.260229,2024-09-24 12:26:32.260229120,2,3,-7.064206510328583,-181.54783828028212,[0. 0. 0. 1.],[5.52989719e-04 9.73240658e-01 2.62062973e-02 5.47958343e-08],"[-0.02358278  0.28596818  0.15666205 -1.5504755  -0.833244   -0.7523742
  0.          0.          0.         -0.02358278 -5.6018744 ]",1.567827387282844,1,2
68,73,2024-09-24 12:26:37.715172096,TASK_BEGIN,16,0.6114312428926311,0.6697844925687068,1.6681789546404882,-0.698188195270134,0.7985500195342801,0.1541088095710723,-6.376346610716305,-0.7047338907879985,2,2024-09-24 12:26:32.318197998,1727180792.3181987,2024-09-24 12:26:32.318198784,2,2,0.18470112754085904,-180.03902245116714,[0. 0. 1. 0.],[7.92893969e-04 9.93927394e-01 5.27958926e-03 1.22447453e-07],"[-0.0195864   0.24039829  0.38522172 -1.4519986  -0.90865123 -0.75929767
  0.          0.          0.         -0.0195864  -5.237315  ]",1.5315062972029754,1,2
69,81,2024-09-24 12:26:39.994362112,TASK_BEGIN,16,0.7747101732963709,0.6835168590673978,2.6650606017664957,-0.8183566178594709,0.903895780342418,0.1341383856523775,-6.6285910197332205,-0.6554736271161172,2,2024-09-24 12:26:35.562427979,1727180795.5624285,2024-09-24 12:26:35.562428416,3,0,-2.9108051693193033,-61.55608422217213,[1. 0. 0. 0.],[0.20149031 0.02396217 0.24480793 0.52973959],"[-0.03378161  0.83188736 -0.17872156 -0.74042964  0.09581774  0.06734064
  0.          0.          0.6        -0.6337816  -9.189445  ]",1.5409117456683208,0,0
70,82,2024-09-24 12:26:40.060746752,TASK_BEGIN,16,0.7897106638369585,0.6846095002149846,2.8264784012824022,-0.8441330696704752,0.9344158110850392,0.1253931501969084,-6.722700892943841,-0.6486147596119789,2,2024-09-24 12:26:35.562427979,1727180795.5624285,2024-09-24 12:26:35.562428416,3,0,-2.9108051693193033,-61.55608422217213,[1. 0. 0. 0.],[0.20149031 0.02396217 0.24480793 0.52973959],"[-0.03378161  0.83188736 -0.17872156 -0.74042964  0.09581774  0.06734064
  0.          0.          0.6        -0.6337816  -9.189445  ]",1.5409117456683208,0,0
71,83,2024-09-24 12:26:40.122791936,TASK_BEGIN,16,0.7999532143241396,0.685199079227771,2.959362267382332,-0.8646896418141047,0.968285132701078,0.1153601759808577,-6.845553133980863,-0.6368530662857117,2,2024-09-24 12:26:35.562427979,1727180795.5624285,2024-09-24 12:26:35.562428416,3,0,-2.9108051693193033,-61.55608422217213,[1. 0. 0. 0.],[0.20149031 0.02396217 0.24480793 0.52973959],"[-0.03378161  0.83188736 -0.17872156 -0.74042964  0.09581774  0.06734064
  0.          0.          0.6        -0.6337816  -9.189445  ]",1.5409117456683208,0,0
72,84,2024-09-24 12:26:40.185657088,TASK_BEGIN,16,0.8049042127765917,0.6850503508289744,3.055137491622432,-0.8782955195383382,1.0045384389665293,0.1042265866655432,-7.001272292213625,-0.6194351551879272,2,2024-09-24 12:26:35.562427979,1727180795.5624285,2024-09-24 12:26:35.562428416,3,0,-2.9108051693193033,-61.55608422217213,[1. 0. 0. 0.],[0.20149031 0.02396217 0.24480793 0.52973959],"[-0.03378161  0.83188736 -0.17872156 -0.74042964  0.09581774  0.06734064
  0.          0.          0.6        -0.6337816  -9.189445  ]",1.5409117456683208,0,0
73,85,2024-09-24 12:26:40.265548032,TASK_BEGIN,16,0.8043481946211475,0.6838926893976851,3.107442565623756,-0.8837779660595675,1.0421076102527806,0.0922256174171621,-7.191795889795023,-0.5963915202652592,2,2024-09-24 12:26:35.562427979,1727180795.5624285,2024-09-24 12:26:35.562428416,3,0,-2.9108051693193033,-61.55608422217213,[1. 0. 0. 0.],[0.20149031 0.02396217 0.24480793 0.52973959],"[-0.03378161  0.83188736 -0.17872156 -0.74042964  0.09581774  0.06734064
  0.          0.          0.6        -0.6337816  -9.189445  ]",1.5409117456683208,0,0
74,86,2024-09-24 12:26:40.333358848,TASK_BEGIN,16,0.7983959511657998,0.6814378491554967,3.1126691483789397,-0.8806088756613853,1.0799304105266014,0.0796274339864316,-7.415235459705953,-0.5687384515968188,2,2024-09-24 12:26:35.562427979,1727180795.5624285,2024-09-24 12:26:35.562428416,3,0,-2.9108051693193033,-61.55608422217213,[1. 0. 0. 0.],[0.20149031 0.02396217 0.24480793 0.52973959],"[-0.03378161  0.83188736 -0.17872156 -0.74042964  0.09581774  0.06734064
  0.          0.          0.6        -0.6337816  -9.189445  ]",1.5409117456683208,0,0
75,87,2024-09-24 12:26:40.401149952,TASK_BEGIN,16,0.7874333250028848,0.6773979875405522,3.070686557911768,-0.8689931855659018,1.1169686490484907,0.0667275335457595,-7.664996179687532,-0.5384754739325458,2,2024-09-24 12:26:35.562427979,1727180795.5624285,2024-09-24 12:26:35.562428416,3,0,-2.9108051693193033,-61.55608422217213,[1. 0. 0. 0.],[0.20149031 0.02396217 0.24480793 0.52973959],"[-0.03378161  0.83188736 -0.17872156 -0.74042964  0.09581774  0.06734064
  0.          0.          0.6        -0.6337816  -9.189445  ]",1.5409117456683208,0,0
76,88,2024-09-24 12:26:41.336201984,TASK_BEGIN,16,0.772029345636152,0.6715113980823315,2.985323024348255,-0.8498819546781333,1.1521400627803613,0.0538391050795517,-7.930265943064968,-0.5083169377807351,2,2024-09-24 12:26:36.420195068,1727180796.4201953,2024-09-24 12:26:36.420195328,3,2,-3.973239268603481,-136.7660099094639,[0. 0. 1. 0.],[0.0201614  0.00351177 0.00378365 0.97254318],"[ -0.14019847   0.9395429   -0.7798345    1.27845      0.13385268
   0.03285401   0.           0.           0.6         -0.7401985
 -10.050689  ]",1.56153040906498,0,0
77,89,2024-09-24 12:26:41.398577920,TASK_BEGIN,16,0.7528657637409645,0.6635713256722136,2.864186647473215,-0.8248506831639711,1.184215129146833,0.0412942110442153,-8.197654872461044,-0.4812407520024116,2,2024-09-24 12:26:36.420195068,1727180796.4201953,2024-09-24 12:26:36.420195328,3,2,-3.973239268603481,-136.7660099094639,[0. 0. 1. 0.],[0.0201614  0.00351177 0.00378365 0.97254318],"[ -0.14019847   0.9395429   -0.7798345    1.27845      0.13385268
   0.03285401   0.           0.           0.6         -0.7401985
 -10.050689  ]",1.56153040906498,0,0
78,90,2024-09-24 12:26:41.479454976,TASK_BEGIN,16,0.7307042948027107,0.6534417750442514,2.717818527553499,-0.795866011146437,1.211772270428174,0.0294436161604822,-8.453139522162582,-0.4600281359198088,2,2024-09-24 12:26:36.420195068,1727180796.4201953,2024-09-24 12:26:36.420195328,3,2,-3.973239268603481,-136.7660099094639,[0. 0. 1. 0.],[0.0201614  0.00351177 0.00378365 0.97254318],"[ -0.14019847   0.9395429   -0.7798345    1.27845      0.13385268
   0.03285401   0.           0.           0.6         -0.7401985
 -10.050689  ]",1.56153040906498,0,0
79,91,2024-09-24 12:26:41.541280000,TASK_BEGIN,16,0.7063407198056372,0.641057445024853,2.5584896414656435,-0.7650163475494599,1.2332729923693135,0.0186400836515821,-8.6835584445202,-0.4469495342927724,2,2024-09-24 12:26:36.420195068,1727180796.4201953,2024-09-24 12:26:36.420195328,3,2,-3.973239268603481,-136.7660099094639,[0. 0. 1. 0.],[0.0201614  0.00351177 0.00378365 0.97254318],"[ -0.14019847   0.9395429   -0.7798345    1.27845      0.13385268
   0.03285401   0.           0.           0.6         -0.7401985
 -10.050689  ]",1.56153040906498,0,0
80,92,2024-09-24 12:26:41.605647872,TASK_BEGIN,16,0.6805160327993877,0.6264254617760691,2.398939282507313,-0.7342717868487039,1.2472310640408857,0.0092047688859392,-8.877322000011336,-0.4436568539583148,2,2024-09-24 12:26:36.420195068,1727180796.4201953,2024-09-24 12:26:36.420195328,3,2,-3.973239268603481,-136.7660099094639,[0. 0. 1. 0.],[0.0201614  0.00351177 0.00378365 0.97254318],"[ -0.14019847   0.9395429   -0.7798345    1.27845      0.13385268
   0.03285401   0.           0.           0.6         -0.7401985
 -10.050689  ]",1.56153040906498,0,0
81,93,2024-09-24 12:26:41.667699968,TASK_BEGIN,16,0.6538257986006497,0.6096434865656232,2.251205514548522,-0.705299762721853,1.252414731905295,0.0013875668416965,-9.024337517303964,-0.4512446367533972,2,2024-09-24 12:26:36.420195068,1727180796.4201953,2024-09-24 12:26:36.420195328,3,2,-3.973239268603481,-136.7660099094639,[0. 0. 1. 0.],[0.0201614  0.00351177 0.00378365 0.97254318],"[ -0.14019847   0.9395429   -0.7798345    1.27845      0.13385268
   0.03285401   0.           0.           0.6         -0.7401985
 -10.050689  ]",1.56153040906498,0,0
82,94,2024-09-24 12:26:41.745455104,TASK_BEGIN,16,0.6266860903003039,0.5909248971345822,2.125629156463496,-0.679339929512651,1.248045068235583,-0.004669887899422,-9.11560839469167,-0.470365447112489,2,2024-09-24 12:26:36.420195068,1727180796.4201953,2024-09-24 12:26:36.420195328,3,2,-3.973239268603481,-136.7660099094639,[0. 0. 1. 0.],[0.0201614  0.00351177 0.00378365 0.97254318],"[ -0.14019847   0.9395429   -0.7798345    1.27845      0.13385268
   0.03285401   0.           0.           0.6         -0.7401985
 -10.050689  ]",1.56153040906498,0,0
83,95,2024-09-24 12:26:42.683077120,TASK_BEGIN,16,0.5993678852559954,0.5706100010449159,2.0300982573697484,-0.6571431847577276,1.233950725180571,-0.0089577033223888,-9.143291239421591,-0.5012684871855744,2,2024-09-24 12:26:38.249479004,1727180798.249479,2024-09-24 12:26:38.249479168,3,1,-7.272564371525002,-149.84433501917098,[0. 1. 0. 0.],[4.10184988e-03 3.55776508e-07 2.51611126e-10 9.95897794e-01],"[ -0.50631887   1.4110394   -1.1247014   -0.35200503   0.8565593
   0.93171483   0.           0.           0.6         -1.1063188
 -13.82266   ]",1.5679055195376093,0,0
84,96,2024-09-24 12:26:42.761704960,TASK_BEGIN,16,0.5720690344977052,0.5491577276937571,1.96955705306328,-0.6389750431620951,1.2106249540839609,-0.0115930558685501,-9.101499606340996,-0.5437331302635414,2,2024-09-24 12:26:38.309478027,1727180798.309479,2024-09-24 12:26:38.309478912,3,1,-7.5198465412526705,-161.54012352503574,[0. 1. 0. 0.],[3.79966738e-03 2.65999712e-07 3.92745061e-11 9.96200067e-01],"[ -0.5214684    1.3996379   -1.1392444   -0.41920188   0.95509833
   1.0039475    0.           0.           0.6         -1.1214684
 -13.731449  ]",1.5686448026919468,0,0
85,97,2024-09-24 12:26:42.822377984,TASK_BEGIN,16,0.5449984851646034,0.5271284213137545,1.945732439229089,-0.6246581503805546,1.179183289434263,-0.012788909259356,-8.98722756939253,-0.5970024435364697,2,2024-09-24 12:26:38.396508057,1727180798.3965085,2024-09-24 12:26:38.396508416,3,1,-7.942235765212169,-180.474470573077,[0. 1. 0. 0.],[6.26792830e-03 7.68963622e-07 1.41600508e-11 9.93731303e-01],"[ -0.54463786   1.3788421   -1.1577123   -0.52248645   1.1178005
   1.1190269    0.           0.           0.6         -1.1446378
 -13.565083  ]",1.5687606076811862,0,0
86,98,2024-09-24 12:26:42.885004800,TASK_BEGIN,16,0.5184678236621761,0.5051630228283956,1.956988601181286,-0.6136128743752773,1.1412869437897522,-0.0128205059923661,-8.800607682177437,-0.6598308528335128,2,2024-09-24 12:26:38.426479980,1727180798.4264805,2024-09-24 12:26:38.426480640,3,1,-8.348633767364229,-187.01835963471046,[0. 1. 0. 0.],[7.29799045e-03 1.13756507e-06 1.13825236e-11 9.92700872e-01],"[ -0.5524587   1.3709269  -1.1617376  -0.5577087   1.1757373   1.1587408
   0.          0.          0.6        -1.1524587 -13.5017605]",1.5687621974155115,1,2
87,99,2024-09-24 12:26:42.962743808,TASK_BEGIN,16,0.4929662283895574,0.4839562315855358,1.998295503138085,-0.6048854333026009,1.0990780712539825,-0.01201109434963,-8.544493266099703,-0.7306456785022273,2,2024-09-24 12:26:38.426479980,1727180798.4264805,2024-09-24 12:26:38.426480640,3,1,-8.348633767364229,-187.01835963471046,[0. 1. 0. 0.],[7.29799045e-03 1.13756507e-06 1.13825236e-11 9.92700872e-01],"[ -0.5524587   1.3709269  -1.1617376  -0.5577087   1.1757373   1.1587408
   0.          0.          0.6        -1.1524587 -13.5017605]",1.5687621974155115,1,2
88,100,2024-09-24 12:26:43.032882176,TASK_BEGIN,16,0.4691644506420879,0.4642294041062995,2.061506428602684,-0.597216376525204,1.0551093324659853,-0.0107349658189763,-8.22407446698026,-0.8077167269872992,2,2024-09-24 12:26:38.426479980,1727180798.4264805,2024-09-24 12:26:38.426480640,3,1,-8.348633767364229,-187.01835963471046,[0. 1. 0. 0.],[7.29799045e-03 1.13756507e-06 1.13825236e-11 9.92700872e-01],"[ -0.5524587   1.3709269  -1.1617376  -0.5577087   1.1757373   1.1587408
   0.          0.          0.6        -1.1524587 -13.5017605]",1.5687621974155115,1,2
89,101,2024-09-24 12:26:43.087550976,TASK_BEGIN,16,0.4478216865267714,0.4467151808776644,2.136224987163465,-0.5892196868462015,1.0122237716680027,-0.0094182073064695,-7.847058526702769,-0.8892339024381234,2,2024-09-24 12:26:38.426479980,1727180798.4264805,2024-09-24 12:26:38.426480640,3,1,-8.348633767364229,-187.01835963471046,[0. 1. 0. 0.],[7.29799045e-03 1.13756507e-06 1.13825236e-11 9.92700872e-01],"[ -0.5524587   1.3709269  -1.1617376  -0.5577087   1.1757373   1.1587408
   0.          0.          0.6        -1.1524587 -13.5017605]",1.5687621974155115,1,2
90,102,2024-09-24 12:26:44.044579072,TASK_BEGIN,16,0.4296413467654848,0.4321519049266664,2.2112606812512223,-0.579666431369937,0.9733488814364034,-0.0085142923305281,-7.424164137178242,-0.9732951809898592,2,2024-09-24 12:26:39.189373047,1727180799.189373,2024-09-24 12:26:39.189372928,3,1,-8.459526982039629,-356.6699186315183,[0. 1. 0. 0.],[7.79773840e-01 5.85888500e-03 4.74537922e-09 2.14367270e-01],"[ -0.7674385   1.0104167  -1.2209399  -1.3857771   2.798643    1.2646458
   0.          0.          0.6        -1.3674384 -10.61768  ]",1.5394115566121074,1,2
91,103,2024-09-24 12:26:44.111447040,TASK_BEGIN,16,0.4151491932294001,0.4212673258854085,2.2762772054938973,-0.5677665078435358,0.9412081924862222,-0.0084462664983041,-6.9692915001996045,-1.057891616883056,2,2024-09-24 12:26:39.189373047,1727180799.189373,2024-09-24 12:26:39.189372928,3,1,-8.459526982039629,-356.6699186315183,[0. 1. 0. 0.],[7.79773840e-01 5.85888500e-03 4.74537922e-09 2.14367270e-01],"[ -0.7674385   1.0104167  -1.2209399  -1.3857771   2.798643    1.2646458
   0.          0.          0.6        -1.3674384 -10.61768  ]",1.5394115566121074,1,2
92,104,2024-09-24 12:26:44.173075968,TASK_BEGIN,16,0.4046190746977862,0.4147360928728671,2.323144364620432,-0.5533256667484298,0.918018945875686,-0.009533777047712,-6.499012810116775,-1.1409622075954342,2,2024-09-24 12:26:39.189373047,1727180799.189373,2024-09-24 12:26:39.189372928,3,1,-8.459526982039629,-356.6699186315183,[0. 1. 0. 0.],[7.79773840e-01 5.85888500e-03 4.74537922e-09 2.14367270e-01],"[ -0.7674385   1.0104167  -1.2209399  -1.3857771   2.798643    1.2646458
   0.          0.          0.6        -1.3674384 -10.61768  ]",1.5394115566121074,1,2
93,105,2024-09-24 12:26:44.236080896,TASK_BEGIN,16,0.3980238740562439,0.4131204976918027,2.346772248128364,-0.536746130895407,0.9052594216992298,-0.0119329427924713,-6.0313757065626925,-1.220524459592896,2,2024-09-24 12:26:39.189373047,1727180799.189373,2024-09-24 12:26:39.189372928,3,1,-8.459526982039629,-356.6699186315183,[0. 1. 0. 0.],[7.79773840e-01 5.85888500e-03 4.74537922e-09 2.14367270e-01],"[ -0.7674385   1.0104167  -1.2209399  -1.3857771   2.798643    1.2646458
   0.          0.          0.6        -1.3674384 -10.61768  ]",1.5394115566121074,1,2
94,106,2024-09-24 12:26:44.313724160,TASK_BEGIN,16,0.3950105214407895,0.4168137101519695,2.3455306074500406,-0.5189415297723907,0.903537088280361,-0.0156028964853937,-5.584186650282856,-1.2948340541469112,2,2024-09-24 12:26:39.189373047,1727180799.189373,2024-09-24 12:26:39.189372928,3,1,-8.459526982039629,-356.6699186315183,[0. 1. 0. 0.],[7.79773840e-01 5.85888500e-03 4.74537922e-09 2.14367270e-01],"[ -0.7674385   1.0104167  -1.2209399  -1.3857771   2.798643    1.2646458
   0.          0.          0.6        -1.3674384 -10.61768  ]",1.5394115566121074,1,2
95,107,2024-09-24 12:26:44.383577856,TASK_BEGIN,16,0.3949337540519375,0.4259906057919887,2.321378085330395,-0.5012408259102599,0.9125555577971324,-0.020301716019189,-5.173229162004434,-1.3624894853741691,2,2024-09-24 12:26:39.189373047,1727180799.189373,2024-09-24 12:26:39.189372928,3,1,-8.459526982039629,-356.6699186315183,[0. 1. 0. 0.],[7.79773840e-01 5.85888500e-03 4.74537922e-09 2.14367270e-01],"[ -0.7674385   1.0104167  -1.2209399  -1.3857771   2.798643    1.2646458
   0.          0.          0.6        -1.3674384 -10.61768  ]",1.5394115566121074,1,2
96,108,2024-09-24 12:26:44.437790976,TASK_BEGIN,16,0.3969515994281298,0.44056667160245,2.2796202662470564,-0.4852927871208721,0.931188775606408,-0.0256142962740753,-4.811047158688365,-1.4223967740626944,2,2024-09-24 12:26:39.189373047,1727180799.189373,2024-09-24 12:26:39.189372928,3,1,-8.459526982039629,-356.6699186315183,[0. 1. 0. 0.],[7.79773840e-01 5.85888500e-03 4.74537922e-09 2.14367270e-01],"[ -0.7674385   1.0104167  -1.2209399  -1.3857771   2.798643    1.2646458
   0.          0.          0.6        -1.3674384 -10.61768  ]",1.5394115566121074,1,2
97,109,2024-09-24 12:26:45.359080960,TASK_BEGIN,16,0.4001310089721304,0.4601821568254832,2.228169274258864,-0.4729495474149517,0.9576636505332526,-0.0310086736306348,-4.506581786558321,-1.4735950361951398,2,2024-09-24 12:26:39.948844971,1727180799.9488451,2024-09-24 12:26:39.948845056,3,1,-13.44344893602989,-519.2442535520635,[0. 1. 0. 0.],[8.71266958e-01 1.28732920e-01 1.21664263e-12 1.22493973e-07],"[-0.97348     0.31103897 -1.0355519  -1.8857117   5.037764    2.1856167
  0.          0.          0.6        -1.57348    -5.022657  ]",1.507637534489918,1,2
98,110,2024-09-24 12:26:45.436325120,TASK_BEGIN,16,0.4035283872587213,0.4842311177060259,2.1763589568959225,-0.4661097257827631,0.9898199651307504,-0.0359075437442918,-4.265552503964713,-1.5150343044943024,2,2024-09-24 12:26:40.035443115,1727180800.0354438,2024-09-24 12:26:40.035443712,3,0,-14.48207865690722,-546.1567112284561,[1. 0. 0. 0.],[8.73919236e-01 1.26080714e-01 2.39321590e-13 4.99028194e-08],"[-0.99391717  0.21612048 -1.0610354  -1.9566709   5.3715944   2.2209332
  0.          0.          0.6        -1.5939171  -4.263309  ]",1.4946537298238456,1,2
99,116,2024-09-24 12:26:46.709913088,TASK_BEGIN,16,0.3971456864926349,0.6711725515823653,2.258583376784321,-0.6013719462854515,1.199542759420626,-0.0344777858927723,-4.280523263667176,-1.4721228936236874,2,2024-09-24 12:26:42.266041992,1727180802.2660425,2024-09-24 12:26:42.266042368,4,0,-2.864166791239718,-38.61937770943284,[1. 0. 0. 0.],[0.31622214 0.34173771 0.28284186 0.05919829],"[  0.02942292   0.9315717    0.19850554  -0.47665283  -0.08252697
  -0.07466013   0.           0.           0.           0.02942292
 -12.046647  ]",1.5155852631509024,0,0
100,117,2024-09-24 12:26:46.771939072,TASK_BEGIN,16,0.3929251565941727,0.7001128068053853,2.353892035640354,-0.6499623281652529,1.229424146493182,-0.0292652534170327,-4.525967410151206,-1.4044548653156226,2,2024-09-24 12:26:42.324074951,1727180802.324075,2024-09-24 12:26:42.324075008,4,0,-3.1585280083605767,-43.86333117264023,[1. 0. 0. 0.],[0.29835754 0.3309125  0.3226605  0.04806946],"[  0.03208868   0.9154537    0.19758588  -0.52998435  -0.09099191
  -0.09468366   0.           0.           0.           0.03208868
 -11.917703  ]",1.5182525938741906,0,0
101,118,2024-09-24 12:26:46.854254848,TASK_BEGIN,16,0.3897409457475185,0.7260086171598,2.461305511092607,-0.7014816304333231,1.2575761501970495,-0.0234901797590426,-4.830720213756123,-1.319761728611035,2,2024-09-24 12:26:42.411748779,1727180802.4117498,2024-09-24 12:26:42.411749888,4,0,-2.936743081105689,-51.465103818683545,[1. 0. 0. 0.],[0.27840729 0.3080536  0.37486383 0.03867528],"[  0.03610166   0.88812447   0.19804163  -0.6089815   -0.10218448
  -0.07461698   0.           0.           0.           0.03610166
 -11.699069  ]",1.5198550588398239,0,0
102,119,2024-09-24 12:26:46.911514880,TASK_BEGIN,16,0.3884177728874283,0.7482550894471288,2.573040348426892,-0.7537218187921084,1.2837443205531156,-0.0175329948723346,-5.18661832998195,-1.220080559994542,2,2024-09-24 12:26:42.470715088,1727180802.4707158,2024-09-24 12:26:42.470715648,4,0,-2.9553094808789666,-56.3133372382781,[1. 0. 0. 0.],[0.27244656 0.30498836 0.38605651 0.03650857],"[  0.03877703   0.8679055    0.19804004  -0.660192    -0.10964607
  -0.07461552   0.           0.           0.           0.03877703
 -11.537317  ]",1.5215412250709772,0,0
103,120,2024-09-24 12:26:46.989815808,TASK_BEGIN,16,0.3896363980882054,0.766442889870462,2.681184790258511,-0.8046699162365272,1.3074280482818923,-0.0117201754034244,-5.583729553671818,-1.108220590395034,2,2024-09-24 12:26:42.530715088,1727180802.5307157,2024-09-24 12:26:42.530715648,4,0,-2.970245503034448,-61.09647685465261,[1. 0. 0. 0.],[0.2631803  0.31029861 0.39229909 0.03422201],"[  0.04145249   0.846087     0.19803832  -0.71140236  -0.11710759
  -0.07461508   0.           0.           0.           0.04145249
 -11.362769  ]",1.5223231582489982,0,0
104,121,2024-09-24 12:26:47.057576960,TASK_BEGIN,16,0.3938968781991614,0.7803574292722287,2.778033670416591,-0.852594295422722,1.3280722477547946,-0.0063265143415611,-6.0102982716714175,-0.9876713200805473,2,2024-09-24 12:26:42.530715088,1727180802.5307157,2024-09-24 12:26:42.530715648,4,0,-2.970245503034448,-61.09647685465261,[1. 0. 0. 0.],[0.2631803  0.31029861 0.39229909 0.03422201],"[  0.04145249   0.846087     0.19803832  -0.71140236  -0.11710759
  -0.07461508   0.           0.           0.           0.04145249
 -11.362769  ]",1.5223231582489982,0,0
105,122,2024-09-24 12:26:47.113203200,TASK_BEGIN,16,0.4014732354661172,0.7899694382366141,2.85628015516632,-0.8960425810079335,1.3453441020840295,-0.0015849753513712,-6.452648091952129,-0.8625453308996371,2,2024-09-24 12:26:42.530715088,1727180802.5307157,2024-09-24 12:26:42.530715648,4,0,-2.970245503034448,-61.09647685465261,[1. 0. 0. 0.],[0.2631803  0.31029861 0.39229909 0.03422201],"[  0.04145249   0.846087     0.19803832  -0.71140236  -0.11710759
  -0.07461508   0.           0.           0.           0.04145249
 -11.362769  ]",1.5223231582489982,0,0
106,123,2024-09-24 12:26:48.055707136,TASK_BEGIN,16,0.4123754970153509,0.7954239070442731,2.909309759943958,-0.9337984150238362,1.3593608314840264,0.0023098738417248,-6.895252330467678,-0.7375099675146981,2,2024-09-24 12:26:43.624589844,1727180803.6245902,2024-09-24 12:26:43.624590080,4,0,-4.614774166935689,-153.0490099877932,[1. 0. 0. 0.],[5.04057334e-03 2.23778719e-06 6.49186413e-01 3.45770776e-01],"[ 0.05495365  0.15978992 -0.00847031 -1.6512074   0.46481493  0.4056402
  0.          0.          0.          0.05495365 -5.872392  ]",1.562913904137103,0,0
107,124,2024-09-24 12:26:48.133815040,TASK_BEGIN,16,0.4263540741075639,0.7970194050619452,2.9316539661336347,-0.9648428747440064,1.3707410641730562,0.0052132130017138,-7.32102322262045,-0.6176541001096276,2,2024-09-24 12:26:43.682564941,1727180803.6825655,2024-09-24 12:26:43.682565376,4,0,-4.614000456618584,-159.1855851411364,[1. 0. 0. 0.],[3.59359505e-03 1.05560192e-06 6.71941428e-01 3.24463922e-01],"[ 0.05520241  0.10726869 -0.00826025 -1.7026846   0.5053746   0.40558323
  0.          0.          0.          0.05520241 -5.4522223 ]",1.5636965836264334,1,2
108,125,2024-09-24 12:26:48.196687104,TASK_BEGIN,16,0.4429513549665682,0.79517121743596,2.919518321436561,-0.9883419522463704,1.3804515985477115,0.007054576824699,-7.711700001108058,-0.5082837331133765,2,2024-09-24 12:26:43.682564941,1727180803.6825655,2024-09-24 12:26:43.682565376,4,0,-4.614000456618584,-159.1855851411364,[1. 0. 0. 0.],[3.59359505e-03 1.05560192e-06 6.71941428e-01 3.24463922e-01],"[ 0.05520241  0.10726869 -0.00826025 -1.7026846   0.5053746   0.40558323
  0.          0.          0.          0.05520241 -5.4522223 ]",1.5636965836264334,1,2
109,126,2024-09-24 12:26:48.259172096,TASK_BEGIN,16,0.4615846867213447,0.790364961440979,2.8713380839181104,-1.0036677752245171,1.3895392116104202,0.0078668505986773,-8.048378312147394,-0.4146602535861651,2,2024-09-24 12:26:43.682564941,1727180803.6825655,2024-09-24 12:26:43.682565376,4,0,-4.614000456618584,-159.1855851411364,[1. 0. 0. 0.],[3.59359505e-03 1.05560192e-06 6.71941428e-01 3.24463922e-01],"[ 0.05520241  0.10726869 -0.00826025 -1.7026846   0.5053746   0.40558323
  0.          0.          0.          0.05520241 -5.4522223 ]",1.5636965836264334,1,2
110,127,2024-09-24 12:26:48.339945984,TASK_BEGIN,16,0.4816468147520971,0.7831094560128805,2.7882930970238813,-1.0104505506355417,1.398875576409862,0.0078070746855169,-8.312491896783204,-0.3416701010090258,2,2024-09-24 12:26:43.682564941,1727180803.6825655,2024-09-24 12:26:43.682565376,4,0,-4.614000456618584,-159.1855851411364,[1. 0. 0. 0.],[3.59359505e-03 1.05560192e-06 6.71941428e-01 3.24463922e-01],"[ 0.05520241  0.10726869 -0.00826025 -1.7026846   0.5053746   0.40558323
  0.          0.          0.          0.05520241 -5.4522223 ]",1.5636965836264334,1,2
111,128,2024-09-24 12:26:48.398415104,TASK_BEGIN,16,0.5025925112902964,0.7738922457368618,2.6745638743360334,-1.0086383962783791,1.408983650019367,0.0071560230238641,-8.487411890181857,-0.293428975048626,2,2024-09-24 12:26:43.682564941,1727180803.6825655,2024-09-24 12:26:43.682565376,4,0,-4.614000456618584,-159.1855851411364,[1. 0. 0. 0.],[3.59359505e-03 1.05560192e-06 6.71941428e-01 3.24463922e-01],"[ 0.05520241  0.10726869 -0.00826025 -1.7026846   0.5053746   0.40558323
  0.          0.          0.          0.05520241 -5.4522223 ]",1.5636965836264334,1,2
112,129,2024-09-24 12:26:48.460421120,TASK_BEGIN,16,0.5239684754201634,0.7631442965423875,2.537097245732072,-0.9985397030265788,1.4199560929382204,0.0062882704298498,-8.560429818551777,-0.2728684755545782,2,2024-09-24 12:26:43.682564941,1727180803.6825655,2024-09-24 12:26:43.682565376,4,0,-4.614000456618584,-159.1855851411364,[1. 0. 0. 0.],[3.59359505e-03 1.05560192e-06 6.71941428e-01 3.24463922e-01],"[ 0.05520241  0.10726869 -0.00826025 -1.7026846   0.5053746   0.40558323
  0.          0.          0.          0.05520241 -5.4522223 ]",1.5636965836264334,1,2
113,130,2024-09-24 12:26:49.416183808,TASK_BEGIN,16,0.5453904327502429,0.7512225239699847,2.3848561335817973,-0.9808442659814216,1.4314767262752195,0.0056163930314444,-8.524722779172755,-0.2813587652244386,2,2024-09-24 12:26:44.301237061,1727180804.3012373,2024-09-24 12:26:44.301237248,4,2,-6.622224682476246,-161.79307431200849,[0. 0. 1. 0.],[2.64565843e-03 2.36002587e-05 1.15039589e-06 9.97329591e-01],"[-0.02740065 -0.35360616 -1.3618375  -1.0515125   0.80403084  0.2732883
  0.          0.          0.         -0.02740065 -1.7652236 ]",1.5375552149780052,1,2
114,131,2024-09-24 12:26:49.475553024,TASK_BEGIN,16,0.5665227202492817,0.7384067048920337,2.2277327187567777,-0.9566262877233824,1.4429411000986745,0.0055283846043209,-8.380876973280756,-0.3184262675037649,2,2024-09-24 12:26:44.301237061,1727180804.3012373,2024-09-24 12:26:44.301237248,4,2,-6.622224682476246,-161.79307431200849,[0. 0. 1. 0.],[2.64565843e-03 2.36002587e-05 1.15039589e-06 9.97329591e-01],"[-0.02740065 -0.35360616 -1.3618375  -1.0515125   0.80403084  0.2732883
  0.          0.          0.         -0.02740065 -1.7652236 ]",1.5375552149780052,1,2
115,132,2024-09-24 12:26:49.554505216,TASK_BEGIN,16,0.5870892360549708,0.7248982346172247,2.075377417616153,-0.9273150093332068,1.453624920187908,0.0063395717044796,-8.137471393191221,-0.3816672303375565,2,2024-09-24 12:26:44.301237061,1727180804.3012373,2024-09-24 12:26:44.301237248,4,2,-6.622224682476246,-161.79307431200849,[0. 0. 1. 0.],[2.64565843e-03 2.36002587e-05 1.15039589e-06 9.97329591e-01],"[-0.02740065 -0.35360616 -1.3618375  -1.0515125   0.80403084  0.2732883
  0.          0.          0.         -0.02740065 -1.7652236 ]",1.5375552149780052,1,2
116,133,2024-09-24 12:26:49.613154816,TASK_BEGIN,16,0.606883125946876,0.7108201624257589,1.9362270317674763,-0.89462144637052,1.4628434444520562,0.0082628637468514,-7.810364900561016,-0.4669490853545328,2,2024-09-24 12:26:44.301237061,1727180804.3012373,2024-09-24 12:26:44.301237248,4,2,-6.622224682476246,-161.79307431200849,[0. 0. 1. 0.],[2.64565843e-03 2.36002587e-05 1.15039589e-06 9.97329591e-01],"[-0.02740065 -0.35360616 -1.3618375  -1.0515125   0.80403084  0.2732883
  0.          0.          0.         -0.02740065 -1.7652236 ]",1.5375552149780052,1,2
117,134,2024-09-24 12:26:49.674702848,TASK_BEGIN,16,0.6257449868064191,0.6962303131267715,1.817016069742194,-0.8604445983249522,1.4700736234949725,0.011388226497041,-7.420830923633273,-0.5688807586369492,2,2024-09-24 12:26:44.301237061,1727180804.3012373,2024-09-24 12:26:44.301237248,4,2,-6.622224682476246,-161.79307431200849,[0. 0. 1. 0.],[2.64565843e-03 2.36002587e-05 1.15039589e-06 9.97329591e-01],"[-0.02740065 -0.35360616 -1.3618375  -1.0515125   0.80403084  0.2732883
  0.          0.          0.         -0.02740065 -1.7652236 ]",1.5375552149780052,1,2
118,135,2024-09-24 12:26:49.752486144,TASK_BEGIN,16,0.6435280979792878,0.681148708421006,1.7228847012373116,-0.8267940437929545,1.475012780684349,0.0156708740462723,-6.993113308214642,-0.6814264766188594,2,2024-09-24 12:26:44.797104004,1727180804.7971044,2024-09-24 12:26:44.797104384,4,2,-33.92154801579942,-346.23412475505,[0. 0. 1. 0.],[9.89323542e-01 7.30912428e-03 2.88809073e-03 4.79243269e-04],"[-0.30275735 -0.50488186 -2.950218   -0.13787922  1.593999    3.1685634
  0.          1.          0.         -0.30275735 -0.55501807]",1.5373172235582266,1,2
119,136,2024-09-24 12:26:49.814511104,TASK_BEGIN,16,0.6600730501446584,0.6655861026416834,1.6578850910761185,-0.7957302242003566,1.477542363427376,0.0209381080851517,-6.55192727283874,-0.798535837573091,2,2024-09-24 12:26:44.797104004,1727180804.7971044,2024-09-24 12:26:44.797104384,4,2,-33.92154801579942,-346.23412475505,[0. 0. 1. 0.],[9.89323542e-01 7.30912428e-03 2.88809073e-03 4.79243269e-04],"[-0.30275735 -0.50488186 -2.950218   -0.13787922  1.593999    3.1685634
  0.          1.          0.         -0.30275735 -0.55501807]",1.5373172235582266,1,2
121,140,2024-09-24 12:26:50.944413696,TASK_BEGIN,16,0.709548117774433,0.5994324225501381,1.7479183717453484,-0.7340066253258577,1.4602763490504578,0.0458768548805055,-5.057855382272408,-1.2169885638720137,2,2024-09-24 12:26:46.505561035,1727180806.5055618,2024-09-24 12:26:46.505561856,5,0,-2.427860963845248,-6.54524719496437,[1. 0. 0. 0.],[0.41595234 0.18842366 0.07102437 0.32459962],"[-2.4323463e-03  9.9304521e-01 -9.0136111e-02 -1.9635880e-01
  7.0293471e-03  3.4231775e-02  0.0000000e+00  0.0000000e+00
 -6.0000002e-01  5.9756768e-01 -1.2398035e+01]",1.4959991548226097,0,0
122,141,2024-09-24 12:26:51.005969920,TASK_BEGIN,16,0.7165841637228237,0.5824200535391268,1.8633288194758388,-0.739665235434203,1.4468141040537337,0.0515262560204804,-4.821017001738792,-1.2938602790130909,2,2024-09-24 12:26:46.563590088,1727180806.5635898,2024-09-24 12:26:46.563589888,5,0,-2.519041535960355,-11.38939713592769,[1. 0. 0. 0.],[0.42252813 0.19855386 0.08283653 0.29608148],"[-3.6501884e-03  9.8570907e-01 -9.0181343e-02 -2.4757572e-01
  1.0449942e-02  3.4210630e-02  0.0000000e+00  0.0000000e+00
 -6.0000002e-01  5.9634984e-01 -1.2339346e+01]",1.4978847296414988,0,0
123,142,2024-09-24 12:26:51.081712896,TASK_BEGIN,16,0.7211333529757246,0.565500819945728,2.012166092966293,-0.7535726535913895,1.428310562195301,0.0564633846084847,-4.653787152010061,-1.3565754007648232,2,2024-09-24 12:26:46.653561035,1727180806.6535618,2024-09-24 12:26:46.653561856,5,0,-2.588248183171757,-18.681917058675484,[1. 0. 0. 0.],[0.4269626  0.18594785 0.11122191 0.27586765],"[-5.4781437e-03  9.7170424e-01 -9.0248711e-02 -3.2440189e-01
  1.5577047e-02  3.4180567e-02  0.0000000e+00  0.0000000e+00
 -6.0000002e-01  5.9452188e-01 -1.2227307e+01]",1.4985715007387133,0,0
124,143,2024-09-24 12:26:51.145107968,TASK_BEGIN,16,0.7231195547382473,0.5488205087117577,2.189490117182043,-0.7743921704455649,1.4041616238011956,0.0605591123828809,-4.557033186459118,-1.4047371746974522,2,2024-09-24 12:26:46.711561035,1727180806.7115612,2024-09-24 12:26:46.711561216,5,0,-2.613460406558133,-23.499780532976086,[1. 0. 0. 0.],[0.42344755 0.18046    0.12724682 0.26884563],"[-6.6976547e-03  9.6036685e-01 -9.0293251e-02 -3.7562034e-01
  1.8992610e-02  3.4160774e-02  0.0000000e+00  0.0000000e+00
 -6.0000002e-01  5.9330237e-01 -1.2136608e+01]",1.4992112295064597,0,0
125,144,2024-09-24 12:26:52.090768128,TASK_BEGIN,16,0.7225974679905262,0.5324912326176062,2.388992725317407,-0.8002542284388069,1.374072160234554,0.0637317177398216,-4.527308211589574,-1.4384782890867298,2,2024-09-24 12:26:47.652322021,1727180807.652322,2024-09-24 12:26:47.652322048,5,1,-5.3401988198610955,-112.0004880478816,[0. 1. 0. 0.],[7.59783945e-03 3.01352842e-05 1.03029066e-01 8.89342959e-01],"[-0.03514822  0.5588763  -0.29304788 -1.2163582   0.25248584  0.50685513
  0.          0.         -0.6         0.56485176 -8.924684  ]",1.5609935434597406,0,0
126,145,2024-09-24 12:26:52.153251840,TASK_BEGIN,16,0.7198040691690419,0.516560504933781,2.6033306384115016,-0.8289219304408909,1.3381712409881248,0.0659157358443897,-4.556864741490456,-1.4584264055127556,2,2024-09-24 12:26:47.710295898,1727180807.7102966,2024-09-24 12:26:47.710296576,5,1,-5.808684867774511,-121.3313601522412,[0. 1. 0. 0.],[6.17658249e-03 8.58065622e-06 1.26456661e-01 8.67358176e-01],"[-0.03900019  0.51977    -0.3234221  -1.2728862   0.30892825  0.58008605
  0.          0.         -0.6         0.5609998  -8.611834  ]",1.5618681691407332,0,0
127,146,2024-09-24 12:26:52.215738112,TASK_BEGIN,16,0.7151425369002429,0.5009937280352329,2.824573227803233,-0.8579814287019838,1.2970165851719306,0.0670392555840131,-4.6342974411867175,-1.4656087802168454,2,2024-09-24 12:26:47.769458984,1727180807.7694597,2024-09-24 12:26:47.769459712,5,1,-6.258718889061877,-131.05497649337667,[0. 1. 0. 0.],[4.69021255e-03 2.30349664e-06 7.77008508e-02 9.17606633e-01],"[-0.04314303  0.47895932 -0.34784424 -1.3306888   0.37145802  0.64206606
  0.          0.         -0.6         0.556857   -8.285348  ]",1.5625036833814985,0,0
128,147,2024-09-24 12:26:52.295814912,TASK_BEGIN,16,0.7091083735777104,0.4856760386444674,3.044743418901304,-0.8850561101830114,1.2514852877433014,0.0670229997415869,-4.745995777233683,-1.4612662480502658,2,2024-09-24 12:26:47.861275879,1727180807.8612764,2024-09-24 12:26:47.861276416,5,1,-6.97614427850676,-147.23258142101503,[0. 1. 0. 0.],[7.07741203e-04 3.45335582e-08 4.59464060e-03 9.94697584e-01],"[-0.05000337  0.41441786 -0.39180386 -1.4215648   0.47931942  0.75793874
  0.          0.         -0.6         0.5499966  -7.7690167 ]",1.564580442037417,0,0
129,148,2024-09-24 12:26:52.363595008,TASK_BEGIN,16,0.702205176641044,0.4704188402959164,3.256329262276353,-0.9080201912246432,1.2026187013526557,0.065792802645011,-4.878185791473183,-1.446621760484068,2,2024-09-24 12:26:47.922359863,1727180807.9223607,2024-09-24 12:26:47.922360576,5,1,-7.412905522110131,-158.67651272591158,[0. 1. 0. 0.],[1.99301584e-04 4.09612161e-09 5.10443205e-04 9.99290251e-01],"[-0.05498656  0.36915576 -0.4167819  -1.4836891   0.5603734   0.8299678
  0.          0.         -0.6         0.5450134  -7.40692   ]",1.56494199438811,0,0
130,149,2024-09-24 12:26:52.416916992,TASK_BEGIN,16,0.6948674844561435,0.4549563104369378,3.452681999131668,-0.9251793090684132,1.1515262037196723,0.0632869961727609,-5.018965562194309,-1.4226838883550623,2,2024-09-24 12:26:47.952367188,1727180807.9523675,2024-09-24 12:26:47.952367616,5,1,-7.574700536786233,-164.66444813543868,[0. 1. 0. 0.],[1.27287262e-04 2.37880427e-09 1.94410011e-04 9.99678300e-01],"[-0.0575974   0.34583342 -0.4290812  -1.5155654   0.60375565  0.86764526
  0.          0.         -0.6         0.5424026  -7.220341  ]",1.5650544322502689,0,0
131,150,2024-09-24 12:26:52.494573056,TASK_BEGIN,16,0.6873794169222261,0.4389387690290121,3.6282702651355354,-0.9353935808337964,1.0994111733229592,0.0594476335203228,-5.159781041161032,-1.3901324209425217,2,2024-09-24 12:26:48.046340820,1727180808.0463417,2024-09-24 12:26:48.046341632,5,1,-8.368711852548254,-183.82987805926572,[0. 1. 0. 0.],[8.79342982e-05 2.11762023e-09 1.89094130e-05 9.99893154e-01],"[-0.06593657  0.27306414 -0.46807468 -1.6143892   0.74620414  0.9938413
  0.          0.         -0.6         0.53406346 -6.638187  ]",1.565832153540741,0,0
132,151,2024-09-24 12:26:53.428237056,TASK_BEGIN,16,0.6798141272527218,0.4219393051843066,3.778768637512397,-0.9381312530443116,1.0476890511906436,0.0541972136045617,-5.296065102697345,-1.3492886156506874,2,2024-09-24 12:26:48.547904053,1727180808.5479045,2024-09-24 12:26:48.547904512,5,1,-10.713471931601484,-305.9052415401987,[0. 1. 0. 0.],[3.77792632e-02 2.37394958e-05 4.23463882e-05 9.62154651e-01],"[-0.12339099 -0.2202639  -0.50940984 -2.1808715   1.8509929   1.5519097
  0.          0.         -0.6         0.47660902 -2.6915627 ]",1.5670651457176217,1,1
133,152,2024-09-24 12:26:53.506343936,TASK_BEGIN,16,0.6720590567464952,0.403472631867994,3.90099579243404,-0.9334497975219652,0.9981044163619548,0.0474114006293438,-5.427086526870413,-1.3001580648217756,2,2024-09-24 12:26:48.547904053,1727180808.5479045,2024-09-24 12:26:48.547904512,5,1,-10.713471931601484,-305.9052415401987,[0. 1. 0. 0.],[3.77792632e-02 2.37394958e-05 4.23463882e-05 9.62154651e-01],"[-0.12339099 -0.2202639  -0.50940984 -2.1808715   1.8509929   1.5519097
  0.          0.         -0.6         0.47660902 -2.6915627 ]",1.5670651457176217,1,1
134,153,2024-09-24 12:26:53.562871040,TASK_BEGIN,16,0.6639385252063532,0.3830131869044358,3.992766680393265,-0.9219096001968168,0.952745032972558,0.0389040807070813,-5.555283113168539,-1.242536826882222,2,2024-09-24 12:26:48.547904053,1727180808.5479045,2024-09-24 12:26:48.547904512,5,1,-10.713471931601484,-305.9052415401987,[0. 1. 0. 0.],[3.77792632e-02 2.37394958e-05 4.23463882e-05 9.62154651e-01],"[-0.12339099 -0.2202639  -0.50940984 -2.1808715   1.8509929   1.5519097
  0.          0.         -0.6         0.47660902 -2.6915627 ]",1.5670651457176217,1,1
135,154,2024-09-24 12:26:53.640062976,TASK_BEGIN,16,0.655354279412259,0.3600140176342633,4.052722083829975,-0.9044392178217368,0.913877893455782,0.0284434030989565,-5.685346564395966,-1.1761754061042824,2,2024-09-24 12:26:48.547904053,1727180808.5479045,2024-09-24 12:26:48.547904512,5,1,-10.713471931601484,-305.9052415401987,[0. 1. 0. 0.],[3.77792632e-02 2.37394958e-05 4.23463882e-05 9.62154651e-01],"[-0.12339099 -0.2202639  -0.50940984 -2.1808715   1.8509929   1.5519097
  0.          0.         -0.6         0.47660902 -2.6915627 ]",1.5670651457176217,1,1
136,155,2024-09-24 12:26:53.701710080,TASK_BEGIN,16,0.6463638282027203,0.3339407645995111,4.0801734590444,-0.8821787978137737,0.8836299998728016,0.0158029901454905,-5.823128287484194,-1.1010036254536115,2,2024-09-24 12:26:48.547904053,1727180808.5479045,2024-09-24 12:26:48.547904512,5,1,-10.713471931601484,-305.9052415401987,[0. 1. 0. 0.],[3.77792632e-02 2.37394958e-05 4.23463882e-05 9.62154651e-01],"[-0.12339099 -0.2202639  -0.50940984 -2.1808715   1.8509929   1.5519097
  0.          0.         -0.6         0.47660902 -2.6915627 ]",1.5670651457176217,1,1
137,156,2024-09-24 12:26:53.779815936,TASK_BEGIN,16,0.6371886749156991,0.304322642296259,4.075009949964768,-0.8563264999026082,0.8636519487204675,0.0008286405129157,-5.974254750850147,-1.01740653474523,2,2024-09-24 12:26:48.547904053,1727180808.5479045,2024-09-24 12:26:48.547904512,5,1,-10.713471931601484,-305.9052415401987,[0. 1. 0. 0.],[3.77792632e-02 2.37394958e-05 4.23463882e-05 9.62154651e-01],"[-0.12339099 -0.2202639  -0.50940984 -2.1808715   1.8509929   1.5519097
  0.          0.         -0.6         0.47660902 -2.6915627 ]",1.5670651457176217,1,1
138,157,2024-09-24 12:26:53.841395968,TASK_BEGIN,16,0.6281824595378652,0.270804160981245,4.037698781865696,-0.8280079457092364,0.8548931946466971,-0.0165042716013573,-6.142516453935268,-0.9264847167317768,2,2024-09-24 12:26:48.547904053,1727180808.5479045,2024-09-24 12:26:48.547904512,5,1,-10.713471931601484,-305.9052415401987,[0. 1. 0. 0.],[3.77792632e-02 2.37394958e-05 4.23463882e-05 9.62154651e-01],"[-0.12339099 -0.2202639  -0.50940984 -2.1808715   1.8509929   1.5519097
  0.          0.         -0.6         0.47660902 -2.6915627 ]",1.5670651457176217,1,1
139,158,2024-09-24 12:26:54.785003008,TASK_BEGIN,16,0.6197737765256716,0.2331835526182201,3.9692947878686446,-0.7981758614111611,0.8575150373301748,-0.0360556300889654,-6.328503566904265,-0.8302026495703297,2,2024-09-24 12:26:50.339678955,1727180810.339679,2024-09-24 12:26:50.339678976,6,0,-2.604395455289506,-12.276000068928065,[1. 0. 0. 0.],[0.37942366 0.21465976 0.15093179 0.2549848 ],"[ 9.9094713e-04  9.8618424e-01  2.4438903e-02 -2.4250236e-01
 -2.7430076e-03 -9.2670918e-03  0.0000000e+00  0.0000000e+00
 -4.0000001e-01  4.0099093e-01 -1.2154174e+01]",1.5045730775711121,0,0
140,159,2024-09-24 12:26:54.860809984,TASK_BEGIN,16,0.6123882471715077,0.1914419870036417,3.871343092132365,-0.7675403997470946,0.8709178814508808,-0.0575110801899003,-6.528952263497831,-0.7313871405325254,2,2024-09-24 12:26:50.427678223,1727180810.427678,2024-09-24 12:26:50.427678208,6,0,-2.6107120628850424,-19.660423038254006,[1. 0. 0. 0.],[0.37498436 0.20465154 0.18527841 0.23508569],"[ 1.4863014e-03  9.7241616e-01  2.4457132e-02 -3.1932580e-01
 -4.1319393e-03 -9.2598526e-03  0.0000000e+00  0.0000000e+00
 -4.0000001e-01  4.0148631e-01 -1.2044029e+01]",1.5056754548130231,0,0
141,160,2024-09-24 12:26:54.920310016,TASK_BEGIN,16,0.6063705185869882,0.1457755125346597,3.745733414604804,-0.7365419453756169,0.893865650081925,-0.0803961915604577,-6.736784453471277,-0.6336143634100209,2,2024-09-24 12:26:50.485677979,1727180810.4856782,2024-09-24 12:26:50.485678080,6,0,-2.6128706683955443,-24.467830197705585,[1. 0. 0. 0.],[0.37691787 0.20559068 0.21121733 0.20627412],"[ 1.8167496e-03  9.6123695e-01  2.4469174e-02 -3.7054217e-01
 -5.0572776e-03 -9.2550758e-03  0.0000000e+00  0.0000000e+00
 -4.0000001e-01  4.0181676e-01 -1.1954596e+01]",1.5060727983312034,0,0
142,161,2024-09-24 12:26:54.982350080,TASK_BEGIN,16,0.6019315982358509,0.0966276666214054,3.594675711709097,-0.7053776741810622,0.9246622116062913,-0.1041063243764798,-6.941579321955608,-0.5410193912435554,2,2024-09-24 12:26:50.544678955,1727180810.544679,2024-09-24 12:26:50.544678912,6,0,-2.6142873094957935,-29.182714824182007,[1. 0. 0. 0.],[0.37656986 0.20584639 0.23830552 0.17927823],"[ 2.1473567e-03  9.4845712e-01  2.4481142e-02 -4.2175937e-01
 -5.9821773e-03 -9.2504891e-03  0.0000000e+00  0.0000000e+00
 -4.0000001e-01  4.0214735e-01 -1.1852357e+01]",1.5066613184320323,0,0
143,162,2024-09-24 12:26:55.064157952,TASK_BEGIN,16,0.5991199855174116,0.0447074153733733,3.420866577273249,-0.67406988591676,0.9612974930989664,-0.1279397826275273,-7.130479214333972,-0.4579972616861904,2,2024-09-24 12:26:50.632679932,1727180810.6326804,2024-09-24 12:26:50.632680448,6,0,-2.61563489339062,-36.0834623444453,[1. 0. 0. 0.],[0.36431594 0.20792809 0.27025783 0.15749814],"[ 2.6436646e-03  9.2628658e-01  2.4498912e-02 -4.9858621e-01
 -7.3686461e-03 -9.2431707e-03  0.0000000e+00  0.0000000e+00
 -4.0000001e-01  4.0264365e-01 -1.1674993e+01]",1.5082572762344928,0,0
144,163,2024-09-24 12:26:55.121552128,TASK_BEGIN,16,0.5977981375192839,-0.009013674686105,3.227787238125595,-0.6425513489192756,1.001535545651061,-0.1511269205665503,-7.289710242309457,-0.388763515236231,2,2024-09-24 12:26:50.690677979,1727180810.6906788,2024-09-24 12:26:50.690678784,6,0,-2.6162136449608795,-40.57141469721176,[1. 0. 0. 0.],[0.35106104 0.20703735 0.29410454 0.14779707],"[ 2.9746692e-03  9.0950537e-01  2.4510659e-02 -5.4980487e-01
 -8.2923146e-03 -9.2383744e-03  0.0000000e+00  0.0000000e+00
 -4.0000001e-01  4.0297467e-01 -1.1540743e+01]",1.5098186741817379,0,0
145,164,2024-09-24 12:26:55.198750976,TASK_BEGIN,16,0.5976279259272889,-0.0633176521510938,3.019987580869562,-0.6107503004137567,1.0430245082788894,-0.1728620812103485,-7.406590251916667,-0.3368340305328718,2,2024-09-24 12:26:50.748691162,1727180810.7486918,2024-09-24 12:26:50.748691712,6,0,-2.6166941913403434,-44.971052536041114,[1. 0. 0. 0.],[0.31906282 0.18772627 0.34480234 0.14840856],"[ 3.3058326e-03  8.9112365e-01  2.4522323e-02 -6.0102427e-01
 -9.2155477e-03 -9.2339776e-03  0.0000000e+00  0.0000000e+00
 -4.0000001e-01  4.0330583e-01 -1.1393689e+01]",1.5121427098157243,0,0
146,165,2024-09-24 12:26:56.143033856,TASK_BEGIN,16,0.5980831649273292,-0.1167688216208527,2.803144666168317,-0.578663325398944,1.083515512859308,-0.1923498594031515,-7.471530478285659,-0.3045473197629662,2,2024-09-24 12:26:51.453739014,1727180811.453739,2024-09-24 12:26:51.453739008,6,2,-4.250538247536542,-84.05857261509576,[0. 0. 1. 0.],[0.17539445 0.17674042 0.02982159 0.61804354],"[ 1.2380998e-02  9.6524417e-01  8.7718233e-02  9.7046739e-01
 -1.7997872e-02 -4.5268126e-03  0.0000000e+00  0.0000000e+00
 -4.0000001e-01  4.1238099e-01 -1.1986653e+01]",1.5556511436098615,0,0
147,166,2024-09-24 12:26:56.199906048,TASK_BEGIN,16,0.5984802722492226,-0.1677647749695828,2.583754377598345,-0.5464068874878459,1.1211689992725975,-0.2088661927114126,-7.479487755083252,-0.2927356059189223,2,2024-09-24 12:26:51.453739014,1727180811.453739,2024-09-24 12:26:51.453739008,6,2,-4.250538247536542,-84.05857261509576,[0. 0. 1. 0.],[0.17539445 0.17674042 0.02982159 0.61804354],"[ 1.2380998e-02  9.6524417e-01  8.7718233e-02  9.7046739e-01
 -1.7997872e-02 -4.5268126e-03  0.0000000e+00  0.0000000e+00
 -4.0000001e-01  4.1238099e-01 -1.1986653e+01]",1.5556511436098615,0,0
148,167,2024-09-24 12:26:56.277590016,TASK_BEGIN,16,0.5980060126976678,-0.2146128428974203,2.3685270340999804,-0.5142468430607461,1.1548371656162313,-0.2218233339294369,-7.430503861374501,-0.3006196916453074,2,2024-09-24 12:26:51.453739014,1727180811.453739,2024-09-24 12:26:51.453739008,6,2,-4.250538247536542,-84.05857261509576,[0. 0. 1. 0.],[0.17539445 0.17674042 0.02982159 0.61804354],"[ 1.2380998e-02  9.6524417e-01  8.7718233e-02  9.7046739e-01
 -1.7997872e-02 -4.5268126e-03  0.0000000e+00  0.0000000e+00
 -4.0000001e-01  4.1238099e-01 -1.1986653e+01]",1.5556511436098615,0,0
149,168,2024-09-24 12:26:56.339867136,TASK_BEGIN,16,0.5957616016738564,-0.2556207725707165,2.163703427522321,-0.4826089919399066,1.184199416546801,-0.2308207203106716,-7.329309124168868,-0.3259681117152745,2,2024-09-24 12:26:51.453739014,1727180811.453739,2024-09-24 12:26:51.453739008,6,2,-4.250538247536542,-84.05857261509576,[0. 0. 1. 0.],[0.17539445 0.17674042 0.02982159 0.61804354],"[ 1.2380998e-02  9.6524417e-01  8.7718233e-02  9.7046739e-01
 -1.7997872e-02 -4.5268126e-03  0.0000000e+00  0.0000000e+00
 -4.0000001e-01  4.1238099e-01 -1.1986653e+01]",1.5556511436098615,0,0
150,169,2024-09-24 12:26:56.401909248,TASK_BEGIN,16,0.5908660691099107,-0.2891887518288959,1.974500712495043,-0.4520698542265826,1.2096692655140473,-0.2356637841354714,-7.184306384844692,-0.3654915692245812,2,2024-09-24 12:26:51.453739014,1727180811.453739,2024-09-24 12:26:51.453739008,6,2,-4.250538247536542,-84.05857261509576,[0. 0. 1. 0.],[0.17539445 0.17674042 0.02982159 0.61804354],"[ 1.2380998e-02  9.6524417e-01  8.7718233e-02  9.7046739e-01
 -1.7997872e-02 -4.5268126e-03  0.0000000e+00  0.0000000e+00
 -4.0000001e-01  4.1238099e-01 -1.1986653e+01]",1.5556511436098615,0,0
151,170,2024-09-24 12:26:56.482032896,TASK_BEGIN,16,0.5826158234788007,-0.3138982794916332,1.8048238091436508,-0.4233257895453414,1.232094425759881,-0.2363485949150763,-7.006353253661903,-0.415361300761791,2,2024-09-24 12:26:51.453739014,1727180811.453739,2024-09-24 12:26:51.453739008,6,2,-4.250538247536542,-84.05857261509576,[0. 0. 1. 0.],[0.17539445 0.17674042 0.02982159 0.61804354],"[ 1.2380998e-02  9.6524417e-01  8.7718233e-02  9.7046739e-01
 -1.7997872e-02 -4.5268126e-03  0.0000000e+00  0.0000000e+00
 -4.0000001e-01  4.1238099e-01 -1.1986653e+01]",1.5556511436098615,0,0
152,171,2024-09-24 12:26:56.549784832,TASK_BEGIN,16,0.5706408160045163,-0.3285950524305443,1.6572763672388255,-0.397136104979931,1.25239340408033,-0.2330294043165937,-6.807694445660406,-0.4716974763307547,2,2024-09-24 12:26:51.453739014,1727180811.453739,2024-09-24 12:26:51.453739008,6,2,-4.250538247536542,-84.05857261509576,[0. 0. 1. 0.],[0.17539445 0.17674042 0.02982159 0.61804354],"[ 1.2380998e-02  9.6524417e-01  8.7718233e-02  9.7046739e-01
 -1.7997872e-02 -4.5268126e-03  0.0000000e+00  0.0000000e+00
 -4.0000001e-01  4.1238099e-01 -1.1986653e+01]",1.5556511436098615,0,0
153,172,2024-09-24 12:26:57.457976064,TASK_BEGIN,16,0.5549948278368908,-0.3324538258041702,1.5333934184616904,-0.3742337248984758,1.2712864380204731,-0.2259860077096115,-6.6012675087442645,-0.5309057424472124,2,2024-09-24 12:26:53.032530029,1727180813.0325308,2024-09-24 12:26:53.032530688,6,0,-2.5680326618946623,-20.790042532623723,[1. 0. 0. 0.],[0.30983707 0.16657806 0.37227212 0.15131275],"[ 4.5151789e-02  1.1900802e+00  8.7718248e-02 -4.1193348e-01
 -3.0220149e-02 -4.5267944e-03  0.0000000e+00  0.0000000e+00
 -4.0000001e-01  4.4515178e-01 -1.3785341e+01]",1.520827278405037,0,0
154,173,2024-09-24 12:26:57.536676096,TASK_BEGIN,16,0.5361530922137129,-0.325010854267626,1.4339435527509123,-0.3552136905633968,1.2891666208164183,-0.2155916267569373,-6.400387105547205,-0.5898289322345912,2,2024-09-24 12:26:53.090007080,1727180813.0900075,2024-09-24 12:26:53.090007552,6,0,-2.5805616162322735,-25.505974206005046,[1. 0. 0. 0.],[0.30223618 0.15211193 0.39606838 0.14958352],"[ 4.6365578e-02  1.1760075e+00  8.7718256e-02 -4.6313357e-01
 -3.0672817e-02 -4.5268601e-03  0.0000000e+00  0.0000000e+00
 -4.0000001e-01  4.4636557e-01 -1.3672760e+01]",1.5217907588650916,0,0
155,174,2024-09-24 12:26:57.590704896,TASK_BEGIN,16,0.5149282876466137,-0.3061657317833899,1.3591418491318517,-0.3404369949919881,1.3060539184588182,-0.2022740396296906,-6.218555455540394,-0.6457701595042081,2,2024-09-24 12:26:53.148035889,1727180813.1480367,2024-09-24 12:26:53.148036608,6,0,-2.5895673726232644,-30.14754151828119,[1. 0. 0. 0.],[0.29312524 0.14571213 0.42635157 0.13481105],"[ 4.7579288e-02  1.1603348e+00  8.7718241e-02 -5.1433367e-01
 -3.1125546e-02 -4.5268591e-03  0.0000000e+00  0.0000000e+00
 -4.0000001e-01  4.4757929e-01 -1.3547379e+01]",1.5220569237297057,0,0
156,175,2024-09-24 12:26:57.667424768,TASK_BEGIN,16,0.4923383161581707,-0.2761682938837331,1.308696991579906,-0.3299933199442005,1.3215794647332848,-0.1864727503326625,-6.0689647532097375,-0.6964955098187321,2,2024-09-24 12:26:53.235122803,1727180813.2351232,2024-09-24 12:26:53.235123200,6,0,-2.598991932681969,-36.96298921218169,[1. 0. 0. 0.],[0.27465608 0.14753078 0.4687374  0.10907574],"[ 4.9399853e-02  1.1338255e+00  8.7718241e-02 -5.9113383e-01
 -3.1804603e-02 -4.5268307e-03  0.0000000e+00  0.0000000e+00
 -4.0000001e-01  4.4939986e-01 -1.3335304e+01]",1.5232119235373713,0,0
157,176,2024-09-24 12:26:57.729483008,TASK_BEGIN,16,0.4694612909740109,-0.2355982157970555,1.281776322700451,-0.3237461077483468,1.3350142045299327,-0.1686070541231331,-5.96336949640877,-0.740314546166695,2,2024-09-24 12:26:53.294055908,1727180813.2940562,2024-09-24 12:26:53.294056192,6,0,-2.6034980009112445,-41.406300697412036,[1. 0. 0. 0.],[0.26046185 0.14547741 0.49410008 0.09996066],"[ 5.0613642e-02  1.1141529e+00  8.7718241e-02 -6.4233381e-01
 -3.2257296e-02 -4.5267278e-03  0.0000000e+00  0.0000000e+00
 -4.0000001e-01  4.5061365e-01 -1.3177923e+01]",1.524220336712065,0,0
158,177,2024-09-24 12:26:57.806727168,TASK_BEGIN,16,0.4473104111943401,-0.1853361103313494,1.2770691561392649,-0.3214494946303288,1.3453840823782113,-0.1490693088983239,-5.910502828140867,-0.7762550505393406,2,2024-09-24 12:26:53.382026855,1727180813.382027,2024-09-24 12:26:53.382027008,6,0,-2.6085665200635333,-47.91958486396041,[1. 0. 0. 0.],[0.22024434 0.12767106 0.56358195 0.08850265],"[ 5.2434206e-02  1.0816441e+00  8.7718241e-02 -7.1913391e-01
 -3.2936320e-02 -4.5266575e-03  0.0000000e+00  0.0000000e+00
 -4.0000001e-01  4.5243421e-01 -1.2917852e+01]",1.525991970476553,0,0
159,178,2024-09-24 12:26:57.869181952,TASK_BEGIN,16,0.4267602279874046,-0.1265335490900858,1.2930112646079484,-0.3228864107372156,1.3516633007279348,-0.128246490549617,-5.9146670924801485,-0.8042395266454667,2,2024-09-24 12:26:53.440027100,1727180813.4400272,2024-09-24 12:26:53.440027136,6,0,-2.6111455710868086,-52.160948042608524,[1. 0. 0. 0.],[0.18820635 0.11000449 0.62022953 0.08155963],"[ 5.3647995e-02  1.0579712e+00  8.7718233e-02 -7.7033389e-01
 -3.3389010e-02 -4.5267171e-03  0.0000000e+00  0.0000000e+00
 -4.0000001e-01  4.5364800e-01 -1.2728470e+01]",1.5273495658157055,0,0
160,179,2024-09-24 12:26:58.812716032,TASK_BEGIN,16,0.4085361598386228,-0.0605918246087033,1.328053650379403,-0.3279612078495252,1.352972188764089,-0.1065590161368982,-5.9751153397786085,-0.8251086457000646,2,2024-09-24 12:26:54.078190186,1727180814.0781906,2024-09-24 12:26:54.078190592,6,0,-2.6230920904353923,-93.76893127923269,[1. 0. 0. 0.],[0.01520535 0.00733244 0.96219315 0.01526906],"[ 6.6999041e-02  6.9197178e-01  8.7718196e-02 -1.3335336e+00
 -3.8368382e-02 -4.5263828e-03  0.0000000e+00  0.0000000e+00
 -4.0000001e-01  4.6699902e-01 -9.8004742e+00]",1.5507861873256426,0,0
161,180,2024-09-24 12:26:58.874742016,TASK_BEGIN,16,0.3932500617270456,0.0108563028526768,1.38086507812107,-0.3367159800567333,1.3487118670632654,-0.0844965418691733,-6.086438878401348,-0.8403894526467325,2,2024-09-24 12:26:54.078190186,1727180814.0781906,2024-09-24 12:26:54.078190592,6,0,-2.6230920904353923,-93.76893127923269,[1. 0. 0. 0.],[0.01520535 0.00733244 0.96219315 0.01526906],"[ 6.6999041e-02  6.9197178e-01  8.7718196e-02 -1.3335336e+00
 -3.8368382e-02 -4.5263828e-03  0.0000000e+00  0.0000000e+00
 -4.0000001e-01  4.6699902e-01 -9.8004742e+00]",1.5507861873256426,0,0
162,181,2024-09-24 12:26:58.955124992,TASK_BEGIN,16,0.3814586790969475,0.0859743263746474,1.4504772735997518,-0.3492917660636879,1.3386169099974532,-0.0626316396673338,-6.239674073571933,-0.851863636427105,2,2024-09-24 12:26:54.078190186,1727180814.0781906,2024-09-24 12:26:54.078190592,6,0,-2.6230920904353923,-93.76893127923269,[1. 0. 0. 0.],[0.01520535 0.00733244 0.96219315 0.01526906],"[ 6.6999041e-02  6.9197178e-01  8.7718196e-02 -1.3335336e+00
 -3.8368382e-02 -4.5263828e-03  0.0000000e+00  0.0000000e+00
 -4.0000001e-01  4.6699902e-01 -9.8004742e+00]",1.5507861873256426,0,0
163,182,2024-09-24 12:26:59.014408192,TASK_BEGIN,16,0.3737284987150463,0.1627629118559737,1.5364111993686944,-0.3658718770750953,1.3227326390072454,-0.041603285319733,-6.423546289587676,-0.8611176378873798,2,2024-09-24 12:26:54.078190186,1727180814.0781906,2024-09-24 12:26:54.078190592,6,0,-2.6230920904353923,-93.76893127923269,[1. 0. 0. 0.],[0.01520535 0.00733244 0.96219315 0.01526906],"[ 6.6999041e-02  6.9197178e-01  8.7718196e-02 -1.3335336e+00
 -3.8368382e-02 -4.5263828e-03  0.0000000e+00  0.0000000e+00
 -4.0000001e-01  4.6699902e-01 -9.8004742e+00]",1.5507861873256426,0,0
164,183,2024-09-24 12:26:59.079947008,TASK_BEGIN,16,0.3706906710050494,0.2391155213578924,1.638758700441422,-0.3866312573756255,1.301341062846646,-0.0220760262487599,-6.625406201717645,-0.869246005770689,2,2024-09-24 12:26:54.078190186,1727180814.0781906,2024-09-24 12:26:54.078190592,6,0,-2.6230920904353923,-93.76893127923269,[1. 0. 0. 0.],[0.01520535 0.00733244 0.96219315 0.01526906],"[ 6.6999041e-02  6.9197178e-01  8.7718196e-02 -1.3335336e+00
 -3.8368382e-02 -4.5263828e-03  0.0000000e+00  0.0000000e+00
 -4.0000001e-01  4.6699902e-01 -9.8004742e+00]",1.5507861873256426,0,0
165,184,2024-09-24 12:26:59.158499072,TASK_BEGIN,16,0.3730778503333736,0.3128924546870906,1.7581606778264176,-0.4117032208611165,1.2748810792683716,-0.0046896292380348,-6.83185422257594,-0.8767679255770224,2,2024-09-24 12:26:54.078190186,1727180814.0781906,2024-09-24 12:26:54.078190592,6,0,-2.6230920904353923,-93.76893127923269,[1. 0. 0. 0.],[0.01520535 0.00733244 0.96219315 0.01526906],"[ 6.6999041e-02  6.9197178e-01  8.7718196e-02 -1.3335336e+00
 -3.8368382e-02 -4.5263828e-03  0.0000000e+00  0.0000000e+00
 -4.0000001e-01  4.6699902e-01 -9.8004742e+00]",1.5507861873256426,0,0
166,185,2024-09-24 12:26:59.216049920,TASK_BEGIN,16,0.38173932555882,0.3820091580200573,1.8956631890880085,-0.4411622400152973,1.243896634767046,0.0099870641893114,-7.029415324408513,-0.8836944694446172,2,2024-09-24 12:26:54.078190186,1727180814.0781906,2024-09-24 12:26:54.078190592,6,0,-2.6230920904353923,-93.76893127923269,[1. 0. 0. 0.],[0.01520535 0.00733244 0.96219315 0.01526906],"[ 6.6999041e-02  6.9197178e-01  8.7718196e-02 -1.3335336e+00
 -3.8368382e-02 -4.5263828e-03  0.0000000e+00  0.0000000e+00
 -4.0000001e-01  4.6699902e-01 -9.8004742e+00]",1.5507861873256426,0,0
167,186,2024-09-24 12:27:00.162999040,TASK_BEGIN,16,0.3976111127568455,0.4445287449248981,2.0524968482259727,-0.4750163189700406,1.2090067658597288,0.0214926470453948,-7.205626259483768,-0.8896306504384662,2,2024-09-24 12:26:55.491907959,1727180815.491908,2024-09-24 12:26:55.491908096,6,2,-15.710716000449327,-124.34990043005368,[0. 0. 1. 0.],[0.0514057  0.00163685 0.00379929 0.94315816],"[-1.6610622e-03  4.0732229e-01 -1.0467453e+00  7.9739904e-01
  5.1582360e-01  2.7162451e-01  0.0000000e+00  0.0000000e+00
 -4.0000001e-01  3.9833894e-01 -7.5232782e+00]",1.5623350107326825,0,0
168,187,2024-09-24 12:27:00.224113920,TASK_BEGIN,16,0.4216179727354973,0.498756295793103,2.2298465655987902,-0.5132148578438089,1.1708722115725834,0.0295004106290926,-7.350459530320898,-0.8938539673582174,2,2024-09-24 12:26:55.491907959,1727180815.491908,2024-09-24 12:26:55.491908096,6,2,-15.710716000449327,-124.34990043005368,[0. 0. 1. 0.],[0.0514057  0.00163685 0.00379929 0.94315816],"[-1.6610622e-03  4.0732229e-01 -1.0467453e+00  7.9739904e-01
  5.1582360e-01  2.7162451e-01  0.0000000e+00  0.0000000e+00
 -4.0000001e-01  3.9833894e-01 -7.5232782e+00]",1.5623350107326825,0,0
169,188,2024-09-24 12:27:00.302221056,TASK_BEGIN,16,0.4545333348750294,0.543334833343479,2.4286039146681726,-0.5556695474625813,1.1301560416411034,0.0338354591018627,-7.457483458467459,-0.8954075053690915,2,2024-09-24 12:26:55.491907959,1727180815.491908,2024-09-24 12:26:55.491908096,6,2,-15.710716000449327,-124.34990043005368,[0. 0. 1. 0.],[0.0514057  0.00163685 0.00379929 0.94315816],"[-1.6610622e-03  4.0732229e-01 -1.0467453e+00  7.9739904e-01
  5.1582360e-01  2.7162451e-01  0.0000000e+00  0.0000000e+00
 -4.0000001e-01  3.9833894e-01 -7.5232782e+00]",1.5623350107326825,0,0
170,189,2024-09-24 12:27:00.364705024,TASK_BEGIN,16,0.4968584545645022,0.5773278895120466,2.649022237808621,-0.6022536796186333,1.0875087291727443,0.0344776962029192,-7.524232357278656,-0.8932494561663986,2,2024-09-24 12:26:55.491907959,1727180815.491908,2024-09-24 12:26:55.491908096,6,2,-15.710716000449327,-124.34990043005368,[0. 0. 1. 0.],[0.0514057  0.00163685 0.00379929 0.94315816],"[-1.6610622e-03  4.0732229e-01 -1.0467453e+00  7.9739904e-01
  5.1582360e-01  2.7162451e-01  0.0000000e+00  0.0000000e+00
 -4.0000001e-01  3.9833894e-01 -7.5232782e+00]",1.5623350107326825,0,0
171,190,2024-09-24 12:27:00.428865024,TASK_BEGIN,16,0.5487544948874713,0.6002659680094432,2.8902436244774545,-0.652746182075077,1.0436013564917126,0.0315495460722874,-7.5519223550189185,-0.886432260384976,2,2024-09-24 12:26:55.491907959,1727180815.491908,2024-09-24 12:26:55.491908096,6,2,-15.710716000449327,-124.34990043005368,[0. 0. 1. 0.],[0.0514057  0.00163685 0.00379929 0.94315816],"[-1.6610622e-03  4.0732229e-01 -1.0467453e+00  7.9739904e-01
  5.1582360e-01  2.7162451e-01  0.0000000e+00  0.0000000e+00
 -4.0000001e-01  3.9833894e-01 -7.5232782e+00]",1.5623350107326825,0,0
172,191,2024-09-24 12:27:00.504898816,TASK_BEGIN,16,0.6100145761433436,0.6121498088687423,3.149726598615083,-0.7067210565810477,0.9992036831015506,0.0252917370063527,-7.544964224554116,-0.8742632666633335,2,2024-09-24 12:26:56.071873047,1727180816.0718732,2024-09-24 12:26:56.071873280,6,0,-0.5902473524879213,-100.99854747919132,[1. 0. 0. 0.],[3.97552669e-03 4.62117654e-06 4.58535419e-06 9.96015267e-01],"[-0.14546275  0.5738714  -1.0648037   0.27419174  0.8080696   0.3327376
  0.          0.         -0.4         0.25453725 -8.855671  ]",1.5625115044117355,0,0
173,192,2024-09-24 12:27:00.570429952,TASK_BEGIN,16,0.6800555940218248,0.6134173664060961,3.4226472281175595,-0.7634139938525524,0.9552954168138306,0.0160290578405555,-7.510425832845665,-0.8564158804734281,2,2024-09-24 12:26:56.130874023,1727180816.1308746,2024-09-24 12:26:56.130874624,6,0,-0.7188878807155845,-100.35499790790985,[1. 0. 0. 0.],[2.93547210e-03 2.64073822e-06 2.64771837e-06 9.97059239e-01],"[-0.16001987  0.58160675 -1.0645764   0.2228479   0.84134096  0.33270618
  0.          0.         -0.4         0.23998013 -8.917554  ]",1.5637012942728792,0,0
174,193,2024-09-24 12:27:01.483377920,TASK_BEGIN,16,0.7579323579164796,0.6048789632956688,3.701507775386692,-0.8216245827812224,0.9131735158772122,0.0041304883986419,-7.457353532368639,-0.8329652823186304,2,2024-09-24 12:26:57.045181885,1727180817.0451822,2024-09-24 12:26:57.045182208,6,1,-2.982278630454667,-77.76645951853504,[0. 1. 0. 0.],[5.06412317e-03 1.75229014e-05 2.05163107e-04 9.94713191e-01],"[-0.37324545  0.52210283 -1.026573   -0.53099424  0.8648187   0.1423753
  0.          0.         -0.4         0.02675456 -8.441523  ]",1.566326068961417,0,0
175,194,2024-09-24 12:27:01.555692800,TASK_BEGIN,16,0.8423836510543822,0.5876264021603055,3.976308284036986,-0.8797196622261287,0.8744845077289469,-0.0100235393993272,-7.395904554235988,-0.8043433665181754,2,2024-09-24 12:26:57.045181885,1727180817.0451822,2024-09-24 12:26:57.045182208,6,1,-2.982278630454667,-77.76645951853504,[0. 1. 0. 0.],[5.06412317e-03 1.75229014e-05 2.05163107e-04 9.94713191e-01],"[-0.37324545  0.52210283 -1.026573   -0.53099424  0.8648187   0.1423753
  0.          0.         -0.4         0.02675456 -8.441523  ]",1.566326068961417,0,0
176,195,2024-09-24 12:27:01.618195968,TASK_BEGIN,16,0.9319024864447588,0.5629317290645186,4.235431766736259,-0.9357587136545802,0.8411396384504788,-0.0260567531518317,-7.336341683963711,-0.7712322102923487,2,2024-09-24 12:26:57.045181885,1727180817.0451822,2024-09-24 12:26:57.045182208,6,1,-2.982278630454667,-77.76645951853504,[0. 1. 0. 0.],[5.06412317e-03 1.75229014e-05 2.05163107e-04 9.94713191e-01],"[-0.37324545  0.52210283 -1.026573   -0.53099424  0.8648187   0.1423753
  0.          0.         -0.4         0.02675456 -8.441523  ]",1.566326068961417,0,0
177,196,2024-09-24 12:27:01.696302080,TASK_BEGIN,16,1.0248153893316378,0.5321487829630202,4.466986806995181,-0.987693998484992,0.815145681512169,-0.0436007998440713,-7.287980419119885,-0.7344218694110793,2,2024-09-24 12:26:57.045181885,1727180817.0451822,2024-09-24 12:26:57.045182208,6,1,-2.982278630454667,-77.76645951853504,[0. 1. 0. 0.],[5.06412317e-03 1.75229014e-05 2.05163107e-04 9.94713191e-01],"[-0.37324545  0.52210283 -1.026573   -0.53099424  0.8648187   0.1423753
  0.          0.         -0.4         0.02675456 -8.441523  ]",1.566326068961417,0,0
178,197,2024-09-24 12:27:01.765762816,TASK_BEGIN,16,1.119364999647532,0.4966196532501542,4.660129818623955,-1.033571757422692,0.798436900823148,-0.0623039553675163,-7.258077019463825,-0.6946921693986093,2,2024-09-24 12:26:57.045181885,1727180817.0451822,2024-09-24 12:26:57.045182208,6,1,-2.982278630454667,-77.76645951853504,[0. 1. 0. 0.],[5.06412317e-03 1.75229014e-05 2.05163107e-04 9.94713191e-01],"[-0.37324545  0.52210283 -1.026573   -0.53099424  0.8648187   0.1423753
  0.          0.         -0.4         0.02675456 -8.441523  ]",1.566326068961417,0,0
179,198,2024-09-24 12:27:01.824201216,TASK_BEGIN,16,1.21378552868442,0.457593034065573,4.805984412925645,-1.071684847331824,0.792782286452446,-0.081855614776652,-7.250619254528873,-0.6528135254968046,2,2024-09-24 12:26:57.045181885,1727180817.0451822,2024-09-24 12:26:57.045182208,6,1,-2.982278630454667,-77.76645951853504,[0. 1. 0. 0.],[5.06412317e-03 1.75229014e-05 2.05163107e-04 9.94713191e-01],"[-0.37324545  0.52210283 -1.026573   -0.53099424  0.8648187   0.1423753
  0.          0.         -0.4         0.02675456 -8.441523  ]",1.566326068961417,0,0
180,199,2024-09-24 12:27:01.898984960,TASK_BEGIN,16,1.3063497240629924,0.4161716756531693,4.898022133946258,-1.1006644634094398,0.7997660384759148,-0.1020173811376752,-7.265274162783185,-0.6097114393662514,2,2024-09-24 12:26:57.045181885,1727180817.0451822,2024-09-24 12:26:57.045182208,6,1,-2.982278630454667,-77.76645951853504,[0. 1. 0. 0.],[5.06412317e-03 1.75229014e-05 2.05163107e-04 9.94713191e-01],"[-0.37324545  0.52210283 -1.026573   -0.53099424  0.8648187   0.1423753
  0.          0.         -0.4         0.02675456 -8.441523  ]",1.566326068961417,0,0
181,200,2024-09-24 12:27:02.844487680,TASK_BEGIN,16,1.395378557295334,0.3732947308121613,4.932013949229102,-1.119525367369337,0.8207773980818008,-0.1226416108873053,-7.296980076546853,-0.5667303417633651,2,2024-09-24 12:26:58.400577148,1727180818.4005778,2024-09-24 12:26:58.400577792,6,3,-4.15304298379966,2.5492203008855094,[0. 0. 0. 1.],[1.31880275e-03 8.17296645e-04 9.97428468e-01 4.35432835e-04],"[-0.72048366 -0.03981727 -1.1569163  -0.40803015 -0.1071092  -0.84171045
  0.          0.         -0.4        -0.32048365 -3.9461617 ]",1.5237679588189483,0,0
182,201,2024-09-24 12:27:02.900067072,TASK_BEGIN,16,1.479224727478244,0.3297417672159219,4.905821142924147,-1.1276822804168405,0.8569641387123409,-0.1436689084951527,-7.336521079522897,-0.5258434374865538,2,2024-09-24 12:26:58.459630859,1727180818.4596312,2024-09-24 12:26:58.459631104,6,3,-4.592481472514075,-6.421309310009245,[0. 0. 0. 1.],[2.06793766e-04 3.01887987e-04 9.99480313e-01 1.10049137e-05],"[-0.73710924 -0.05368418 -1.1236494  -0.4639654  -0.1970802  -0.9195026
  0.          0.         -0.4        -0.33710924 -3.8352265 ]",1.5467319762976075,0,0
183,202,2024-09-24 12:27:02.978430976,TASK_BEGIN,16,1.5562520060300464,0.286146724719841,4.81928910059366,-1.1249445037407817,0.9091388442178606,-0.1651072791728143,-7.372068756891224,-0.4896442105737316,2,2024-09-24 12:26:58.546638916,1727180818.5466392,2024-09-24 12:26:58.546639104,6,3,-5.739477798451285,-22.81009813214905,[0. 0. 0. 1.],[4.58073920e-05 1.51372353e-04 9.99802551e-01 2.69415928e-07],"[-0.7614853  -0.07753211 -1.0896819  -0.550168   -0.34315255 -1.00355
  0.          0.         -0.4        -0.36148527 -3.644443  ]",1.5628997719263764,0,0
184,203,2024-09-24 12:27:03.041305088,TASK_BEGIN,16,1.6248419227443387,0.243021677039182,4.674363657032481,-1.111504291667012,0.977611420646788,-0.1869943561694092,-7.391206864289469,-0.4610830184445438,2,2024-09-24 12:26:58.605597900,1727180818.6055984,2024-09-24 12:26:58.605598464,6,3,-6.168336445647052,-34.403683609478875,[0. 0. 0. 1.],[9.61925216e-06 6.43261614e-05 9.99926043e-01 1.17217986e-08],"[-0.77732927 -0.09552342 -1.0622414  -0.6106037  -0.44873348 -1.0752155
  0.          0.         -0.4        -0.3773293  -3.5005126 ]",1.5639989797100697,0,0
185,204,2024-09-24 12:27:03.103791104,TASK_BEGIN,16,1.683449644734153,0.2007887004255928,4.475383782287318,-1.0879460655126802,1.061926829260205,-0.2093431890950609,-7.382588814537259,-0.4430875309447948,2,2024-09-24 12:26:58.665623047,1727180818.665623,2024-09-24 12:26:58.665623040,6,3,-6.7939645230615415,-47.05332310525847,[0. 0. 0. 1.],[3.63218882e-06 5.95982359e-05 9.99936769e-01 9.72116713e-10],"[-0.79282707 -0.11522692 -1.0367316  -0.6722837  -0.5613926  -1.1458877
  0.          0.         -0.4        -0.3928271  -3.3428845 ]",1.5665735702047427,0,0
186,205,2024-09-24 12:27:03.181670912,TASK_BEGIN,16,1.7306910587060795,0.1598109218074275,4.229369746325034,-1.0552735649942004,1.1605728903207226,-0.2320800688157668,-7.336619336694623,-0.4382321041534887,2,2024-09-24 12:26:58.724655029,1727180818.7246554,2024-09-24 12:26:58.724655360,6,3,-7.731710189617141,-60.860792350042054,[0. 0. 0. 1.],[3.91469765e-06 1.34531434e-04 9.99861553e-01 5.40736937e-10],"[-0.8079512  -0.1367166  -1.0116717  -0.73782766 -0.68212277 -1.2254332
  0.          0.         -0.4        -0.4079512  -3.170967  ]",1.567980040817995,0,0
187,206,2024-09-24 12:27:03.245527040,TASK_BEGIN,16,1.7654202614498549,0.1204171316533959,3.9460598882906575,-1.014912036066797,1.2707852717754662,-0.2549886844554973,-7.2453153866311695,-0.448513187846314,2,2024-09-24 12:26:58.724655029,1727180818.7246554,2024-09-24 12:26:58.724655360,6,3,-7.731710189617141,-60.860792350042054,[0. 0. 0. 1.],[3.91469765e-06 1.34531434e-04 9.99861553e-01 5.40736937e-10],"[-0.8079512  -0.1367166  -1.0116717  -0.73782766 -0.68212277 -1.2254332
  0.          0.         -0.4        -0.4079512  -3.170967  ]",1.567980040817995,0,0
188,207,2024-09-24 12:27:04.178268672,TASK_BEGIN,16,1.7867869590707697,0.082920721585563,3.6375370049076974,-0.9686515151889264,1.3885361594215218,-0.2776741696183061,-7.102078206347901,-0.475209127823587,2,2024-09-24 12:26:59.137846924,1727180819.137847,2024-09-24 12:26:59.137847040,6,3,-12.275820260109422,-188.82680600272872,[0. 0. 0. 1.],[1.84657481e-03 6.82028407e-02 9.29931882e-01 1.87027934e-05],"[-0.90604055 -0.34069532 -0.9690893  -1.2257427  -1.7392535  -1.7550614
  0.          0.         -0.4        -0.5060405  -1.5391374 ]",1.5687561447088942,1,2
189,208,2024-09-24 12:27:04.255923968,TASK_BEGIN,16,1.7942991141019928,0.0476320074080899,3.317479173981598,-0.918531275275114,1.5087155039925049,-0.2995586320983038,-6.9020120484293255,-0.5187970522478618,2,2024-09-24 12:26:59.137846924,1727180819.137847,2024-09-24 12:26:59.137847040,6,3,-12.275820260109422,-188.82680600272872,[0. 0. 0. 1.],[1.84657481e-03 6.82028407e-02 9.29931882e-01 1.87027934e-05],"[-0.90604055 -0.34069532 -0.9690893  -1.2257427  -1.7392535  -1.7550614
  0.          0.         -0.4        -0.5060405  -1.5391374 ]",1.5687561447088942,1,2
190,209,2024-09-24 12:27:04.328737024,TASK_BEGIN,16,1.7879016094878502,0.0148604167779185,3.000194574845771,-0.8666775690150085,1.6254576151941729,-0.3199117878532809,-6.64274379409264,-0.5789230729032092,2,2024-09-24 12:26:59.137846924,1727180819.137847,2024-09-24 12:26:59.137847040,6,3,-12.275820260109422,-188.82680600272872,[0. 0. 0. 1.],[1.84657481e-03 6.82028407e-02 9.29931882e-01 1.87027934e-05],"[-0.90604055 -0.34069532 -0.9690893  -1.2257427  -1.7392535  -1.7550614
  0.          0.         -0.4        -0.5060405  -1.5391374 ]",1.5687561447088942,1,2
191,210,2024-09-24 12:27:04.396516096,TASK_BEGIN,16,1.7680423096970106,-0.0150906255318442,2.6995666422482523,-0.8151028562779146,1.7325565984679907,-0.3379102551775291,-6.3251648049146985,-0.6544267858726428,2,2024-09-24 12:26:59.137846924,1727180819.137847,2024-09-24 12:26:59.137847040,6,3,-12.275820260109422,-188.82680600272872,[0. 0. 0. 1.],[1.84657481e-03 6.82028407e-02 9.29931882e-01 1.87027934e-05],"[-0.90604055 -0.34069532 -0.9690893  -1.2257427  -1.7392535  -1.7550614
  0.          0.         -0.4        -0.5060405  -1.5391374 ]",1.5687561447088942,1,2
192,211,2024-09-24 12:27:04.456829952,TASK_BEGIN,16,1.735691231083073,-0.041924779635502,2.427912667995826,-0.7654777846824528,1.823956584498088,-0.3527216929889168,-5.9538345896087685,-0.7433742514309245,2,2024-09-24 12:26:59.137846924,1727180819.137847,2024-09-24 12:26:59.137847040,6,3,-12.275820260109422,-188.82680600272872,[0. 0. 0. 1.],[1.84657481e-03 6.82028407e-02 9.29931882e-01 1.87027934e-05],"[-0.90604055 -0.34069532 -0.9690893  -1.2257427  -1.7392535  -1.7550614
  0.          0.         -0.4        -0.5060405  -1.5391374 ]",1.5687561447088942,1,2
193,212,2024-09-24 12:27:04.521884928,TASK_BEGIN,16,1.6923113817341937,-0.0653445903601898,2.1947612461534733,-0.718917351631878,1.894304114899848,-0.36361353062213,-5.5373819622892135,-0.8430309492816762,2,2024-09-24 12:26:59.137846924,1727180819.137847,2024-09-24 12:26:59.137847040,6,3,-12.275820260109422,-188.82680600272872,[0. 0. 0. 1.],[1.84657481e-03 6.82028407e-02 9.29931882e-01 1.87027934e-05],"[-0.90604055 -0.34069532 -0.9690893  -1.2257427  -1.7392535  -1.7550614
  0.          0.         -0.4        -0.5060405  -1.5391374 ]",1.5687561447088942,1,2
194,213,2024-09-24 12:27:04.586307072,TASK_BEGIN,16,1.6398002363312567,-0.0850455847763267,2.005746425216756,-0.6758604720243158,1.9394658143236412,-0.3700702145978898,-5.0890735994858565,-0.9497918293829816,2,2024-09-24 12:26:59.168848877,1727180819.1688495,2024-09-24 12:26:59.168849408,6,3,-12.442386648780436,-199.38092459148186,[0. 0. 0. 1.],[2.08222004e-03 7.08170213e-02 9.27077298e-01 2.34605332e-05],"[-0.9126426  -0.3590247  -0.9762666  -1.2581494  -1.8284467  -1.7838938
  0.          0.         -0.4        -0.51264256 -1.3925023 ]",1.568746970066562,1,2
195,214,2024-09-24 12:27:05.543781120,TASK_BEGIN,16,1.580401670592729,-0.1007242647917326,1.8619381802261543,-0.6361008767300725,1.95686949497716,-0.3718839011945939,-4.627127427953209,-1.0591760298303856,2,2024-09-24 12:27:01.116038086,1727180821.1160388,2024-09-24 12:27:01.116038912,7,0,-2.1160774598285244,-2.1160774598285244,[1. 0. 0. 0.],[0.39678544 0.18166577 0.10916835 0.31238044],"[-2.37623855e-04  9.98619318e-01 -1.77083705e-02 -1.50294974e-01
  7.64633878e-04  6.73405454e-03  0.00000000e+00  0.00000000e+00
 -2.00000003e-01  1.99762374e-01 -1.11923485e+01]",1.4959858734270086,0,0
196,215,2024-09-24 12:27:05.600184832,TASK_BEGIN,16,1.5165774726671104,-0.1120919296794679,1.759847018810069,-0.5989551732532382,1.9455964472350649,-0.3691897567346243,-4.174248812717255,-1.1659701963067013,2,2024-09-24 12:27:01.150044922,1727180821.1500454,2024-09-24 12:27:01.150045440,7,0,-2.5710472821268837,-4.665963967357123,[1. 0. 0. 0.],[0.38861495 0.17004358 0.11382137 0.3275201 ],"[-3.5723051e-04  9.9587083e-01 -1.7712871e-02 -1.7590359e-01
  1.1010903e-03  6.7320019e-03  0.0000000e+00  0.0000000e+00
 -2.0000000e-01  1.9964276e-01 -1.1170361e+01]",1.4963140143684786,0,0
197,216,2024-09-24 12:27:05.679483904,TASK_BEGIN,16,1.4508599092062089,-0.1188800528029577,1.6921738087924676,-0.563513157300572,1.9062548342630328,-0.3624441663001603,-3.7561588431289112,-1.2645387534517083,2,2024-09-24 12:27:01.240022949,1727180821.2400234,2024-09-24 12:27:01.240023296,7,0,-2.5789626638754086,-12.182296776285671,[1. 0. 0. 0.],[0.38804748 0.16453607 0.13480882 0.31260763],"[-7.1620941e-04  9.8522425e-01 -1.7726196e-02 -2.5273621e-01
  2.1101206e-03  6.7268587e-03  0.0000000e+00  0.0000000e+00
 -2.0000000e-01  1.9928379e-01 -1.1085188e+01]",1.4974697322095412,0,0
198,217,2024-09-24 12:27:05.740150784,TASK_BEGIN,16,1.3857260300293024,-0.120840899810942,1.649169328661991,-0.5289147549434022,1.8407244593461047,-0.3523659851131704,-3.399148632666132,-1.3492865327326573,2,2024-09-24 12:27:01.298019043,1727180821.2980196,2024-09-24 12:27:01.298019584,7,0,-2.5812247462749625,-17.07554057333336,[1. 0. 0. 0.],[0.3894334  0.15958068 0.16507522 0.2859107 ],"[-9.5566112e-04  9.7612596e-01 -1.7735058e-02 -3.0395159e-01
  2.7823460e-03  6.7234701e-03  0.0000000e+00  0.0000000e+00
 -2.0000000e-01  1.9904433e-01 -1.1012402e+01]",1.4977187938068348,0,0
199,218,2024-09-24 12:27:05.802166016,TASK_BEGIN,16,1.323495239636435,-0.1177589014449283,1.6202526925963556,-0.494591065993688,1.751870319469029,-0.339863483738786,-3.127051264175297,-1.415210868676169,2,2024-09-24 12:27:01.356017090,1727180821.3560178,2024-09-24 12:27:01.356017920,7,0,-2.5825470479002064,-21.874403139328983,[1. 0. 0. 0.],[0.38929902 0.15824916 0.18963513 0.2628167 ],"[-1.1952718e-03  9.6542704e-01 -1.7743839e-02 -3.5516757e-01
  3.4541881e-03  6.7199618e-03  0.0000000e+00  0.0000000e+00
 -2.0000000e-01  1.9880472e-01 -1.0926810e+01]",1.4977628202398574,0,0
200,219,2024-09-24 12:27:05.882806272,TASK_BEGIN,16,1.26620866742003,-0.1094762450647103,1.595449719600946,-0.4604027380269171,1.6432847756827422,-0.3259594708500883,-2.9583452125314667,-1.4584265139504835,2,2024-09-24 12:27:01.443605957,1727180821.4436064,2024-09-24 12:27:01.443606272,7,0,-2.5836847387730444,-28.89756810864278,[1. 0. 0. 0.],[0.3817     0.16216665 0.20801968 0.24811367],"[-1.5548865e-03  9.4637775e-01 -1.7756904e-02 -4.3199289e-01
  4.4613909e-03  6.7146257e-03  0.0000000e+00  0.0000000e+00
 -2.0000000e-01  1.9844511e-01 -1.0774416e+01]",1.4985921222167469,0,0
201,220,2024-09-24 12:27:05.940666880,TASK_BEGIN,16,1.2154675898587384,-0.095920769765395,1.5663528905444355,-0.4266440780057448,1.5190712381698273,-0.3117177782260044,-2.9039752612155416,-1.476562131575785,2,2024-09-24 12:27:01.501600098,1727180821.5016003,2024-09-24 12:27:01.501600256,7,0,-2.584187295498978,-33.46481600920717,[1. 0. 0. 0.],[0.37271053 0.16214212 0.22738709 0.23776026],"[-1.7948151e-03  9.3167770e-01 -1.7765554e-02 -4.8321065e-01
  5.1323771e-03  6.7111915e-03  0.0000000e+00  0.0000000e+00
 -2.0000000e-01  1.9820519e-01 -1.0656816e+01]",1.4990818254293088,0,0
202,221,2024-09-24 12:27:06.888931840,TASK_BEGIN,16,1.172267156674737,-0.0771284791590421,1.5266206323844873,-0.3939452830440068,1.3836634944664818,-0.2981722706246007,-2.966166687035274,-1.4689773533889692,2,2024-09-24 12:27:02.436314209,1727180822.4363148,2024-09-24 12:27:02.436314880,7,2,-9.421172771208749,-16.455626314869633,[0. 0. 1. 0.],[0.27376071 0.4376453  0.04390129 0.2446927 ],"[-8.1171198e-03  6.9258392e-01 -1.1704936e-01  3.4624398e-01
  1.3933312e-02 -1.8466245e-02  0.0000000e+00  0.0000000e+00
 -2.0000000e-01  1.9188288e-01 -8.7440653e+00]",1.5457812924127696,0,0
203,222,2024-09-24 12:27:06.961516032,TASK_BEGIN,16,1.136884582822156,-0.0532693455977925,1.4722621578704962,-0.3631473531456615,1.2416769127651557,-0.2862600795157817,-3.1384093209671704,-1.4367690603523635,2,2024-09-24 12:27:02.524316162,1727180822.5243168,2024-09-24 12:27:02.524316672,7,2,-10.780201551823811,-39.71150479845305,[0. 0. 1. 0.],[0.20156257 0.39898468 0.02077538 0.37867737],"[-1.0471742e-02  7.1577227e-01 -8.2591943e-02  5.9408802e-01
  1.1681474e-02 -2.9791594e-03  0.0000000e+00  0.0000000e+00
 -2.0000000e-01  1.8952826e-01 -8.9295721e+00]",1.550243697669524,0,0
204,223,2024-09-24 12:27:07.023132160,TASK_BEGIN,16,1.1088382966839914,-0.0246859086208926,1.401822916929563,-0.3352021561010743,1.0977718725901575,-0.2767569379115344,-3.4065883079107384,-1.382564142416385,2,2024-09-24 12:27:02.582315918,1727180822.5823166,2024-09-24 12:27:02.582316544,7,2,-6.0567168447281885,-50.352240198843475,[0. 0. 1. 0.],[0.19484419 0.29093784 0.0151566  0.49906137],"[-0.01115576  0.73694706 -0.03542476  0.7072128   0.01270647  0.01608991
  0.          0.         -0.2         0.18884423 -9.09897   ]",1.5521587634585738,0,0
205,224,2024-09-24 12:27:07.085143040,TASK_BEGIN,16,1.086888999230445,0.0080691459119374,1.3162771218939118,-0.3110836756976547,0.9564870057660622,-0.2702096890346688,-3.7508377301633615,-1.3101618533013908,2,2024-09-24 12:27:02.640316895,1727180822.6403172,2024-09-24 12:27:02.640317184,7,2,-10.936440399856355,-64.89052477272067,[0. 0. 1. 0.],[0.19257278 0.2497654  0.01263159 0.54503024],"[-0.01177057  0.7620311  -0.05568136  0.85524106  0.0140439   0.0099146
  0.          0.         -0.2         0.18822943 -9.299643  ]",1.5543082319570007,0,0
206,225,2024-09-24 12:27:07.162326272,TASK_BEGIN,16,1.0690677504422943,0.0442273734283904,1.218457062673699,-0.2916730705624895,0.8220261137890887,-0.2668682992170274,-4.147619059601934,-1.224119257841993,2,2024-09-24 12:27:02.698349121,1727180822.6983497,2024-09-24 12:27:02.698349824,7,2,-8.937214397095477,-75.24193930118571,[0. 0. 1. 0.],[0.16436483 0.16771408 0.00899734 0.65892374],"[-1.1953433e-02  7.9086363e-01  6.7910511e-04  9.6525240e-01
  1.6668988e-02  3.2728232e-02  0.0000000e+00  0.0000000e+00
 -2.0000000e-01  1.8804656e-01 -9.5303030e+00]",1.555898984559284,0,0
207,226,2024-09-24 12:27:07.233480960,TASK_BEGIN,16,1.0527524578456722,0.0828463951267572,1.1122310298605025,-0.2776330881517448,0.6980354932635036,-0.2666297972107168,-4.5718620090729365,-1.129325112407314,2,2024-09-24 12:27:02.698349121,1727180822.6983497,2024-09-24 12:27:02.698349824,7,2,-8.937214397095477,-75.24193930118571,[0. 0. 1. 0.],[0.16436483 0.16771408 0.00899734 0.65892374],"[-1.1953433e-02  7.9086363e-01  6.7910511e-04  9.6525240e-01
  1.6668988e-02  3.2728232e-02  0.0000000e+00  0.0000000e+00
 -2.0000000e-01  1.8804656e-01 -9.5303030e+00]",1.555898984559284,0,0
208,227,2024-09-24 12:27:07.286822912,TASK_BEGIN,16,1.0348084756146596,0.1228904484126854,1.001821287747838,-0.269328858410636,0.5874126733527508,-0.2690090222764973,-4.999212028372151,-1.0305595692494496,2,2024-09-24 12:27:02.698349121,1727180822.6983497,2024-09-24 12:27:02.698349824,7,2,-8.937214397095477,-75.24193930118571,[0. 0. 1. 0.],[0.16436483 0.16771408 0.00899734 0.65892374],"[-1.1953433e-02  7.9086363e-01  6.7910511e-04  9.6525240e-01
  1.6668988e-02  3.2728232e-02  0.0000000e+00  0.0000000e+00
 -2.0000000e-01  1.8804656e-01 -9.5303030e+00]",1.555898984559284,0,0
209,228,2024-09-24 12:27:08.209443072,TASK_BEGIN,16,1.0117913487800885,0.1633359424328568,0.8913736545744537,-0.2668133316941775,0.4921531228056488,-0.2731499472935607,-5.408244705540657,-0.9320618684691856,2,2024-09-24 12:27:03.756460938,1727180823.7564614,2024-09-24 12:27:03.756461312,7,2,-5.377599696141831,16.518506084310573,[0. 0. 1. 0.],[0.36616309 0.26296885 0.12472908 0.24613899],"[-7.1010590e-03  1.0691228e+00  5.9615180e-02  1.2201707e-01
 -5.3970390e-03 -9.2310540e-02  0.0000000e+00  0.0000000e+00
 -2.0000000e-01  1.9289894e-01 -1.1756376e+01]",1.5293775376636247,0,0
210,229,2024-09-24 12:27:08.271960064,TASK_BEGIN,16,0.9802347322513416,0.2032813230398626,0.7845861715943154,-0.2698353069255916,0.4132389270697145,-0.2778905211331443,-5.782192113015662,-0.8371859363209514,2,2024-09-24 12:27:03.843712158,1727180823.8437128,2024-09-24 12:27:03.843712768,7,2,-8.087993177097541,-5.342913061323111,[0. 0. 1. 0.],[0.3011753  0.2921085  0.10934593 0.29737028],"[-6.1248145e-03  1.0805917e+00  8.0182873e-02  3.1731379e-01
 -1.9709727e-02 -8.6141035e-02  0.0000000e+00  0.0000000e+00
 -2.0000000e-01  1.9387518e-01 -1.1848127e+01]",1.5433720948629184,0,0
211,230,2024-09-24 12:27:08.349756160,TASK_BEGIN,16,0.937057172780873,0.2420209544198817,0.6842798399043558,-0.2778305034455577,0.3506052847008661,-0.2818845029386515,-6.109698204825858,-0.7482449604705996,2,2024-09-24 12:27:03.902710938,1727180823.9027119,2024-09-24 12:27:03.902711808,7,2,-5.635565656394422,-20.98636457889816,[0. 0. 1. 0.],[0.23930756 0.32428187 0.10027674 0.33613384],"[-5.3681531e-03  1.0943854e+00  6.8685889e-02  4.6471298e-01
 -2.9228251e-02 -9.2926376e-02  0.0000000e+00  0.0000000e+00
 -2.0000000e-01  1.9463184e-01 -1.1958477e+01]",1.54792915232771,0,0
212,231,2024-09-24 12:27:08.422480128,TASK_BEGIN,16,0.880039803649942,0.2790489293785947,0.5920372372100905,-0.2899029359516125,0.3032171638489852,-0.2837602087641308,-6.384538389867561,-0.6665857789345654,2,2024-09-24 12:27:03.964713135,1727180823.9647138,2024-09-24 12:27:03.964713728,7,2,-8.124172014311501,-34.891327765691,[0. 0. 1. 0.],[0.22428031 0.29391035 0.1314669  0.35034244],"[-3.8504601e-03  1.1115756e+00  1.2490810e-01  5.8563036e-01
 -3.6978316e-02 -7.4617416e-02  0.0000000e+00  0.0000000e+00
 -2.0000000e-01  1.9614954e-01 -1.2095999e+01]",1.5502382722388774,0,0
213,232,2024-09-24 12:27:08.490006016,TASK_BEGIN,16,0.8082260183950996,0.3140006180161316,0.5080831022728738,-0.3048268928942529,0.2692452477382285,-0.282276562734125,-6.604733075981516,-0.5928054286900497,2,2024-09-24 12:27:03.964713135,1727180823.9647138,2024-09-24 12:27:03.964713728,7,2,-8.124172014311501,-34.891327765691,[0. 0. 1. 0.],[0.22428031 0.29391035 0.1314669  0.35034244],"[-3.8504601e-03  1.1115756e+00  1.2490810e-01  5.8563036e-01
 -3.6978316e-02 -7.4617416e-02  0.0000000e+00  0.0000000e+00
 -2.0000000e-01  1.9614954e-01 -1.2095999e+01]",1.5502382722388774,0,0
