,Unnamed: 0,time,MARKER,pid,L_O_DSI,L_D_DSI,L_O_DSphi,L_D_DSphi,R_O_DSI,R_D_DSI,R_O_DSphi,R_D_DSphi,trial_id,dateTimestamps,floatTimestamps,timestamps,episode,actions,rewards,discounted_rewards,chosen_actions,optimal_actions,desired_goal,states,continuous_optimal,binary_optimal,discrete_optimal
1,1,2024-09-26 22:23:25.783712000,TASK_BEGIN,20,-0.6342284043217753,0.0780381276461516,-3.883057885569596,0.3551744912225824,0.4414785764974935,-0.0861056786634838,0.226800779520428,-0.476167626662153,1,2024-09-26 22:23:28.307916016,1727389408.3079166,2024-09-26 22:23:28.307916544,0,[-0.43214235 -0.9011225  -0.79301167  0.04806672],-1.0,-2.9701,[-0.43214235 -0.9011225  -0.79301167  0.04806672],[-0.43214235 -0.9011225  -0.79301167  0.04806672],[1.48393518 0.68998729 0.42469975],"[ 1.29355869e+00  6.65415905e-01  4.59253405e-01  1.31267427e+00
  6.47851981e-01  4.24546496e-01  1.91155839e-02 -1.75639236e-02
 -3.47069098e-02  5.01213485e-02  5.01049272e-02  2.83348077e-02
 -1.08287058e-02  5.93103996e-04  9.79261162e-03  2.06554243e-02
  1.81543037e-02  1.52393534e-02 -8.02439551e-03  8.29124083e-04
 -1.01484020e-02 -2.11373480e-02 -1.84477980e-02 -3.16075218e-04
 -2.67474530e-04]",1.1883370876312256,0,0
2,2,2024-09-26 22:23:26.727045120,TASK_BEGIN,20,-0.7496929765254128,0.0785770859581116,-4.033563594084726,0.3777347515210053,0.393927927143843,-0.0784481186486974,-1.079871040948883,-0.3245689287133688,1,2024-09-26 22:23:28.848273926,1727389408.8482742,2024-09-26 22:23:28.848274176,0,[ 0.99998003  0.03394098 -0.0447294  -0.11294971],-1.0,-7.72553055720799,[ 0.99998003  0.03394098 -0.0447294  -0.11294971],[ 0.99998003  0.03394098 -0.0447294  -0.11294971],[1.48393518 0.68998729 0.42469975],"[ 1.41395260e+00  6.83163599e-01  4.54670729e-01  1.42805964e+00
  6.83204324e-01  4.41733539e-01  1.41070368e-02  4.07247137e-05
 -1.29371903e-02  2.37864247e-02  2.40791215e-02  3.73087764e-03
 -1.63693711e-02  2.10660977e-02  5.71074506e-04  8.89646779e-04
 -8.56157790e-05 -1.38460053e-03  7.70038837e-04 -6.66675730e-03
  2.31283167e-02  6.02851910e-04 -1.77653791e-03  1.44159081e-03
 -6.03859304e-04]",0.9800789952278137,0,0
3,3,2024-09-26 22:23:26.804667904,TASK_BEGIN,20,-0.8575606364313197,0.078723242576743,-4.186735255563278,0.3990780450885104,0.3481348837795371,-0.0711569462053727,-2.299606111962621,-0.1856641185366479,1,2024-09-26 22:23:28.848273926,1727389408.8482742,2024-09-26 22:23:28.848274176,0,[ 0.99998003  0.03394098 -0.0447294  -0.11294971],-1.0,-7.72553055720799,[ 0.99998003  0.03394098 -0.0447294  -0.11294971],[ 0.99998003  0.03394098 -0.0447294  -0.11294971],[1.48393518 0.68998729 0.42469975],"[ 1.41395260e+00  6.83163599e-01  4.54670729e-01  1.42805964e+00
  6.83204324e-01  4.41733539e-01  1.41070368e-02  4.07247137e-05
 -1.29371903e-02  2.37864247e-02  2.40791215e-02  3.73087764e-03
 -1.63693711e-02  2.10660977e-02  5.71074506e-04  8.89646779e-04
 -8.56157790e-05 -1.38460053e-03  7.70038837e-04 -6.66675730e-03
  2.31283167e-02  6.02851910e-04 -1.77653791e-03  1.44159081e-03
 -6.03859304e-04]",0.9800789952278137,0,0
4,4,2024-09-26 22:23:26.867216128,TASK_BEGIN,20,-0.954833512176759,0.0782836604018212,-4.340149486935748,0.4183000884438659,0.3046977176378923,-0.0643721245907358,-3.398579176791868,-0.0640953103514859,1,2024-09-26 22:23:28.848273926,1727389408.8482742,2024-09-26 22:23:28.848274176,0,[ 0.99998003  0.03394098 -0.0447294  -0.11294971],-1.0,-7.72553055720799,[ 0.99998003  0.03394098 -0.0447294  -0.11294971],[ 0.99998003  0.03394098 -0.0447294  -0.11294971],[1.48393518 0.68998729 0.42469975],"[ 1.41395260e+00  6.83163599e-01  4.54670729e-01  1.42805964e+00
  6.83204324e-01  4.41733539e-01  1.41070368e-02  4.07247137e-05
 -1.29371903e-02  2.37864247e-02  2.40791215e-02  3.73087764e-03
 -1.63693711e-02  2.10660977e-02  5.71074506e-04  8.89646779e-04
 -8.56157790e-05 -1.38460053e-03  7.70038837e-04 -6.66675730e-03
  2.31283167e-02  6.02851910e-04 -1.77653791e-03  1.44159081e-03
 -6.03859304e-04]",0.9800789952278137,0,0
5,5,2024-09-26 22:23:26.941909248,TASK_BEGIN,20,-1.0392610611565158,0.0770833980728199,-4.491001627132729,0.4347711846861407,0.2639841184701418,-0.0582048119721312,-4.3516261766503135,0.036899365265896,1,2024-09-26 22:23:28.848273926,1727389408.8482742,2024-09-26 22:23:28.848274176,0,[ 0.99998003  0.03394098 -0.0447294  -0.11294971],-1.0,-7.72553055720799,[ 0.99998003  0.03394098 -0.0447294  -0.11294971],[ 0.99998003  0.03394098 -0.0447294  -0.11294971],[1.48393518 0.68998729 0.42469975],"[ 1.41395260e+00  6.83163599e-01  4.54670729e-01  1.42805964e+00
  6.83204324e-01  4.41733539e-01  1.41070368e-02  4.07247137e-05
 -1.29371903e-02  2.37864247e-02  2.40791215e-02  3.73087764e-03
 -1.63693711e-02  2.10660977e-02  5.71074506e-04  8.89646779e-04
 -8.56157790e-05 -1.38460053e-03  7.70038837e-04 -6.66675730e-03
  2.31283167e-02  6.02851910e-04 -1.77653791e-03  1.44159081e-03
 -6.03859304e-04]",0.9800789952278137,0,0
6,6,2024-09-26 22:23:27.006475776,TASK_BEGIN,20,-1.109466542191995,0.0749844278811279,-4.63632014957534,0.4481616374585433,0.2261469612285119,-0.0527337270873346,-5.14312031326409,0.1156246328103813,1,2024-09-26 22:23:28.954787109,1727389408.9547873,2024-09-26 22:23:28.954787328,0,[ 4.0491122e-01 -1.2282841e-04 -7.8573711e-02  8.7085254e-02],-0.0,-7.64827525163591,[ 4.0491122e-01 -1.2282841e-04 -7.8573711e-02  8.7085254e-02],[ 4.0491122e-01 -1.2282841e-04 -7.8573711e-02  8.7085254e-02],[1.48393518 0.68998729 0.42469975],"[ 1.42841657e+00  6.83270799e-01  4.51972550e-01  1.45175654e+00
  6.84696666e-01  4.31631785e-01  2.33399708e-02  1.42586679e-03
 -2.03407651e-02  4.26243261e-02  4.13274266e-02  2.55700854e-03
 -1.57799437e-02  1.58176575e-02  1.57216480e-02  1.56277750e-03
 -1.56132273e-02 -8.61639023e-04  4.79196345e-04 -4.14873325e-03
  7.97300387e-03 -7.05772769e-05 -1.94290607e-03  3.14194734e-02
  3.03210836e-02]",0.49636512994766235,0,0
7,7,2024-09-26 22:23:27.070615040,TASK_BEGIN,20,-1.1649698223504277,0.0719007585318922,-4.773107873832347,0.4584141607450609,0.1912154989453917,-0.0480167469747911,-5.766799712937227,0.1718905329175944,1,2024-09-26 22:23:29.061801025,1727389409.0618017,2024-09-26 22:23:29.061801728,0,[ 0.09984776  0.05342976 -0.06866759  0.07842656],-0.0,-7.571792499119551,[ 0.09984776  0.05342976 -0.06866759  0.07842656],[ 0.09984776  0.05342976 -0.06866759  0.07842656],[1.48393518 0.68998729 0.42469975],"[ 1.43229495e+00  6.84909047e-01  4.49569276e-01  1.46484574e+00
  6.85533562e-01  4.21000093e-01  3.25507843e-02  6.24514611e-04
 -2.85691836e-02  5.10568182e-02  5.12671398e-02  1.60187263e-03
 -6.28888942e-03  1.31369968e-02 -2.51286317e-04 -1.28389366e-03
  2.34753579e-03 -9.65006516e-04  8.03927357e-03 -5.01559066e-04
  1.73353322e-03  1.39371612e-03 -1.65014273e-03 -2.88043938e-03
 -3.41758282e-03]",0.15845707058906555,0,0
8,8,2024-09-26 22:23:27.145320704,TASK_BEGIN,20,-1.206107104688174,0.067807442985298,-4.898382684675568,0.4656893174793584,0.1592260299396609,-0.0441121219918039,-6.224728044852203,0.2068107895531364,1,2024-09-26 22:23:29.061801025,1727389409.0618017,2024-09-26 22:23:29.061801728,0,[ 0.09984776  0.05342976 -0.06866759  0.07842656],-0.0,-7.571792499119551,[ 0.09984776  0.05342976 -0.06866759  0.07842656],[ 0.09984776  0.05342976 -0.06866759  0.07842656],[1.48393518 0.68998729 0.42469975],"[ 1.43229495e+00  6.84909047e-01  4.49569276e-01  1.46484574e+00
  6.85533562e-01  4.21000093e-01  3.25507843e-02  6.24514611e-04
 -2.85691836e-02  5.10568182e-02  5.12671398e-02  1.60187263e-03
 -6.28888942e-03  1.31369968e-02 -2.51286317e-04 -1.28389366e-03
  2.34753579e-03 -9.65006516e-04  8.03927357e-03 -5.01559066e-04
  1.73353322e-03  1.39371612e-03 -1.65014273e-03 -2.88043938e-03
 -3.41758282e-03]",0.15845707058906555,0,0
9,9,2024-09-26 22:23:28.063600128,TASK_BEGIN,20,-1.2338846823408454,0.0627432230014855,-5.009304506294455,0.4703279600655669,0.1303246317734801,-0.0410949332564746,-6.525675682491121,0.2224708860967854,1,2024-09-26 22:23:30.026708008,1727389410.0267081,2024-09-26 22:23:30.026708224,0,[-0.00541403  0.00361324 -0.02110905  0.00442927],-0.0,-6.916963042312971,[-0.00541403  0.00361324 -0.02110905  0.00442927],[-0.00541403  0.00361324 -0.02110905  0.00442927],[1.48393518 0.68998729 0.42469975],"[ 1.43669153e+00  6.84863943e-01  4.45354607e-01  1.46524518e+00
  6.85588438e-01  4.24761948e-01  2.85536458e-02  7.24494045e-04
 -2.05926586e-02  3.38076031e-02  3.29966498e-02  8.18711474e-06
 -2.54406688e-05  1.30335998e-02  1.40390415e-04 -8.90617723e-05
  6.47330165e-04 -4.60974386e-06  1.43243334e-05  8.23727364e-18
 -1.40032383e-04  8.91769915e-05 -6.34605362e-04  6.74228463e-04
  6.75859779e-04]",0.033453624695539474,0,0
10,16,2024-09-26 22:23:29.413733888,TASK_BEGIN,20,-1.2056424433765929,0.0127587888092311,-5.339434738144318,0.4778303593883434,0.0360572146784791,-0.0510065318366169,-5.7740533628110455,0.0429191924993114,1,2024-09-26 22:23:32.083067871,1727389412.0830688,2024-09-26 22:23:32.083068928,1,[-0.00453881 -0.00198195 -0.00671322  0.00310106],-0.0,0.0,[-0.00453881 -0.00198195 -0.00671322  0.00310106],[-0.00453881 -0.00198195 -0.00671322  0.00310106],[1.3539436  0.64681873 0.42469975],"[ 1.34140592e+00  7.48806019e-01  5.32823772e-01  1.34693482e+00
  6.12587641e-01  4.24779403e-01  5.52890211e-03 -1.36218377e-01
 -1.08044369e-01  8.47730128e-03  8.46642835e-03 -5.47721601e-09
  8.42648616e-09 -2.16927893e-15  8.36829610e-05  4.58354394e-05
  3.00125993e-04  3.07185103e-09 -4.72592468e-09  1.51023699e-18
 -8.36830791e-05 -4.58355163e-05 -2.97260074e-04  2.19392686e-03
  2.19505824e-03]",0.41747602820396423,0,0
11,17,2024-09-26 22:23:29.481604864,TASK_BEGIN,20,-1.1925232305599696,0.0059974551026141,-5.344532037577282,0.4784243550659505,0.038185333295712,-0.0567713403544751,-5.534706279288512,0.0137503114329689,1,2024-09-26 22:23:32.083067871,1727389412.0830688,2024-09-26 22:23:32.083068928,1,[-0.00453881 -0.00198195 -0.00671322  0.00310106],-0.0,0.0,[-0.00453881 -0.00198195 -0.00671322  0.00310106],[-0.00453881 -0.00198195 -0.00671322  0.00310106],[1.3539436  0.64681873 0.42469975],"[ 1.34140592e+00  7.48806019e-01  5.32823772e-01  1.34693482e+00
  6.12587641e-01  4.24779403e-01  5.52890211e-03 -1.36218377e-01
 -1.08044369e-01  8.47730128e-03  8.46642835e-03 -5.47721601e-09
  8.42648616e-09 -2.16927893e-15  8.36829610e-05  4.58354394e-05
  3.00125993e-04  3.07185103e-09 -4.72592468e-09  1.51023699e-18
 -8.36830791e-05 -4.58355163e-05 -2.97260074e-04  2.19392686e-03
  2.19505824e-03]",0.41747602820396423,0,0
12,18,2024-09-26 22:23:29.540162048,TASK_BEGIN,20,-1.1815450578250832,-6.756179578531221e-05,-5.342971447155927,0.4772727202597323,0.0429859672569065,-0.0632573614929852,-5.328739987423699,-0.0081521809009745,1,2024-09-26 22:23:32.191066895,1727389412.191068,2024-09-26 22:23:32.191067904,1,[-0.00453881 -0.00198195 -0.00671322  0.00310106],-0.0,0.0,[-0.00453881 -0.00198195 -0.00671322  0.00310106],[-0.00453881 -0.00198195 -0.00671322  0.00310106],[1.3539436  0.64681873 0.42469975],"[ 1.34128929e+00  7.48742687e-01  5.32436291e-01  1.34693482e+00
  6.12587641e-01  4.24781571e-01  5.64553383e-03 -1.36155045e-01
 -1.07654720e-01  1.07820461e-02  1.07710738e-02 -3.15070137e-09
  4.84723287e-09 -2.18411396e-15  8.41881804e-05  4.58414007e-05
  2.98107705e-04  1.76619284e-09 -2.71721976e-09 -7.78907107e-19
 -8.41882483e-05 -4.58414449e-05 -2.96463819e-04  2.23368644e-03
  2.23494603e-03]",0.4204554557800293,0,0
13,19,2024-09-26 22:23:29.601694976,TASK_BEGIN,20,-1.173372738421302,-0.0053152347051566,-5.331586958300687,0.473094051781633,0.0495873988040832,-0.0702484165705871,-5.169596636326989,-0.0215031773818268,1,2024-09-26 22:23:32.295062012,1727389412.2950628,2024-09-26 22:23:32.295062784,1,[-0.00453881 -0.00198195 -0.00671322  0.00310106],-0.0,0.0,[-0.00453881 -0.00198195 -0.00671322  0.00310106],[-0.00453881 -0.00198195 -0.00671322  0.00310106],[1.3539436  0.64681873 0.42469975],"[ 1.34117202e+00  7.48679345e-01  5.32049884e-01  1.34693482e+00
  6.12587641e-01  4.24782815e-01  5.76280439e-03 -1.36091704e-01
 -1.07267069e-01  1.31171125e-02  1.31061384e-02 -1.81276253e-09
  2.78886541e-09 -2.18979976e-15  8.45616777e-05  4.58449169e-05
  2.96822418e-04  1.01590223e-09 -1.56292650e-09 -1.50091916e-18
 -8.45617168e-05 -4.58449423e-05 -2.95879303e-04  2.25439163e-03
  2.25571821e-03]",0.4224318563938141,0,0
14,20,2024-09-26 22:23:29.679404032,TASK_BEGIN,20,-1.1682571685828982,-0.0096857696136443,-5.30483765869942,0.4645314683865953,0.0569954322709389,-0.0775206995200311,-5.064571713533007,-0.0259463370076719,1,2024-09-26 22:23:32.295062012,1727389412.2950628,2024-09-26 22:23:32.295062784,1,[-0.00453881 -0.00198195 -0.00671322  0.00310106],-0.0,0.0,[-0.00453881 -0.00198195 -0.00671322  0.00310106],[-0.00453881 -0.00198195 -0.00671322  0.00310106],[1.3539436  0.64681873 0.42469975],"[ 1.34117202e+00  7.48679345e-01  5.32049884e-01  1.34693482e+00
  6.12587641e-01  4.24782815e-01  5.76280439e-03 -1.36091704e-01
 -1.07267069e-01  1.31171125e-02  1.31061384e-02 -1.81276253e-09
  2.78886541e-09 -2.18979976e-15  8.45616777e-05  4.58449169e-05
  2.96822418e-04  1.01590223e-09 -1.56292650e-09 -1.50091916e-18
 -8.45617168e-05 -4.58449423e-05 -2.95879303e-04  2.25439163e-03
  2.25571821e-03]",0.4224318563938141,0,0
15,21,2024-09-26 22:23:29.743332096,TASK_BEGIN,20,-1.166048230660222,-0.0131844494026576,-5.255550168794944,0.4503206290228337,0.0641714104304028,-0.0848630519472075,-5.014987610688897,-0.0220301593948927,1,2024-09-26 22:23:32.401460938,1727389412.4014614,2024-09-26 22:23:32.401461248,1,[-0.00453881 -0.00198195 -0.00671322  0.00310106],-0.0,0.0,[-0.00453881 -0.00198195 -0.00671322  0.00310106],[-0.00453881 -0.00198195 -0.00671322  0.00310106],[1.3539436  0.64681873 0.42469975],"[ 1.34105427e+00  7.48615995e-01  5.31664266e-01  1.34693482e+00
  6.12587641e-01  4.24783528e-01  5.88054960e-03 -1.36028354e-01
 -1.06880738e-01  1.54679692e-02  1.54570441e-02 -1.04309534e-09
  1.60476205e-09 -2.19115010e-15  8.48370550e-05  4.58480332e-05
  2.96000281e-04  5.84475491e-10 -8.99193059e-10  6.67121820e-19
 -8.48370774e-05 -4.58480478e-05 -2.95459145e-04  2.26517405e-03
  2.26653564e-03]",0.42491817474365234,0,0
16,22,2024-09-26 22:23:29.819913984,TASK_BEGIN,20,-1.1662241779901847,-0.0158813443996147,-5.176174473168699,0.4294779843272949,0.0701245243268289,-0.0920924643347991,-5.017155450593373,-0.0110604493952974,1,2024-09-26 22:23:32.507458984,1727389412.5074594,2024-09-26 22:23:32.507459328,1,[-0.00453881 -0.00198195 -0.00671322  0.00310106],-0.0,0.0,[-0.00453881 -0.00198195 -0.00671322  0.00310106],[-0.00453881 -0.00198195 -0.00671322  0.00310106],[1.3539436  0.64681873 0.42469975],"[ 1.34093617e+00  7.48552639e-01  5.31279219e-01  1.34693482e+00
  6.12587641e-01  4.24783938e-01  5.99864802e-03 -1.35964998e-01
 -1.06495281e-01  1.78270489e-02  1.78161993e-02 -6.00254487e-10
  9.23468439e-10 -2.19109543e-15  8.50400656e-05  4.58507716e-05
  2.95474302e-04  3.36308864e-10 -5.17398263e-10 -1.29315681e-18
 -8.50400785e-05 -4.58507800e-05 -2.95163792e-04  2.27078908e-03
  2.27216901e-03]",0.42810553312301636,0,0
17,23,2024-09-26 22:23:30.763191808,TASK_BEGIN,20,-1.167918823071468,-0.017910400159589,-5.060325930794044,0.4014781048151253,0.0740058225623351,-0.09905934453766,-5.063668414827707,0.0051326612948104,1,2024-09-26 22:23:32.722458984,1727389412.7224593,2024-09-26 22:23:32.722459392,1,[-0.00453881 -0.00198195 -0.00671322  0.00310106],-0.0,0.0,[-0.00453881 -0.00198195 -0.00671322  0.00310106],[-0.00453881 -0.00198195 -0.00671322  0.00310106],[1.3539436  0.64681873 0.42469975],"[ 1.34069925e+00  7.48425911e-01  5.30510204e-01  1.34693482e+00
  6.12587641e-01  4.24784308e-01  6.23556844e-03 -1.35838270e-01
 -1.05725896e-01  2.25560029e-02  2.25453389e-02 -1.98792524e-10
  3.05834645e-10 -2.19401174e-15  8.52994266e-05  4.58556638e-05
  2.94935907e-04  1.11369790e-10 -1.71338129e-10  1.65356043e-18
 -8.52994309e-05 -4.58556666e-05 -2.94833659e-04  2.27523584e-03
  2.27663048e-03]",0.4357576370239258,0,0
18,30,2024-09-26 22:23:32.100872192,TASK_BEGIN,20,-1.1130109624508582,-0.0329822764296156,-3.405577267754296,0.0806874055224041,0.0196890586440802,-0.1295429025816423,-5.792296299728879,0.110515368813944,1,2024-09-26 22:23:34.665270996,1727389414.6652713,2024-09-26 22:23:34.665271296,2,[-0.83137536 -0.86555946 -0.6579052   0.3627907 ],-1.0,-3.9403989999999998,[-0.83137536 -0.86555946 -0.6579052   0.3627907 ],[-0.83137536 -0.86555946 -0.6579052   0.3627907 ],[1.37131853 0.68859434 0.42469975],"[ 1.21671540e+00  6.54652830e-01  4.73242927e-01  1.20357308e+00
  6.37639231e-01  4.24775622e-01 -1.31423184e-02 -1.70135985e-02
 -4.84673049e-02  5.02239154e-02  5.01862063e-02 -9.52496621e-09
  1.46537942e-08 -2.12215013e-15  1.91858160e-02  2.06323433e-02
  1.59235114e-02  5.34650725e-09 -8.22539575e-09 -1.68761623e-18
 -1.91858162e-02 -2.06323435e-02 -1.59185133e-02 -5.31576223e-04
 -4.19906925e-04]",1.385537028312683,0,0
19,31,2024-09-26 22:23:32.181135872,TASK_BEGIN,20,-1.0844643911099607,-0.0377973307523822,-3.1705241005496307,0.04027438234932,0.0029676149473335,-0.1297592839753479,-5.859762880481585,0.1109825888835997,1,2024-09-26 22:23:34.665270996,1727389414.6652713,2024-09-26 22:23:34.665271296,2,[-0.83137536 -0.86555946 -0.6579052   0.3627907 ],-1.0,-3.9403989999999998,[-0.83137536 -0.86555946 -0.6579052   0.3627907 ],[-0.83137536 -0.86555946 -0.6579052   0.3627907 ],[1.37131853 0.68859434 0.42469975],"[ 1.21671540e+00  6.54652830e-01  4.73242927e-01  1.20357308e+00
  6.37639231e-01  4.24775622e-01 -1.31423184e-02 -1.70135985e-02
 -4.84673049e-02  5.02239154e-02  5.01862063e-02 -9.52496621e-09
  1.46537942e-08 -2.12215013e-15  1.91858160e-02  2.06323433e-02
  1.59235114e-02  5.34650725e-09 -8.22539575e-09 -1.68761623e-18
 -1.91858162e-02 -2.06323435e-02 -1.59185133e-02 -5.31576223e-04
 -4.19906925e-04]",1.385537028312683,0,0
20,32,2024-09-26 22:23:32.248964096,TASK_BEGIN,20,-1.0510108279137014,-0.0435474355484515,-2.9747794598050272,0.0079698971046704,-0.0143777125894991,-0.1287815792394246,-5.907033049897893,0.1067096626600992,1,2024-09-26 22:23:34.665270996,1727389414.6652713,2024-09-26 22:23:34.665271296,2,[-0.83137536 -0.86555946 -0.6579052   0.3627907 ],-1.0,-3.9403989999999998,[-0.83137536 -0.86555946 -0.6579052   0.3627907 ],[-0.83137536 -0.86555946 -0.6579052   0.3627907 ],[1.37131853 0.68859434 0.42469975],"[ 1.21671540e+00  6.54652830e-01  4.73242927e-01  1.20357308e+00
  6.37639231e-01  4.24775622e-01 -1.31423184e-02 -1.70135985e-02
 -4.84673049e-02  5.02239154e-02  5.01862063e-02 -9.52496621e-09
  1.46537942e-08 -2.12215013e-15  1.91858160e-02  2.06323433e-02
  1.59235114e-02  5.34650725e-09 -8.22539575e-09 -1.68761623e-18
 -1.91858162e-02 -2.06323435e-02 -1.59185133e-02 -5.31576223e-04
 -4.19906925e-04]",1.385537028312683,0,0
21,33,2024-09-26 22:23:32.301715968,TASK_BEGIN,20,-1.0137779931496769,-0.0501728590556226,-2.8281073743479537,-0.0144329532755985,-0.0317051039036012,-0.126692894591365,-5.933959916529882,0.0977345068026676,1,2024-09-26 22:23:34.665270996,1727389414.6652713,2024-09-26 22:23:34.665271296,2,[-0.83137536 -0.86555946 -0.6579052   0.3627907 ],-1.0,-3.9403989999999998,[-0.83137536 -0.86555946 -0.6579052   0.3627907 ],[-0.83137536 -0.86555946 -0.6579052   0.3627907 ],[1.37131853 0.68859434 0.42469975],"[ 1.21671540e+00  6.54652830e-01  4.73242927e-01  1.20357308e+00
  6.37639231e-01  4.24775622e-01 -1.31423184e-02 -1.70135985e-02
 -4.84673049e-02  5.02239154e-02  5.01862063e-02 -9.52496621e-09
  1.46537942e-08 -2.12215013e-15  1.91858160e-02  2.06323433e-02
  1.59235114e-02  5.34650725e-09 -8.22539575e-09 -1.68761623e-18
 -1.91858162e-02 -2.06323435e-02 -1.59185133e-02 -5.31576223e-04
 -4.19906925e-04]",1.385537028312683,0,0
22,34,2024-09-26 22:23:32.384594944,TASK_BEGIN,20,-0.974093245459214,-0.05757205768435,-2.7370916107137213,-0.0256541038868878,-0.0484003510020608,-0.1236277220207487,-5.940863172670899,0.0841376080837686,1,2024-09-26 22:23:34.665270996,1727389414.6652713,2024-09-26 22:23:34.665271296,2,[-0.83137536 -0.86555946 -0.6579052   0.3627907 ],-1.0,-3.9403989999999998,[-0.83137536 -0.86555946 -0.6579052   0.3627907 ],[-0.83137536 -0.86555946 -0.6579052   0.3627907 ],[1.37131853 0.68859434 0.42469975],"[ 1.21671540e+00  6.54652830e-01  4.73242927e-01  1.20357308e+00
  6.37639231e-01  4.24775622e-01 -1.31423184e-02 -1.70135985e-02
 -4.84673049e-02  5.02239154e-02  5.01862063e-02 -9.52496621e-09
  1.46537942e-08 -2.12215013e-15  1.91858160e-02  2.06323433e-02
  1.59235114e-02  5.34650725e-09 -8.22539575e-09 -1.68761623e-18
 -1.91858162e-02 -2.06323435e-02 -1.59185133e-02 -5.31576223e-04
 -4.19906925e-04]",1.385537028312683,0,0
23,35,2024-09-26 22:23:32.445457920,TASK_BEGIN,20,-0.9333485142977548,-0.065616087144614,-2.7046846329361807,-0.0250518771043596,-0.0638786901695412,-0.1197640524108965,-5.928252866743565,0.0660422552356445,1,2024-09-26 22:23:34.665270996,1727389414.6652713,2024-09-26 22:23:34.665271296,2,[-0.83137536 -0.86555946 -0.6579052   0.3627907 ],-1.0,-3.9403989999999998,[-0.83137536 -0.86555946 -0.6579052   0.3627907 ],[-0.83137536 -0.86555946 -0.6579052   0.3627907 ],[1.37131853 0.68859434 0.42469975],"[ 1.21671540e+00  6.54652830e-01  4.73242927e-01  1.20357308e+00
  6.37639231e-01  4.24775622e-01 -1.31423184e-02 -1.70135985e-02
 -4.84673049e-02  5.02239154e-02  5.01862063e-02 -9.52496621e-09
  1.46537942e-08 -2.12215013e-15  1.91858160e-02  2.06323433e-02
  1.59235114e-02  5.34650725e-09 -8.22539575e-09 -1.68761623e-18
 -1.91858162e-02 -2.06323435e-02 -1.59185133e-02 -5.31576223e-04
 -4.19906925e-04]",1.385537028312683,0,0
24,36,2024-09-26 22:23:32.518559744,TASK_BEGIN,20,-0.8928799304974838,-0.0741592777165615,-2.730051999258396,-0.0126974160575062,-0.0775461336267439,-0.1153174490942693,-5.896940468304639,0.0436602710653177,1,2024-09-26 22:23:34.665270996,1727389414.6652713,2024-09-26 22:23:34.665271296,2,[-0.83137536 -0.86555946 -0.6579052   0.3627907 ],-1.0,-3.9403989999999998,[-0.83137536 -0.86555946 -0.6579052   0.3627907 ],[-0.83137536 -0.86555946 -0.6579052   0.3627907 ],[1.37131853 0.68859434 0.42469975],"[ 1.21671540e+00  6.54652830e-01  4.73242927e-01  1.20357308e+00
  6.37639231e-01  4.24775622e-01 -1.31423184e-02 -1.70135985e-02
 -4.84673049e-02  5.02239154e-02  5.01862063e-02 -9.52496621e-09
  1.46537942e-08 -2.12215013e-15  1.91858160e-02  2.06323433e-02
  1.59235114e-02  5.34650725e-09 -8.22539575e-09 -1.68761623e-18
 -1.91858162e-02 -2.06323435e-02 -1.59185133e-02 -5.31576223e-04
 -4.19906925e-04]",1.385537028312683,0,0
25,37,2024-09-26 22:23:33.463939072,TASK_BEGIN,20,-0.8538815538461549,-0.083043623410481,-2.808685760768552,0.010612797845693,-0.0887396952880952,-0.1105363989575418,-5.848345164643134,0.0173525411185693,1,2024-09-26 22:23:36.061970947,1727389416.0619712,2024-09-26 22:23:36.061971200,2,[ 0.01163558 -0.01195314  0.04592696 -0.10027887],-0.0,-7.980150104399322,[ 0.01163558 -0.01195314  0.04592696 -0.10027887],[ 0.01163558 -0.01195314  0.04592696 -0.10027887],[1.37131853 0.68859434 0.42469975],"[ 1.33400545e+00  6.77898404e-01  4.58213630e-01  1.35114870e+00
  6.78307533e-01  4.30224255e-01  1.71432523e-02  4.09128708e-04
 -2.79893745e-02  2.46362589e-02  2.38740513e-02  2.97950245e-03
  1.26322639e-03  3.33628974e-03  2.14877523e-05 -6.60738297e-04
 -7.25923510e-05 -4.97837567e-04  1.94112991e-04 -8.60530255e-04
  2.67943277e-04 -2.83622567e-04  1.01512021e-03 -5.83093600e-04
  8.06520215e-04]",0.16728077828884125,0,0
26,38,2024-09-26 22:23:33.531780096,TASK_BEGIN,20,-0.8173589717103985,-0.0920986315300523,-2.932792239005621,0.0434160028591767,-0.0967054370142791,-0.1056952828744022,-5.78460587091431,-0.0123461262712121,1,2024-09-26 22:23:36.167983154,1727389416.167983,2024-09-26 22:23:36.167983104,2,[ 0.01494849 -0.01383768  0.04659596 -0.09876633],-0.0,-7.9003486033553285,[ 0.01494849 -0.01383768  0.04659596 -0.09876633],[ 0.01494849 -0.01383768  0.04659596 -0.09876633],[1.37131853 0.68859434 0.42469975],"[ 1.33448475e+00  6.77444722e-01  4.59658208e-01  1.35164458e+00
  6.77270899e-01  4.31599869e-01  1.71598308e-02 -1.73822399e-04
 -2.80583390e-02  2.41057505e-02  2.45476961e-02  2.52976357e-03
  1.45632429e-03  2.58781229e-03  2.00585189e-05 -4.91271795e-04
 -7.18933990e-05 -4.36357976e-04  1.95459291e-04 -6.77652277e-04
  3.55507560e-04 -3.29183925e-04  1.03489816e-03 -4.54302142e-04
  5.43888402e-04]",0.17068728804588318,0,0
27,39,2024-09-26 22:23:33.591558144,TASK_BEGIN,20,-0.7841068442690606,-0.1011425427059656,-3.091978235658627,0.0837123131812224,-0.1006589732745916,-0.1010821189664897,-5.708390711861833,-0.0447282606420225,1,2024-09-26 22:23:36.277869873,1727389416.2778702,2024-09-26 22:23:36.277870080,2,[ 0.01951152 -0.01567704  0.04717257 -0.09792239],-0.0,-7.821345117321775,[ 0.01951152 -0.01567704  0.04717257 -0.09792239],[ 0.01951152 -0.01567704  0.04717257 -0.09792239],[1.37131853 0.68859434 0.42469975],"[ 1.33511024e+00  6.76929924e-01  4.61122628e-01  1.35228567e+00
  6.76427841e-01  4.32995932e-01  1.71754240e-02 -5.02083221e-04
 -2.81266968e-02  2.38040154e-02  2.49068320e-02  2.14135669e-03
  1.64778314e-03  2.00264931e-03  1.89209510e-05 -1.89406299e-04
 -7.12562851e-05 -3.78121993e-04  1.96668430e-04 -5.33159302e-04
  4.65225232e-04 -3.72145376e-04  1.04750484e-03 -1.68681310e-04
  2.04629286e-04]",0.1709316074848175,0,0
28,40,2024-09-26 22:23:33.667351040,TASK_BEGIN,20,-0.7546940858513363,-0.1099895704334552,-3.27418913257838,0.1291413492879891,-0.0999139051432705,-0.09698205432416,-5.62266648194351,-0.0788903640871124,1,2024-09-26 22:23:36.277869873,1727389416.2778702,2024-09-26 22:23:36.277870080,2,[ 0.01951152 -0.01567704  0.04717257 -0.09792239],-0.0,-7.821345117321775,[ 0.01951152 -0.01567704  0.04717257 -0.09792239],[ 0.01951152 -0.01567704  0.04717257 -0.09792239],[1.37131853 0.68859434 0.42469975],"[ 1.33511024e+00  6.76929924e-01  4.61122628e-01  1.35228567e+00
  6.76427841e-01  4.32995932e-01  1.71754240e-02 -5.02083221e-04
 -2.81266968e-02  2.38040154e-02  2.49068320e-02  2.14135669e-03
  1.64778314e-03  2.00264931e-03  1.89209510e-05 -1.89406299e-04
 -7.12562851e-05 -3.78121993e-04  1.96668430e-04 -5.33159302e-04
  4.65225232e-04 -3.72145376e-04  1.04750484e-03 -1.68681310e-04
  2.04629286e-04]",0.1709316074848175,0,0
29,41,2024-09-26 22:23:33.735152128,TASK_BEGIN,20,-0.7294554637053677,-0.1184620837027711,-3.466837162700645,0.1771874112903348,-0.0940227205089141,-0.0936608917909308,-5.530669829144632,-0.1136782520259658,1,2024-09-26 22:23:36.277869873,1727389416.2778702,2024-09-26 22:23:36.277870080,2,[ 0.01951152 -0.01567704  0.04717257 -0.09792239],-0.0,-7.821345117321775,[ 0.01951152 -0.01567704  0.04717257 -0.09792239],[ 0.01951152 -0.01567704  0.04717257 -0.09792239],[1.37131853 0.68859434 0.42469975],"[ 1.33511024e+00  6.76929924e-01  4.61122628e-01  1.35228567e+00
  6.76427841e-01  4.32995932e-01  1.71754240e-02 -5.02083221e-04
 -2.81266968e-02  2.38040154e-02  2.49068320e-02  2.14135669e-03
  1.64778314e-03  2.00264931e-03  1.89209510e-05 -1.89406299e-04
 -7.12562851e-05 -3.78121993e-04  1.96668430e-04 -5.33159302e-04
  4.65225232e-04 -3.72145376e-04  1.04750484e-03 -1.68681310e-04
  2.04629286e-04]",0.1709316074848175,0,0
30,42,2024-09-26 22:23:33.791991040,TASK_BEGIN,20,-0.7084961508854886,-0.1264023237581849,-3.6580301634987937,0.225403375479732,-0.0828775510903871,-0.0913523916827069,-5.436030953139404,-0.1476427032476665,1,2024-09-26 22:23:36.277869873,1727389416.2778702,2024-09-26 22:23:36.277870080,2,[ 0.01951152 -0.01567704  0.04717257 -0.09792239],-0.0,-7.821345117321775,[ 0.01951152 -0.01567704  0.04717257 -0.09792239],[ 0.01951152 -0.01567704  0.04717257 -0.09792239],[1.37131853 0.68859434 0.42469975],"[ 1.33511024e+00  6.76929924e-01  4.61122628e-01  1.35228567e+00
  6.76427841e-01  4.32995932e-01  1.71754240e-02 -5.02083221e-04
 -2.81266968e-02  2.38040154e-02  2.49068320e-02  2.14135669e-03
  1.64778314e-03  2.00264931e-03  1.89209510e-05 -1.89406299e-04
 -7.12562851e-05 -3.78121993e-04  1.96668430e-04 -5.33159302e-04
  4.65225232e-04 -3.72145376e-04  1.04750484e-03 -1.68681310e-04
  2.04629286e-04]",0.1709316074848175,0,0
31,43,2024-09-26 22:23:33.870574080,TASK_BEGIN,20,-0.6917141776620146,-0.1336792426528216,-3.837631548257771,0.2716152057280645,-0.0667514541432514,-0.090246193704804,-5.342921203499496,-0.1790229907180136,1,2024-09-26 22:23:36.277869873,1727389416.2778702,2024-09-26 22:23:36.277870080,2,[ 0.01951152 -0.01567704  0.04717257 -0.09792239],-0.0,-7.821345117321775,[ 0.01951152 -0.01567704  0.04717257 -0.09792239],[ 0.01951152 -0.01567704  0.04717257 -0.09792239],[1.37131853 0.68859434 0.42469975],"[ 1.33511024e+00  6.76929924e-01  4.61122628e-01  1.35228567e+00
  6.76427841e-01  4.32995932e-01  1.71754240e-02 -5.02083221e-04
 -2.81266968e-02  2.38040154e-02  2.49068320e-02  2.14135669e-03
  1.64778314e-03  2.00264931e-03  1.89209510e-05 -1.89406299e-04
 -7.12562851e-05 -3.78121993e-04  1.96668430e-04 -5.33159302e-04
  4.65225232e-04 -3.72145376e-04  1.04750484e-03 -1.68681310e-04
  2.04629286e-04]",0.1709316074848175,0,0
32,51,2024-09-26 22:23:36.137842688,TASK_BEGIN,20,-0.6482003986443549,-0.1634502095674812,-4.372587036917055,0.4493939441627931,0.1139966814830248,-0.1230274054510907,-5.352924193322268,-0.073914070452542,1,2024-09-26 22:23:38.209057129,1727389418.2090578,2024-09-26 22:23:38.209057792,3,[-0.24360311  0.8260754  -0.9823339   0.16584295],-1.0,-2.9701,[-0.24360311  0.8260754  -0.9823339   0.16584295],[-0.24360311  0.8260754  -0.9823339   0.16584295],[1.42441643 0.78952365 0.61561676],"[ 1.32855530e+00  8.40660393e-01  4.70224243e-01  1.32347532e+00
  8.68211200e-01  4.24769027e-01 -5.07998960e-03  2.75508062e-02
 -4.54552161e-02  5.01302112e-02  5.01492850e-02 -1.65741696e-08
  2.54987225e-08 -1.98114789e-15  6.05493010e-03 -1.88468893e-02
  2.38838243e-02  9.31711994e-09 -1.43340307e-08 -1.06044660e-19
 -6.05493046e-03  1.88468891e-02 -2.38751025e-02 -2.54107323e-04
 -3.10672799e-04]",1.3148114681243896,0,0
33,52,2024-09-26 22:23:36.199529728,TASK_BEGIN,20,-0.6434689299180438,-0.1645534181259384,-4.32687959222002,0.4467904229465819,0.124103296525517,-0.1299072168798796,-5.526370554204376,0.0042698913937371,1,2024-09-26 22:23:38.209057129,1727389418.2090578,2024-09-26 22:23:38.209057792,3,[-0.24360311  0.8260754  -0.9823339   0.16584295],-1.0,-2.9701,[-0.24360311  0.8260754  -0.9823339   0.16584295],[-0.24360311  0.8260754  -0.9823339   0.16584295],[1.42441643 0.78952365 0.61561676],"[ 1.32855530e+00  8.40660393e-01  4.70224243e-01  1.32347532e+00
  8.68211200e-01  4.24769027e-01 -5.07998960e-03  2.75508062e-02
 -4.54552161e-02  5.01302112e-02  5.01492850e-02 -1.65741696e-08
  2.54987225e-08 -1.98114789e-15  6.05493010e-03 -1.88468893e-02
  2.38838243e-02  9.31711994e-09 -1.43340307e-08 -1.06044660e-19
 -6.05493046e-03  1.88468891e-02 -2.38751025e-02 -2.54107323e-04
 -3.10672799e-04]",1.3148114681243896,0,0
34,53,2024-09-26 22:23:36.261061888,TASK_BEGIN,20,-0.6369168826859924,-0.1654879004008937,-4.263229502329584,0.4401871884494274,0.1286228620093925,-0.1367767248981317,-5.742846000065763,0.0943191032786102,1,2024-09-26 22:23:38.209057129,1727389418.2090578,2024-09-26 22:23:38.209057792,3,[-0.24360311  0.8260754  -0.9823339   0.16584295],-1.0,-2.9701,[-0.24360311  0.8260754  -0.9823339   0.16584295],[-0.24360311  0.8260754  -0.9823339   0.16584295],[1.42441643 0.78952365 0.61561676],"[ 1.32855530e+00  8.40660393e-01  4.70224243e-01  1.32347532e+00
  8.68211200e-01  4.24769027e-01 -5.07998960e-03  2.75508062e-02
 -4.54552161e-02  5.01302112e-02  5.01492850e-02 -1.65741696e-08
  2.54987225e-08 -1.98114789e-15  6.05493010e-03 -1.88468893e-02
  2.38838243e-02  9.31711994e-09 -1.43340307e-08 -1.06044660e-19
 -6.05493046e-03  1.88468891e-02 -2.38751025e-02 -2.54107323e-04
 -3.10672799e-04]",1.3148114681243896,0,0
35,54,2024-09-26 22:23:36.338270976,TASK_BEGIN,20,-0.6284781703989792,-0.1663377665943013,-4.1860954922101286,0.4303468828950945,0.127459342058336,-0.1434707919284401,-5.998047759501399,0.1928513382567089,1,2024-09-26 22:23:38.849812012,1727389418.8498123,2024-09-26 22:23:38.849812224,3,[ 0.6904286  -0.21462826  0.9999997  -0.22280169],-1.0,-8.64827525163591,[ 0.6904286  -0.21462826  0.9999997  -0.22280169],[ 0.6904286  -0.21462826  0.9999997  -0.22280169],[1.42441643 0.78952365 0.61561676],"[ 1.38948327e+00  8.09999478e-01  5.73967551e-01  1.38491705e+00
  8.09724018e-01  5.58187648e-01 -4.56622166e-03 -2.75459315e-04
 -1.57799025e-02  2.36622518e-02  2.44634003e-02 -1.09592640e-04
  1.16123832e-03  1.32127900e-02  7.15950746e-04 -1.27163200e-03
 -3.53274375e-04  4.11075554e-04  6.63954405e-04  1.52246624e-03
  1.60721300e-02 -5.09703648e-03  2.36112642e-02 -1.25925647e-03
  1.26799294e-03]",1.303523063659668,0,0
36,55,2024-09-26 22:23:36.410257152,TASK_BEGIN,20,-0.6183548211275545,-0.1671396223777735,-4.101178066703945,0.4181573022586165,0.1207861484957314,-0.1498302872337434,-6.285029945431259,0.295788609732337,1,2024-09-26 22:23:38.849812012,1727389418.8498123,2024-09-26 22:23:38.849812224,3,[ 0.6904286  -0.21462826  0.9999997  -0.22280169],-1.0,-8.64827525163591,[ 0.6904286  -0.21462826  0.9999997  -0.22280169],[ 0.6904286  -0.21462826  0.9999997  -0.22280169],[1.42441643 0.78952365 0.61561676],"[ 1.38948327e+00  8.09999478e-01  5.73967551e-01  1.38491705e+00
  8.09724018e-01  5.58187648e-01 -4.56622166e-03 -2.75459315e-04
 -1.57799025e-02  2.36622518e-02  2.44634003e-02 -1.09592640e-04
  1.16123832e-03  1.32127900e-02  7.15950746e-04 -1.27163200e-03
 -3.53274375e-04  4.11075554e-04  6.63954405e-04  1.52246624e-03
  1.60721300e-02 -5.09703648e-03  2.36112642e-02 -1.25925647e-03
  1.26799294e-03]",1.303523063659668,0,0
37,56,2024-09-26 22:23:36.476982272,TASK_BEGIN,20,-0.6070025634498513,-0.1678861680763451,-4.015221720176311,0.4046141831714229,0.1090937371617397,-0.155721245468008,-6.594323920878368,0.3986595058329585,1,2024-09-26 22:23:38.849812012,1727389418.8498123,2024-09-26 22:23:38.849812224,3,[ 0.6904286  -0.21462826  0.9999997  -0.22280169],-1.0,-8.64827525163591,[ 0.6904286  -0.21462826  0.9999997  -0.22280169],[ 0.6904286  -0.21462826  0.9999997  -0.22280169],[1.42441643 0.78952365 0.61561676],"[ 1.38948327e+00  8.09999478e-01  5.73967551e-01  1.38491705e+00
  8.09724018e-01  5.58187648e-01 -4.56622166e-03 -2.75459315e-04
 -1.57799025e-02  2.36622518e-02  2.44634003e-02 -1.09592640e-04
  1.16123832e-03  1.32127900e-02  7.15950746e-04 -1.27163200e-03
 -3.53274375e-04  4.11075554e-04  6.63954405e-04  1.52246624e-03
  1.60721300e-02 -5.09703648e-03  2.36112642e-02 -1.25925647e-03
  1.26799294e-03]",1.303523063659668,0,0
38,57,2024-09-26 22:23:36.545805056,TASK_BEGIN,20,-0.5950954959974575,-0.1685344266792701,-3.935358388937056,0.3907305142374775,0.0932445798057859,-0.161058987067698,-6.914451024400693,0.496951313632938,1,2024-09-26 22:23:38.849812012,1727389418.8498123,2024-09-26 22:23:38.849812224,3,[ 0.6904286  -0.21462826  0.9999997  -0.22280169],-1.0,-8.64827525163591,[ 0.6904286  -0.21462826  0.9999997  -0.22280169],[ 0.6904286  -0.21462826  0.9999997  -0.22280169],[1.42441643 0.78952365 0.61561676],"[ 1.38948327e+00  8.09999478e-01  5.73967551e-01  1.38491705e+00
  8.09724018e-01  5.58187648e-01 -4.56622166e-03 -2.75459315e-04
 -1.57799025e-02  2.36622518e-02  2.44634003e-02 -1.09592640e-04
  1.16123832e-03  1.32127900e-02  7.15950746e-04 -1.27163200e-03
 -3.53274375e-04  4.11075554e-04  6.63954405e-04  1.52246624e-03
  1.60721300e-02 -5.09703648e-03  2.36112642e-02 -1.25925647e-03
  1.26799294e-03]",1.303523063659668,0,0
39,58,2024-09-26 22:23:37.489164032,TASK_BEGIN,20,-0.5834728900577696,-0.1690113681160997,-3.868119012516301,0.3773896059645876,0.0744745961445464,-0.1658195102465406,-7.232641878078396,0.5864169483699007,1,2024-09-26 22:23:39.488377930,1727389419.4883783,2024-09-26 22:23:39.488378368,3,[ 0.00593514 -0.06221567  0.0557607  -0.1478473 ],-0.0,-8.142179475971147,[ 0.00593514 -0.06221567  0.0557607  -0.1478473 ],[ 0.00593514 -0.06221567  0.0557607  -0.1478473 ],[1.42441643 0.78952365 0.61561676],"[ 1.40940963e+00  7.91123604e-01  6.20547979e-01  1.40562100e+00
  7.91557885e-01  6.04302401e-01 -3.78862907e-03  4.34281084e-04
 -1.62455780e-02  2.45560542e-02  2.35596457e-02 -2.24621824e-04
  1.57162384e-03  1.54809596e-02  1.96577395e-05  2.74983447e-05
 -3.05351619e-05 -4.08817327e-03 -1.03765633e-04  6.64353160e-05
  1.72722038e-04 -1.42938382e-03  1.19380049e-03  1.80414139e-04
 -1.81066089e-04]",0.601423442363739,0,0
40,59,2024-09-26 22:23:37.546845952,TASK_BEGIN,20,-0.5730656470628259,-0.1692158783074552,-3.8184593278327137,0.3652173352049505,0.0543171935987982,-0.1700314492164123,-7.535510576597216,0.663284077389824,1,2024-09-26 22:23:39.488377930,1727389419.4883783,2024-09-26 22:23:39.488378368,3,[ 0.00593514 -0.06221567  0.0557607  -0.1478473 ],-0.0,-8.142179475971147,[ 0.00593514 -0.06221567  0.0557607  -0.1478473 ],[ 0.00593514 -0.06221567  0.0557607  -0.1478473 ],[1.42441643 0.78952365 0.61561676],"[ 1.40940963e+00  7.91123604e-01  6.20547979e-01  1.40562100e+00
  7.91557885e-01  6.04302401e-01 -3.78862907e-03  4.34281084e-04
 -1.62455780e-02  2.45560542e-02  2.35596457e-02 -2.24621824e-04
  1.57162384e-03  1.54809596e-02  1.96577395e-05  2.74983447e-05
 -3.05351619e-05 -4.08817327e-03 -1.03765633e-04  6.64353160e-05
  1.72722038e-04 -1.42938382e-03  1.19380049e-03  1.80414139e-04
 -1.81066089e-04]",0.601423442363739,0,0
41,60,2024-09-26 22:23:37.624465152,TASK_BEGIN,20,-0.5647838641024662,-0.1690247977716244,-3.789134514091666,0.3545434593390792,0.0344680655444116,-0.173755784686637,-7.809582350217584,0.7243830633338568,1,2024-09-26 22:23:39.593714111,1727389419.593715,2024-09-26 22:23:39.593714944,3,[ 0.01211139 -0.05300595  0.03950791 -0.15179324],-0.0,-8.060757681211436,[ 0.01211139 -0.05300595  0.03950791 -0.15179324],[ 0.01211139 -0.05300595  0.03950791 -0.15179324],[1.42441643 0.78952365 0.61561676],"[ 1.40978963e+00  7.89346809e-01  6.21794882e-01  1.40601605e+00
  7.89832160e-01  6.05520331e-01 -3.77358018e-03  4.85351421e-04
 -1.62745508e-02  2.46036193e-02  2.35118228e-02 -1.30986622e-04
  1.44958273e-03  1.55121626e-02  1.48094620e-05 -1.75579210e-05
 -3.07780868e-05  2.11559787e-03 -9.09207349e-05  3.98036274e-05
  3.04657625e-04 -1.22216547e-03  8.29652097e-04 -9.91390897e-05
  9.92383201e-05]",0.5982756614685059,0,0
42,61,2024-09-26 22:23:37.686460928,TASK_BEGIN,20,-0.5593714352169332,-0.1683086128623943,-3.780575350025962,0.345459514135966,0.0166260680287542,-0.1770643830896596,-8.041792679484358,0.7672399583329388,1,2024-09-26 22:23:39.593714111,1727389419.593715,2024-09-26 22:23:39.593714944,3,[ 0.01211139 -0.05300595  0.03950791 -0.15179324],-0.0,-8.060757681211436,[ 0.01211139 -0.05300595  0.03950791 -0.15179324],[ 0.01211139 -0.05300595  0.03950791 -0.15179324],[1.42441643 0.78952365 0.61561676],"[ 1.40978963e+00  7.89346809e-01  6.21794882e-01  1.40601605e+00
  7.89832160e-01  6.05520331e-01 -3.77358018e-03  4.85351421e-04
 -1.62745508e-02  2.46036193e-02  2.35118228e-02 -1.30986622e-04
  1.44958273e-03  1.55121626e-02  1.48094620e-05 -1.75579210e-05
 -3.07780868e-05  2.11559787e-03 -9.09207349e-05  3.98036274e-05
  3.04657625e-04 -1.22216547e-03  8.29652097e-04 -9.91390897e-05
  9.92383201e-05]",0.5982756614685059,0,0
43,62,2024-09-26 22:23:37.748946944,TASK_BEGIN,20,-0.5572861343861419,-0.1669515930891004,-3.791222062170653,0.3379238189145481,0.0023433198508035,-0.1800250105426671,-8.220068122819574,0.7901566645825191,1,2024-09-26 22:23:40.025769043,1727389420.0257692,2024-09-26 22:23:40.025769216,3,[ 0.02055315 -0.03000192  0.01705362 -0.17362154],-0.0,-7.743131666148558,[ 0.02055315 -0.03000192  0.01705362 -0.17362154],[ 0.02055315 -0.03000192  0.01705362 -0.17362154],[1.42441643 0.78952365 0.61561676],"[ 1.41235178e+00  7.84392195e-01  6.24416964e-01  1.40863302e+00
  7.84104622e-01  6.08027446e-01 -3.71875229e-03 -2.87572771e-04
 -1.63895175e-02  2.38213771e-02  2.42942868e-02  1.18522822e-04
  9.08376023e-04  1.55408063e-02  1.24472156e-05 -5.25913525e-05
 -3.02562014e-05  4.70378123e-04 -1.03564782e-04  1.09055599e-05
  4.93761480e-04 -6.93156650e-04  3.25985013e-04 -6.96343883e-05
  6.97758462e-05]",0.5978031754493713,0,0
44,63,2024-09-26 22:23:37.826196992,TASK_BEGIN,20,-0.5586602161486942,-0.1648682443934326,-3.818163216478947,0.3318551471909448,-0.0070974254142946,-0.1826954365603637,-8.333914465383243,0.792258140928422,1,2024-09-26 22:23:40.025769043,1727389420.0257692,2024-09-26 22:23:40.025769216,3,[ 0.02055315 -0.03000192  0.01705362 -0.17362154],-0.0,-7.743131666148558,[ 0.02055315 -0.03000192  0.01705362 -0.17362154],[ 0.02055315 -0.03000192  0.01705362 -0.17362154],[1.42441643 0.78952365 0.61561676],"[ 1.41235178e+00  7.84392195e-01  6.24416964e-01  1.40863302e+00
  7.84104622e-01  6.08027446e-01 -3.71875229e-03 -2.87572771e-04
 -1.63895175e-02  2.38213771e-02  2.42942868e-02  1.18522822e-04
  9.08376023e-04  1.55408063e-02  1.24472156e-05 -5.25913525e-05
 -3.02562014e-05  4.70378123e-04 -1.03564782e-04  1.09055599e-05
  4.93761480e-04 -6.93156650e-04  3.25985013e-04 -6.96343883e-05
  6.97758462e-05]",0.5978031754493713,0,0
45,64,2024-09-26 22:23:37.887748096,TASK_BEGIN,20,-0.5633351168941875,-0.1620134433413022,-3.857860018899024,0.3271830414268639,-0.0107871216567078,-0.1851221534313192,-8.374968586213432,0.7734892616923479,1,2024-09-26 22:23:40.025769043,1727389420.0257692,2024-09-26 22:23:40.025769216,3,[ 0.02055315 -0.03000192  0.01705362 -0.17362154],-0.0,-7.743131666148558,[ 0.02055315 -0.03000192  0.01705362 -0.17362154],[ 0.02055315 -0.03000192  0.01705362 -0.17362154],[1.42441643 0.78952365 0.61561676],"[ 1.41235178e+00  7.84392195e-01  6.24416964e-01  1.40863302e+00
  7.84104622e-01  6.08027446e-01 -3.71875229e-03 -2.87572771e-04
 -1.63895175e-02  2.38213771e-02  2.42942868e-02  1.18522822e-04
  9.08376023e-04  1.55408063e-02  1.24472156e-05 -5.25913525e-05
 -3.02562014e-05  4.70378123e-04 -1.03564782e-04  1.09055599e-05
  4.93761480e-04 -6.93156650e-04  3.25985013e-04 -6.96343883e-05
  6.97758462e-05]",0.5978031754493713,0,0
46,67,2024-09-26 22:23:38.974932736,TASK_BEGIN,20,-0.5926374228362398,-0.1489935062694807,-4.017359521879152,0.320926999802852,0.0145405920339525,-0.1911773409339451,-8.02392542814311,0.6030643203649624,1,2024-09-26 22:23:41.646270020,1727389421.6462703,2024-09-26 22:23:41.646270208,4,[ 0.9985814  -0.33679947 -0.23457375  0.22622275],-1.0,-1.0,[ 0.9985814  -0.33679947 -0.23457375  0.22622275],[ 0.9985814  -0.33679947 -0.23457375  0.22622275],[1.42044725 0.73735161 0.42469975],"[ 1.37140959e+00  7.38625493e-01  5.27171536e-01  1.48920778e+00
  6.98648575e-01  4.24737381e-01  1.17798192e-01 -3.99769180e-02
 -1.02434154e-01  4.10181800e-02  4.03932044e-02 -5.03884423e-08
  7.75206804e-08 -2.39074268e-16 -2.57926283e-02  8.89055845e-03
  6.49857479e-03  2.85323085e-08 -4.38958592e-08  1.07716943e-18
  2.57926272e-02 -8.89055916e-03 -6.47190923e-03  7.05438837e-02
  7.02468323e-02]",0.9640700221061707,0,0
47,68,2024-09-26 22:23:39.031149824,TASK_BEGIN,20,-0.605440451219738,-0.1433870789515823,-4.071997493894786,0.3210623505154398,0.0335200908135923,-0.1928106466615685,-7.756257035247136,0.5155823926121914,1,2024-09-26 22:23:41.646270020,1727389421.6462703,2024-09-26 22:23:41.646270208,4,[ 0.9985814  -0.33679947 -0.23457375  0.22622275],-1.0,-1.0,[ 0.9985814  -0.33679947 -0.23457375  0.22622275],[ 0.9985814  -0.33679947 -0.23457375  0.22622275],[1.42044725 0.73735161 0.42469975],"[ 1.37140959e+00  7.38625493e-01  5.27171536e-01  1.48920778e+00
  6.98648575e-01  4.24737381e-01  1.17798192e-01 -3.99769180e-02
 -1.02434154e-01  4.10181800e-02  4.03932044e-02 -5.03884423e-08
  7.75206804e-08 -2.39074268e-16 -2.57926283e-02  8.89055845e-03
  6.49857479e-03  2.85323085e-08 -4.38958592e-08  1.07716943e-18
  2.57926272e-02 -8.89055916e-03 -6.47190923e-03  7.05438837e-02
  7.02468323e-02]",0.9640700221061707,0,0
48,69,2024-09-26 22:23:39.107845888,TASK_BEGIN,20,-0.6185844871215771,-0.137316389495174,-4.121330442540518,0.3219575406778414,0.0563955071629886,-0.1942835987959575,-7.427574567604955,0.4181017662538136,1,2024-09-26 22:23:41.760250000,1727389421.7602506,2024-09-26 22:23:41.760250624,4,[ 0.9999607  -0.47797266 -0.3429077  -0.02179972],-1.0,-1.99,[ 0.9999607  -0.47797266 -0.3429077  -0.02179972],[ 0.9999607  -0.47797266 -0.3429077  -0.02179972],[1.42044725 0.73735161 0.42469975],"[ 1.40350141e+00  7.22839944e-01  5.15563471e-01  1.48920778e+00
  6.98648575e-01  4.24757513e-01  8.57063648e-02 -2.41913696e-02
 -9.08059575e-02  4.91303734e-02  4.92509814e-02 -2.88713263e-08
  4.44174251e-08 -1.54909645e-15 -2.29046624e-02  1.15509597e-02
  8.51136833e-03  1.62724006e-08 -2.50344625e-08  1.86292485e-19
  2.29046618e-02 -1.15509601e-02 -8.49613235e-03 -1.23186532e-02
 -1.11387414e-02]",0.9721709489822388,0,0
49,70,2024-09-26 22:23:39.171056896,TASK_BEGIN,20,-0.6312836223621406,-0.1309224418777493,-4.162021728490706,0.3232958985249659,0.0824142038550959,-0.1956671086487637,-7.051815490899384,0.3146060558826671,1,2024-09-26 22:23:41.866239990,1727389421.8662403,2024-09-26 22:23:41.866240256,4,[ 0.99956167 -0.37272036 -0.54134065  0.19643678],-1.0,-2.9701,[ 0.99956167 -0.37272036 -0.54134065  0.19643678],[ 0.99956167 -0.37272036 -0.54134065  0.19643678],[1.42044725 0.73735161 0.42469975],"[ 1.43481655e+00  7.10101156e-01  4.97609688e-01  1.48920778e+00
  6.98648574e-01  4.24769027e-01  5.43912244e-02 -1.14525812e-02
 -7.28406602e-02  5.06682199e-02  5.04434351e-02 -1.65741696e-08
  2.54987225e-08 -1.98058346e-15 -2.30033979e-02  8.45900279e-03
  1.35146245e-02  9.31711994e-09 -1.43340307e-08 -1.37616908e-18
  2.30033975e-02 -8.45900303e-03 -1.35059027e-02 -1.61588886e-03
 -1.05242511e-03]",1.0696611404418945,0,0
50,71,2024-09-26 22:23:39.233545216,TASK_BEGIN,20,-0.6427009985135218,-0.1243752517296455,-4.191349033704968,0.3247398854203652,0.1110485198228035,-0.197087280865289,-6.644993583273062,0.2093547645617262,1,2024-09-26 22:23:41.866239990,1727389421.8662403,2024-09-26 22:23:41.866240256,4,[ 0.99956167 -0.37272036 -0.54134065  0.19643678],-1.0,-2.9701,[ 0.99956167 -0.37272036 -0.54134065  0.19643678],[ 0.99956167 -0.37272036 -0.54134065  0.19643678],[1.42044725 0.73735161 0.42469975],"[ 1.43481655e+00  7.10101156e-01  4.97609688e-01  1.48920778e+00
  6.98648574e-01  4.24769027e-01  5.43912244e-02 -1.14525812e-02
 -7.28406602e-02  5.06682199e-02  5.04434351e-02 -1.65741696e-08
  2.54987225e-08 -1.98058346e-15 -2.30033979e-02  8.45900279e-03
  1.35146245e-02  9.31711994e-09 -1.43340307e-08 -1.37616908e-18
  2.30033975e-02 -8.45900303e-03 -1.35059027e-02 -1.61588886e-03
 -1.05242511e-03]",1.0696611404418945,0,0
51,72,2024-09-26 22:23:40.164303872,TASK_BEGIN,20,-0.651989768889597,-0.1178619989436709,-4.207513495096815,0.3259877062089977,0.1419992868565292,-0.1987290584418466,-6.223890244800467,0.1066309330950176,1,2024-09-26 22:23:42.827059082,1727389422.8270593,2024-09-26 22:23:42.827059200,4,[-0.99999684 -0.3501532   0.19485915 -0.13543226],-1.0,-11.361512828387072,[-0.99999684 -0.3501532   0.19485915 -0.13543226],[ 0.99281615  0.8050414   0.08514088 -0.24340038],[1.42044725 0.73735161 0.42469975],"[ 1.29155069e+00  6.46524217e-01  4.73907896e-01  1.29979940e+00
  6.46580470e-01  4.51712975e-01  8.24870887e-03  5.62536850e-05
 -2.21949207e-02  2.43175577e-02  2.38125042e-02 -5.41984468e-06
  3.39189053e-03  1.46707091e-02  3.27778524e-04 -3.74636217e-05
  5.63290955e-06  1.05177268e-03 -5.15547033e-04  1.62581771e-04
 -2.37418523e-02 -8.16416996e-03  4.70285645e-03 -1.48162434e-04
  1.18193961e-04]",1.4450032711029053,0,0
52,73,2024-09-26 22:23:40.220749056,TASK_BEGIN,20,-0.6583582821516386,-0.1115683618544733,-4.209927409111174,0.326824562564856,0.1751304903977367,-0.200828946048274,-5.804923183091892,0.0104685244392044,1,2024-09-26 22:23:42.827059082,1727389422.8270593,2024-09-26 22:23:42.827059200,4,[-0.99999684 -0.3501532   0.19485915 -0.13543226],-1.0,-11.361512828387072,[-0.99999684 -0.3501532   0.19485915 -0.13543226],[ 0.99281615  0.8050414   0.08514088 -0.24340038],[1.42044725 0.73735161 0.42469975],"[ 1.29155069e+00  6.46524217e-01  4.73907896e-01  1.29979940e+00
  6.46580470e-01  4.51712975e-01  8.24870887e-03  5.62536850e-05
 -2.21949207e-02  2.43175577e-02  2.38125042e-02 -5.41984468e-06
  3.39189053e-03  1.46707091e-02  3.27778524e-04 -3.74636217e-05
  5.63290955e-06  1.05177268e-03 -5.15547033e-04  1.62581771e-04
 -2.37418523e-02 -8.16416996e-03  4.70285645e-03 -1.48162434e-04
  1.18193961e-04]",1.4450032711029053,0,0
53,74,2024-09-26 22:23:40.299934976,TASK_BEGIN,20,-0.6611255442597782,-0.1056633420630195,-4.199519368786561,0.3271702024284431,0.2103693494132141,-0.2036557412399118,-5.403374339130549,-0.0755701910045411,1,2024-09-26 22:23:42.935664795,1727389422.9356651,2024-09-26 22:23:42.935665152,4,[-0.99989027 -0.45309913  0.19493285 -0.14226092],-1.0,-12.247897700103202,[-0.99989027 -0.45309913  0.19493285 -0.14226092],[ 0.99998814  0.60433614  0.05633574 -0.22596928],[1.42044725 0.73735161 0.42469975],"[ 1.25850181e+00  6.32084224e-01  4.80213954e-01  1.26708343e+00
  6.32152615e-01  4.58078831e-01  8.58161846e-03  6.83915926e-05
 -2.21351234e-02  2.43882928e-02  2.37416350e-02 -1.77188963e-04
  3.22703927e-03  1.48545557e-02  2.79967970e-04 -1.22791190e-04
  1.05058002e-05  1.38169512e-04 -3.92727396e-04 -1.51727361e-05
 -2.37017849e-02 -1.06780146e-02  4.54249965e-03 -1.92906021e-04
  1.74346677e-04]",1.5062763690948486,0,0
54,75,2024-09-26 22:23:40.367705088,TASK_BEGIN,20,-0.659745079023445,-0.1002918618011519,-4.178898322113132,0.3271136446002461,0.2475943161521634,-0.2074766151948729,-5.032915194830424,-0.1485349776008433,1,2024-09-26 22:23:43.043723145,1727389423.0437238,2024-09-26 22:23:43.043723776,4,[-0.9960483  -0.85903215  0.05788571 -0.150344  ],-1.0,-13.12541872310217,[-0.9960483  -0.85903215  0.05788571 -0.150344  ],[ 0.9999995   0.62412596  0.07954334 -0.22065064],[1.42044725 0.73735161 0.42469975],"[ 1.22540763e+00  6.05174313e-01  4.82408865e-01  1.23439184e+00
  6.05459089e-01  4.60245038e-01  8.98421914e-03  2.84776053e-04
 -2.21638270e-02  2.47727928e-02  2.33577838e-02 -3.68774667e-04
  3.06478412e-03  1.49504674e-02  3.18147217e-04 -2.93425381e-05
 -5.81073622e-05  2.98141075e-04 -2.86852653e-04 -2.40010390e-04
 -2.36055389e-02 -2.08797329e-02  9.90102321e-04 -1.28762867e-04
  5.98319680e-05]",1.7153739929199219,1,1
55,76,2024-09-26 22:23:40.421335040,TASK_BEGIN,20,-0.653805970578935,-0.0955718833703354,-4.152124416237689,0.3269133213966614,0.2865329251786971,-0.2125110137315583,-4.705216442826047,-0.2061845403080464,1,2024-09-26 22:23:43.043723145,1727389423.0437238,2024-09-26 22:23:43.043723776,4,[-0.9960483  -0.85903215  0.05788571 -0.150344  ],-1.0,-13.12541872310217,[-0.9960483  -0.85903215  0.05788571 -0.150344  ],[ 0.9999995   0.62412596  0.07954334 -0.22065064],[1.42044725 0.73735161 0.42469975],"[ 1.22540763e+00  6.05174313e-01  4.82408865e-01  1.23439184e+00
  6.05459089e-01  4.60245038e-01  8.98421914e-03  2.84776053e-04
 -2.21638270e-02  2.47727928e-02  2.33577838e-02 -3.68774667e-04
  3.06478412e-03  1.49504674e-02  3.18147217e-04 -2.93425381e-05
 -5.81073622e-05  2.98141075e-04 -2.86852653e-04 -2.40010390e-04
 -2.36055389e-02 -2.08797329e-02  9.90102321e-04 -1.28762867e-04
  5.98319680e-05]",1.7153739929199219,1,1
56,77,2024-09-26 22:23:40.503280896,TASK_BEGIN,20,-0.6430352118114644,-0.0915915915338066,-4.124082957905036,0.3269642242101599,0.3266959477492591,-0.2188847535151858,-4.429534674767482,-0.2470877886250232,1,2024-09-26 22:23:43.043723145,1727389423.0437238,2024-09-26 22:23:43.043723776,4,[-0.9960483  -0.85903215  0.05788571 -0.150344  ],-1.0,-13.12541872310217,[-0.9960483  -0.85903215  0.05788571 -0.150344  ],[ 0.9999995   0.62412596  0.07954334 -0.22065064],[1.42044725 0.73735161 0.42469975],"[ 1.22540763e+00  6.05174313e-01  4.82408865e-01  1.23439184e+00
  6.05459089e-01  4.60245038e-01  8.98421914e-03  2.84776053e-04
 -2.21638270e-02  2.47727928e-02  2.33577838e-02 -3.68774667e-04
  3.06478412e-03  1.49504674e-02  3.18147217e-04 -2.93425381e-05
 -5.81073622e-05  2.98141075e-04 -2.86852653e-04 -2.40010390e-04
 -2.36055389e-02 -2.08797329e-02  9.90102321e-04 -1.28762867e-04
  5.98319680e-05]",1.7153739929199219,1,1
57,78,2024-09-26 22:23:40.560246784,TASK_BEGIN,20,-0.6273191765539979,-0.0884053739946319,-4.099710833782249,0.3277560400246623,0.3673698318259419,-0.2266005663462404,-4.212320075336227,-0.2707343125974484,1,2024-09-26 22:23:43.043723145,1727389423.0437238,2024-09-26 22:23:43.043723776,4,[-0.9960483  -0.85903215  0.05788571 -0.150344  ],-1.0,-13.12541872310217,[-0.9960483  -0.85903215  0.05788571 -0.150344  ],[ 0.9999995   0.62412596  0.07954334 -0.22065064],[1.42044725 0.73735161 0.42469975],"[ 1.22540763e+00  6.05174313e-01  4.82408865e-01  1.23439184e+00
  6.05459089e-01  4.60245038e-01  8.98421914e-03  2.84776053e-04
 -2.21638270e-02  2.47727928e-02  2.33577838e-02 -3.68774667e-04
  3.06478412e-03  1.49504674e-02  3.18147217e-04 -2.93425381e-05
 -5.81073622e-05  2.98141075e-04 -2.86852653e-04 -2.40010390e-04
 -2.36055389e-02 -2.08797329e-02  9.90102321e-04 -1.28762867e-04
  5.98319680e-05]",1.7153739929199219,1,1
58,79,2024-09-26 22:23:41.501395968,TASK_BEGIN,20,-0.6067552201397953,-0.0860275436386381,-4.083310395942908,0.3298306634360392,0.4076785803566957,-0.2355358682201302,-4.056909686148767,-0.2776237143530844,1,2024-09-26 22:23:43.473231934,1727389423.473232,2024-09-26 22:23:43.473232128,4,[-0.1264108   0.03196624  0.00563358 -0.01382998],-1.0,-16.54862385499124,[-0.1264108   0.03196624  0.00563358 -0.01382998],[ 0.9999933   0.5338119   0.02411673 -0.32141328],[1.42044725 0.73735161 0.42469975],"[ 1.19203977e+00  6.03108064e-01  4.86187698e-01  1.20117248e+00
  6.01718529e-01  4.63828198e-01  9.13271710e-03 -1.38953483e-03
 -2.23595001e-02  2.30512561e-02  2.60244455e-02  7.07566109e-05
  3.10604405e-03  1.15368211e-02  1.45536191e-05 -2.18855577e-04
 -5.97862724e-05 -1.17113422e-03  6.86896715e-05 -8.69215106e-04
 -2.94930088e-03  7.60169803e-04  7.84937449e-05 -2.51736944e-05
  2.30425533e-04]",0.745971143245697,1,1
59,80,2024-09-26 22:23:41.581161984,TASK_BEGIN,20,-0.5817335208090857,-0.0844212422566747,-4.0780568904060965,0.3337285720455367,0.4467020070428977,-0.2454667674984235,-3.963396979121201,-0.2692819677710557,1,2024-09-26 22:23:43.580230957,1727389423.5802314,2024-09-26 22:23:43.580231424,4,[-0.09365528  0.02064241  0.00222941 -0.01934871],-1.0,-17.383137616441328,[-0.09365528  0.02064241  0.00222941 -0.01934871],[ 0.9999908   0.52220124  0.02490909 -0.32828522],[1.42044725 0.73735161 0.42469975],"[ 1.18888180e+00  6.03815276e-01  4.86189917e-01  1.19802808e+00
  6.02328136e-01  4.63776481e-01  9.14627820e-03 -1.48714044e-03
 -2.24134357e-02  2.28421092e-02  2.60064538e-02 -8.94932304e-05
  3.19624161e-03  1.19040361e-02  1.23925187e-05 -6.84842931e-05
 -5.27852802e-05 -4.00624975e-04  9.16082666e-05  6.46771563e-04
 -2.11941526e-03  4.56154178e-04 -1.38135099e-05 -1.83660266e-04
 -7.61008433e-05]",0.7363165616989136,1,1
60,81,2024-09-26 22:23:41.640779008,TASK_BEGIN,20,-0.5530161244808662,-0.0834844777641211,-4.08572478795425,0.3399202181398938,0.4836088453273964,-0.2561052566262624,-3.9288365181217375,-0.2481433612654819,1,2024-09-26 22:23:43.580230957,1727389423.5802314,2024-09-26 22:23:43.580231424,4,[-0.09365528  0.02064241  0.00222941 -0.01934871],-1.0,-17.383137616441328,[-0.09365528  0.02064241  0.00222941 -0.01934871],[ 0.9999908   0.52220124  0.02490909 -0.32828522],[1.42044725 0.73735161 0.42469975],"[ 1.18888180e+00  6.03815276e-01  4.86189917e-01  1.19802808e+00
  6.02328136e-01  4.63776481e-01  9.14627820e-03 -1.48714044e-03
 -2.24134357e-02  2.28421092e-02  2.60064538e-02 -8.94932304e-05
  3.19624161e-03  1.19040361e-02  1.23925187e-05 -6.84842931e-05
 -5.27852802e-05 -4.00624975e-04  9.16082666e-05  6.46771563e-04
 -2.11941526e-03  4.56154178e-04 -1.38135099e-05 -1.83660266e-04
 -7.61008433e-05]",0.7363165616989136,1,1
61,82,2024-09-26 22:23:41.716718080,TASK_BEGIN,20,-0.5217516589232408,-0.0830430825103133,-4.10661417857962,0.34872988434066,0.5177591914942954,-0.2671328225751618,-3.9478858297110455,-0.2172735547241912,1,2024-09-26 22:23:43.686233154,1727389423.686233,2024-09-26 22:23:43.686233088,4,[-0.07346729  0.01786878  0.0045456  -0.02172967],-1.0,-18.209306240276913,[-0.07346729  0.01786878  0.0045456  -0.02172967],[ 0.99999064  0.5086869   0.03091123 -0.32708368],[1.42044725 0.73735161 0.42469975],"[ 1.18642662e+00  6.04405701e-01  4.86250126e-01  1.19558420e+00
  6.02896388e-01  4.63788008e-01  9.15757672e-03 -1.50931313e-03
 -2.24621182e-02  2.26419241e-02  2.58980299e-02  1.15476805e-04
  3.30095046e-03  1.28347378e-02  8.89769108e-06  1.57981266e-04
 -4.95028364e-05  3.34361699e-03  1.07848792e-04  8.13821758e-04
 -1.68577359e-03  4.16954710e-04  5.78546983e-05 -1.33635899e-04
 -8.38756694e-05]",0.729887843132019,1,1
62,83,2024-09-26 22:23:41.780160000,TASK_BEGIN,20,-0.4893932044705453,-0.0828597984498521,-4.13961730944797,0.3602613519209641,0.5487458592300779,-0.278220756743689,-4.013776565324529,-0.1799924010110183,1,2024-09-26 22:23:43.686233154,1727389423.686233,2024-09-26 22:23:43.686233088,4,[-0.07346729  0.01786878  0.0045456  -0.02172967],-1.0,-18.209306240276913,[-0.07346729  0.01786878  0.0045456  -0.02172967],[ 0.99999064  0.5086869   0.03091123 -0.32708368],[1.42044725 0.73735161 0.42469975],"[ 1.18642662e+00  6.04405701e-01  4.86250126e-01  1.19558420e+00
  6.02896388e-01  4.63788008e-01  9.15757672e-03 -1.50931313e-03
 -2.24621182e-02  2.26419241e-02  2.58980299e-02  1.15476805e-04
  3.30095046e-03  1.28347378e-02  8.89769108e-06  1.57981266e-04
 -4.95028364e-05  3.34361699e-03  1.07848792e-04  8.13821758e-04
 -1.68577359e-03  4.16954710e-04  5.78546983e-05 -1.33635899e-04
 -8.38756694e-05]",0.729887843132019,1,1
63,84,2024-09-26 22:23:41.841766144,TASK_BEGIN,20,-0.4575608571840084,-0.0826578185681921,-4.182372310350207,0.3743391505178937,0.5763649520832014,-0.2890387336356739,-4.119304859416477,-0.1395083897616172,1,2024-09-26 22:23:44.432506104,1727389424.4325066,2024-09-26 22:23:44.432506624,4,[-0.0064021  -0.00429968  0.00485062 -0.0277923 ],-1.0,-23.76572856528962,[-0.0064021  -0.00429968  0.00485062 -0.0277923 ],[ 0.9999924   0.47856733  0.03579408 -0.32663745],[1.42044725 0.73735161 0.42469975],"[ 1.18127764e+00  6.04198839e-01  4.86839849e-01  1.19050931e+00
  6.04605611e-01  4.64058883e-01  9.23166871e-03  4.06771585e-04
 -2.27809663e-02  2.43375758e-02  2.37916027e-02 -9.05618506e-05
  4.15047906e-03  1.50813948e-02  1.18948927e-05 -4.55437833e-04
 -4.56788299e-05 -3.71701451e-03  1.12627775e-04  3.56611042e-05
 -1.42360454e-04 -9.65053431e-05 -2.37267291e-05 -2.97720462e-04
  2.97606708e-04]",0.7274169921875,1,1
64,85,2024-09-26 22:23:41.920107008,TASK_BEGIN,20,-0.4279218871468548,-0.0821489745895149,-4.231529891001327,0.3904862873423871,0.6005393056710115,-0.2992608825274584,-4.257519415678188,-0.0986473756112737,1,2024-09-26 22:23:44.432506104,1727389424.4325066,2024-09-26 22:23:44.432506624,4,[-0.0064021  -0.00429968  0.00485062 -0.0277923 ],-1.0,-23.76572856528962,[-0.0064021  -0.00429968  0.00485062 -0.0277923 ],[ 0.9999924   0.47856733  0.03579408 -0.32663745],[1.42044725 0.73735161 0.42469975],"[ 1.18127764e+00  6.04198839e-01  4.86839849e-01  1.19050931e+00
  6.04605611e-01  4.64058883e-01  9.23166871e-03  4.06771585e-04
 -2.27809663e-02  2.43375758e-02  2.37916027e-02 -9.05618506e-05
  4.15047906e-03  1.50813948e-02  1.18948927e-05 -4.55437833e-04
 -4.56788299e-05 -3.71701451e-03  1.12627775e-04  3.56611042e-05
 -1.42360454e-04 -9.65053431e-05 -2.37267291e-05 -2.97720462e-04
  2.97606708e-04]",0.7274169921875,1,1
65,86,2024-09-26 22:23:42.863580928,TASK_BEGIN,20,-0.4021077436041727,-0.0810606059171746,-4.283165365584588,0.4079505167795115,0.6212471925652537,-0.3085779789179982,-4.422007663329741,-0.0596920842463137,1,2024-09-26 22:23:45.306094971,1727389425.3060951,2024-09-26 22:23:45.306095104,4,[-0.00119249 -0.00177208  0.00665001 -0.02765657],-1.0,-29.655230500043047,[-0.00119249 -0.00177208  0.00665001 -0.02765657],[ 0.9999917   0.4754804   0.03855335 -0.32865775],[1.42044725 0.73735161 0.42469975],"[ 1.18057430e+00  6.03550660e-01  4.87000763e-01  1.18988614e+00
  6.03783955e-01  4.63859332e-01  9.31183982e-03  2.33294570e-04
 -2.31414310e-02  2.41665558e-02  2.39628669e-02 -1.92812516e-04
  5.15404830e-03  1.50792266e-02  1.02230395e-05 -2.74423015e-05
 -4.52184950e-05 -5.19301379e-04  1.25189157e-04 -7.46504759e-06
 -2.25313107e-05 -4.29510160e-05  1.95475116e-05 -7.38427807e-06
  7.48602278e-06]",0.7248820662498474,1,1
66,87,2024-09-26 22:23:42.931389184,TASK_BEGIN,20,-0.381621295506483,-0.0791626016274444,-4.333267465431223,0.4257731106945991,0.6384967488132663,-0.3167165248633354,-4.606891045625744,-0.0243236377986292,1,2024-09-26 22:23:45.306094971,1727389425.3060951,2024-09-26 22:23:45.306095104,4,[-0.00119249 -0.00177208  0.00665001 -0.02765657],-1.0,-29.655230500043047,[-0.00119249 -0.00177208  0.00665001 -0.02765657],[ 0.9999917   0.4754804   0.03855335 -0.32865775],[1.42044725 0.73735161 0.42469975],"[ 1.18057430e+00  6.03550660e-01  4.87000763e-01  1.18988614e+00
  6.03783955e-01  4.63859332e-01  9.31183982e-03  2.33294570e-04
 -2.31414310e-02  2.41665558e-02  2.39628669e-02 -1.92812516e-04
  5.15404830e-03  1.50792266e-02  1.02230395e-05 -2.74423015e-05
 -4.52184950e-05 -5.19301379e-04  1.25189157e-04 -7.46504759e-06
 -2.25313107e-05 -4.29510160e-05  1.95475116e-05 -7.38427807e-06
  7.48602278e-06]",0.7248820662498474,1,1
67,88,2024-09-26 22:23:42.999187968,TASK_BEGIN,20,-0.3676959429499695,-0.0762951840564759,-4.378258617796718,0.4428959819445917,0.652337392407013,-0.3234576678377348,-4.806584079553979,0.0063253478395255,1,2024-09-26 22:23:45.306094971,1727389425.3060951,2024-09-26 22:23:45.306095104,4,[-0.00119249 -0.00177208  0.00665001 -0.02765657],-1.0,-29.655230500043047,[-0.00119249 -0.00177208  0.00665001 -0.02765657],[ 0.9999917   0.4754804   0.03855335 -0.32865775],[1.42044725 0.73735161 0.42469975],"[ 1.18057430e+00  6.03550660e-01  4.87000763e-01  1.18988614e+00
  6.03783955e-01  4.63859332e-01  9.31183982e-03  2.33294570e-04
 -2.31414310e-02  2.41665558e-02  2.39628669e-02 -1.92812516e-04
  5.15404830e-03  1.50792266e-02  1.02230395e-05 -2.74423015e-05
 -4.52184950e-05 -5.19301379e-04  1.25189157e-04 -7.46504759e-06
 -2.25313107e-05 -4.29510160e-05  1.95475116e-05 -7.38427807e-06
  7.48602278e-06]",0.7248820662498474,1,1
68,89,2024-09-26 22:23:43.066955008,TASK_BEGIN,20,-0.3611335788432301,-0.0723911975476084,-4.415630726922021,0.4583124009822019,0.662862179161733,-0.3286479285604586,-5.015254447356375,0.031508001372773,1,2024-09-26 22:23:45.306094971,1727389425.3060951,2024-09-26 22:23:45.306095104,4,[-0.00119249 -0.00177208  0.00665001 -0.02765657],-1.0,-29.655230500043047,[-0.00119249 -0.00177208  0.00665001 -0.02765657],[ 0.9999917   0.4754804   0.03855335 -0.32865775],[1.42044725 0.73735161 0.42469975],"[ 1.18057430e+00  6.03550660e-01  4.87000763e-01  1.18988614e+00
  6.03783955e-01  4.63859332e-01  9.31183982e-03  2.33294570e-04
 -2.31414310e-02  2.41665558e-02  2.39628669e-02 -1.92812516e-04
  5.15404830e-03  1.50792266e-02  1.02230395e-05 -2.74423015e-05
 -4.52184950e-05 -5.19301379e-04  1.25189157e-04 -7.46504759e-06
 -2.25313107e-05 -4.29510160e-05  1.95475116e-05 -7.38427807e-06
  7.48602278e-06]",0.7248820662498474,1,1
69,90,2024-09-26 22:23:43.126144000,TASK_BEGIN,20,-0.3621851161953283,-0.0674850934734925,-4.44469509590824,0.4712484462475654,0.6701703379443673,-0.3321990074555719,-5.22610036330795,0.0506575509515391,1,2024-09-26 22:23:45.306094971,1727389425.3060951,2024-09-26 22:23:45.306095104,4,[-0.00119249 -0.00177208  0.00665001 -0.02765657],-1.0,-29.655230500043047,[-0.00119249 -0.00177208  0.00665001 -0.02765657],[ 0.9999917   0.4754804   0.03855335 -0.32865775],[1.42044725 0.73735161 0.42469975],"[ 1.18057430e+00  6.03550660e-01  4.87000763e-01  1.18988614e+00
  6.03783955e-01  4.63859332e-01  9.31183982e-03  2.33294570e-04
 -2.31414310e-02  2.41665558e-02  2.39628669e-02 -1.92812516e-04
  5.15404830e-03  1.50792266e-02  1.02230395e-05 -2.74423015e-05
 -4.52184950e-05 -5.19301379e-04  1.25189157e-04 -7.46504759e-06
 -2.25313107e-05 -4.29510160e-05  1.95475116e-05 -7.38427807e-06
  7.48602278e-06]",0.7248820662498474,1,1
70,91,2024-09-26 22:23:43.188628992,TASK_BEGIN,20,-0.3705158071266413,-0.0617065597350219,-4.467169900423984,0.4813307233003639,0.6743107901671639,-0.3340812369912381,-5.43087266613392,0.0632483575777099,1,2024-09-26 22:23:45.845094971,1727389425.8450956,2024-09-26 22:23:45.845095680,4,[-0.00109925 -0.00040222  0.00731562 -0.02843674],-1.0,-33.10282414303194,[-0.00109925 -0.00040222  0.00731562 -0.02843674],[ 0.9999912   0.4731925   0.03729164 -0.32788208],[1.42044725 0.73735161 0.42469975],"[ 1.18040411e+00  6.03434713e-01  4.87238374e-01  1.18976433e+00
  6.03543318e-01  4.63873210e-01  9.36022394e-03  1.08605477e-04
 -2.33651642e-02  2.40242526e-02  2.41062609e-02  1.90914325e-04
  5.79351198e-03  1.50623242e-02  9.60631686e-06  2.94471074e-05
 -4.50440186e-05  6.11511372e-04  1.30981308e-04 -2.35066903e-06
 -2.05913520e-05 -1.05204197e-05  3.70326917e-05  5.25993507e-06
 -5.59678504e-06]",0.7248983383178711,1,1
71,92,2024-09-26 22:23:43.266400000,TASK_BEGIN,20,-0.3852647838120829,-0.0552616508372204,-4.487232799707829,0.4886860174915343,0.6752511166493447,-0.3343189612195792,-5.620058312521625,0.0687927790622164,1,2024-09-26 22:23:45.845094971,1727389425.8450956,2024-09-26 22:23:45.845095680,4,[-0.00109925 -0.00040222  0.00731562 -0.02843674],-1.0,-33.10282414303194,[-0.00109925 -0.00040222  0.00731562 -0.02843674],[ 0.9999912   0.4731925   0.03729164 -0.32788208],[1.42044725 0.73735161 0.42469975],"[ 1.18040411e+00  6.03434713e-01  4.87238374e-01  1.18976433e+00
  6.03543318e-01  4.63873210e-01  9.36022394e-03  1.08605477e-04
 -2.33651642e-02  2.40242526e-02  2.41062609e-02  1.90914325e-04
  5.79351198e-03  1.50623242e-02  9.60631686e-06  2.94471074e-05
 -4.50440186e-05  6.11511372e-04  1.30981308e-04 -2.35066903e-06
 -2.05913520e-05 -1.05204197e-05  3.70326917e-05  5.25993507e-06
 -5.59678504e-06]",0.7248983383178711,1,1
72,93,2024-09-26 22:23:44.205731072,TASK_BEGIN,20,-0.4051868074983557,-0.0484046810436782,-4.510883981766287,0.4939383195287527,0.67288219788894,-0.3329904885209613,-5.783766215139293,0.066962015869496,1,2024-09-26 22:23:46.594830078,1727389426.59483,2024-09-26 22:23:46.594830080,4,[-0.0009972  -0.00101686  0.00775787 -0.0289921 ],-1.0,-37.647460510879974,[-0.0009972  -0.00101686  0.00775787 -0.0289921 ],[ 0.99999136  0.47347224  0.03744044 -0.32893112],[1.42044725 0.73735161 0.42469975],"[ 1.18024230e+00  6.03268128e-01  4.87659713e-01  1.18966863e+00
  6.03415221e-01  4.63983158e-01  9.42633789e-03  1.47092589e-04
 -2.36765545e-02  2.40683391e-02  2.40626626e-02  3.35114537e-05
  6.70159154e-03  1.50412238e-02  1.04711275e-05 -9.00405279e-05
 -4.49779437e-05 -1.88797640e-03  1.25220902e-04  1.38880187e-05
 -1.86800891e-05 -2.46791021e-05  4.73661370e-05 -6.98698786e-06
  6.69555977e-06]",0.7257601618766785,1,1
73,94,2024-09-26 22:23:44.268215808,TASK_BEGIN,20,-0.4288413226701595,-0.0414041146811672,-4.544775300646973,0.4981057710734204,0.6670302496086962,-0.3302257805554868,-5.91298179590962,0.057772632726906,1,2024-09-26 22:23:46.914954834,1727389426.9149556,2024-09-26 22:23:46.914955520,4,[-0.00084078 -0.00101575  0.00799722 -0.02960635],-1.0,-39.49939328624633,[-0.00084078 -0.00101575  0.00799722 -0.02960635],[ 0.999991    0.4715863   0.03565056 -0.3273624 ],[1.42044725 0.73735161 0.42469975],"[ 1.18017194e+00  6.03153434e-01  4.87892355e-01  1.18962592e+00
  6.03286598e-01  4.64083015e-01  9.45398272e-03  1.33163766e-04
 -2.38093401e-02  2.40594948e-02  2.40717588e-02 -9.32119438e-05
  7.09577115e-03  1.50311118e-02  1.06880283e-05 -1.12199683e-04
 -4.48793291e-05 -2.61250817e-03  1.24072287e-04  2.01319371e-05
 -1.46744298e-05 -2.35443602e-05  5.29450737e-05  1.99860245e-06
 -1.47419356e-06]",0.7261118292808533,1,1
74,95,2024-09-26 22:23:44.349178880,TASK_BEGIN,20,-0.4547838727348532,-0.0345073794535401,-4.594817126286685,0.502425179109965,0.6574523895956464,-0.3261942295676402,-6.000756852239852,0.0417588553156506,1,2024-09-26 22:23:46.914954834,1727389426.9149556,2024-09-26 22:23:46.914955520,4,[-0.00084078 -0.00101575  0.00799722 -0.02960635],-1.0,-39.49939328624633,[-0.00084078 -0.00101575  0.00799722 -0.02960635],[ 0.999991    0.4715863   0.03565056 -0.3273624 ],[1.42044725 0.73735161 0.42469975],"[ 1.18017194e+00  6.03153434e-01  4.87892355e-01  1.18962592e+00
  6.03286598e-01  4.64083015e-01  9.45398272e-03  1.33163766e-04
 -2.38093401e-02  2.40594948e-02  2.40717588e-02 -9.32119438e-05
  7.09577115e-03  1.50311118e-02  1.06880283e-05 -1.12199683e-04
 -4.48793291e-05 -2.61250817e-03  1.24072287e-04  2.01319371e-05
 -1.46744298e-05 -2.35443602e-05  5.29450737e-05  1.99860245e-06
 -1.47419356e-06]",0.7261118292808533,1,1
75,96,2024-09-26 22:23:44.407889920,TASK_BEGIN,20,-0.4817266432713279,-0.0279112096479853,-4.664863742577287,0.5081333761381208,0.6438132428414272,-0.3210819480425881,-6.043040464093091,0.0200286693934981,1,2024-09-26 22:23:46.914954834,1727389426.9149556,2024-09-26 22:23:46.914955520,4,[-0.00084078 -0.00101575  0.00799722 -0.02960635],-1.0,-39.49939328624633,[-0.00084078 -0.00101575  0.00799722 -0.02960635],[ 0.999991    0.4715863   0.03565056 -0.3273624 ],[1.42044725 0.73735161 0.42469975],"[ 1.18017194e+00  6.03153434e-01  4.87892355e-01  1.18962592e+00
  6.03286598e-01  4.64083015e-01  9.45398272e-03  1.33163766e-04
 -2.38093401e-02  2.40594948e-02  2.40717588e-02 -9.32119438e-05
  7.09577115e-03  1.50311118e-02  1.06880283e-05 -1.12199683e-04
 -4.48793291e-05 -2.61250817e-03  1.24072287e-04  2.01319371e-05
 -1.46744298e-05 -2.35443602e-05  5.29450737e-05  1.99860245e-06
 -1.47419356e-06]",0.7261118292808533,1,1
76,97,2024-09-26 22:23:44.484553984,TASK_BEGIN,20,-0.5086477658618556,-0.0217435096206539,-4.755740946494565,0.516242497331569,0.6256561197751015,-0.3150649010462276,-6.03904069332142,-0.0058543475000689,1,2024-09-26 22:23:46.914954834,1727389426.9149556,2024-09-26 22:23:46.914955520,4,[-0.00084078 -0.00101575  0.00799722 -0.02960635],-1.0,-39.49939328624633,[-0.00084078 -0.00101575  0.00799722 -0.02960635],[ 0.999991    0.4715863   0.03565056 -0.3273624 ],[1.42044725 0.73735161 0.42469975],"[ 1.18017194e+00  6.03153434e-01  4.87892355e-01  1.18962592e+00
  6.03286598e-01  4.64083015e-01  9.45398272e-03  1.33163766e-04
 -2.38093401e-02  2.40594948e-02  2.40717588e-02 -9.32119438e-05
  7.09577115e-03  1.50311118e-02  1.06880283e-05 -1.12199683e-04
 -4.48793291e-05 -2.61250817e-03  1.24072287e-04  2.01319371e-05
 -1.46744298e-05 -2.35443602e-05  5.29450737e-05  1.99860245e-06
 -1.47419356e-06]",0.7261118292808533,1,1
77,98,2024-09-26 22:23:44.546510080,TASK_BEGIN,20,-0.5348394098975625,-0.0160592623533848,-4.86483349795646,0.5273583073670025,0.6024021541990906,-0.3082887040861712,-5.991150172351856,-0.0340997769331604,1,2024-09-26 22:23:46.914954834,1727389426.9149556,2024-09-26 22:23:46.914955520,4,[-0.00084078 -0.00101575  0.00799722 -0.02960635],-1.0,-39.49939328624633,[-0.00084078 -0.00101575  0.00799722 -0.02960635],[ 0.999991    0.4715863   0.03565056 -0.3273624 ],[1.42044725 0.73735161 0.42469975],"[ 1.18017194e+00  6.03153434e-01  4.87892355e-01  1.18962592e+00
  6.03286598e-01  4.64083015e-01  9.45398272e-03  1.33163766e-04
 -2.38093401e-02  2.40594948e-02  2.40717588e-02 -9.32119438e-05
  7.09577115e-03  1.50311118e-02  1.06880283e-05 -1.12199683e-04
 -4.48793291e-05 -2.61250817e-03  1.24072287e-04  2.01319371e-05
 -1.46744298e-05 -2.35443602e-05  5.29450737e-05  1.99860245e-06
 -1.47419356e-06]",0.7261118292808533,1,1
78,99,2024-09-26 22:23:44.620370176,TASK_BEGIN,20,-0.5598997185629077,-0.0108484715119844,-4.9862953107037375,0.5415704329230545,0.5734132597477511,-0.3008635775911675,-5.904617280754629,-0.062897644327991,1,2024-09-26 22:23:46.914954834,1727389426.9149556,2024-09-26 22:23:46.914955520,4,[-0.00084078 -0.00101575  0.00799722 -0.02960635],-1.0,-39.49939328624633,[-0.00084078 -0.00101575  0.00799722 -0.02960635],[ 0.999991    0.4715863   0.03565056 -0.3273624 ],[1.42044725 0.73735161 0.42469975],"[ 1.18017194e+00  6.03153434e-01  4.87892355e-01  1.18962592e+00
  6.03286598e-01  4.64083015e-01  9.45398272e-03  1.33163766e-04
 -2.38093401e-02  2.40594948e-02  2.40717588e-02 -9.32119438e-05
  7.09577115e-03  1.50311118e-02  1.06880283e-05 -1.12199683e-04
 -4.48793291e-05 -2.61250817e-03  1.24072287e-04  2.01319371e-05
 -1.46744298e-05 -2.35443602e-05  5.29450737e-05  1.99860245e-06
 -1.47419356e-06]",0.7261118292808533,1,1
79,100,2024-09-26 22:23:45.563649024,TASK_BEGIN,20,-0.5836834801800972,-0.0060507236533809,-5.111750932977009,0.5584135797616263,0.538116103413432,-0.292872035795247,-5.787207474994454,-0.0905301191846173,1,2024-09-26 22:23:47.880414062,1727389427.8804145,2024-09-26 22:23:47.880414464,4,[-0.0007961  -0.00138303  0.00808002 -0.03058134],-1.0,-44.73165228376146,[-0.0007961  -0.00138303  0.00808002 -0.03058134],[ 0.9999909   0.47157806  0.03361565 -0.32675287],[1.42044725 0.73735161 0.42469975],"[ 1.17998094e+00  6.02705812e-01  4.88628968e-01  1.18951523e+00
  6.02847378e-01  4.64423605e-01  9.53429216e-03  1.41566212e-04
 -2.42053634e-02  2.40645545e-02  2.40671074e-02 -6.59148494e-05
  8.29983728e-03  1.50006889e-02  1.00157308e-05 -8.77061475e-05
 -4.45249003e-05 -1.99075092e-03  1.29391695e-04  1.69253996e-05
 -1.35300922e-05 -3.22113312e-05  5.43856020e-05 -3.96022797e-08
  4.18014770e-08]",0.7266026735305786,1,1
80,101,2024-09-26 22:23:45.620560896,TASK_BEGIN,20,-0.6062258656284127,-0.0015714712043067,-5.231302650266939,0.5769027682573021,0.4961452733349867,-0.2843801037783957,-5.648928762667523,-0.1154133114967544,1,2024-09-26 22:23:47.880414062,1727389427.8804145,2024-09-26 22:23:47.880414464,4,[-0.0007961  -0.00138303  0.00808002 -0.03058134],-1.0,-44.73165228376146,[-0.0007961  -0.00138303  0.00808002 -0.03058134],[ 0.9999909   0.47157806  0.03361565 -0.32675287],[1.42044725 0.73735161 0.42469975],"[ 1.17998094e+00  6.02705812e-01  4.88628968e-01  1.18951523e+00
  6.02847378e-01  4.64423605e-01  9.53429216e-03  1.41566212e-04
 -2.42053634e-02  2.40645545e-02  2.40671074e-02 -6.59148494e-05
  8.29983728e-03  1.50006889e-02  1.00157308e-05 -8.77061475e-05
 -4.45249003e-05 -1.99075092e-03  1.29391695e-04  1.69253996e-05
 -1.35300922e-05 -3.22113312e-05  5.43856020e-05 -3.96022797e-08
  4.18014770e-08]",0.7266026735305786,1,1
81,102,2024-09-26 22:23:45.697323008,TASK_BEGIN,20,-0.6276542807211025,0.0027010344993453,-5.334692329076365,0.5956509721197062,0.4474701820793824,-0.2754483205438955,-5.50162778250814,-0.1361359004286726,1,2024-09-26 22:23:47.880414062,1727389427.8804145,2024-09-26 22:23:47.880414464,4,[-0.0007961  -0.00138303  0.00808002 -0.03058134],-1.0,-44.73165228376146,[-0.0007961  -0.00138303  0.00808002 -0.03058134],[ 0.9999909   0.47157806  0.03361565 -0.32675287],[1.42044725 0.73735161 0.42469975],"[ 1.17998094e+00  6.02705812e-01  4.88628968e-01  1.18951523e+00
  6.02847378e-01  4.64423605e-01  9.53429216e-03  1.41566212e-04
 -2.42053634e-02  2.40645545e-02  2.40671074e-02 -6.59148494e-05
  8.29983728e-03  1.50006889e-02  1.00157308e-05 -8.77061475e-05
 -4.45249003e-05 -1.99075092e-03  1.29391695e-04  1.69253996e-05
 -1.35300922e-05 -3.22113312e-05  5.43856020e-05 -3.96022797e-08
  4.18014770e-08]",0.7266026735305786,1,1
82,103,2024-09-26 22:23:45.758395136,TASK_BEGIN,20,-0.6481118324938056,0.0068789199722985,-5.412443617613597,0.6130445141998767,0.392490491060193,-0.2661443162846955,-5.358205411023379,-0.1515284165478397,1,2024-09-26 22:23:47.880414062,1727389427.8804145,2024-09-26 22:23:47.880414464,4,[-0.0007961  -0.00138303  0.00808002 -0.03058134],-1.0,-44.73165228376146,[-0.0007961  -0.00138303  0.00808002 -0.03058134],[ 0.9999909   0.47157806  0.03361565 -0.32675287],[1.42044725 0.73735161 0.42469975],"[ 1.17998094e+00  6.02705812e-01  4.88628968e-01  1.18951523e+00
  6.02847378e-01  4.64423605e-01  9.53429216e-03  1.41566212e-04
 -2.42053634e-02  2.40645545e-02  2.40671074e-02 -6.59148494e-05
  8.29983728e-03  1.50006889e-02  1.00157308e-05 -8.77061475e-05
 -4.45249003e-05 -1.99075092e-03  1.29391695e-04  1.69253996e-05
 -1.35300922e-05 -3.22113312e-05  5.43856020e-05 -3.96022797e-08
  4.18014770e-08]",0.7266026735305786,1,1
83,104,2024-09-26 22:23:45.820937984,TASK_BEGIN,20,-0.6677160633553597,0.0110619737977861,-5.45678009912386,0.6274180471999679,0.3320810930546403,-0.2565558169974175,-5.231445400816785,-0.1607414938163207,1,2024-09-26 22:23:47.880414062,1727389427.8804145,2024-09-26 22:23:47.880414464,4,[-0.0007961  -0.00138303  0.00808002 -0.03058134],-1.0,-44.73165228376146,[-0.0007961  -0.00138303  0.00808002 -0.03058134],[ 0.9999909   0.47157806  0.03361565 -0.32675287],[1.42044725 0.73735161 0.42469975],"[ 1.17998094e+00  6.02705812e-01  4.88628968e-01  1.18951523e+00
  6.02847378e-01  4.64423605e-01  9.53429216e-03  1.41566212e-04
 -2.42053634e-02  2.40645545e-02  2.40671074e-02 -6.59148494e-05
  8.29983728e-03  1.50006889e-02  1.00157308e-05 -8.77061475e-05
 -4.45249003e-05 -1.99075092e-03  1.29391695e-04  1.69253996e-05
 -1.35300922e-05 -3.22113312e-05  5.43856020e-05 -3.96022797e-08
  4.18014770e-08]",0.7266026735305786,1,1
84,105,2024-09-26 22:23:45.902633728,TASK_BEGIN,20,-0.6865526709621405,0.0153310578772637,-5.462184489738581,0.637185960552996,0.267569421220476,-0.2468001602722561,-5.132733688122996,-0.1632914652619093,1,2024-09-26 22:23:47.880414062,1727389427.8804145,2024-09-26 22:23:47.880414464,4,[-0.0007961  -0.00138303  0.00808002 -0.03058134],-1.0,-44.73165228376146,[-0.0007961  -0.00138303  0.00808002 -0.03058134],[ 0.9999909   0.47157806  0.03361565 -0.32675287],[1.42044725 0.73735161 0.42469975],"[ 1.17998094e+00  6.02705812e-01  4.88628968e-01  1.18951523e+00
  6.02847378e-01  4.64423605e-01  9.53429216e-03  1.41566212e-04
 -2.42053634e-02  2.40645545e-02  2.40671074e-02 -6.59148494e-05
  8.29983728e-03  1.50006889e-02  1.00157308e-05 -8.77061475e-05
 -4.45249003e-05 -1.99075092e-03  1.29391695e-04  1.69253996e-05
 -1.35300922e-05 -3.22113312e-05  5.43856020e-05 -3.96022797e-08
  4.18014770e-08]",0.7266026735305786,1,1
85,106,2024-09-26 22:23:45.959080960,TASK_BEGIN,20,-0.7046785418312436,0.0197437694517388,-5.42562653621438,0.6409328630413208,0.2006519334864652,-0.2370278853213468,-5.070971179415866,-0.159052029512704,1,2024-09-26 22:23:47.880414062,1727389427.8804145,2024-09-26 22:23:47.880414464,4,[-0.0007961  -0.00138303  0.00808002 -0.03058134],-1.0,-44.73165228376146,[-0.0007961  -0.00138303  0.00808002 -0.03058134],[ 0.9999909   0.47157806  0.03361565 -0.32675287],[1.42044725 0.73735161 0.42469975],"[ 1.17998094e+00  6.02705812e-01  4.88628968e-01  1.18951523e+00
  6.02847378e-01  4.64423605e-01  9.53429216e-03  1.41566212e-04
 -2.42053634e-02  2.40645545e-02  2.40671074e-02 -6.59148494e-05
  8.29983728e-03  1.50006889e-02  1.00157308e-05 -8.77061475e-05
 -4.45249003e-05 -1.99075092e-03  1.29391695e-04  1.69253996e-05
 -1.35300922e-05 -3.22113312e-05  5.43856020e-05 -3.96022797e-08
  4.18014770e-08]",0.7266026735305786,1,1
86,107,2024-09-26 22:23:46.888793088,TASK_BEGIN,20,-0.7221116464065237,0.0243281316141163,-5.346636651710314,0.637492987869391,0.133269595183756,-0.2274184981766522,-5.051813991375066,-0.1482003293493852,1,2024-09-26 22:23:49.059602051,1727389429.0596023,2024-09-26 22:23:49.059602176,4,[-0.00068507 -0.00148516  0.0081093  -0.03163601],-1.0,-50.51613403997926,[-0.00068507 -0.00148516  0.0081093  -0.03163601],[ 0.99999064  0.47240582  0.03060676 -0.3263349 ],[1.42044725 0.73735161 0.42469975],"[ 1.17972977e+00  6.02092763e-01  4.89536034e-01  1.18935729e+00
  6.02233119e-01  4.64851018e-01  9.62752387e-03  1.40356210e-04
 -2.46850159e-02  2.40657884e-02  2.40673921e-02 -1.50582805e-04
  9.80841547e-03  1.49679049e-02  9.79569132e-06 -1.14946725e-04
 -4.40613898e-05 -2.58912289e-03  1.31148438e-04  2.24825225e-05
 -1.00783547e-05 -3.42156495e-05  5.46382058e-05  2.13533160e-07
  1.93635350e-07]",0.7276519536972046,1,1
87,108,2024-09-26 22:23:46.951237120,TASK_BEGIN,20,-0.7388028200002734,0.0290749278649243,-5.2273851754067655,0.6260403085591186,0.0674578114944651,-0.2181667811456465,-5.0772444098241305,-0.1311513946661518,1,2024-09-26 22:23:49.059602051,1727389429.0596023,2024-09-26 22:23:49.059602176,4,[-0.00068507 -0.00148516  0.0081093  -0.03163601],-1.0,-50.51613403997926,[-0.00068507 -0.00148516  0.0081093  -0.03163601],[ 0.99999064  0.47240582  0.03060676 -0.3263349 ],[1.42044725 0.73735161 0.42469975],"[ 1.17972977e+00  6.02092763e-01  4.89536034e-01  1.18935729e+00
  6.02233119e-01  4.64851018e-01  9.62752387e-03  1.40356210e-04
 -2.46850159e-02  2.40657884e-02  2.40673921e-02 -1.50582805e-04
  9.80841547e-03  1.49679049e-02  9.79569132e-06 -1.14946725e-04
 -4.40613898e-05 -2.58912289e-03  1.31148438e-04  2.24825225e-05
 -1.00783547e-05 -3.42156495e-05  5.46382058e-05  2.13533160e-07
  1.93635350e-07]",0.7276519536972046,1,1
88,109,2024-09-26 22:23:47.024514816,TASK_BEGIN,20,-0.7545934704032004,0.0339320645237118,-5.072709248486813,0.6061815177869592,0.0051874182782054,-0.2094614852770101,-5.145425367516344,-0.1085219111207223,1,2024-09-26 22:23:49.059602051,1727389429.0596023,2024-09-26 22:23:49.059602176,4,[-0.00068507 -0.00148516  0.0081093  -0.03163601],-1.0,-50.51613403997926,[-0.00068507 -0.00148516  0.0081093  -0.03163601],[ 0.99999064  0.47240582  0.03060676 -0.3263349 ],[1.42044725 0.73735161 0.42469975],"[ 1.17972977e+00  6.02092763e-01  4.89536034e-01  1.18935729e+00
  6.02233119e-01  4.64851018e-01  9.62752387e-03  1.40356210e-04
 -2.46850159e-02  2.40657884e-02  2.40673921e-02 -1.50582805e-04
  9.80841547e-03  1.49679049e-02  9.79569132e-06 -1.14946725e-04
 -4.40613898e-05 -2.58912289e-03  1.31148438e-04  2.24825225e-05
 -1.00783547e-05 -3.42156495e-05  5.46382058e-05  2.13533160e-07
  1.93635350e-07]",0.7276519536972046,1,1
89,110,2024-09-26 22:23:47.084937984,TASK_BEGIN,20,-0.7691704524550156,0.0388029341980208,-4.889811190172644,0.5780138665976736,-0.0517833708973503,-0.2014618175707219,-5.250809199147449,-0.0811332902078913,1,2024-09-26 22:23:49.059602051,1727389429.0596023,2024-09-26 22:23:49.059602176,4,[-0.00068507 -0.00148516  0.0081093  -0.03163601],-1.0,-50.51613403997926,[-0.00068507 -0.00148516  0.0081093  -0.03163601],[ 0.99999064  0.47240582  0.03060676 -0.3263349 ],[1.42044725 0.73735161 0.42469975],"[ 1.17972977e+00  6.02092763e-01  4.89536034e-01  1.18935729e+00
  6.02233119e-01  4.64851018e-01  9.62752387e-03  1.40356210e-04
 -2.46850159e-02  2.40657884e-02  2.40673921e-02 -1.50582805e-04
  9.80841547e-03  1.49679049e-02  9.79569132e-06 -1.14946725e-04
 -4.40613898e-05 -2.58912289e-03  1.31148438e-04  2.24825225e-05
 -1.00783547e-05 -3.42156495e-05  5.46382058e-05  2.13533160e-07
  1.93635350e-07]",0.7276519536972046,1,1
90,111,2024-09-26 22:23:47.146162176,TASK_BEGIN,20,-0.7820419256326656,0.0435491550843309,-4.68741317321911,0.5421073554333699,-0.1020319765767812,-0.194276637383444,-5.38459253032987,-0.0500129316960514,1,2024-09-26 22:23:49.059602051,1727389429.0596023,2024-09-26 22:23:49.059602176,4,[-0.00068507 -0.00148516  0.0081093  -0.03163601],-1.0,-50.51613403997926,[-0.00068507 -0.00148516  0.0081093  -0.03163601],[ 0.99999064  0.47240582  0.03060676 -0.3263349 ],[1.42044725 0.73735161 0.42469975],"[ 1.17972977e+00  6.02092763e-01  4.89536034e-01  1.18935729e+00
  6.02233119e-01  4.64851018e-01  9.62752387e-03  1.40356210e-04
 -2.46850159e-02  2.40657884e-02  2.40673921e-02 -1.50582805e-04
  9.80841547e-03  1.49679049e-02  9.79569132e-06 -1.14946725e-04
 -4.40613898e-05 -2.58912289e-03  1.31148438e-04  2.24825225e-05
 -1.00783547e-05 -3.42156495e-05  5.46382058e-05  2.13533160e-07
  1.93635350e-07]",0.7276519536972046,1,1
91,112,2024-09-26 22:23:47.223820032,TASK_BEGIN,20,-0.7925662343657387,0.0480000961572878,-4.474507719281558,0.4994089733599812,-0.1445595195214462,-0.1879496074223018,-5.535662187117797,-0.0163335735321774,1,2024-09-26 22:23:49.590641113,1727389429.5906413,2024-09-26 22:23:49.590641152,4,[-0.00099752 -0.00186293  0.00804611 -0.03182546],-1.0,-52.94133584143497,[-0.00099752 -0.00186293  0.00804611 -0.03182546],[ 0.9999907   0.47364748  0.02994569 -0.32689863],[1.42044725 0.73735161 0.42469975],"[ 1.17961174e+00  6.01802431e-01  4.89943652e-01  1.18927992e+00
  6.01942532e-01  4.65042138e-01  9.66817231e-03  1.40100498e-04
 -2.49015134e-02  2.40670469e-02  2.40667344e-02 -2.13465582e-04
  1.05071815e-02  1.49538735e-02  8.25186567e-06  1.38737197e-05
 -4.38208196e-05  2.80786970e-04  1.42453521e-04 -1.11419537e-05
 -1.85052240e-05 -4.57612875e-05  5.24797479e-05 -5.49924740e-07
  6.47274462e-07]",0.7271175980567932,1,1
92,113,2024-09-26 22:23:47.295613952,TASK_BEGIN,20,-0.8000533638730736,0.0519733422214597,-4.259142782153834,0.4511148357165382,-0.1788323468809918,-0.1824542485115048,-5.69191931731265,0.0187194746666225,1,2024-09-26 22:23:49.590641113,1727389429.5906413,2024-09-26 22:23:49.590641152,4,[-0.00099752 -0.00186293  0.00804611 -0.03182546],-1.0,-52.94133584143497,[-0.00099752 -0.00186293  0.00804611 -0.03182546],[ 0.9999907   0.47364748  0.02994569 -0.32689863],[1.42044725 0.73735161 0.42469975],"[ 1.17961174e+00  6.01802431e-01  4.89943652e-01  1.18927992e+00
  6.01942532e-01  4.65042138e-01  9.66817231e-03  1.40100498e-04
 -2.49015134e-02  2.40670469e-02  2.40667344e-02 -2.13465582e-04
  1.05071815e-02  1.49538735e-02  8.25186567e-06  1.38737197e-05
 -4.38208196e-05  2.80786970e-04  1.42453521e-04 -1.11419537e-05
 -1.85052240e-05 -4.57612875e-05  5.24797479e-05 -5.49924740e-07
  6.47274462e-07]",0.7271175980567932,1,1
93,118,2024-09-26 22:23:48.510086912,TASK_BEGIN,20,-0.7828112719268305,0.0609025264404856,-3.3130293454939137,0.1760618070253979,-0.2347710639338866,-0.1635261776210408,-6.188620524771366,0.1835474243908806,1,2024-09-26 22:23:51.210463135,1727389431.210463,2024-09-26 22:23:51.210462976,5,[ 0.80994296  0.93182826 -0.26273283  0.10921997],-1.0,-1.0,[ 0.80994296  0.93182826 -0.26273283  0.10921997],[ 0.80994296  0.93182826 -0.26273283  0.10921997],[1.25811984 0.80560009 0.42469975],"[ 1.36569656e+00  7.77981302e-01  5.26361565e-01  1.45285015e+00
  8.94255916e-01  4.24737381e-01  8.71535862e-02  1.16274615e-01
 -1.01624184e-01  2.13740750e-02  2.30866850e-02 -5.03884423e-08
  7.75206804e-08 -2.36939415e-16 -2.08240697e-02 -2.45367096e-02
  7.20737720e-03  2.85323085e-08 -4.38958592e-08  1.71777460e-18
  2.08240686e-02  2.45367089e-02 -7.18071164e-03  3.80311004e-02
  3.88554579e-02]",0.9868243932723999,0,0
94,119,2024-09-26 22:23:48.577907968,TASK_BEGIN,20,-0.7714183716197288,0.0605419765581059,-3.1714586703274352,0.1259711326631221,-0.2277975875533417,-0.160667307825382,-6.185354280839896,0.2099084187401542,1,2024-09-26 22:23:51.210463135,1727389431.210463,2024-09-26 22:23:51.210462976,5,[ 0.80994296  0.93182826 -0.26273283  0.10921997],-1.0,-1.0,[ 0.80994296  0.93182826 -0.26273283  0.10921997],[ 0.80994296  0.93182826 -0.26273283  0.10921997],[1.25811984 0.80560009 0.42469975],"[ 1.36569656e+00  7.77981302e-01  5.26361565e-01  1.45285015e+00
  8.94255916e-01  4.24737381e-01  8.71535862e-02  1.16274615e-01
 -1.01624184e-01  2.13740750e-02  2.30866850e-02 -5.03884423e-08
  7.75206804e-08 -2.36939415e-16 -2.08240697e-02 -2.45367096e-02
  7.20737720e-03  2.85323085e-08 -4.38958592e-08  1.71777460e-18
  2.08240686e-02  2.45367089e-02 -7.18071164e-03  3.80311004e-02
  3.88554579e-02]",0.9868243932723999,0,0
95,120,2024-09-26 22:23:48.645718016,TASK_BEGIN,20,-0.7596273387749516,0.0596548686243975,-3.0543231182274515,0.0818713205622625,-0.216897736614325,-0.158002528807089,-6.143769286144475,0.2326940895179391,1,2024-09-26 22:23:51.319427002,1727389431.3194273,2024-09-26 22:23:51.319427328,5,[ 0.85343254  0.9230335  -0.40788367  0.19217624],-1.0,-1.99,[ 0.85343254  0.9230335  -0.40788367  0.19217624],[ 0.81332815  0.92314637 -0.45520383  0.13052432],[1.25811984 0.80560009 0.42469975],"[ 1.39280454e+00  8.09158171e-01  5.12708041e-01  1.45285015e+00
  8.94255916e-01  4.24757513e-01  6.00456057e-02  8.50977446e-02
 -8.79505276e-02  5.37953245e-02  5.29617996e-02 -2.88713263e-08
  4.44174251e-08 -1.54932731e-15 -1.96559239e-02 -2.14610920e-02
  1.01470328e-02  1.62724006e-08 -2.50344625e-08  2.97102178e-19
  1.96559232e-02  2.14610916e-02 -1.01317968e-02 -8.24659714e-03
 -6.74377963e-03]",1.0653263330459595,0,0
96,121,2024-09-26 22:23:49.588937984,TASK_BEGIN,20,-0.7485125477763704,0.0583316403601737,-2.966665551848371,0.0455469575750326,-0.2029666044023991,-0.1555753895437597,-6.0662264350720445,0.2512582025185826,1,2024-09-26 22:23:51.958942871,1727389431.9589431,2024-09-26 22:23:51.958943232,5,[-0.9998356   0.8946587   0.11562396 -0.19163014],-1.0,-7.72553055720799,[-0.9998356   0.8946587   0.11562396 -0.19163014],[-0.99999845 -0.5069366  -0.12387866 -0.24238597],[1.25811984 0.80560009 0.42469975],"[ 1.38174604e+00  9.53785071e-01  4.61079554e-01  1.38807991e+00
  9.52643699e-01  4.45555518e-01  6.33386621e-03 -1.14137227e-03
 -1.55240364e-02  2.17694954e-02  2.55290121e-02 -3.24732253e-04
  2.05282442e-03  1.05819813e-02  5.52882483e-04  2.13947975e-04
 -5.84458356e-05  6.20689501e-04 -8.21939400e-04  1.24489032e-03
 -2.35831494e-02  2.09794166e-02  1.65648269e-03  1.19116411e-03
  4.78240754e-04]",1.6969854831695557,1,1
97,122,2024-09-26 22:23:49.656798208,TASK_BEGIN,20,-0.7389335359977491,0.0566387125019211,-2.913516961141099,0.0184894212495416,-0.186750766053078,-0.1534839812920086,-5.956393695652789,0.2649289281962884,1,2024-09-26 22:23:51.958942871,1727389431.9589431,2024-09-26 22:23:51.958943232,5,[-0.9998356   0.8946587   0.11562396 -0.19163014],-1.0,-7.72553055720799,[-0.9998356   0.8946587   0.11562396 -0.19163014],[-0.99999845 -0.5069366  -0.12387866 -0.24238597],[1.25811984 0.80560009 0.42469975],"[ 1.38174604e+00  9.53785071e-01  4.61079554e-01  1.38807991e+00
  9.52643699e-01  4.45555518e-01  6.33386621e-03 -1.14137227e-03
 -1.55240364e-02  2.17694954e-02  2.55290121e-02 -3.24732253e-04
  2.05282442e-03  1.05819813e-02  5.52882483e-04  2.13947975e-04
 -5.84458356e-05  6.20689501e-04 -8.21939400e-04  1.24489032e-03
 -2.35831494e-02  2.09794166e-02  1.65648269e-03  1.19116411e-03
  4.78240754e-04]",1.6969854831695557,1,1
98,123,2024-09-26 22:23:49.717137920,TASK_BEGIN,20,-0.731411180695066,0.0546059085374521,-2.8991159922835967,0.0017745157896706,-0.168789717897704,-0.1518751235097257,-5.819165272204913,0.2730918714719133,1,2024-09-26 22:23:51.958942871,1727389431.9589431,2024-09-26 22:23:51.958943232,5,[-0.9998356   0.8946587   0.11562396 -0.19163014],-1.0,-7.72553055720799,[-0.9998356   0.8946587   0.11562396 -0.19163014],[-0.99999845 -0.5069366  -0.12387866 -0.24238597],[1.25811984 0.80560009 0.42469975],"[ 1.38174604e+00  9.53785071e-01  4.61079554e-01  1.38807991e+00
  9.52643699e-01  4.45555518e-01  6.33386621e-03 -1.14137227e-03
 -1.55240364e-02  2.17694954e-02  2.55290121e-02 -3.24732253e-04
  2.05282442e-03  1.05819813e-02  5.52882483e-04  2.13947975e-04
 -5.84458356e-05  6.20689501e-04 -8.21939400e-04  1.24489032e-03
 -2.35831494e-02  2.09794166e-02  1.65648269e-03  1.19116411e-03
  4.78240754e-04]",1.6969854831695557,1,1
99,124,2024-09-26 22:23:49.790164992,TASK_BEGIN,20,-0.7260707067141675,0.0522213846120159,-2.926140985453096,-0.0040049205851858,-0.149407690510649,-0.1509244379129143,-5.660830667855247,0.2753436040519204,1,2024-09-26 22:23:51.958942871,1727389431.9589431,2024-09-26 22:23:51.958943232,5,[-0.9998356   0.8946587   0.11562396 -0.19163014],-1.0,-7.72553055720799,[-0.9998356   0.8946587   0.11562396 -0.19163014],[-0.99999845 -0.5069366  -0.12387866 -0.24238597],[1.25811984 0.80560009 0.42469975],"[ 1.38174604e+00  9.53785071e-01  4.61079554e-01  1.38807991e+00
  9.52643699e-01  4.45555518e-01  6.33386621e-03 -1.14137227e-03
 -1.55240364e-02  2.17694954e-02  2.55290121e-02 -3.24732253e-04
  2.05282442e-03  1.05819813e-02  5.52882483e-04  2.13947975e-04
 -5.84458356e-05  6.20689501e-04 -8.21939400e-04  1.24489032e-03
 -2.35831494e-02  2.09794166e-02  1.65648269e-03  1.19116411e-03
  4.78240754e-04]",1.6969854831695557,1,1
100,125,2024-09-26 22:23:49.852233984,TASK_BEGIN,20,-0.722671421169355,0.0494392540224267,-2.9950941462670686,0.0012472586561352,-0.1287733562194939,-0.1508027886275129,-5.489184028954475,0.271673810688126,1,2024-09-26 22:23:51.958942871,1727389431.9589431,2024-09-26 22:23:51.958943232,5,[-0.9998356   0.8946587   0.11562396 -0.19163014],-1.0,-7.72553055720799,[-0.9998356   0.8946587   0.11562396 -0.19163014],[-0.99999845 -0.5069366  -0.12387866 -0.24238597],[1.25811984 0.80560009 0.42469975],"[ 1.38174604e+00  9.53785071e-01  4.61079554e-01  1.38807991e+00
  9.52643699e-01  4.45555518e-01  6.33386621e-03 -1.14137227e-03
 -1.55240364e-02  2.17694954e-02  2.55290121e-02 -3.24732253e-04
  2.05282442e-03  1.05819813e-02  5.52882483e-04  2.13947975e-04
 -5.84458356e-05  6.20689501e-04 -8.21939400e-04  1.24489032e-03
 -2.35831494e-02  2.09794166e-02  1.65648269e-03  1.19116411e-03
  4.78240754e-04]",1.6969854831695557,1,1
101,126,2024-09-26 22:23:49.914311680,TASK_BEGIN,20,-0.7207065878423777,0.0461986606053068,-3.1039018926936173,0.0171456731281642,-0.1069995693010504,-0.1516393453152968,-5.313327490746271,0.2625980579420576,1,2024-09-26 22:23:51.958942871,1727389431.9589431,2024-09-26 22:23:51.958943232,5,[-0.9998356   0.8946587   0.11562396 -0.19163014],-1.0,-7.72553055720799,[-0.9998356   0.8946587   0.11562396 -0.19163014],[-0.99999845 -0.5069366  -0.12387866 -0.24238597],[1.25811984 0.80560009 0.42469975],"[ 1.38174604e+00  9.53785071e-01  4.61079554e-01  1.38807991e+00
  9.52643699e-01  4.45555518e-01  6.33386621e-03 -1.14137227e-03
 -1.55240364e-02  2.17694954e-02  2.55290121e-02 -3.24732253e-04
  2.05282442e-03  1.05819813e-02  5.52882483e-04  2.13947975e-04
 -5.84458356e-05  6.20689501e-04 -8.21939400e-04  1.24489032e-03
 -2.35831494e-02  2.09794166e-02  1.65648269e-03  1.19116411e-03
  4.78240754e-04]",1.6969854831695557,1,1
102,127,2024-09-26 22:23:49.992419840,TASK_BEGIN,20,-0.7195279117357268,0.042447967534827,-3.247821650614679,0.042849434764817,-0.0842254832576562,-0.1534970510619389,-5.143143604805861,0.2491668803084747,1,2024-09-26 22:23:51.958942871,1727389431.9589431,2024-09-26 22:23:51.958943232,5,[-0.9998356   0.8946587   0.11562396 -0.19163014],-1.0,-7.72553055720799,[-0.9998356   0.8946587   0.11562396 -0.19163014],[-0.99999845 -0.5069366  -0.12387866 -0.24238597],[1.25811984 0.80560009 0.42469975],"[ 1.38174604e+00  9.53785071e-01  4.61079554e-01  1.38807991e+00
  9.52643699e-01  4.45555518e-01  6.33386621e-03 -1.14137227e-03
 -1.55240364e-02  2.17694954e-02  2.55290121e-02 -3.24732253e-04
  2.05282442e-03  1.05819813e-02  5.52882483e-04  2.13947975e-04
 -5.84458356e-05  6.20689501e-04 -8.21939400e-04  1.24489032e-03
 -2.35831494e-02  2.09794166e-02  1.65648269e-03  1.19116411e-03
  4.78240754e-04]",1.6969854831695557,1,1
103,128,2024-09-26 22:23:50.899572992,TASK_BEGIN,20,-0.718457524918043,0.0381681432941361,-3.4197492718916087,0.0771028118942667,-0.0606551683015936,-0.1563695000253382,-4.988550051600354,0.2328386283201848,1,2024-09-26 22:23:52.818466064,1727389432.8184662,2024-09-26 22:23:52.818466304,5,[-0.04099577  0.05557183  0.0156462  -0.1157712 ],-1.0,-14.854222890512437,[-0.04099577  0.05557183  0.0156462  -0.1157712 ],[-0.58109    -0.99999905  0.14563479 -0.11696265],[1.25811984 0.80560009 0.42469975],"[ 1.33177454e+00  9.93909588e-01  4.76454851e-01  1.33865707e+00
  9.93563696e-01  4.60722140e-01  6.88253595e-03 -3.45891631e-04
 -1.57327112e-02  2.36009980e-02  2.45136986e-02 -1.55554190e-04
  1.29149973e-03  1.55507545e-02  1.22546182e-05 -8.41175110e-05
 -3.24405570e-05  2.20620046e-03  6.15743082e-05  3.09002692e-05
 -9.37709164e-04  1.27472713e-03  2.90528573e-04 -1.67241799e-04
  1.67321205e-04]",0.741956889629364,1,1
104,129,2024-09-26 22:23:50.976800000,TASK_BEGIN,20,-0.7168820431998162,0.0333918710146825,-3.610841662253288,0.1182958297227165,-0.0365607429347386,-0.1601967480419437,-4.858690460469489,0.2152771802945054,1,2024-09-26 22:23:52.926468994,1727389432.926469,2024-09-26 22:23:52.926469120,5,[-0.03258663  0.04060765  0.01211139 -0.11157267],-1.0,-15.705680661607312,[-0.03258663  0.04060765  0.01211139 -0.11157267],[-0.57755584 -0.99999917  0.14658709 -0.11785338],[1.25811984 0.80560009 0.42469975],"[ 1.33069200e+00  9.95294304e-01  4.76767999e-01  1.33758699e+00
  9.94919378e-01  4.61003358e-01  6.89498391e-03 -3.74926096e-04
 -1.57646409e-02  2.35631282e-02  2.45514242e-02  9.53721125e-05
  1.35412087e-03  1.55731270e-02  1.23772691e-05  1.10539534e-04
 -3.24485368e-05  5.28230163e-04  6.14640180e-05  2.31677252e-05
 -7.42362834e-04  9.16633133e-04  2.09762371e-04  9.22554852e-05
 -9.21297055e-05]",0.7376708388328552,1,1
105,130,2024-09-26 22:23:51.039284992,TASK_BEGIN,20,-0.7143332734723945,0.0282158174636224,-3.811223564260835,0.1645390625148515,-0.0122615219840188,-0.1648889952725837,-4.761151467137454,0.1981399960902633,1,2024-09-26 22:23:53.140527100,1727389433.1405277,2024-09-26 22:23:53.140527616,5,[-0.0236456   0.02859712  0.00731721 -0.10621259],-1.0,-17.383137616441328,[-0.0236456   0.02859712  0.00731721 -0.10621259],[-0.5634235  -0.9999993   0.1476439  -0.11729526],[1.25811984 0.80560009 0.42469975],"[ 1.32900401e+00  9.97399178e-01  4.77137667e-01  1.33592354e+00
  9.97418185e-01  4.61309018e-01  6.91952773e-03  1.90068670e-05
 -1.58286487e-02  2.39655322e-02  2.41490654e-02 -1.17470374e-04
  1.49009484e-03  1.55844823e-02  1.11039548e-05  3.29663031e-04
 -3.22237948e-05  2.16668073e-03  7.86539238e-05  1.73551579e-06
 -5.39002688e-04  6.58261276e-04  8.70300700e-05  2.47583578e-04
 -2.47258923e-04]",0.7363500595092773,1,1
106,131,2024-09-26 22:23:51.116045824,TASK_BEGIN,20,-0.710538981782583,0.0228027270453283,-4.010635040384253,0.2137490919042577,0.0119030314035137,-0.1703432549682965,-4.701144407486343,0.1828660720144259,1,2024-09-26 22:23:53.140527100,1727389433.1405277,2024-09-26 22:23:53.140527616,5,[-0.0236456   0.02859712  0.00731721 -0.10621259],-1.0,-17.383137616441328,[-0.0236456   0.02859712  0.00731721 -0.10621259],[-0.5634235  -0.9999993   0.1476439  -0.11729526],[1.25811984 0.80560009 0.42469975],"[ 1.32900401e+00  9.97399178e-01  4.77137667e-01  1.33592354e+00
  9.97418185e-01  4.61309018e-01  6.91952773e-03  1.90068670e-05
 -1.58286487e-02  2.39655322e-02  2.41490654e-02 -1.17470374e-04
  1.49009484e-03  1.55844823e-02  1.11039548e-05  3.29663031e-04
 -3.22237948e-05  2.16668073e-03  7.86539238e-05  1.73551579e-06
 -5.39002688e-04  6.58261276e-04  8.70300700e-05  2.47583578e-04
 -2.47258923e-04]",0.7363500595092773,1,1
107,132,2024-09-26 22:23:51.184018944,TASK_BEGIN,20,-0.7054162562514215,0.0173702790844036,-4.199053860241746,0.2637531479941912,0.0355981686988319,-0.1764456075607727,-4.680622316617495,0.1704588592767572,1,2024-09-26 22:23:53.140527100,1727389433.1405277,2024-09-26 22:23:53.140527616,5,[-0.0236456   0.02859712  0.00731721 -0.10621259],-1.0,-17.383137616441328,[-0.0236456   0.02859712  0.00731721 -0.10621259],[-0.5634235  -0.9999993   0.1476439  -0.11729526],[1.25811984 0.80560009 0.42469975],"[ 1.32900401e+00  9.97399178e-01  4.77137667e-01  1.33592354e+00
  9.97418185e-01  4.61309018e-01  6.91952773e-03  1.90068670e-05
 -1.58286487e-02  2.39655322e-02  2.41490654e-02 -1.17470374e-04
  1.49009484e-03  1.55844823e-02  1.11039548e-05  3.29663031e-04
 -3.22237948e-05  2.16668073e-03  7.86539238e-05  1.73551579e-06
 -5.39002688e-04  6.58261276e-04  8.70300700e-05  2.47583578e-04
 -2.47258923e-04]",0.7363500595092773,1,1
108,133,2024-09-26 22:23:51.240572928,TASK_BEGIN,20,-0.6990063793761011,0.0121677982541839,-4.367369968254919,0.3124135840527634,0.0585353127690964,-0.1830654656212603,-4.697575079493602,0.1613131240951626,1,2024-09-26 22:23:53.249540039,1727389433.2495403,2024-09-26 22:23:53.249540352,5,[-0.01839743  0.02523004  0.00625623 -0.10464248],-1.0,-18.209306240276913,[-0.01839743  0.02523004  0.00625623 -0.10464248],[-0.5617306  -0.99999934  0.14877023 -0.11724719],[1.25811984 0.80560009 0.42469975],"[ 1.32839463e+00  9.98246100e-01  4.77244841e-01  1.33532601e+00
  9.98475718e-01  4.61384259e-01  6.93137750e-03  2.29618303e-04
 -1.58605814e-02  2.41675830e-02  2.39470558e-02  1.15573806e-04
  1.56250814e-03  1.55883952e-02  1.16803128e-05  1.88079963e-04
 -3.22913774e-05  5.07044939e-04  7.85654650e-05  1.00981139e-05
 -4.08942744e-04  5.84618215e-04  4.91413783e-05  1.70262877e-04
 -1.70056259e-04]",0.7346894145011902,1,1
109,134,2024-09-26 22:23:51.317061120,TASK_BEGIN,20,-0.6913877275456378,0.0074479229468574,-4.508061684199096,0.3577458310937206,0.0805258487218735,-0.1900494353907484,-4.745880008777866,0.1551606539910683,1,2024-09-26 22:23:53.249540039,1727389433.2495403,2024-09-26 22:23:53.249540352,5,[-0.01839743  0.02523004  0.00625623 -0.10464248],-1.0,-18.209306240276913,[-0.01839743  0.02523004  0.00625623 -0.10464248],[-0.5617306  -0.99999934  0.14877023 -0.11724719],[1.25811984 0.80560009 0.42469975],"[ 1.32839463e+00  9.98246100e-01  4.77244841e-01  1.33532601e+00
  9.98475718e-01  4.61384259e-01  6.93137750e-03  2.29618303e-04
 -1.58605814e-02  2.41675830e-02  2.39470558e-02  1.15573806e-04
  1.56250814e-03  1.55883952e-02  1.16803128e-05  1.88079963e-04
 -3.22913774e-05  5.07044939e-04  7.85654650e-05  1.00981139e-05
 -4.08942744e-04  5.84618215e-04  4.91413783e-05  1.70262877e-04
 -1.70056259e-04]",0.7346894145011902,1,1
110,135,2024-09-26 22:23:52.262865920,TASK_BEGIN,20,-0.6826112151128761,0.0034422094299588,-4.615709407684414,0.3980058750902496,0.1014961035163885,-0.1972136634577338,-4.81591116704405,0.1511574196965067,1,2024-09-26 22:23:54.424582031,1727389434.424583,2024-09-26 22:23:54.424582912,5,[-0.00565851  0.00507535  0.00537103 -0.10068348],-1.0,-26.76966303456023,[-0.00565851  0.00507535  0.00537103 -0.10068348],[-0.54299533 -0.99999946  0.15732671 -0.11441346],[1.25811984 0.80560009 0.42469975],"[ 1.32519613e+00  1.00271052e+00  4.77390654e-01  1.33225133e+00
  1.00285875e+00  4.61180221e-01  7.05520005e-03  1.48225679e-04
 -1.62104331e-02  2.40945372e-02  2.40207161e-02 -1.66656130e-04
  2.46770118e-03  1.55638925e-02  1.00477753e-05  8.63319978e-05
 -3.16136458e-05  2.13568822e-03  9.21965884e-05 -1.43793532e-05
 -1.16276502e-04  1.21973634e-04 -1.89567831e-05  4.67698047e-06
 -4.26780376e-06]",0.7332600355148315,1,1
111,136,2024-09-26 22:23:52.320185088,TASK_BEGIN,20,-0.6726760950609637,0.00034511990813,-4.6872143391672685,0.4317537924604743,0.1214380364474958,-0.2043356286071807,-4.895790152097889,0.1480659189814563,1,2024-09-26 22:23:54.424582031,1727389434.424583,2024-09-26 22:23:54.424582912,5,[-0.00565851  0.00507535  0.00537103 -0.10068348],-1.0,-26.76966303456023,[-0.00565851  0.00507535  0.00537103 -0.10068348],[-0.54299533 -0.99999946  0.15732671 -0.11441346],[1.25811984 0.80560009 0.42469975],"[ 1.32519613e+00  1.00271052e+00  4.77390654e-01  1.33225133e+00
  1.00285875e+00  4.61180221e-01  7.05520005e-03  1.48225679e-04
 -1.62104331e-02  2.40945372e-02  2.40207161e-02 -1.66656130e-04
  2.46770118e-03  1.55638925e-02  1.00477753e-05  8.63319978e-05
 -3.16136458e-05  2.13568822e-03  9.21965884e-05 -1.43793532e-05
 -1.16276502e-04  1.21973634e-04 -1.89567831e-05  4.67698047e-06
 -4.26780376e-06]",0.7332600355148315,1,1
112,137,2024-09-26 22:23:52.398508032,TASK_BEGIN,20,-0.6615354542204477,-0.0016953536206197,-4.721713515365583,0.4579026828578227,0.1403322672001974,-0.2111551851534122,-4.972871467050766,0.1444592726123937,1,2024-09-26 22:23:54.424582031,1727389434.424583,2024-09-26 22:23:54.424582912,5,[-0.00565851  0.00507535  0.00537103 -0.10068348],-1.0,-26.76966303456023,[-0.00565851  0.00507535  0.00537103 -0.10068348],[-0.54299533 -0.99999946  0.15732671 -0.11441346],[1.25811984 0.80560009 0.42469975],"[ 1.32519613e+00  1.00271052e+00  4.77390654e-01  1.33225133e+00
  1.00285875e+00  4.61180221e-01  7.05520005e-03  1.48225679e-04
 -1.62104331e-02  2.40945372e-02  2.40207161e-02 -1.66656130e-04
  2.46770118e-03  1.55638925e-02  1.00477753e-05  8.63319978e-05
 -3.16136458e-05  2.13568822e-03  9.21965884e-05 -1.43793532e-05
 -1.16276502e-04  1.21973634e-04 -1.89567831e-05  4.67698047e-06
 -4.26780376e-06]",0.7332600355148315,1,1
113,138,2024-09-26 22:23:52.466289920,TASK_BEGIN,20,-0.6491179593748336,-0.0025840339706017,-4.720322392725467,0.4757468179247369,0.1580846678733224,-0.217391117440868,-5.035026838595546,0.138895967104655,1,2024-09-26 22:23:54.424582031,1727389434.424583,2024-09-26 22:23:54.424582912,5,[-0.00565851  0.00507535  0.00537103 -0.10068348],-1.0,-26.76966303456023,[-0.00565851  0.00507535  0.00537103 -0.10068348],[-0.54299533 -0.99999946  0.15732671 -0.11441346],[1.25811984 0.80560009 0.42469975],"[ 1.32519613e+00  1.00271052e+00  4.77390654e-01  1.33225133e+00
  1.00285875e+00  4.61180221e-01  7.05520005e-03  1.48225679e-04
 -1.62104331e-02  2.40945372e-02  2.40207161e-02 -1.66656130e-04
  2.46770118e-03  1.55638925e-02  1.00477753e-05  8.63319978e-05
 -3.16136458e-05  2.13568822e-03  9.21965884e-05 -1.43793532e-05
 -1.16276502e-04  1.21973634e-04 -1.89567831e-05  4.67698047e-06
 -4.26780376e-06]",0.7332600355148315,1,1
114,139,2024-09-26 22:23:52.521402112,TASK_BEGIN,20,-0.6353673739025294,-0.002282338295087,-4.68586512350431,0.4849682065254048,0.1744919301265017,-0.2227684317452701,-5.0715856409161,0.1300614750151496,1,2024-09-26 22:23:54.424582031,1727389434.424583,2024-09-26 22:23:54.424582912,5,[-0.00565851  0.00507535  0.00537103 -0.10068348],-1.0,-26.76966303456023,[-0.00565851  0.00507535  0.00537103 -0.10068348],[-0.54299533 -0.99999946  0.15732671 -0.11441346],[1.25811984 0.80560009 0.42469975],"[ 1.32519613e+00  1.00271052e+00  4.77390654e-01  1.33225133e+00
  1.00285875e+00  4.61180221e-01  7.05520005e-03  1.48225679e-04
 -1.62104331e-02  2.40945372e-02  2.40207161e-02 -1.66656130e-04
  2.46770118e-03  1.55638925e-02  1.00477753e-05  8.63319978e-05
 -3.16136458e-05  2.13568822e-03  9.21965884e-05 -1.43793532e-05
 -1.16276502e-04  1.21973634e-04 -1.89567831e-05  4.67698047e-06
 -4.26780376e-06]",0.7332600355148315,1,1
115,140,2024-09-26 22:23:52.599046912,TASK_BEGIN,20,-0.6203044365445924,-0.0008073744470936,-4.622614710775476,0.4856279412879098,0.1892537066874316,-0.2270500361032347,-5.074069236368961,0.1168975072523097,1,2024-09-26 22:23:54.751805176,1727389434.751805,2024-09-26 22:23:54.751805184,5,[-0.00455086  0.00330058  0.00583773 -0.10081463],-1.0,-28.944677272770754,[-0.00455086  0.00330058  0.00583773 -0.10081463],[-0.54148513 -0.99999946  0.15852453 -0.11404865],[1.25811984 0.80560009 0.42469975],"[ 1.32486360e+00  1.00315379e+00  4.77404210e-01  1.33195145e+00
  1.00326825e+00  4.61099133e-01  7.08785208e-03  1.14465986e-04
 -1.63050777e-02  2.40606045e-02  2.40548237e-02 -1.78573989e-04
  2.71729440e-03  1.55567022e-02  9.95325328e-06  6.90655664e-05
 -3.14901698e-05  2.13398868e-03  9.13738011e-05 -1.56451838e-05
 -9.10712392e-05  8.11204684e-05 -6.36364848e-06 -1.26314167e-05
  1.30503350e-05]",0.7331594824790955,1,1
116,141,2024-09-26 22:23:52.660649216,TASK_BEGIN,20,-0.6040918426816563,0.0017733419075754,-4.535972954261562,0.4781451107795181,0.2020465793799319,-0.2300705890376625,-5.036841495454396,0.098722852338744,1,2024-09-26 22:23:54.751805176,1727389434.751805,2024-09-26 22:23:54.751805184,5,[-0.00455086  0.00330058  0.00583773 -0.10081463],-1.0,-28.944677272770754,[-0.00455086  0.00330058  0.00583773 -0.10081463],[-0.54148513 -0.99999946  0.15852453 -0.11404865],[1.25811984 0.80560009 0.42469975],"[ 1.32486360e+00  1.00315379e+00  4.77404210e-01  1.33195145e+00
  1.00326825e+00  4.61099133e-01  7.08785208e-03  1.14465986e-04
 -1.63050777e-02  2.40606045e-02  2.40548237e-02 -1.78573989e-04
  2.71729440e-03  1.55567022e-02  9.95325328e-06  6.90655664e-05
 -3.14901698e-05  2.13398868e-03  9.13738011e-05 -1.56451838e-05
 -9.10712392e-05  8.11204684e-05 -6.36364848e-06 -1.26314167e-05
  1.30503350e-05]",0.7331594824790955,1,1
117,142,2024-09-26 22:23:53.610901248,TASK_BEGIN,20,-0.5870614823346673,0.0053481641517521,-4.432076779977447,0.463270764609294,0.212638807837441,-0.2317682162767302,-4.957607433766597,0.0753276591704179,1,2024-09-26 22:23:55.718375000,1727389435.7183754,2024-09-26 22:23:55.718375424,5,[-0.00277448  0.00055099  0.00650053 -0.10108169],-1.0,-35.08973716315975,[-0.00277448  0.00055099  0.00650053 -0.10108169],[-0.54035544 -0.99999946  0.15924236 -0.11369703],[1.25811984 0.80560009 0.42469975],"[ 1.32429373e+00  1.00379631e+00  4.77597911e-01  1.33147736e+00
  1.00391166e+00  4.61010781e-01  7.18362439e-03  1.15354712e-04
 -1.65871307e-02  2.40608377e-02  2.40551145e-02 -2.06345413e-04
  3.47381835e-03  1.55366028e-02  9.62650279e-06  7.95458492e-05
 -3.11826680e-05  2.13042453e-03  9.37854831e-05 -1.70718016e-05
 -5.00405532e-05  1.78126286e-05  1.00685121e-05 -2.33111774e-06
  2.75787284e-06]",0.7325199842453003,1,1
118,143,2024-09-26 22:23:53.680731904,TASK_BEGIN,20,-0.5696853651640548,0.0097680068744489,-4.317369454405846,0.4420654421841951,0.221000912754954,-0.2322062151732701,-4.837614218599377,0.0470221134825218,1,2024-09-26 22:23:55.718375000,1727389435.7183754,2024-09-26 22:23:55.718375424,5,[-0.00277448  0.00055099  0.00650053 -0.10108169],-1.0,-35.08973716315975,[-0.00277448  0.00055099  0.00650053 -0.10108169],[-0.54035544 -0.99999946  0.15924236 -0.11369703],[1.25811984 0.80560009 0.42469975],"[ 1.32429373e+00  1.00379631e+00  4.77597911e-01  1.33147736e+00
  1.00391166e+00  4.61010781e-01  7.18362439e-03  1.15354712e-04
 -1.65871307e-02  2.40608377e-02  2.40551145e-02 -2.06345413e-04
  3.47381835e-03  1.55366028e-02  9.62650279e-06  7.95458492e-05
 -3.11826680e-05  2.13042453e-03  9.37854831e-05 -1.70718016e-05
 -5.00405532e-05  1.78126286e-05  1.00685121e-05 -2.33111774e-06
  2.75787284e-06]",0.7325199842453003,1,1
119,144,2024-09-26 22:23:53.737688064,TASK_BEGIN,20,-0.5525166391877377,0.0148577245541738,-4.198183918433155,0.4158715626155792,0.2273829694183221,-0.2315791484549437,-4.681522919374328,0.0146232224619876,1,2024-09-26 22:23:55.718375000,1727389435.7183754,2024-09-26 22:23:55.718375424,5,[-0.00277448  0.00055099  0.00650053 -0.10108169],-1.0,-35.08973716315975,[-0.00277448  0.00055099  0.00650053 -0.10108169],[-0.54035544 -0.99999946  0.15924236 -0.11369703],[1.25811984 0.80560009 0.42469975],"[ 1.32429373e+00  1.00379631e+00  4.77597911e-01  1.33147736e+00
  1.00391166e+00  4.61010781e-01  7.18362439e-03  1.15354712e-04
 -1.65871307e-02  2.40608377e-02  2.40551145e-02 -2.06345413e-04
  3.47381835e-03  1.55366028e-02  9.62650279e-06  7.95458492e-05
 -3.11826680e-05  2.13042453e-03  9.37854831e-05 -1.70718016e-05
 -5.00405532e-05  1.78126286e-05  1.00685121e-05 -2.33111774e-06
  2.75787284e-06]",0.7325199842453003,1,1
120,145,2024-09-26 22:23:53.814940928,TASK_BEGIN,20,-0.5361378214060013,0.0204351811259626,-4.08037862735146,0.3862594713893815,0.2323491976493714,-0.2302013031481411,-4.497036814889147,-0.0206365625096648,1,2024-09-26 22:23:55.718375000,1727389435.7183754,2024-09-26 22:23:55.718375424,5,[-0.00277448  0.00055099  0.00650053 -0.10108169],-1.0,-35.08973716315975,[-0.00277448  0.00055099  0.00650053 -0.10108169],[-0.54035544 -0.99999946  0.15924236 -0.11369703],[1.25811984 0.80560009 0.42469975],"[ 1.32429373e+00  1.00379631e+00  4.77597911e-01  1.33147736e+00
  1.00391166e+00  4.61010781e-01  7.18362439e-03  1.15354712e-04
 -1.65871307e-02  2.40608377e-02  2.40551145e-02 -2.06345413e-04
  3.47381835e-03  1.55366028e-02  9.62650279e-06  7.95458492e-05
 -3.11826680e-05  2.13042453e-03  9.37854831e-05 -1.70718016e-05
 -5.00405532e-05  1.78126286e-05  1.00685121e-05 -2.33111774e-06
  2.75787284e-06]",0.7325199842453003,1,1
121,146,2024-09-26 22:23:53.884126976,TASK_BEGIN,20,-0.5211317209594841,0.0263353923292389,-3.9690050442976137,0.3549326582601841,0.236762901062209,-0.2284778735310174,-4.294353369421719,-0.0572704233607627,1,2024-09-26 22:23:56.035410889,1727389436.0354116,2024-09-26 22:23:56.035411712,5,[-0.00251957  0.0001327   0.00659866 -0.10116296],-1.0,-37.01763687967674,[-0.00251957  0.0001327   0.00659866 -0.10116296],[-0.5403636  -0.99999946  0.15912925 -0.11367488],[1.25811984 0.80560009 0.42469975],"[ 1.32418112e+00  1.00388808e+00  4.77687016e-01  1.33139589e+00
  1.00399966e+00  4.61006480e-01  7.21477011e-03  1.11588602e-04
 -1.66805364e-02  2.40568472e-02  2.40592797e-02 -2.14772481e-04
  3.73182391e-03  1.55302390e-02  9.50954630e-06  8.22011701e-05
 -3.10877194e-05  2.12906501e-03  9.49008251e-05 -1.74724906e-05
 -4.41304493e-05  8.15353729e-06  1.23783925e-05  2.58759198e-07
  1.68655480e-07]",0.732197642326355,1,1
122,147,2024-09-26 22:23:53.951947008,TASK_BEGIN,20,-0.5080687476257091,0.0324329020755089,-3.8679666110824655,0.3235944935995494,0.2417132461034669,-0.2268623000316469,-4.085434164174966,-0.0937173325689796,1,2024-09-26 22:23:56.035410889,1727389436.0354116,2024-09-26 22:23:56.035411712,5,[-0.00251957  0.0001327   0.00659866 -0.10116296],-1.0,-37.01763687967674,[-0.00251957  0.0001327   0.00659866 -0.10116296],[-0.5403636  -0.99999946  0.15912925 -0.11367488],[1.25811984 0.80560009 0.42469975],"[ 1.32418112e+00  1.00388808e+00  4.77687016e-01  1.33139589e+00
  1.00399966e+00  4.61006480e-01  7.21477011e-03  1.11588602e-04
 -1.66805364e-02  2.40568472e-02  2.40592797e-02 -2.14772481e-04
  3.73182391e-03  1.55302390e-02  9.50954630e-06  8.22011701e-05
 -3.10877194e-05  2.12906501e-03  9.49008251e-05 -1.74724906e-05
 -4.41304493e-05  8.15353729e-06  1.23783925e-05  2.58759198e-07
  1.68655480e-07]",0.732197642326355,1,1
123,148,2024-09-26 22:23:54.019750912,TASK_BEGIN,20,-0.4974901506129544,0.0386540960852894,-3.779719120049241,0.2937991576331598,0.248381671822209,-0.2258058325724482,-3.883051635629189,-0.1284885908437836,1,2024-09-26 22:23:56.035410889,1727389436.0354116,2024-09-26 22:23:56.035411712,5,[-0.00251957  0.0001327   0.00659866 -0.10116296],-1.0,-37.01763687967674,[-0.00251957  0.0001327   0.00659866 -0.10116296],[-0.5403636  -0.99999946  0.15912925 -0.11367488],[1.25811984 0.80560009 0.42469975],"[ 1.32418112e+00  1.00388808e+00  4.77687016e-01  1.33139589e+00
  1.00399966e+00  4.61006480e-01  7.21477011e-03  1.11588602e-04
 -1.66805364e-02  2.40568472e-02  2.40592797e-02 -2.14772481e-04
  3.73182391e-03  1.55302390e-02  9.50954630e-06  8.22011701e-05
 -3.10877194e-05  2.12906501e-03  9.49008251e-05 -1.74724906e-05
 -4.41304493e-05  8.15353729e-06  1.23783925e-05  2.58759198e-07
  1.68655480e-07]",0.732197642326355,1,1
124,149,2024-09-26 22:23:54.950653184,TASK_BEGIN,20,-0.4898737276463341,0.0449745458267803,-3.7051094518274095,0.2668248453891014,0.2578705552158771,-0.2257083475166559,-3.6996270235793896,-0.1602690319807367,1,2024-09-26 22:23:57.009488037,1727389437.0094883,2024-09-26 22:23:57.009488384,5,[-0.00213358 -0.00048827  0.00670194 -0.10135137],-1.0,-42.46452500230712,[-0.00213358 -0.00048827  0.00670194 -0.10135137],[-0.5407423  -0.99999946  0.15839672 -0.11367284],[1.25811984 0.80560009 0.42469975],"[ 1.32394022e+00  1.00400810e+00  4.77980614e-01  1.33124610e+00
  1.00412211e+00  4.61021632e-01  7.30587516e-03  1.14014997e-04
 -1.69589820e-02  2.40586206e-02  2.40580286e-02 -2.39451787e-04
  4.52528382e-03  1.55119348e-02  9.13873306e-06  8.19114653e-05
 -3.08026791e-05  2.12491979e-03  9.81432600e-05 -1.85918365e-05
 -3.50974755e-05 -6.11140170e-06  1.45970017e-05 -2.26336427e-07
  6.52552071e-07]",0.7309862375259399,1,1
125,150,2024-09-26 22:23:55.031876864,TASK_BEGIN,20,-0.4855920226649677,0.0514036762936338,-3.643404589307314,0.2436073918580354,0.2710442072498756,-0.2268809021716721,-3.5460742685551576,-0.1879768567040882,1,2024-09-26 22:23:57.009488037,1727389437.0094883,2024-09-26 22:23:57.009488384,5,[-0.00213358 -0.00048827  0.00670194 -0.10135137],-1.0,-42.46452500230712,[-0.00213358 -0.00048827  0.00670194 -0.10135137],[-0.5407423  -0.99999946  0.15839672 -0.11367284],[1.25811984 0.80560009 0.42469975],"[ 1.32394022e+00  1.00400810e+00  4.77980614e-01  1.33124610e+00
  1.00412211e+00  4.61021632e-01  7.30587516e-03  1.14014997e-04
 -1.69589820e-02  2.40586206e-02  2.40580286e-02 -2.39451787e-04
  4.52528382e-03  1.55119348e-02  9.13873306e-06  8.19114653e-05
 -3.08026791e-05  2.12491979e-03  9.81432600e-05 -1.85918365e-05
 -3.50974755e-05 -6.11140170e-06  1.45970017e-05 -2.26336427e-07
  6.52552071e-07]",0.7309862375259399,1,1
126,151,2024-09-26 22:23:55.099691776,TASK_BEGIN,20,-0.484871688494941,0.0579623455822099,-3.5925273955254853,0.2247556790657938,0.2884218497579855,-0.2295253818987941,-3.431010321859563,-0.2107736240818175,1,2024-09-26 22:23:57.009488037,1727389437.0094883,2024-09-26 22:23:57.009488384,5,[-0.00213358 -0.00048827  0.00670194 -0.10135137],-1.0,-42.46452500230712,[-0.00213358 -0.00048827  0.00670194 -0.10135137],[-0.5407423  -0.99999946  0.15839672 -0.11367284],[1.25811984 0.80560009 0.42469975],"[ 1.32394022e+00  1.00400810e+00  4.77980614e-01  1.33124610e+00
  1.00412211e+00  4.61021632e-01  7.30587516e-03  1.14014997e-04
 -1.69589820e-02  2.40586206e-02  2.40580286e-02 -2.39451787e-04
  4.52528382e-03  1.55119348e-02  9.13873306e-06  8.19114653e-05
 -3.08026791e-05  2.12491979e-03  9.81432600e-05 -1.85918365e-05
 -3.50974755e-05 -6.11140170e-06  1.45970017e-05 -2.26336427e-07
  6.52552071e-07]",0.7309862375259399,1,1
127,152,2024-09-26 22:23:55.167524096,TASK_BEGIN,20,-0.4877407999620373,0.0646569656521607,-3.549495598090361,0.21063816521475,0.3101229804066198,-0.2337289789340166,-3.36047971743406,-0.228038498956175,1,2024-09-26 22:23:57.331078125,1727389437.3310788,2024-09-26 22:23:57.331078656,5,[-0.0020752  -0.00058261  0.00671546 -0.10141771],-1.0,-44.1733861452136,[-0.0020752  -0.00058261  0.00671546 -0.10141771],[-0.54070807 -0.99999946  0.15809357 -0.11365854],[1.25811984 0.80560009 0.42469975],"[ 1.32387721e+00  1.00402042e+00  4.78082363e-01  1.33121269e+00
  1.00413497e+00  4.61031144e-01  7.33547474e-03  1.14545686e-04
 -1.70512188e-02  2.40589453e-02  2.40578776e-02 -2.47799052e-04
  4.79610079e-03  1.55059432e-02  9.01436118e-06  8.21773537e-05
 -3.07099301e-05  2.12352339e-03  9.91710281e-05 -1.89471039e-05
 -3.36982584e-05 -8.26450035e-06  1.48261613e-05 -2.53079822e-08
  4.50700012e-07]",0.7305445075035095,1,1
128,153,2024-09-26 22:23:55.228641024,TASK_BEGIN,20,-0.4939576459598594,0.0714538168114339,-3.511014136904763,0.2014898363389499,0.3358443194259461,-0.2394678404682441,-3.337937678847444,-0.2393638403622665,1,2024-09-26 22:23:57.331078125,1727389437.3310788,2024-09-26 22:23:57.331078656,5,[-0.0020752  -0.00058261  0.00671546 -0.10141771],-1.0,-44.1733861452136,[-0.0020752  -0.00058261  0.00671546 -0.10141771],[-0.54070807 -0.99999946  0.15809357 -0.11365854],[1.25811984 0.80560009 0.42469975],"[ 1.32387721e+00  1.00402042e+00  4.78082363e-01  1.33121269e+00
  1.00413497e+00  4.61031144e-01  7.33547474e-03  1.14545686e-04
 -1.70512188e-02  2.40589453e-02  2.40578776e-02 -2.47799052e-04
  4.79610079e-03  1.55059432e-02  9.01436118e-06  8.21773537e-05
 -3.07099301e-05  2.12352339e-03  9.91710281e-05 -1.89471039e-05
 -3.36982584e-05 -8.26450035e-06  1.48261613e-05 -2.53079822e-08
  4.50700012e-07]",0.7305445075035095,1,1
129,154,2024-09-26 22:23:55.291762176,TASK_BEGIN,20,-0.5029480687561796,0.0782603874753765,-3.4740979213871115,0.1974723644429128,0.3648548272759264,-0.2466138468491581,-3.3640949485400764,-0.2446231233805789,1,2024-09-26 22:23:57.331078125,1727389437.3310788,2024-09-26 22:23:57.331078656,5,[-0.0020752  -0.00058261  0.00671546 -0.10141771],-1.0,-44.1733861452136,[-0.0020752  -0.00058261  0.00671546 -0.10141771],[-0.54070807 -0.99999946  0.15809357 -0.11365854],[1.25811984 0.80560009 0.42469975],"[ 1.32387721e+00  1.00402042e+00  4.78082363e-01  1.33121269e+00
  1.00413497e+00  4.61031144e-01  7.33547474e-03  1.14545686e-04
 -1.70512188e-02  2.40589453e-02  2.40578776e-02 -2.47799052e-04
  4.79610079e-03  1.55059432e-02  9.01436118e-06  8.21773537e-05
 -3.07099301e-05  2.12352339e-03  9.91710281e-05 -1.89471039e-05
 -3.36982584e-05 -8.26450035e-06  1.48261613e-05 -2.53079822e-08
