,Unnamed: 0,time,MARKER,pid,L_O_DSI,L_D_DSI,L_O_DSphi,L_D_DSphi,R_O_DSI,R_D_DSI,R_O_DSphi,R_D_DSphi,trial_id,timestamps,floatTimestamps,dateTimestamps,episode,states,actions,rewards,chosen_actions,optimal_actions,desired_goal,achieved_goal,numDemonstrations,steps,seed,continuous_optimal,binary_optimal,discrete_optimal
1,6,2024-09-26 22:35:12.543489024,TASK_BEGIN,20,-0.2366278918387078,0.1684993533219398,-3.6746990425686943,0.6171466964460101,-0.8670936535829873,0.296773472202979,-1.7977675746862254,0.5252239715854322,3,2024-09-26 22:35:12.941968640,1727390112.9419687,2024-09-26 22:35:12.941968953,0,"[ 1.34207316e+00  7.49160985e-01  5.34270250e-01  1.34269329e+00
  6.00799194e-01  4.24757513e-01  6.20129238e-04 -1.48361791e-01
 -1.09512737e-01  2.42258764e-06  1.54948145e-06 -2.88713263e-08
  4.44174251e-08 -1.54917049e-15 -4.43519426e-05 -2.27374161e-05
  1.74225405e-04  1.62724006e-08 -2.50344625e-08  5.55089951e-18
  4.43513169e-05  2.27370094e-05 -1.58989423e-04  1.31183773e-07
  6.82190009e-08]","[0.0009765625, 0.0009765625, -0.0009765625, 0.0]",-1.0,"[0.0009765625, 0.0009765625, -0.0009765625, 0.0]",[-0.37196454 -0.9999112  -0.08116577  0.22345015],[1.39922648 0.68809563 0.42469975],[1.34269329 0.6007992  0.42470209],21,651,1459,0.8984065045026947,0,0
2,7,2024-09-26 22:35:12.595934976,TASK_BEGIN,20,-0.2252633292748265,0.1721755840690883,-3.9885271331359617,0.6545019255930992,-0.8596105006005249,0.2905553461533006,-2.0156892490900518,0.552535445389823,3,2024-09-26 22:35:12.941968640,1727390112.9419687,2024-09-26 22:35:12.941968953,0,"[ 1.34207316e+00  7.49160985e-01  5.34270250e-01  1.34269329e+00
  6.00799194e-01  4.24757513e-01  6.20129238e-04 -1.48361791e-01
 -1.09512737e-01  2.42258764e-06  1.54948145e-06 -2.88713263e-08
  4.44174251e-08 -1.54917049e-15 -4.43519426e-05 -2.27374161e-05
  1.74225405e-04  1.62724006e-08 -2.50344625e-08  5.55089951e-18
  4.43513169e-05  2.27370094e-05 -1.58989423e-04  1.31183773e-07
  6.82190009e-08]","[0.0009765625, 0.0009765625, -0.0009765625, 0.0]",-1.0,"[0.0009765625, 0.0009765625, -0.0009765625, 0.0]",[-0.37196454 -0.9999112  -0.08116577  0.22345015],[1.39922648 0.68809563 0.42469975],[1.34269329 0.6007992  0.42470209],21,651,1459,0.8984065045026947,0,0
3,8,2024-09-26 22:35:12.673715968,TASK_BEGIN,20,-0.2156246441875442,0.1771798624720974,-4.327354918345057,0.6956142999932586,-0.8589865229554925,0.288301105861417,-2.134371651185542,0.5620266710337942,3,2024-09-26 22:35:13.056970240,1727390113.0569704,2024-09-26 22:35:13.056969930,0,"[ 1.34218926e+00  7.49223771e-01  5.33828345e-01  1.34269329e+00
  6.00799194e-01  4.24775622e-01  5.04030185e-04 -1.48424577e-01
 -1.09052723e-01  2.21825419e-06  1.98507516e-06 -9.52496622e-09
  1.46537942e-08 -2.11760015e-15 -4.30482059e-05 -2.30034173e-05
  1.63429975e-04  5.34650724e-09 -8.22539575e-09  5.78733045e-18
  4.30480002e-05  2.30032837e-05 -1.58431872e-04  2.73905777e-07
 -2.19829019e-07]","[0.0009765625, 0.0009765625, -0.0009765625, 0.0]",-1.0,"[0.0009765625, 0.0009765625, -0.0009765625, 0.0]",[-0.3737045  -0.9999187  -0.07379995  0.22479203],[1.39922648 0.68809563 0.42469975],[1.34269329 0.6007992  0.42470209],21,651,1459,0.8999486133952465,0,0
4,9,2024-09-26 22:35:12.736203008,TASK_BEGIN,20,-0.2076379641120848,0.1834361140953833,-4.683381063846168,0.7395841661176242,-0.864586475208123,0.2896863668254532,-2.1580589858185397,0.5553913534593958,3,2024-09-26 22:35:13.115982336,1727390113.1159823,2024-09-26 22:35:13.115981893,0,"[ 1.34224551e+00  7.49255169e-01  5.33610359e-01  1.34269329e+00
  6.00799194e-01  4.24779403e-01  4.47777021e-04 -1.48455975e-01
 -1.08830957e-01  2.19461836e-06  2.04995103e-06 -5.47721601e-09
  8.42648615e-09 -2.16453471e-15 -4.24071527e-05 -2.30032187e-05
  1.60312964e-04  3.07185105e-09 -4.72592467e-09 -7.66988504e-19
  4.24070345e-05  2.30031419e-05 -1.57447045e-04  3.01328295e-07
 -2.73167146e-07]","[0.0009765625, 0.0009765625, -0.0009765625, 0.0]",-1.0,"[0.0009765625, 0.0009765625, -0.0009765625, 0.0]",[-0.37454066 -0.9999207  -0.07146273  0.22587599],[1.39922648 0.68809563 0.42469975],[1.34269329 0.6007992  0.42470209],21,651,1459,0.9006986330152749,0,0
5,10,2024-09-26 22:35:13.657062912,TASK_BEGIN,20,-0.2011815491764227,0.190806224907362,-5.046285150705457,0.7853021533267398,-0.8754194645029615,0.2941836474000549,-2.095728371642421,0.5351558261859326,3,2024-09-26 22:35:14.024919552,1727390114.0249195,2024-09-26 22:35:14.024918904,0,"[ 1.34310866e+00  7.49757572e-01  5.30190150e-01  1.34269329e+00
  6.00799193e-01  4.24784488e-01 -4.15370579e-04 -1.48958379e-01
 -1.05405662e-01  2.47730130e-06  1.81208020e-06 -7.92275651e-13
  1.21889353e-12 -2.19911247e-15 -4.09128007e-05 -2.30059914e-05
  1.55195387e-04  4.43838160e-13 -6.82834474e-13  7.56652119e-19
  4.09128007e-05  2.30059914e-05 -1.55194991e-04  3.32432010e-07
 -3.32431185e-07]","[0.0009765625, 0.0009765625, -0.0009765625, 0.0]",-1.0,"[0.0009765625, 0.0009765625, -0.0009765625, 0.0]",[-0.38816026 -0.99994695 -0.04560487  0.24298823],[1.39922648 0.68809563 0.42469975],[1.34269329 0.6007992  0.42470209],21,651,1459,0.9135431822092862,0,0
6,11,2024-09-26 22:35:13.719550976,TASK_BEGIN,20,-0.1960694474319243,0.1990960816264927,-5.403822077079761,0.8314741032275436,-0.8902281713374584,0.3011174248448841,-1.960504786097258,0.5045208846957908,3,2024-09-26 22:35:14.080429824,1727390114.0804298,2024-09-26 22:35:14.080428914,0,"[ 1.34316235e+00  7.49788983e-01  5.29976693e-01  1.34269329e+00
  6.00799193e-01  4.24784489e-01 -4.69054761e-04 -1.48989790e-01
 -1.05192205e-01  2.49831372e-06  1.79106841e-06 -4.55957585e-13
  7.01479230e-13 -2.19776735e-15 -4.09351741e-05 -2.30070418e-05
  1.55254191e-04  2.55439726e-13 -3.92974943e-13  4.44062097e-19
  4.09351741e-05  2.30070417e-05 -1.55253964e-04  3.32469996e-07
 -3.32469566e-07]","[0.0009765625, 0.0009765625, -0.0009765625, 0.0]",-1.0,"[0.0009765625, 0.0009765625, -0.0009765625, 0.0]",[-0.38900784 -0.99994826 -0.04413831  0.24407876],[1.39922648 0.68809563 0.42469975],[1.34269329 0.6007992  0.42470209],21,651,1459,0.9143535656700733,0,0
7,12,2024-09-26 22:35:13.797241088,TASK_BEGIN,20,-0.1920237782412288,0.2080617685498056,-5.742933990519499,0.8767030554419014,-0.9075729841449834,0.3097259179481255,-1.7685277445641685,0.4671075107590473,3,2024-09-26 22:35:14.196947200,1727390114.196947,2024-09-26 22:35:14.196946980,0,"[ 1.34326979e+00  7.49851808e-01  5.29549524e-01  1.34269329e+00
  6.00799193e-01  4.24784489e-01 -5.76502873e-04 -1.49052615e-01
 -1.04765035e-01  2.54041819e-06  1.74896444e-06 -1.51016434e-13
  2.32335963e-13 -2.19604686e-15 -4.09827957e-05 -2.30091711e-05
  1.55377165e-04  8.46018774e-14 -1.30154059e-13 -7.14842618e-19
  4.09827957e-05  2.30091711e-05 -1.55377091e-04  3.32542112e-07
 -3.32541995e-07]","[0.0009765625, 0.0009765625, -0.0009765625, 0.0]",-1.0,"[0.0009765625, 0.0009765625, -0.0009765625, 0.0]",[-0.3907924  -0.9999508  -0.04113729  0.24639253],[1.39922648 0.68809563 0.42469975],[1.34269329 0.6007992  0.42470209],21,651,1459,0.9159713873782358,0,0
8,13,2024-09-26 22:35:13.868300032,TASK_BEGIN,20,-0.1886661692808986,0.2174191641037575,-6.051167740134271,0.9196339808513,-0.925925147025559,0.3192194029441652,-1.5374256027351332,0.4266072022584509,3,2024-09-26 22:35:14.254949120,1727390114.254949,2024-09-26 22:35:14.254948934,0,"[ 1.34332356e+00  7.49883223e-01  5.29335807e-01  1.34269329e+00
  6.00799193e-01  4.24784489e-01 -6.30268916e-04 -1.49084030e-01
 -1.04551318e-01  2.56150835e-06  1.72787437e-06 -8.69140740e-14
  1.33713507e-13 -2.19773382e-15 -4.10075487e-05 -2.30102467e-05
  1.55440365e-04  4.86835300e-14 -7.49027998e-14  4.27963158e-19
  4.10075487e-05  2.30102467e-05 -1.55440322e-04  3.32576882e-07
 -3.32576820e-07]","[0.0009765625, 0.0009765625, -0.0009765625, 0.0]",-1.0,"[0.0009765625, 0.0009765625, -0.0009765625, 0.0]",[-0.3916907  -0.999952   -0.0396308   0.24755882],[1.39922648 0.68809563 0.42469975],[1.34269329 0.6007992  0.42470209],21,651,1459,0.9167790102053169,0,0
9,14,2024-09-26 22:35:13.921528064,TASK_BEGIN,20,-0.1855516462077184,0.2268591309026455,-6.317969894470636,0.959116037402087,-0.9437671803120392,0.3288282832672501,-1.2847577806184811,0.3864285184382526,3,2024-09-26 22:35:14.313320192,1727390114.3133202,2024-09-26 22:35:14.313320027,0,"[ 1.34337735e+00  7.49914639e-01  5.29122001e-01  1.34269329e+00
  6.00799193e-01  4.24784489e-01 -6.84063891e-04 -1.49115446e-01
 -1.04337512e-01  2.58262291e-06  1.70675986e-06 -5.00204126e-14
  7.69551764e-14 -2.19561356e-15 -4.10327014e-05 -2.30113280e-05
  1.55504264e-04  2.80289288e-14 -4.31137674e-14  2.40784168e-18
  4.10327014e-05  2.30113280e-05 -1.55504240e-04  3.32611072e-07
 -3.32611039e-07]","[0.0009765625, 0.0009765625, -0.0009765625, 0.0]",-1.0,"[0.0009765625, 0.0009765625, -0.0009765625, 0.0]",[-0.39258465 -0.9999532  -0.03811984  0.24871604],[1.39922648 0.68809563 0.42469975],[1.34269329 0.6007992  0.42470209],21,651,1459,0.917584914429342,0,0
10,15,2024-09-26 22:35:13.998300160,TASK_BEGIN,20,-0.1822308542667698,0.2360643116799819,-6.535542120837865,0.9943274237242564,-0.95967883616355,0.3378383151386811,-1.0268373955076475,0.3494637191500818,3,2024-09-26 22:35:14.371319040,1727390114.371319,2024-09-26 22:35:14.371318807,0,"[ 1.34343118e+00  7.49946057e-01  5.28908103e-01  1.34269329e+00
  6.00799193e-01  4.24784489e-01 -7.37888254e-04 -1.49146863e-01
 -1.04123613e-01  2.60376141e-06  1.68562138e-06 -2.87885780e-14
  4.42875099e-14 -2.19699432e-15 -4.10581362e-05 -2.30124141e-05
  1.55568638e-04  1.61170246e-14 -2.48107707e-14  7.39138346e-19
  4.10581362e-05  2.30124141e-05 -1.55568624e-04  3.32644821e-07
 -3.32644803e-07]","[0.0009765625, 0.0009765625, -0.0009765625, 0.0]",-1.0,"[0.0009765625, 0.0009765625, -0.0009765625, 0.0]",[-0.39344132 -0.9999544  -0.03657594  0.24979255],[1.39922648 0.68809563 0.42469975],[1.34269329 0.6007992  0.42470209],21,651,1459,0.9184058086052864,0,0
11,16,2024-09-26 22:35:14.071742976,TASK_BEGIN,20,-0.1783047695982433,0.2447211151697216,-6.69917639939878,1.0248183881327797,-0.9723962649875184,0.3456143286109429,-0.7781218957575416,0.3180265892132761,3,2024-09-26 22:35:14.429330944,1727390114.429331,2024-09-26 22:35:14.429331014,0,"[ 1.34348503e+00  7.49977475e-01  5.28694113e-01  1.34269329e+00
  6.00799193e-01  4.24784489e-01 -7.91742325e-04 -1.49178282e-01
 -1.03909624e-01  2.62492349e-06  1.66445932e-06 -1.65710612e-14
  2.54869644e-14 -2.19811614e-15 -4.10837651e-05 -2.30135044e-05
  1.55633319e-04  9.27606437e-15 -1.42780358e-14 -3.87720545e-19
  4.10837651e-05  2.30135044e-05 -1.55633311e-04  3.32678231e-07
 -3.32678222e-07]","[0.0009765625, 0.0009765625, -0.0009765625, 0.0]",-1.0,"[0.0009765625, 0.0009765625, -0.0009765625, 0.0]",[-0.39429772 -0.99995553 -0.03503122  0.2508688 ],[1.39922648 0.68809563 0.42469975],[1.34269329 0.6007992  0.42470209],21,651,1459,0.9192214999131766,0,0
12,17,2024-09-26 22:35:14.986933760,TASK_BEGIN,20,-0.1734537794971699,0.2525252530758717,-6.807187182530913,1.050460094274397,-0.980839685449776,0.3516142811958979,-0.5510151760930313,0.2939144881988964,3,2024-09-26 22:35:15.349984000,1727390115.349984,2024-09-26 22:35:15.349984090,0,"[ 1.34435078e+00  7.50480365e-01  5.25257731e-01  1.34269329e+00
  6.00799193e-01  4.24784489e-01 -1.65749398e-03 -1.49681172e-01
 -1.00473242e-01  2.96658412e-06  1.32279871e-06  7.71108903e-17
  3.80597408e-17 -2.19854496e-15 -4.14950389e-05 -2.30313292e-05
  1.56662833e-04 -3.30850571e-17 -2.33853042e-17  1.12262067e-18
  4.14950389e-05  2.30313292e-05 -1.56662833e-04  3.33195987e-07
 -3.33195986e-07]","[0.0009765625, 0.0009765625, -0.0009765625, 0.0]",-1.0,"[0.0009765625, 0.0009765625, -0.0009765625, 0.0]",[-0.40795884 -0.99997056 -0.01020553  0.26806772],[1.39922648 0.68809563 0.42469975],[1.34269329 0.6007992  0.42470209],21,651,1459,0.9314460657682136,0,0
13,18,2024-09-26 22:35:15.044899840,TASK_BEGIN,20,-0.1674488497328684,0.2591853571810632,-6.860651932971362,1.0713388931936416,-0.9841112455413992,0.3553951713809277,-0.3557963370612649,0.2785089312964739,3,2024-09-26 22:35:15.408972032,1727390115.408972,2024-09-26 22:35:15.408970906,0,"[ 1.34440515e+00  7.50511808e-01  5.25042180e-01  1.34269304e+00
  6.00799438e-01  4.24784519e-01 -1.71210898e-03 -1.49712370e-01
 -1.00257661e-01  2.98812477e-06  1.30125806e-06 -9.69974893e-06
 -1.00140991e-05 -4.85693222e-11 -4.14445118e-05 -2.31059039e-05
  1.56715468e-04  3.11103271e-06  3.21185530e-06  2.52854149e-18
  4.15203330e-05  2.30324627e-05 -1.56725953e-04  3.33227862e-07
 -3.33227861e-07]","[0.0009765625, 0.0009765625, -0.0009765625, 0.0]",-1.0,"[0.0009765625, 0.0009765625, -0.0009765625, 0.0]",[-0.40880993 -0.99997133 -0.00864761  0.26914108],[1.39922648 0.68809563 0.42469975],[1.34269329 0.6007992  0.42470209],21,651,1459,0.9321581574449873,0,0
14,19,2024-09-26 22:35:15.122572032,TASK_BEGIN,20,-0.1601539721445624,0.2644302495780525,-6.863091268320568,1.087658185336681,-0.981482065847359,0.3566136830827936,-0.2005371301217782,0.2728474682960682,3,2024-09-26 22:35:15.464972288,1727390115.4649723,2024-09-26 22:35:15.464971883,0,"[ 1.34445954e+00  7.50543252e-01  5.24826540e-01  1.34269313e+00
  6.00799345e-01  4.24784507e-01 -1.76640522e-03 -1.49743907e-01
 -1.00042032e-01  3.00968699e-06  1.27969584e-06 -5.93349935e-06
 -6.12579266e-06 -1.81758906e-11 -4.14612393e-05 -2.31152771e-05
  1.56778775e-04  3.27350234e-06  3.37959026e-06  5.81184720e-19
  4.15455651e-05  2.30335984e-05 -1.56788906e-04  3.33259697e-07
 -3.33259696e-07]","[0.0009765625, 0.0009765625, -0.0009765625, 0.0]",-1.0,"[0.0009765625, 0.0009765625, -0.0009765625, 0.0]",[-0.40966144 -0.99997205 -0.00709059  0.270214  ],[1.39922648 0.68809563 0.42469975],[1.34269329 0.6007992  0.42470209],21,651,1459,0.9328646923453187,0,0
15,20,2024-09-26 22:35:15.183741952,TASK_BEGIN,20,-0.1515134598278948,0.2680204183454125,-6.8200865268765245,1.0996822546034413,-0.9723853044838764,0.3550237768832811,-0.0910362662794087,0.277638337355615,3,2024-09-26 22:35:15.578969344,1727390115.5789692,2024-09-26 22:35:15.578969197,0,"[ 1.34456841e+00  7.50606144e-01  5.24394989e-01  1.34269324e+00
  6.00799246e-01  4.24784495e-01 -1.87517490e-03 -1.49806898e-01
 -9.96104940e-02  3.05287590e-06  1.23650694e-06 -1.96979006e-06
 -2.03362717e-06 -2.00510895e-12 -4.15673529e-05 -2.30634706e-05
  1.56910929e-04  1.10346793e-06  1.13922921e-06 -2.41511978e-19
  4.15958418e-05  2.30358760e-05 -1.56914310e-04  3.33323244e-07
 -3.33323243e-07]","[0.0009765625, 0.0009765625, -0.0009765625, 0.0]",-1.0,"[0.0009765625, 0.0009765625, -0.0009765625, 0.0]",[-0.4112724  -0.9999735  -0.00392723  0.2723561 ],[1.39922648 0.68809563 0.42469975],[1.34269329 0.6007992  0.42470209],21,651,1459,0.9342643999168064,0,0
16,21,2024-09-26 22:35:15.252555008,TASK_BEGIN,20,-0.1415128072979531,0.2697598497508399,-6.738814414795358,1.1077114756546924,-0.9564117917389996,0.3504709401205185,-0.0308371911518676,0.2932310307953245,3,2024-09-26 22:35:15.636966912,1727390115.636967,2024-09-26 22:35:15.636967000,0,"[ 1.34462289e+00  7.50637593e-01  5.24179080e-01  1.34269326e+00
  6.00799225e-01  4.24784493e-01 -1.92963299e-03 -1.49838368e-01
 -9.93945872e-02  3.07450247e-06  1.21488037e-06 -1.13362941e-06
 -1.17036816e-06 -6.65581011e-13 -4.16044902e-05 -2.30528991e-05
  1.56974821e-04  6.35068105e-07  6.55649442e-07  1.50141931e-18
  4.16208862e-05  2.30370178e-05 -1.56976761e-04  3.33354958e-07
 -3.33354957e-07]","[0.0009765625, 0.0009765625, -0.0009765625, 0.0]",-1.0,"[0.0009765625, 0.0009765625, -0.0009765625, 0.0]",[-0.411968   -0.9999741  -0.00229137  0.27342224],[1.39922648 0.68809563 0.42469975],[1.34269329 0.6007992  0.42470209],21,651,1459,0.9349584575405079,0,0
17,22,2024-09-26 22:35:15.328988928,TASK_BEGIN,20,-0.1301207675727548,0.2695061634492185,-6.627489283039587,1.112053584407244,-0.9333017473268692,0.3428825742874454,-0.0213720907451099,0.319580010228065,3,2024-09-26 22:35:15.693969664,1727390115.6939697,2024-09-26 22:35:15.693970174,0,"[ 1.34467740e+00  7.50669042e-01  5.23963081e-01  1.34269327e+00
  6.00799213e-01  4.24784491e-01 -1.98412927e-03 -1.49869829e-01
 -9.91785902e-02  3.09615037e-06  1.19323247e-06 -6.52410297e-07
 -6.73553661e-07 -2.21917639e-13 -4.16364320e-05 -2.30473016e-05
  1.57037933e-04  3.65485791e-07  3.77330483e-07 -1.28199606e-18
  4.16458680e-05  2.30381618e-05 -1.57039046e-04  3.33386631e-07
 -3.33386630e-07]","[0.0009765625, 0.0009765625, -0.0009765625, 0.0]",-1.0,"[0.0009765625, 0.0009765625, -0.0009765625, 0.0]",[-4.1266346e-01 -9.9997467e-01 -6.5480953e-04  2.7448815e-01],[1.39922648 0.68809563 0.42469975],[1.34269329 0.6007992  0.42470209],21,651,1459,0.9356470433454623,0,0
18,23,2024-09-26 22:35:15.388526848,TASK_BEGIN,20,-0.1172415883637403,0.2671794564114217,-6.494671555491991,1.11296821888494,-0.9029362831226828,0.3322554572297996,-0.0622364590187468,0.356226477695372,3,2024-09-26 22:35:15.748971008,1727390115.748971,2024-09-26 22:35:15.748969930,0,"[ 1.34473194e+00  7.50700493e-01  5.23746994e-01  1.34269328e+00
  6.00799206e-01  4.24784490e-01 -2.03865975e-03 -1.49901287e-01
 -9.89625037e-02  3.11781955e-06  1.17156330e-06 -3.75465814e-07
 -3.87633940e-07 -7.49727745e-14 -4.16653567e-05 -2.30445677e-05
  1.57100526e-04  2.10339185e-07  2.17155874e-07 -1.53755215e-18
  4.16707872e-05  2.30393077e-05 -1.57101165e-04  3.33418264e-07
 -3.33418264e-07]","[0.0009765625, 0.0009765625, -0.0009765625, 0.0]",-1.0,"[0.0009765625, 0.0009765625, -0.0009765625, 0.0]",[-4.1335887e-01 -9.9997532e-01  9.8235079e-04  2.7555388e-01],[1.39922648 0.68809563 0.42469975],[1.34269329 0.6007992  0.42470209],21,651,1459,0.936354807257449,0,0
19,24,2024-09-26 22:35:16.339992832,TASK_BEGIN,20,-0.102704214265598,0.2627681415516727,-6.348462649928994,1.110597565313202,-0.8653390544566208,0.3186431713129127,-0.1514932023143412,0.4022877979560579,3,2024-09-26 22:35:16.725018112,1727390116.725018,2024-09-26 22:35:16.725017781,0,"[ 1.34566342e+00  7.51235386e-01  5.20060133e-01  1.34269329e+00
  6.00799197e-01  4.24784489e-01 -2.97013570e-03 -1.50436189e-01
 -9.52756442e-02  3.48939417e-06  7.99988691e-07 -3.12904851e-11
 -3.23045433e-11 -2.19650085e-15 -4.20849028e-05 -2.30590884e-05
  1.58132291e-04  1.75292072e-11  1.80972894e-11  2.90250687e-18
  4.20849033e-05  2.30590880e-05 -1.58132291e-04  3.33949821e-07
 -3.33949820e-07]","[0.0009765625, 0.0009765625, -0.0009765625, 0.0]",-1.0,"[0.0009765625, 0.0009765625, -0.0009765625, 0.0]",[-0.43569177 -0.99998355  0.02886335  0.29510665],[1.39922648 0.68809563 0.42469975],[1.34269329 0.6007992  0.42470209],21,651,1459,0.9483706797362723,0,0
20,25,2024-09-26 22:35:16.407857920,TASK_BEGIN,20,-0.0862956717698575,0.25632844019278,-6.195756200046296,1.1049166288995094,-0.8207040486997236,0.3021487731304375,-0.285808338240955,0.4564311125566851,3,2024-09-26 22:35:16.782019584,1727390116.7820196,2024-09-26 22:35:16.782019002,0,"[ 1.34571847e+00  7.51266863e-01  5.19842485e-01  1.34269329e+00
  6.00799197e-01  4.24784489e-01 -3.02517988e-03 -1.50467666e-01
 -9.50579963e-02  3.51143643e-06  7.77946429e-07 -1.80078446e-11
 -1.85914456e-11 -2.19529973e-15 -4.21087095e-05 -2.30602686e-05
  1.58191513e-04  1.00881623e-11  1.04150923e-11 -3.38404334e-19
  4.21087098e-05  2.30602684e-05 -1.58191513e-04  3.33980717e-07
 -3.33980716e-07]","[0.0009765625, 0.0009765625, -0.0009765625, 0.0]",-1.0,"[0.0009765625, 0.0009765625, -0.0009765625, 0.0]",[-0.43678296 -0.99998385  0.03052059  0.2961047 ],[1.39922648 0.68809563 0.42469975],[1.34269329 0.6007992  0.42470209],21,651,1459,0.949097740225229,0,0
21,26,2024-09-26 22:35:16.465929984,TASK_BEGIN,20,-0.0678238521483372,0.2479760566714857,-6.04172255259514,1.0957219575868642,-0.769458840828834,0.2829265808623177,-0.4603796761520023,0.5168502410072223,3,2024-09-26 22:35:16.839021312,1727390116.8390212,2024-09-26 22:35:16.839020955,0,"[ 1.34577354e+00  7.51298342e-01  5.19624753e-01  1.34269329e+00
  6.00799197e-01  4.24784489e-01 -3.08025142e-03 -1.50499145e-01
 -9.48402637e-02  3.53349889e-06  7.55883971e-07 -1.03636174e-11
 -1.06994814e-11 -2.19233355e-15 -4.21324555e-05 -2.30614507e-05
  1.58250579e-04  5.80578535e-12  5.99394318e-12  1.56855123e-18
  4.21324556e-05  2.30614506e-05 -1.58250579e-04  3.34011571e-07
 -3.34011570e-07]","[0.0009765625, 0.0009765625, -0.0009765625, 0.0]",-1.0,"[0.0009765625, 0.0009765625, -0.0009765625, 0.0]",[-0.43784222 -0.99998415  0.03218225  0.29707822],[1.39922648 0.68809563 0.42469975],[1.34269329 0.6007992  0.42470209],21,651,1459,0.949832934541563,0,0
22,27,2024-09-26 22:35:16.543422208,TASK_BEGIN,20,-0.0471793735707422,0.2378707241017887,-5.88954615461031,1.082651723990733,-0.7123394465201109,0.261189383036022,-0.6689211416133101,0.5813126173758477,3,2024-09-26 22:35:16.896020224,1727390116.8960202,2024-09-26 22:35:16.896019979,0,"[ 1.34582864e+00  7.51329822e-01  5.19406936e-01  1.34269329e+00
  6.00799197e-01  4.24784489e-01 -3.13535023e-03 -1.50530626e-01
 -9.46224468e-02  3.55558149e-06  7.33801373e-07 -5.96431783e-12
 -6.15760960e-12 -2.19242018e-15 -4.21561407e-05 -2.30626347e-05
  1.58309491e-04  3.34126547e-12  3.44954747e-12 -7.21319003e-19
  4.21561408e-05  2.30626346e-05 -1.58309491e-04  3.34042382e-07
 -3.34042381e-07]","[0.0009765625, 0.0009765625, -0.0009765625, 0.0]",-1.0,"[0.0009765625, 0.0009765625, -0.0009765625, 0.0]",[-0.4389009  -0.99998444  0.03384448  0.29805154],[1.39922648 0.68809563 0.42469975],[1.34269329 0.6007992  0.42470209],21,651,1459,0.9505767066553261,0,0
23,28,2024-09-26 22:35:16.611229952,TASK_BEGIN,20,-0.0243700794092252,0.2261963317505402,-5.7403647357104015,1.065225390933444,-0.6504190394635652,0.2372104974542225,-0.9039199968178476,0.64730512781419,3,2024-09-26 22:35:16.956023296,1727390116.9560232,2024-09-26 22:35:16.956023152,0,"[ 1.34588376e+00  7.51361304e-01  5.19189035e-01  1.34269329e+00
  6.00799197e-01  4.24784489e-01 -3.19047623e-03 -1.50562108e-01
 -9.44045458e-02  3.57768417e-06  7.11698689e-07 -3.43250197e-12
 -3.54373893e-12 -2.19307873e-15 -4.21797655e-05 -2.30638204e-05
  1.58368248e-04  1.92291731e-12  1.98523925e-12 -2.40360924e-18
  4.21797656e-05  2.30638204e-05 -1.58368248e-04  3.34073152e-07
 -3.34073151e-07]","[0.0009765625, 0.0009765625, -0.0009765625, 0.0]",-1.0,"[0.0009765625, 0.0009765625, -0.0009765625, 0.0]",[-0.43995866 -0.99998474  0.03550706  0.29902464],[1.39922648 0.68809563 0.42469975],[1.34269329 0.6007992  0.42470209],21,651,1459,0.9513204097793233,0,0
24,29,2024-09-26 22:35:16.666344960,TASK_BEGIN,20,0.000478362508252,0.213141589790875,-5.593454490782286,1.0429018159708168,-0.5850421525989802,0.211312022118926,-1.1570214521393418,0.7122124957022616,3,2024-09-26 22:35:17.013019904,1727390117.0130198,2024-09-26 22:35:17.013019002,0,"[ 1.34593892e+00  7.51392788e-01  5.18971050e-01  1.34269329e+00
  6.00799197e-01  4.24784489e-01 -3.24562935e-03 -1.50593591e-01
 -9.41865608e-02  3.59980689e-06  6.89575974e-07 -1.97542285e-12
 -2.03944099e-12 -2.19524608e-15 -4.22033300e-05 -2.30650079e-05
  1.58426852e-04  1.10665115e-12  1.14251276e-12 -2.36247728e-18
  4.22033300e-05  2.30650079e-05 -1.58426852e-04  3.34103878e-07
 -3.34103877e-07]","[0.0009765625, 0.0009765625, -0.0009765625, 0.0]",-1.0,"[0.0009765625, 0.0009765625, -0.0009765625, 0.0]",[-0.44101563 -0.999985    0.03717009  0.29999748],[1.39922648 0.68809563 0.42469975],[1.34269329 0.6007992  0.42470209],21,651,1459,0.9520600678614564,0,0
25,30,2024-09-26 22:35:16.744120064,TASK_BEGIN,20,0.0271461521594457,0.198886479180242,-5.446783928422245,1.0151649275532098,-0.517673284238059,0.1838399437511945,-1.4193052585310262,0.7734447605335767,3,2024-09-26 22:35:17.126033920,1727390117.126034,2024-09-26 22:35:17.126033895,0,"[ 1.34604930e+00  7.51455759e-01  5.18534829e-01  1.34269329e+00
  6.00799197e-01  4.24784489e-01 -3.35601659e-03 -1.50656562e-01
 -9.37503401e-02  3.64411220e-06  6.45270666e-07 -6.54270529e-13
 -6.75474024e-13 -2.19631469e-15 -4.22502784e-05 -2.30673882e-05
  1.58543599e-04  3.66535129e-13  3.78409459e-13 -8.50342889e-19
  4.22502784e-05  2.30673882e-05 -1.58543599e-04  3.34165204e-07
 -3.34165203e-07]","[0.0009765625, 0.0009765625, -0.0009765625, 0.0]",-1.0,"[0.0009765625, 0.0009765625, -0.0009765625, 0.0]",[-0.44312721 -0.9999855   0.04049759  0.3019425 ],[1.39922648 0.68809563 0.42469975],[1.34269329 0.6007992  0.42470209],21,651,1459,0.9535439181017509,0,0
26,31,2024-09-26 22:35:17.690031872,TASK_BEGIN,20,0.0553526077900608,0.1835973128634813,-5.297965588984982,0.9816533331728932,-0.4497281668697206,0.1551362009178455,-1.6815122616410152,0.8285169082425208,3,2024-09-26 22:35:18.050606848,1727390118.0506067,2024-09-26 22:35:18.050605916,0,"[ 1.34693622e+00  7.51959745e-01  5.15033217e-01  1.34269329e+00
  6.00799197e-01  4.24784489e-01 -4.24292962e-03 -1.51160548e-01
 -9.02487276e-02  4.00138004e-06  2.88002839e-07 -1.03539404e-16
 -9.43650305e-17 -2.18994222e-15 -4.26173205e-05 -2.30866718e-05
  1.59456026e-04  4.99576562e-17  5.98853571e-17  3.75141044e-18
  4.26173205e-05  2.30866718e-05 -1.59456026e-04  3.34649544e-07
 -3.34649543e-07]","[0.0009765625, 0.0009765625, -0.0009765625, 0.0]",-1.0,"[0.0009765625, 0.0009765625, -0.0009765625, 0.0]",[-0.44722366 -0.9999882   0.06278638  0.31312776],[1.39922648 0.68809563 0.42469975],[1.34269329 0.6007992  0.42470209],21,651,1459,0.9635436586199603,0,0
27,32,2024-09-26 22:35:17.757895936,TASK_BEGIN,20,0.0847889733858726,0.1674294363586518,-5.14539057945068,0.9423316612228956,-0.3824666046520745,0.1255217896385851,-1.9344308959502017,0.8751408815695496,3,2024-09-26 22:35:18.107589120,1727390118.1075892,2024-09-26 22:35:18.107589070,0,"[ 1.34699187e+00  7.51991257e-01  5.14813678e-01  1.34269329e+00
  6.00799197e-01  4.24784489e-01 -4.29858259e-03 -1.51192060e-01
 -9.00291888e-02  4.02387322e-06  2.65509661e-07 -6.32913904e-17
 -5.21377679e-17 -2.18861312e-15 -4.26397635e-05 -2.30878906e-05
  1.59511810e-04  3.49684794e-17  3.02903976e-17  2.44730860e-18
  4.26397635e-05  2.30878906e-05 -1.59511810e-04  3.34679439e-07
 -3.34679438e-07]","[0.0009765625, 0.0009765625, -0.0009765625, 0.0]",-1.0,"[0.0009765625, 0.0009765625, -0.0009765625, 0.0]",[-0.44719967 -0.9999884   0.06409419  0.31372917],[1.39922648 0.68809563 0.42469975],[1.34269329 0.6007992  0.42470209],21,651,1459,0.9641088227642566,0,0
28,33,2024-09-26 22:35:17.814488832,TASK_BEGIN,20,0.1151463554095588,0.1505344804714846,-4.989148539203415,0.8976530223919653,-0.3169818034782838,0.0952996313721783,-2.169463837819808,0.9113502880488218,3,2024-09-26 22:35:18.166586112,1727390118.1665862,2024-09-26 22:35:18.166586141,0,"[ 1.34704755e+00  7.52022770e-01  5.14594060e-01  1.34269329e+00
  6.00799197e-01  4.24784489e-01 -4.35426108e-03 -1.51223574e-01
 -8.98095704e-02  4.04638538e-06  2.42997508e-07 -2.92941301e-17
 -4.76541629e-17 -2.18826825e-15 -4.26621487e-05 -2.30891110e-05
  1.59567450e-04  1.27306081e-17  3.19149458e-17  1.67741162e-18
  4.26621487e-05  2.30891110e-05 -1.59567450e-04  3.34709288e-07
 -3.34709287e-07]","[0.0009765625, 0.0009765625, -0.0009765625, 0.0]",-1.0,"[0.0009765625, 0.0009765625, -0.0009765625, 0.0]",[-0.4471757  -0.9999885   0.06540231  0.31433055],[1.39922648 0.68809563 0.42469975],[1.34269329 0.6007992  0.42470209],21,651,1459,0.9646715977806867,0,0
29,34,2024-09-26 22:35:17.892785152,TASK_BEGIN,20,0.1461295258693986,0.133070657865686,-4.831414103997507,0.8486418872744154,-0.2542597760791986,0.0647721603594727,-2.3792180301427006,0.9356290474211798,3,2024-09-26 22:35:18.278587392,1727390118.2785873,2024-09-26 22:35:18.278586873,0,"[ 1.34715898e+00  7.52085802e-01  5.14154584e-01  1.34269337e+00
  6.00799062e-01  4.24784496e-01 -4.46561538e-03 -1.51286740e-01
 -8.93700886e-02  4.09146640e-06  1.97916482e-07  5.31387849e-06
  3.11565317e-06 -8.28028663e-12 -4.27441337e-05 -2.30277912e-05
  1.59674996e-04 -2.59030367e-06 -1.51875657e-06 -2.58699301e-19
  4.27067467e-05  2.30915563e-05 -1.59678302e-04  3.34768851e-07
 -3.34768850e-07]","[0.0009765625, 0.0009765625, -0.0009765625, 0.0]",-1.0,"[0.0009765625, 0.0009765625, -0.0009765625, 0.0]",[-0.44711682 -0.99998873  0.06801804  0.31553006],[1.39922648 0.68809563 0.42469975],[1.34269329 0.6007992  0.42470209],21,651,1459,0.9657844801285705,0,0
30,35,2024-09-26 22:35:17.954384128,TASK_BEGIN,20,0.177448584722621,0.1152153011700407,-4.676255879495814,0.79686532036271,-0.1952478923297717,0.0342575321882388,-2.5579570822031226,0.9470141787049052,3,2024-09-26 22:35:18.334585856,1727390118.334586,2024-09-26 22:35:18.334585896,0,"[ 1.34721474e+00  7.52117320e-01  5.13934728e-01  1.34269333e+00
  6.00799117e-01  4.24784493e-01 -4.52140200e-03 -1.51318203e-01
 -8.91502350e-02  4.11403518e-06  1.75347710e-07  3.11667712e-06
  1.82738182e-06 -2.84986671e-12 -4.27544167e-05 -2.30493632e-05
  1.59731361e-04 -1.73756307e-06 -1.01877450e-06 -9.40912135e-20
  4.27289598e-05  2.30927812e-05 -1.59733516e-04  3.34798565e-07
 -3.34798564e-07]","[0.0009765625, 0.0009765625, -0.0009765625, 0.0]",-1.0,"[0.0009765625, 0.0009765625, -0.0009765625, 0.0]",[-0.4471045  -0.99998885  0.06932885  0.3161346 ],[1.39922648 0.68809563 0.42469975],[1.34269329 0.6007992  0.42470209],21,651,1459,0.9663499390428223,0,0
31,36,2024-09-26 22:35:18.017018112,TASK_BEGIN,20,0.2087958141074506,0.09717519972453,-4.529070901993708,0.7443076692540479,-0.1408780049005779,0.0040899847786121,-2.7017622448365173,0.9451420224007204,3,2024-09-26 22:35:18.392587776,1727390118.392588,2024-09-26 22:35:18.392587117,0,"[ 1.34727052e+00  7.52148839e-01  5.13714793e-01  1.34269331e+00
  6.00799150e-01  4.24784491e-01 -4.57720115e-03 -1.51349690e-01
 -8.89303014e-02  4.13662272e-06  1.52760168e-07  1.79494309e-06
  1.05241776e-06 -9.46701484e-13 -4.27658561e-05 -2.30688672e-05
  1.59787347e-04 -1.00535775e-06 -5.89465129e-07  2.57895647e-18
  4.27511157e-05  2.30940076e-05 -1.59788588e-04  3.34828232e-07
 -3.34828232e-07]","[0.0009765625, 0.0009765625, -0.0009765625, 0.0]",-1.0,"[0.0009765625, 0.0009765625, -0.0009765625, 0.0]",[-0.44708052 -0.999989    0.07063765  0.3167358 ],[1.39922648 0.68809563 0.42469975],[1.34269329 0.6007992  0.42470209],21,651,1459,0.9669151652565547,0,0
32,37,2024-09-26 22:35:18.094201856,TASK_BEGIN,20,0.2398185036028262,0.0791886754937545,-4.395902432530461,0.6931810112081355,-0.092019616791066,-0.0253993034991045,-2.808330447157493,0.9302059411619512,3,2024-09-26 22:35:18.448586496,1727390118.4485865,2024-09-26 22:35:18.448586141,0,"[ 1.34732632e+00  7.52180361e-01  5.13494779e-01  1.34269330e+00
  6.00799169e-01  4.24784490e-01 -4.63301722e-03 -1.51381192e-01
 -8.87102884e-02  4.15922898e-06  1.30153905e-07  1.03302793e-06
  6.05688809e-07 -3.15034291e-13 -4.27816998e-05 -2.30807636e-05
  1.59842807e-04 -5.78707077e-07 -3.39309703e-07 -3.23234375e-18
  4.27732146e-05  2.30952354e-05 -1.59843520e-04  3.34857854e-07
 -3.34857854e-07]","[0.0009765625, 0.0009765625, -0.0009765625, 0.0]",-1.0,"[0.0009765625, 0.0009765625, -0.0009765625, 0.0]",[-0.44705647 -0.9999891   0.07194667  0.31733704],[1.39922648 0.68809563 0.42469975],[1.34269329 0.6007992  0.42470209],21,651,1459,0.9674479051204943,0,0
33,38,2024-09-26 22:35:19.030787840,TASK_BEGIN,20,0.2700933182269321,0.0615180768883536,-4.282782104728748,0.6457091498395687,-0.0493750774673044,-0.0539134491418467,-2.8766097954993515,0.9028471859157964,3,2024-09-26 22:35:19.424022528,1727390119.4240224,2024-09-26 22:35:19.424022176,0,"[ 1.34827877e+00  7.52716455e-01  5.09742693e-01  1.34269329e+00
  6.00799195e-01  4.24784489e-01 -5.58548572e-03 -1.51917261e-01
 -8.49582035e-02  4.54635254e-06  2.73300153e-08  8.60903353e-11
  5.04768078e-11 -2.18954040e-15 -4.31403141e-05 -2.31163250e-05
  1.60756324e-04 -4.82285588e-11 -2.82775432e-11  3.80473799e-19
  4.31403134e-05  2.31163262e-05 -1.60756324e-04  3.35354098e-07
 -3.35094648e-07]","[0.0009765625, 0.0009765625, -0.0009765625, 0.0]",-1.0,"[0.0009765625, 0.0009765625, -0.0009765625, 0.0]",[-0.44762233 -0.99999094  0.09286825  0.32682458],[1.39922648 0.68809563 0.42469975],[1.34269329 0.6007992  0.42470209],21,651,1459,0.9751856482281711,0,0
34,39,2024-09-26 22:35:19.107981824,TASK_BEGIN,20,0.2991159874547685,0.044436585422077,-4.195106208091504,0.603926345761964,-0.0133554889823334,-0.0812204986873158,-2.90660022110411,0.8640561517128607,3,2024-09-26 22:35:19.480020480,1727390119.4800205,2024-09-26 22:35:19.480019979,0,"[ 1.34833502e+00  7.52748004e-01  5.09521296e-01  1.34269329e+00
  6.00799195e-01  4.24784489e-01 -5.64172984e-03 -1.51948810e-01
 -8.47368065e-02  4.56928702e-06  4.59339451e-09  4.95454662e-11
  2.90496846e-11 -2.18934483e-15 -4.31614111e-05 -2.31175784e-05
  1.60808808e-04 -2.77558024e-11 -1.62738886e-11  9.53428668e-19
  4.31614107e-05  2.31175791e-05 -1.60808808e-04  3.35382906e-07
 -3.35247794e-07]","[0.0009765625, 0.0009765625, -0.0009765625, 0.0]",-1.0,"[0.0009765625, 0.0009765625, -0.0009765625, 0.0]",[-0.44780558 -0.999991    0.09402382  0.32735905],[1.39922648 0.68809563 0.42469975],[1.34269329 0.6007992  0.42470209],21,651,1459,0.9756552712731839,0,0
35,40,2024-09-26 22:35:19.166915072,TASK_BEGIN,20,0.3263287065591694,0.0282136237933951,-4.137005456523998,0.5695146205008604,0.0160160238757531,-0.1071731363390982,-2.899356611901836,0.8151206804508593,3,2024-09-26 22:35:19.536030208,1727390119.5360303,2024-09-26 22:35:19.536029988,0,"[ 1.34839129e+00  7.52779555e-01  5.09299824e-01  1.34269329e+00
  6.00799195e-01  4.24784489e-01 -5.69799765e-03 -1.51980360e-01
 -8.45153345e-02  4.59223564e-06 -1.04747028e-08  2.85136933e-11
  1.67182600e-11 -2.19057613e-15 -4.31824505e-05 -2.31207552e-05
  1.60861165e-04 -1.59736078e-11 -9.36570761e-12  8.78548545e-19
  4.31824502e-05  2.31207556e-05 -1.60861165e-04  3.35338270e-07
 -1.79718248e-07]","[0.0009765625, 0.0009765625, -0.0009765625, 0.0]",-1.0,"[0.0009765625, 0.0009765625, -0.0009765625, 0.0]",[-0.44777554 -0.99999106  0.09505763  0.32757583],[1.39922648 0.68809563 0.42469975],[1.34269329 0.6007992  0.42470209],21,651,1459,0.9761234516875902,0,0
36,41,2024-09-26 22:35:19.228429824,TASK_BEGIN,20,0.3512005066933605,0.0131001198464944,-4.110706294552214,0.543670098789605,0.0391285671409653,-0.1317125698232309,-2.85692729648072,0.7575822551102475,3,2024-09-26 22:35:19.592103680,1727390119.5921037,2024-09-26 22:35:19.592103963,0,"[ 1.34844758e+00  7.52811107e-01  5.09078277e-01  1.34269329e+00
  6.00799195e-01  4.24784489e-01 -5.75428907e-03 -1.52011913e-01
 -8.42937877e-02  4.61520713e-06  8.73646300e-08  1.64097928e-11
  9.62145324e-12 -2.18973064e-15 -4.32034433e-05 -2.31197198e-05
  1.60913383e-04 -9.19290516e-12 -5.39001389e-12  2.13812800e-18
  4.32034432e-05  2.31197200e-05 -1.60913383e-04  3.35457958e-07
 -2.50730010e-07]","[0.0009765625, 0.0009765625, -0.0009765625, 0.0]",-1.0,"[0.0009765625, 0.0009765625, -0.0009765625, 0.0]",[-0.44763798 -0.9999911   0.09605637  0.32770807],[1.39922648 0.68809563 0.42469975],[1.34269329 0.6007992  0.42470209],21,651,1459,0.9765883060389726,0,0
37,42,2024-09-26 22:35:19.305610752,TASK_BEGIN,20,0.3733485456537673,-0.000686861503824,-4.115978617701992,0.5269763122645684,0.0567124012388834,-0.1548566975094296,-2.782069660044334,0.6931648984038956,3,2024-09-26 22:35:19.651105280,1727390119.6511054,2024-09-26 22:35:19.651104939,0,"[ 1.34850389e+00  7.52842661e-01  5.08856655e-01  1.34269329e+00
  6.00799195e-01  4.24784489e-01 -5.81060402e-03 -1.52043466e-01
 -8.40721663e-02  4.63820066e-06  1.28986362e-07  9.44393044e-12
  5.53720298e-12 -2.18844268e-15 -4.32243773e-05 -2.31213013e-05
  1.60965474e-04 -5.29057683e-12 -3.10198082e-12  5.20729323e-19
  4.32243772e-05  2.31213015e-05 -1.60965474e-04  3.35469912e-07
 -2.91346772e-07]","[0.0009765625, 0.0009765625, -0.0009765625, 0.0]",-1.0,"[0.0009765625, 0.0009765625, -0.0009765625, 0.0]",[-0.44743666 -0.99999106  0.09705655  0.3278564 ],[1.39922648 0.68809563 0.42469975],[1.34269329 0.6007992  0.42470209],21,651,1459,0.9770479594290767,0,0
38,43,2024-09-26 22:35:19.367660800,TASK_BEGIN,20,0.392647948266516,-0.0129781948647831,-4.149819435458318,0.5192902600914076,0.0697005893155685,-0.1766779764856041,-2.6778535079444463,0.6236846206545444,3,2024-09-26 22:35:19.709104640,1727390119.7091045,2024-09-26 22:35:19.709103963,0,"[ 1.34856023e+00  7.52874216e-01  5.08634960e-01  1.34269329e+00
  6.00799195e-01  4.24784489e-01 -5.86694245e-03 -1.52075021e-01
 -8.38504704e-02  4.66120678e-06  1.39629441e-07  5.43503994e-12
  3.18669519e-12 -2.18785024e-15 -4.32452585e-05 -2.31225640e-05
  1.61017436e-04 -3.04475294e-12 -1.78521247e-12  9.02502383e-19
  4.32452585e-05  2.31225641e-05 -1.61017436e-04  3.35497733e-07
 -3.12520055e-07]","[0.0009765625, 0.0009765625, -0.0009765625, 0.0]",-1.0,"[0.0009765625, 0.0009765625, -0.0009765625, 0.0]",[-0.4472056  -0.999991    0.09799067  0.32802367],[1.39922648 0.68809563 0.42469975],[1.34269329 0.6007992  0.42470209],21,651,1459,0.9774912485415234,0,0
39,44,2024-09-26 22:35:19.446981888,TASK_BEGIN,20,0.4092688351699667,-0.0236605532810678,-4.206474218577012,0.5196885740783129,0.0790837966599762,-0.1972784997198318,-2.547322962475985,0.5509521035689591,3,2024-09-26 22:35:19.829106944,1727390119.829107,2024-09-26 22:35:19.829106893,0,"[ 1.34867298e+00  7.52937331e-01  5.08191345e-01  1.34269329e+00
  6.00799195e-01  4.24784489e-01 -5.97968939e-03 -1.52138136e-01
 -8.34068560e-02  4.70726928e-06  1.20215637e-07  1.80012530e-12
  1.05545700e-12 -2.18813262e-15 -4.32868597e-05 -2.31251132e-05
  1.61120972e-04 -1.00844712e-12 -5.91271547e-13 -6.27289415e-19
  4.32868597e-05  2.31251132e-05 -1.61120972e-04  3.35553990e-07
 -3.29322590e-07]","[0.0009765625, 0.0009765625, -0.0009765625, 0.0]",-1.0,"[0.0009765625, 0.0009765625, -0.0009765625, 0.0]",[-0.44668603 -0.99999094  0.09973338  0.32839447],[1.39922648 0.68809563 0.42469975],[1.34269329 0.6007992  0.42470209],21,651,1459,0.9783328137170821,0,0
40,45,2024-09-26 22:35:20.377074944,TASK_BEGIN,20,0.4236231683131563,-0.0326739591940864,-4.2778381858430015,0.5265306173678781,0.0858017639127088,-0.2167664192538559,-2.393329624701915,0.4766836866945438,3,2024-09-26 22:35:20.741864704,1727390120.7418647,2024-09-26 22:35:20.741863973,0,"[ 1.34957825e+00  7.53442477e-01  5.04631909e-01  1.34269329e+00
  6.00799195e-01  4.24784489e-01 -6.88496354e-03 -1.52643283e-01
 -7.98474200e-02  5.07826232e-06  5.00515207e-08  2.67212185e-16
  1.47627510e-16 -2.19411150e-15 -4.36120772e-05 -2.31454490e-05
  1.61931030e-04 -1.46725731e-16 -8.57208614e-17 -2.42035930e-18
  4.36120772e-05  2.31454490e-05 -1.61931030e-04  3.36003270e-07
 -3.35492268e-07]","[0.0009765625, 0.0009765625, -0.0009765625, 0.0]",-1.0,"[0.0009765625, 0.0009765625, -0.0009765625, 0.0]",[-0.4422972  -0.99999005  0.1135255   0.3321564 ],[1.39922648 0.68809563 0.42469975],[1.34269329 0.6007992  0.42470209],21,651,1459,0.9840695867183455,0,0
41,46,2024-09-26 22:35:20.457204224,TASK_BEGIN,20,0.4362525253762246,-0.0399995431379891,-4.354273595919451,0.5376553485719658,0.0906813544776459,-0.2352348976198436,-2.218620685006249,0.4024590087037496,3,2024-09-26 22:35:20.855890176,1727390120.8558903,2024-09-26 22:35:20.855889852,0,"[ 1.34969182e+00  7.53505649e-01  5.04185686e-01  1.34269329e+00
  6.00799195e-01  4.24784489e-01 -6.99852653e-03 -1.52706454e-01
 -7.94011969e-02  5.12494123e-06  3.96525568e-09  9.11187211e-17
  5.28572799e-17 -2.19451854e-15 -4.36517982e-05 -2.31480106e-05
  1.62030062e-04 -4.82120584e-17 -3.42723760e-17 -1.22577976e-18
  4.36517982e-05  2.31480106e-05 -1.62030062e-04  3.36058579e-07
 -3.35919998e-07]","[0.0009765625, 0.0009765625, -0.0009765625, 0.0]",-1.0,"[0.0009765625, 0.0009765625, -0.0009765625, 0.0]",[-0.4414365  -0.99998987  0.11527083  0.3329304 ],[1.39922648 0.68809563 0.42469975],[1.34269329 0.6007992  0.42470209],21,651,1459,0.9847736232850707,0,0
42,47,2024-09-26 22:35:20.525021952,TASK_BEGIN,20,0.4477043360025137,-0.0456449661319826,-4.425784790438198,0.5506677701996955,0.0944050882427372,-0.2527444863866954,-2.026208069064817,0.3297520529977126,3,2024-09-26 22:35:20.911892736,1727390120.9118927,2024-09-26 22:35:20.911892049,0,"[ 1.34974863e+00  7.53537237e-01  5.03962468e-01  1.34269304e+00
  6.00799439e-01  4.24784519e-01 -7.05559323e-03 -1.52737798e-01
 -7.91779491e-02  5.14830204e-06 -1.14605152e-08 -9.69974884e-06
 -1.00140991e-05 -4.85693182e-11 -4.35957575e-05 -2.32246667e-05
  1.62068916e-04  3.11103268e-06  3.21185528e-06 -2.38944858e-18
  4.36715787e-05  2.31512256e-05 -1.62079401e-04  3.36012341e-07
 -1.79353033e-07]","[0.0009765625, 0.0009765625, -0.0009765625, 0.0]",-1.0,"[0.0009765625, 0.0009765625, -0.0009765625, 0.0]",[-0.44102034 -0.99998975  0.11616216  0.3333453 ],[1.39922648 0.68809563 0.42469975],[1.34269329 0.6007992  0.42470209],21,651,1459,0.9851138576129929,0,0
43,48,2024-09-26 22:35:20.577833984,TASK_BEGIN,20,0.4584405675274522,-0.0496384786627566,-4.483279825841387,0.5632379380461935,0.0974767574062001,-0.2693076744887725,-1.819935972756708,0.2600045836360987,3,2024-09-26 22:35:20.967447808,1727390120.9674478,2024-09-26 22:35:20.967446980,0,"[ 1.34980547e+00  7.53568827e-01  5.03739180e-01  1.34269313e+00
  6.00799346e-01  4.24784507e-01 -7.11233370e-03 -1.52769481e-01
 -7.89546727e-02  5.17168461e-06  8.69609518e-08 -5.93349929e-06
 -6.12579263e-06 -1.81758876e-11 -4.36069911e-05 -2.32318843e-05
  1.62118481e-04  3.27350231e-06  3.37959024e-06  2.77124397e-19
  4.36913169e-05  2.31502056e-05 -1.62128611e-04  3.36131344e-07
 -2.50515191e-07]","[0.0009765625, 0.0009765625, -0.0009765625, 0.0]",-1.0,"[0.0009765625, 0.0009765625, -0.0009765625, 0.0]",[-0.44059074 -0.9999896   0.11696824  0.333794  ],[1.39922648 0.68809563 0.42469975],[1.34269329 0.6007992  0.42470209],21,651,1459,0.9854499345268188,0,0
44,49,2024-09-26 22:35:20.654982144,TASK_BEGIN,20,0.4688080361290395,-0.052036613740967,-4.519584827005212,0.5733483930475306,0.1001604817239845,-0.2848721668646266,-1.605021784752442,0.1946715102235736,3,2024-09-26 22:35:21.023445248,1727390121.0234451,2024-09-26 22:35:21.023445027,0,"[ 1.34986232e+00  7.53600419e-01  5.03515822e-01  1.34269320e+00
  6.00799283e-01  4.24784500e-01 -7.16912709e-03 -1.52801135e-01
 -7.87313219e-02  5.19508815e-06  1.28850029e-07 -3.42241807e-06
 -3.53333207e-06 -6.04846464e-12 -4.36615335e-05 -2.31997287e-05
  1.62171817e-04  1.91615970e-06  1.97825876e-06 -5.47145328e-19
  4.37109992e-05  2.31518157e-05 -1.62177705e-04  3.36142024e-07
 -2.91556340e-07]","[0.0009765625, 0.0009765625, -0.0009765625, 0.0]",-1.0,"[0.0009765625, 0.0009765625, -0.0009765625, 0.0]",[-0.4401679  -0.99998945  0.11778297  0.33427578],[1.39922648 0.68809563 0.42469975],[1.34269329 0.6007992  0.42470209],21,651,1459,0.9857794813872717,0,0
45,50,2024-09-26 22:35:20.717042944,TASK_BEGIN,20,0.4790716721316163,-0.0529407873028687,-4.530047511885884,0.5794584542629125,0.1024092361551879,-0.2993035113937548,-1.3882272363920425,0.1351906591838195,3,2024-09-26 22:35:21.079447296,1727390121.0794473,2024-09-26 22:35:21.079446980,0,"[ 1.34991920e+00  7.53632012e-01  5.03292393e-01  1.34269323e+00
  6.00799247e-01  4.24784495e-01 -7.22596950e-03 -1.52832765e-01
 -7.85078976e-02  5.21850313e-06  1.39436997e-07 -1.96979004e-06
 -2.03362716e-06 -2.00510532e-12 -4.37021435e-05 -2.31807006e-05
  1.62223301e-04  1.10346792e-06  1.13922920e-06 -2.30955425e-18
  4.37306324e-05  2.31531060e-05 -1.62226681e-04  3.36168627e-07
 -3.12950073e-07]","[0.0009765625, 0.0009765625, -0.0009765625, 0.0]",-1.0,"[0.0009765625, 0.0009765625, -0.0009765625, 0.0]",[-0.43974695 -0.99998933  0.11859858  0.33475816],[1.39922648 0.68809563 0.42469975],[1.34269329 0.6007992  0.42470209],21,651,1459,0.98608145951952,0,0
46,51,2024-09-26 22:35:20.795142912,TASK_BEGIN,20,0.489481907414163,-0.0525134313854575,-4.512779372684482,0.5805875843889,0.103828555514564,-0.3123745553941271,-1.1774299009099765,0.0828863354636854,3,2024-09-26 22:35:21.192448256,1727390121.1924481,2024-09-26 22:35:21.192447957,0,"[ 1.35003303e+00  7.53695202e-01  5.02845325e-01  1.34269327e+00
  6.00799214e-01  4.24784491e-01 -7.33976030e-03 -1.52895988e-01
 -7.80608342e-02  5.26537997e-06  1.19488222e-07 -6.52410291e-07
 -6.73553657e-07 -2.21913282e-13 -4.37603121e-05 -2.31648493e-05
  1.62323162e-04  3.65485788e-07  3.77330481e-07  2.28305650e-18
  4.37697481e-05  2.31557095e-05 -1.62324276e-04  3.36222468e-07
 -3.29925744e-07]","[0.0009765625, 0.0009765625, -0.0009765625, 0.0]",-1.0,"[0.0009765625, 0.0009765625, -0.0009765625, 0.0]",[-0.43890375 -0.99998903  0.12022964  0.33572313],[1.39922648 0.68809563 0.42469975],[1.34269329 0.6007992  0.42470209],21,651,1459,0.9866500081655387,0,0
47,52,2024-09-26 22:35:21.735544064,TASK_BEGIN,20,0.5003340454506798,-0.0509852761199963,-4.468713475165877,0.5763467213021745,0.1037126210810467,-0.3237705886189744,-0.9807352947066604,0.0388472624386363,3,2024-09-26 22:35:22.105495808,1727390122.105496,2024-09-26 22:35:22.105496053,0,"[ 1.35094668e+00  7.54200957e-01  4.99258866e-01  1.34269329e+00
  6.00799198e-01  4.24784489e-01 -8.25339813e-03 -1.53401760e-01
 -7.44743764e-02  5.64272815e-06  1.80280705e-07 -9.44741917e-11
 -9.75359241e-11 -2.18988779e-15 -4.40755947e-05 -2.31764500e-05
  1.63088286e-04  5.29252691e-11  5.46404824e-11 -1.61361719e-18
  4.40755960e-05  2.31764487e-05 -1.63088287e-04  3.36651973e-07
 -3.35922759e-07]","[0.0009765625, 0.0009765625, -0.0009765625, 0.0]",-1.0,"[0.0009765625, 0.0009765625, -0.0009765625, 0.0]",[-0.4321295  -0.99998647  0.1333958   0.3439963 ],[1.39922648 0.68809563 0.42469975],[1.34269329 0.6007992  0.42470209],21,651,1459,0.9911521313674727,0,0
48,53,2024-09-26 22:35:21.807180032,TASK_BEGIN,20,0.5119835985698323,-0.0486491720494226,-4.4015976316964975,0.5669427752221988,0.1011576804538208,-0.3331150415306352,-0.8055380374259596,0.0038175749928821,3,2024-09-26 22:35:22.165495296,1727390122.1654954,2024-09-26 22:35:22.165495076,0,"[ 1.35100396e+00  7.54232581e-01  4.99034135e-01  1.34269329e+00
  6.00799198e-01  4.24784489e-01 -8.31067831e-03 -1.53433383e-01
 -7.42496460e-02  5.66644709e-06  1.57117875e-07 -5.43704244e-11
 -5.61324625e-11 -2.19123174e-15 -4.40943011e-05 -2.31777535e-05
  1.63135071e-04  3.04587856e-11  3.14459059e-11 -4.96384509e-18
  4.40943019e-05  2.31777527e-05 -1.63135071e-04  3.36678433e-07
 -3.36298685e-07]","[0.0009765625, 0.0009765625, -0.0009765625, 0.0]",-1.0,"[0.0009765625, 0.0009765625, -0.0009765625, 0.0]",[-0.43171337 -0.9999863   0.1342731   0.34478188],[1.39922648 0.68809563 0.42469975],[1.34269329 0.6007992  0.42470209],21,651,1459,0.9914936417087841,0,0
49,54,2024-09-26 22:35:21.875021056,TASK_BEGIN,20,0.5247920722824794,-0.0458388010334774,-4.317844669743052,0.5531530957056583,0.095228654176203,-0.3400159566479293,-0.6578777726705485,-0.0218567412227972,3,2024-09-26 22:35:22.224157440,1727390122.2241573,2024-09-26 22:35:22.224156941,0,"[ 1.35106126e+00  7.54264206e-01  4.98809338e-01  1.34269329e+00
  6.00799198e-01  4.24784489e-01 -8.36797889e-03 -1.53465008e-01
 -7.40248486e-02  5.69018172e-06  1.33672853e-07 -3.12904785e-11
 -3.23045431e-11 -2.19102451e-15 -4.41129599e-05 -2.31790578e-05
  1.63181744e-04  1.75291973e-11  1.80972841e-11  2.26464602e-18
  4.41129604e-05  2.31790574e-05 -1.63181744e-04  3.36704813e-07
 -3.36507054e-07]","[0.0009765625, 0.0009765625, -0.0009765625, 0.0]",-1.0,"[0.0009765625, 0.0009765625, -0.0009765625, 0.0]",[-0.431297   -0.9999862   0.13515039  0.34556714],[1.39922648 0.68809563 0.42469975],[1.34269329 0.6007992  0.42470209],21,651,1459,0.9918163683453175,0,0
50,55,2024-09-26 22:35:21.940849152,TASK_BEGIN,20,0.5389975642579312,-0.0428921969837608,-4.226099123979219,0.5362573555604739,0.0851419577889452,-0.3441270218568491,-0.5421784207938817,-0.0381909027764726,3,2024-09-26 22:35:22.337772544,1727390122.3377726,2024-09-26 22:35:22.337771932,0,"[ 1.35117593e+00  7.54327460e-01  4.98359543e-01  1.34269329e+00
  6.00799198e-01  4.24784489e-01 -8.48264099e-03 -1.53528262e-01
 -7.35750540e-02  5.73769776e-06  8.63861662e-08 -1.03636130e-11
 -1.06994800e-11 -2.19094967e-15 -4.41501360e-05 -2.31816691e-05
  1.63274757e-04  5.80579357e-12  5.99394265e-12  1.56280883e-18
  4.41501362e-05  2.31816689e-05 -1.63274757e-04  3.36757366e-07
 -3.36703735e-07]","[0.0009765625, 0.0009765625, -0.0009765625, 0.0]",-1.0,"[0.0009765625, 0.0009765625, -0.0009765625, 0.0]",[-0.43046337 -0.9999858   0.13690524  0.3471372 ],[1.39922648 0.68809563 0.42469975],[1.34269329 0.6007992  0.42470209],21,651,1459,0.9923840556218255,0,0
51,56,2024-09-26 22:35:21.999291136,TASK_BEGIN,20,0.5545487500798268,-0.0401055809218634,-4.13653584365939,0.5179347199782003,0.0704317255891809,-0.3452085967855763,-0.4611952762401586,-0.0454606835268196,3,2024-09-26 22:35:22.395275776,1727390122.3952758,2024-09-26 22:35:22.395275105,0,"[ 1.35123329e+00  7.54359090e-01  4.98134546e-01  1.34269329e+00
  6.00799198e-01  4.24784489e-01 -8.54000237e-03 -1.53559892e-01
 -7.33500570e-02  5.76147906e-06  6.26457630e-08 -5.96431842e-12
 -6.15760835e-12 -2.19004081e-15 -4.41686536e-05 -2.31829760e-05
  1.63321098e-04  3.34126710e-12  3.44954768e-12  3.12497312e-18
  4.41686537e-05  2.31829759e-05 -1.63321098e-04  3.36783550e-07
 -3.36755620e-07]","[0.0009765625, 0.0009765625, -0.0009765625, 0.0]",-1.0,"[0.0009765625, 0.0009765625, -0.0009765625, 0.0]",[-0.43004444 -0.99998564  0.1377918   0.34793314],[1.39922648 0.68809563 0.42469975],[1.34269329 0.6007992  0.42470209],21,651,1459,0.9926589084204656,0,0
52,57,2024-09-26 22:35:22.076605952,TASK_BEGIN,20,0.5709797487335383,-0.0376915973019507,-4.060025547816503,0.5001423569076394,0.0510770028017258,-0.3431726143911871,-0.4159267767539847,-0.0441248786985854,3,2024-09-26 22:35:22.452317696,1727390122.4523177,2024-09-26 22:35:22.452317098,0,"[ 1.35129067e+00  7.54390721e-01  4.97909483e-01  1.34269329e+00
  6.00799198e-01  4.24784489e-01 -8.59738389e-03 -1.53591523e-01
 -7.31249938e-02  5.78527582e-06  3.88703037e-08 -3.43249770e-12
 -3.54373798e-12 -2.19025794e-15 -4.41871245e-05 -2.31842838e-05
  1.63367330e-04  1.92291992e-12  1.98523228e-12 -1.43373559e-18
  4.41871246e-05  2.31842838e-05 -1.63367330e-04  3.36809676e-07
 -3.36795130e-07]","[0.0009765625, 0.0009765625, -0.0009765625, 0.0]",-1.0,"[0.0009765625, 0.0009765625, -0.0009765625, 0.0]",[-0.429625   -0.99998546  0.13867974  0.34873044],[1.39922648 0.68809563 0.42469975],[1.34269329 0.6007992  0.42470209],21,651,1459,0.9929275527522803,0,0
53,58,2024-09-26 22:35:22.137666048,TASK_BEGIN,20,0.5873877237739117,-0.035756234194217,-4.007226013555431,0.4849653069106479,0.0275637186609208,-0.3381026850700048,-0.40547865275149,-0.0348216080695456,3,2024-09-26 22:35:22.509320448,1727390122.5093205,2024-09-26 22:35:22.509319783,0,"[ 1.35134807e+00  7.54422354e-01  4.97684354e-01  1.34269329e+00
  6.00799198e-01  4.24784489e-01 -8.65478548e-03 -1.53623156e-01
 -7.28998645e-02  5.80908799e-06  1.50692283e-08 -1.97541763e-12
 -2.03943604e-12 -2.19234587e-15 -4.42055489e-05 -2.31855925e-05
  1.63413452e-04  1.10665531e-12  1.14252119e-12 -2.76299431e-18
  4.42055489e-05  2.31855924e-05 -1.63413452e-04  3.36835745e-07
 -3.36828170e-07]","[0.0009765625, 0.0009765625, -0.0009765625, 0.0]",-1.0,"[0.0009765625, 0.0009765625, -0.0009765625, 0.0]",[-0.42920527 -0.9999852   0.1395677   0.3495276 ],[1.39922648 0.68809563 0.42469975],[1.34269329 0.6007992  0.42470209],21,651,1459,0.9931945041522352,0,0
54,59,2024-09-26 22:35:23.085337856,TASK_BEGIN,20,0.6025147885945921,-0.0342976119041439,-3.9875443471941767,0.4744090295431967,0.0008530133260907,-0.3302486558805289,-0.4270689488985453,-0.0183980211655188,3,2024-09-26 22:35:23.426789888,1727390123.4267898,2024-09-26 22:35:23.426789021,0,"[ 1.35226917e+00  7.54928699e-01  4.94073424e-01  1.34269329e+00
  6.00799198e-01  4.24784489e-01 -9.57588830e-03 -1.54129501e-01
 -6.92889352e-02  6.19214682e-06  1.30906302e-07 -2.81927521e-16
 -2.96848420e-16 -2.20057746e-15 -4.44941305e-05 -2.32065928e-05
  1.64136836e-04  1.49910647e-16  1.69881524e-16  1.18816840e-18
  4.44941305e-05  2.32065928e-05 -1.64136836e-04  3.37246311e-07
 -2.90058401e-07]","[0.0009765625, 0.0009765625, -0.0009765625, 0.0]",-1.0,"[0.0009765625, 0.0009765625, -0.0009765625, 0.0]",[-0.4214262  -0.99998206  0.15482211  0.36231682],[1.39922648 0.68809563 0.42469975],[1.34269329 0.6007992  0.42470209],21,651,1459,0.9978190862066736,0,0
55,60,2024-09-26 22:35:23.157200128,TASK_BEGIN,20,0.6148908929542998,-0.0332195696253143,-4.00796269525831,0.4701347813706096,-0.0277397050946206,-0.3199996009885065,-0.4762066254525322,0.0040839544941466,3,2024-09-26 22:35:23.540849408,1727390123.5408494,2024-09-26 22:35:23.540849080,0,"[ 1.35238466e+00  7.54992021e-01  4.93620903e-01  1.34269329e+00
  6.00799198e-01  4.24784489e-01 -9.69137331e-03 -1.54192823e-01
 -6.88364138e-02  6.24029651e-06  1.37483474e-07 -1.03335641e-16
 -9.30755267e-17 -2.19712080e-15 -4.45293990e-05 -2.32092663e-05
  1.64225374e-04  5.11969345e-17  5.67494572e-17  4.19190709e-18
  4.45293990e-05  2.32092663e-05 -1.64225374e-04  3.37294858e-07
 -3.24497798e-07]","[0.0009765625, 0.0009765625, -0.0009765625, 0.0]",-1.0,"[0.0009765625, 0.0009765625, -0.0009765625, 0.0]",[-0.42012691 -0.9999817   0.15696438  0.36399204],[1.39922648 0.68809563 0.42469975],[1.34269329 0.6007992  0.42470209],21,651,1459,0.9983287884911454,0,0
56,61,2024-09-26 22:35:23.225039104,TASK_BEGIN,20,0.6229930890878879,-0.0323521920461888,-4.071890066976742,0.4731881710032459,-0.0567227843086586,-0.3078402754401599,-0.5468633364387148,0.0313668571002718,3,2024-09-26 22:35:23.596823808,1727390123.596824,2024-09-26 22:35:23.596823934,0,"[ 1.35244243e+00  7.55023684e-01  4.93394547e-01  1.34269329e+00
  6.00799198e-01  4.24784489e-01 -9.74914415e-03 -1.54224486e-01
 -6.86100582e-02  6.26439234e-06  1.23146940e-07 -6.71708405e-17
 -5.23931409e-17 -2.19543032e-15 -4.45469676e-05 -2.32105992e-05
  1.64269489e-04  2.98410274e-17  2.85621724e-17  4.98086790e-20
  4.45469676e-05  2.32105992e-05 -1.64269489e-04  3.37319827e-07
 -3.30655597e-07]","[0.0009765625, 0.0009765625, -0.0009765625, 0.0]",-1.0,"[0.0009765625, 0.0009765625, -0.0009765625, 0.0]",[-0.41947076 -0.99998146  0.15801914  0.36484417],[1.39922648 0.68809563 0.42469975],[1.34269329 0.6007992  0.42470209],21,651,1459,0.9985783898775301,0,0
57,62,2024-09-26 22:35:23.286531072,TASK_BEGIN,20,0.6253956245781963,-0.0314759180071186,-4.178310473168395,0.4837892162031777,-0.0846457405918143,-0.2942950358849849,-0.6315952459204685,0.0620282998698407,3,2024-09-26 22:35:23.653784832,1727390123.6537848,2024-09-26 22:35:23.653783895,0,"[ 1.35250022e+00  7.55055349e-01  4.93168129e-01  1.34269329e+00
  6.00799198e-01  4.24784489e-01 -9.80693380e-03 -1.54256151e-01
 -6.83836396e-02  6.28850276e-06  1.04118802e-07 -3.65151313e-17
 -4.31734088e-17 -2.19523245e-15 -4.45644926e-05 -2.32119285e-05
  1.64313502e-04  1.02941623e-17  2.33794609e-17  1.88730946e-19
  4.45644926e-05  2.32119285e-05 -1.64313502e-04  3.37344891e-07
 -3.33874410e-07]","[0.0009765625, 0.0009765625, -0.0009765625, 0.0]",-1.0,"[0.0009765625, 0.0009765625, -0.0009765625, 0.0]",[-0.41881403 -0.9999812   0.15907377  0.36569595],[1.39922648 0.68809563 0.42469975],[1.34269329 0.6007992  0.42470209],21,651,1459,0.9988119033388282,0,0
58,63,2024-09-26 22:35:23.348610048,TASK_BEGIN,20,0.6208999199260432,-0.0303486917934481,-4.3214789028116325,0.5012329934573707,-0.110332775254709,-0.2798673340217053,-0.7218271549922161,0.0945390298823744,3,2024-09-26 22:35:23.710815488,1727390123.7108154,2024-09-26 22:35:23.710815145,0,"[ 1.35255803e+00  7.55087016e-01  4.92941647e-01  1.34269331e+00
  6.00799160e-01  4.24784491e-01 -9.86472000e-03 -1.54287856e-01
 -6.81571561e-02  6.31262780e-06  8.26404196e-08  1.55132510e-06
  9.09578749e-07 -7.07720983e-13 -4.41377698e-05 -2.39708654e-05
  1.64397845e-04  3.10265020e-05  1.81915750e-05  8.43407968e-18
  4.45819742e-05  2.32132561e-05 -1.64357414e-04  3.37369924e-07
 -3.35562627e-07]","[0.0009765625, 0.0009765625, -0.0009765625, 0.0]",-1.0,"[0.0009765625, 0.0009765625, -0.0009765625, 0.0]",[-0.41815674 -0.99998105  0.16012836  0.36654747],[1.39922648 0.68809563 0.42469975],[1.34269329 0.6007992  0.42470209],21,651,1459,0.999040011715705,0,0
59,64,2024-09-26 22:35:23.428410112,TASK_BEGIN,20,0.6086409717258907,-0.0287346689371016,-4.491350978075449,0.5239303197497547,-0.1330652809324279,-0.2649900807826226,-0.8084672132218993,0.127358889006909,3,2024-09-26 22:35:23.823809024,1727390123.8238091,2024-09-26 22:35:23.823809041,0,"[ 1.35267370e+00  7.55150354e-01  4.92488496e-01  1.34269334e+00
  6.00799111e-01  4.24784493e-01 -9.98036425e-03 -1.54351243e-01
 -6.77040029e-02  6.36092156e-06  3.64427018e-08  3.38439284e-06
  1.98434989e-06 -3.36010305e-12 -4.46443542e-05 -2.31689286e-05
  1.64442597e-04 -1.88101453e-06 -1.10288349e-06 -1.30646188e-18
  4.46168078e-05  2.32159101e-05 -1.64444933e-04  3.37419749e-07
 -3.36929621e-07]","[0.0009765625, 0.0009765625, -0.0009765625, 0.0]",-1.0,"[0.0009765625, 0.0009765625, -0.0009765625, 0.0]",[-0.41691607 -0.9999806   0.1622805   0.36828378],[1.39922648 0.68809563 0.42469975],[1.34269329 0.6007992  0.42470209],21,651,1459,0.9995029866094652,0,0
60,65,2024-09-26 22:35:23.487382784,TASK_BEGIN,20,0.5881697443157724,-0.0264309161837587,-4.674804732010724,0.5496032219670741,-0.1526506904230193,-0.2499998288315255,-0.8827754105290203,0.1590507765696873,3,2024-09-26 22:35:23.880860160,1727390123.88086,2024-09-26 22:35:23.880860066,0,"[ 1.35273156e+00  7.55182025e-01  4.92261827e-01  1.34269332e+00
  6.00799147e-01  4.24784492e-01 -1.00382496e-02 -1.54382878e-01
 -6.74773354e-02  6.38509013e-06  1.26479073e-08  1.95000399e-06
  1.14333364e-06 -1.11694585e-12 -4.46501717e-05 -2.31899290e-05
  1.64487192e-04 -1.09208137e-06 -6.40313240e-07  3.35555714e-18
  4.46341601e-05  2.32172375e-05 -1.64488541e-04  3.37444539e-07
 -3.37189298e-07]","[0.0009765625, 0.0009765625, -0.0009765625, 0.0]",-1.0,"[0.0009765625, 0.0009765625, -0.0009765625, 0.0]",[-0.41629708 -0.9999804   0.16335681  0.3691527 ],[1.39922648 0.68809563 0.42469975],[1.34269329 0.6007992  0.42470209],21,651,1459,0.9997659593382254,0,0
61,66,2024-09-26 22:35:24.411227136,TASK_BEGIN,20,0.559509276303834,-0.023288434791531,-4.857448540789134,0.5756101567941592,-0.1693815798190445,-0.2351352120241001,-0.9372955506997908,0.1883820091296372,3,2024-09-26 22:35:24.794223616,1727390124.7942235,2024-09-26 22:35:24.794222859,0,"[ 1.35365987e+00  7.55688989e-01  4.88626742e-01  1.34269329e+00
  6.00799196e-01  4.24784489e-01 -1.09665832e-02 -1.54889793e-01
 -6.38422531e-02  6.77371006e-06  5.54129219e-08  2.82389100e-10
  1.65571439e-10 -2.18858245e-15 -4.49060810e-05 -2.32385560e-05
  1.65172883e-04 -1.58196859e-10 -9.27545669e-11  9.80894729e-20
  4.49060787e-05  2.32385599e-05 -1.65172883e-04  3.37832559e-07
 -3.37804506e-07]","[0.0009765625, 0.0009765625, -0.0009765625, 0.0]",-1.0,"[0.0009765625, 0.0009765625, -0.0009765625, 0.0]",[-0.40686327 -0.9999765   0.18137479  0.38120738],[1.39922648 0.68809563 0.42469975],[1.34269329 0.6007992  0.42470209],21,651,1459,1.0030289094109308,0,0
62,67,2024-09-26 22:35:24.482931968,TASK_BEGIN,20,0.5231792381345723,-0.0192256023060979,-5.025535113534935,0.599320922708606,-0.183933286381395,-0.2205511958432759,-0.9666981564505172,0.2143881956201896,3,2024-09-26 22:35:24.853114624,1727390124.8531146,2024-09-26 22:35:24.853113973,0,"[ 1.35371804e+00  7.55720688e-01  4.88399033e-01  1.34269329e+00
  6.00799196e-01  4.24784489e-01 -1.10247540e-02 -1.54921492e-01
 -6.36145440e-02  6.79811660e-06  3.10277734e-08  1.62516490e-10
  9.52872839e-11 -2.19057389e-15 -4.49227250e-05 -2.32398956e-05
  1.65214834e-04 -9.10431580e-11 -5.33807679e-11 -2.60224691e-18
  4.49227237e-05  2.32398978e-05 -1.65214834e-04  3.37856339e-07
 -3.37841730e-07]","[0.0009765625, 0.0009765625, -0.0009765625, 0.0]",-1.0,"[0.0009765625, 0.0009765625, -0.0009765625, 0.0]",[-0.40627134 -0.9999763   0.18250199  0.38195342],[1.39922648 0.68809563 0.42469975],[1.34269329 0.6007992  0.42470209],21,651,1459,1.0032149975759947,0,0
63,68,2024-09-26 22:35:24.549709056,TASK_BEGIN,20,0.4801848362368575,-0.0142345424757443,-5.1674873353442194,0.6184472574865744,-0.1972386467641649,-0.2063425696682594,-0.9683564668639192,0.2363857587588372,3,2024-09-26 22:35:24.909116928,1727390124.909117,2024-09-26 22:35:24.909117146,0,"[ 1.35377623e+00  7.55752389e-01  4.88171264e-01  1.34269329e+00
  6.00799196e-01  4.24784489e-01 -1.10829424e-02 -1.54953193e-01
 -6.33867750e-02  6.82253679e-06  6.61873149e-09  9.35291412e-11
  5.48383628e-11 -2.19036966e-15 -4.49393293e-05 -2.32412350e-05
  1.65256691e-04 -5.23958475e-11 -3.07209330e-11 -1.03245847e-18
  4.49393285e-05  2.32412363e-05 -1.65256691e-04  3.37880059e-07
 -3.37872451e-07]","[0.0009765625, 0.0009765625, -0.0009765625, 0.0]",-1.0,"[0.0009765625, 0.0009765625, -0.0009765625, 0.0]",[-0.40565804 -0.999976    0.18363392  0.3826968 ],[1.39922648 0.68809563 0.42469975],[1.34269329 0.6007992  0.42470209],21,651,1459,1.0034043746099457,0,0
64,69,2024-09-26 22:35:24.610761984,TASK_BEGIN,20,0.4319670819457444,-0.0083822353879911,-5.274824181169771,0.6312782480555618,-0.2103483584101604,-0.1925759943655138,-0.9424266667630936,0.2539301795753642,3,2024-09-26 22:35:24.965119488,1727390124.9651194,2024-09-26 22:35:24.965119100,0,"[ 1.35383443e+00  7.55784091e-01  4.87943435e-01  1.34269329e+00
  6.00799196e-01  4.24784489e-01 -1.11411482e-02 -1.54984895e-01
 -6.31589462e-02  6.84696690e-06 -9.99653197e-09  5.38265414e-11
  3.15597829e-11 -2.19070156e-15 -4.49558889e-05 -2.32444956e-05
  1.65298459e-04 -3.01540919e-11 -1.76800660e-11 -4.20299312e-18
  4.49558884e-05  2.32444963e-05 -1.65298459e-04  3.37830351e-07
 -1.81645442e-07]","[0.0009765625, 0.0009765625, -0.0009765625, 0.0]",-1.0,"[0.0009765625, 0.0009765625, -0.0009765625, 0.0]",[-0.40503356 -0.9999757   0.18476799  0.3834389 ],[1.39922648 0.68809563 0.42469975],[1.34269329 0.6007992  0.42470209],21,651,1459,1.0035880865733566,0,0
65,70,2024-09-26 22:35:24.686272000,TASK_BEGIN,20,0.3803115942782422,-0.0018068113278577,-5.342564707222896,0.6368187843993242,-0.2242706588010743,-0.1793294827517399,-0.8913888269935919,0.2667347583070426,3,2024-09-26 22:35:25.078115328,1727390125.0781152,2024-09-26 22:35:25.078115193,0,"[ 1.35395090e+00  7.55847500e-01  4.87487599e-01  1.34269329e+00
  6.00799196e-01  4.24784489e-01 -1.12576119e-02 -1.55048305e-01
 -6.27031099e-02  6.89588236e-06  1.26943553e-07  1.78277134e-11
  1.04528112e-11 -2.19212507e-15 -4.49889026e-05 -2.32452114e-05
  1.65381698e-04 -9.98723616e-12 -5.85574986e-12 -1.18787792e-18
  4.49889025e-05  2.32452117e-05 -1.65381698e-04  3.37951780e-07
 -2.93763093e-07]","[0.0009765625, 0.0009765625, -0.0009765625, 0.0]",-1.0,"[0.0009765625, 0.0009765625, -0.0009765625, 0.0]",[-0.40378273 -0.9999751   0.18703546  0.38492137],[1.39922648 0.68809563 0.42469975],[1.34269329 0.6007992  0.42470209],21,651,1459,1.003879651500622,0,0
66,71,2024-09-26 22:35:24.754071040,TASK_BEGIN,20,0.32722470680284,0.0052918245995199,-5.369260606117139,0.6348427308334873,-0.2398088792307546,-0.1667287051606661,-0.8193054697793999,0.2745939531402032,3,2024-09-26 22:35:25.134120192,1727390125.1341202,2024-09-26 22:35:25.134120076,0,"[ 1.35400916e+00  7.55879207e-01  4.87259592e-01  1.34269329e+00
  6.00799196e-01  4.24784489e-01 -1.13158697e-02 -1.55080012e-01
 -6.24751027e-02  6.92035744e-06  1.36167666e-07  1.02599492e-11
  6.01565331e-12 -2.19067322e-15 -4.50053480e-05 -2.32465569e-05
  1.65423181e-04 -5.74771226e-12 -3.37001551e-12  2.44513764e-18
  4.50053479e-05  2.32465570e-05 -1.65423181e-04  3.37974507e-07
 -3.14962695e-07]","[0.0009765625, 0.0009765625, -0.0009765625, 0.0]",-1.0,"[0.0009765625, 0.0009765625, -0.0009765625, 0.0]",[-0.40316403 -0.9999748   0.18816407  0.38566363],[1.39922648 0.68809563 0.42469975],[1.34269329 0.6007992  0.42470209],21,651,1459,1.003968946499636,0,0
67,72,2024-09-26 22:35:24.811515136,TASK_BEGIN,20,0.2748010505322672,0.0126663880646808,-5.356748595780011,0.6258648966198346,-0.2574495377752486,-0.1549633970992859,-0.73108623426116,0.2773569670957817,3,2024-09-26 22:35:25.189115648,1727390125.1891155,2024-09-26 22:35:25.189114949,0,"[ 1.35406743e+00  7.55910916e-01  4.87031525e-01  1.34269329e+00
  6.00799196e-01  4.24784489e-01 -1.13741447e-02 -1.55111720e-01
 -6.22470362e-02  6.94484487e-06  1.29229514e-07  5.90466126e-12
  3.46204276e-12 -2.19090201e-15 -4.50217536e-05 -2.32479191e-05
  1.65464571e-04 -3.30783814e-12 -1.93946747e-12 -3.77330676e-18
  4.50217535e-05  2.32479192e-05 -1.65464571e-04  3.37997214e-07
 -3.26013525e-07]","[0.0009765625, 0.0009765625, -0.0009765625, 0.0]",-1.0,"[0.0009765625, 0.0009765625, -0.0009765625, 0.0]",[-0.40256548 -0.9999745   0.18927902  0.38640925],[1.39922648 0.68809563 0.42469975],[1.34269329 0.6007992  0.42470209],21,651,1459,1.004067024151571,0,0
68,73,2024-09-26 22:35:25.764602112,TASK_BEGIN,20,0.2250994789265144,0.0200398193715163,-5.309672585620453,0.6110370194457307,-0.2773383742386294,-0.1442775184085207,-0.6318831252165338,0.2749551730677991,3,2024-09-26 22:35:26.148167936,1727390126.1481678,2024-09-26 22:35:26.148166951,0,"[ 1.35506069e+00  7.56450211e-01  4.83145462e-01  1.34269329e+00
  6.00799196e-01  4.24784489e-01 -1.23674017e-02 -1.55651015e-01
 -5.83609727e-02  7.36315000e-06  5.42211514e-09  4.99049214e-16
  2.84757783e-16 -2.19434239e-15 -4.52947430e-05 -2.32708251e-05
  1.66154304e-04 -2.70762202e-16 -1.61012029e-16 -1.78885364e-18
  4.52947430e-05  2.32708251e-05 -1.66154304e-04  3.38386790e-07
 -3.38135260e-07]","[0.0009765625, 0.0009765625, -0.0009765625, 0.0]",-1.0,"[0.0009765625, 0.0009765625, -0.0009765625, 0.0]",[-0.39231926 -0.9999687   0.20820257  0.39903948],[1.39922648 0.68809563 0.42469975],[1.34269329 0.6007992  0.42470209],21,651,1459,1.0064650669947377,0,0
69,74,2024-09-26 22:35:25.828470016,TASK_BEGIN,20,0.1800265773226545,0.0271251542510823,-5.23483131658832,0.5919891870209925,-0.2993348679503891,-0.1349423959404259,-0.5266819558305509,0.2674573077184722,3,2024-09-26 22:35:26.205170176,1727390126.2051702,2024-09-26 22:35:26.205170125,0,"[ 1.35511926e+00  7.56481949e-01  4.82916352e-01  1.34269329e+00
  6.00799196e-01  4.24784489e-01 -1.24259773e-02 -1.55682753e-01
 -5.81318627e-02  7.38786863e-06 -1.12367424e-08  2.89313813e-16
  1.61457568e-16 -2.19105573e-15 -4.53104569e-05 -2.32741095e-05
  1.66194082e-04 -1.50105195e-16 -9.31083383e-17  9.63419952e-19
  4.53104569e-05  2.32741095e-05 -1.66194082e-04  3.38335344e-07
 -1.80845396e-07]","[0.0009765625, 0.0009765625, -0.0009765625, 0.0]",-1.0,"[0.0009765625, 0.0009765625, -0.0009765625, 0.0]",[-0.39171237 -0.99996835  0.20931369  0.39977968],[1.39922648 0.68809563 0.42469975],[1.34269329 0.6007992  0.42470209],21,651,1459,1.0065453441729066,0,0
70,75,2024-09-26 22:35:25.900239872,TASK_BEGIN,20,0.1412311653138421,0.0336460384568784,-5.140427138266631,0.5706539933211752,-0.3231097571707588,-0.1272242049454557,-0.4201058381612695,0.2551246590177648,3,2024-09-26 22:35:26.263790592,1727390126.2637906,2024-09-26 22:35:26.263789998,0,"[ 1.35517786e+00  7.56513689e-01  4.82687185e-01  1.34269329e+00
  6.00799196e-01  4.24784489e-01 -1.24845692e-02 -1.55714493e-01
 -5.79026960e-02  7.41260511e-06  8.64187320e-08  1.70684844e-16
  8.96508588e-17 -2.19147387e-15 -4.53261452e-05 -2.32731571e-05
  1.66233763e-04 -8.81672862e-17 -5.36555228e-17 -5.16414159e-18
  4.53261452e-05  2.32731571e-05 -1.66233763e-04  3.38449249e-07
 -2.52479293e-07]","[0.0009765625, 0.0009765625, -0.0009765625, 0.0]",-1.0,"[0.0009765625, 0.0009765625, -0.0009765625, 0.0]",[-0.3911049  -0.99996793  0.2104246   0.4005194 ],[1.39922648 0.68809563 0.42469975],[1.34269329 0.6007992  0.42470209],21,651,1459,1.006627011558998,0,0
71,76,2024-09-26 22:35:25.968046848,TASK_BEGIN,20,0.1100240328631321,0.039354407934647,-5.035264903015314,0.5491028095218625,-0.3482433894490728,-0.1213518428124155,-0.3162925426410365,0.2384312852091983,3,2024-09-26 22:35:26.320148992,1727390126.320149,2024-09-26 22:35:26.320149129,0,"[ 1.35523646e+00  7.56545430e-01  4.82457962e-01  1.34269329e+00
  6.00799196e-01  4.24784489e-01 -1.25431771e-02 -1.55746234e-01
 -5.76734727e-02  7.43735863e-06  1.27227652e-07  9.98953629e-17
  5.03889993e-17 -2.19174132e-15 -4.53417898e-05 -2.32748352e-05
  1.66273362e-04 -5.31891346e-17 -3.40682359e-17  2.95783843e-18
  4.53417898e-05  2.32748352e-05 -1.66273362e-04  3.38454732e-07
 -2.93684800e-07]","[0.0009765625, 0.0009765625, -0.0009765625, 0.0]",-1.0,"[0.0009765625, 0.0009765625, -0.0009765625, 0.0]",[-0.3904967  -0.9999676   0.21153496  0.4012586 ],[1.39922648 0.68809563 0.42469975],[1.34269329 0.6007992  0.42470209],21,651,1459,1.0067147883241223,0,0
72,77,2024-09-26 22:35:26.030467072,TASK_BEGIN,20,0.0873310045308829,0.0440428420483455,-4.927924996501075,0.5293948248473257,-0.3742824387509209,-0.117492395868634,-0.2187063348396437,0.2180302814632634,3,2024-09-26 22:35:26.377767680,1727390126.3777676,2024-09-26 22:35:26.377767049,0,"[ 1.35529509e+00  7.56577172e-01  4.82228682e-01  1.34269303e+00
  6.00799447e-01  4.24784520e-01 -1.26020604e-02 -1.55777725e-01
 -5.74441618e-02  7.46211967e-06  1.36609080e-07 -9.99066633e-06
 -1.03144447e-05 -5.15262792e-11 -4.53066420e-05 -2.33253564e-05
  1.66305040e-04  2.18846374e-06  2.25938766e-06 -1.22388738e-18
  4.53573992e-05  2.32761925e-05 -1.66312876e-04  3.38476153e-07
 -3.15161650e-07]","[0.0009765625, 0.0009765625, -0.0009765625, 0.0]",-1.0,"[0.0009765625, 0.0009765625, -0.0009765625, 0.0]",[-0.38988835 -0.99996716  0.21264501  0.40199754],[1.39922648 0.68809563 0.42469975],[1.34269329 0.6007992  0.42470209],21,651,1459,1.0068089883666702,0,0
73,78,2024-09-26 22:35:26.103666944,TASK_BEGIN,20,0.0736780005982115,0.0475517348100746,-4.8260171377258105,0.513423033721913,-0.400733507913202,-0.1157429956868629,-0.1299518037851182,0.194700438208904,3,2024-09-26 22:35:26.497269504,1727390126.4972696,2024-09-26 22:35:26.497269002,0,"[ 1.35541238e+00  7.56640662e-01  4.81769953e-01  1.34269319e+00
  6.00799289e-01  4.24784500e-01 -1.27191937e-02 -1.55841373e-01
 -5.69854532e-02  7.51167686e-06  1.14091223e-07 -3.61670599e-06
 -3.73391651e-06 -6.75442911e-12 -4.53362486e-05 -2.33295484e-05
  1.66385422e-04  2.02448712e-06  2.09009687e-06  2.71282779e-18
  4.53885088e-05  2.32789287e-05 -1.66391645e-04  3.38519597e-07
 -3.32196852e-07]","[0.0009765625, 0.0009765625, -0.0009765625, 0.0]",-1.0,"[0.0009765625, 0.0009765625, -0.0009765625, 0.0]",[-0.38865945 -0.9999663   0.21485622  0.40346724],[1.39922648 0.68809563 0.42469975],[1.34269329 0.6007992  0.42470209],21,651,1459,1.0069377366392738,0,0
74,79,2024-09-26 22:35:26.171503104,TASK_BEGIN,20,0.0691984511543932,0.0497730647077831,-4.73567944337984,0.5027529512537726,-0.4270160622588419,-0.1161394572411034,-0.0517252253030036,0.1693143640097546,3,2024-09-26 22:35:26.556262144,1727390126.556262,2024-09-26 22:35:26.556261922,0,"[ 1.35547106e+00  7.56672410e-01  4.81540505e-01  1.34269323e+00
  6.00799251e-01  4.24784496e-01 -1.27778260e-02 -1.55873159e-01
 -5.67560094e-02  7.53647406e-06  9.41158684e-08 -2.08168198e-06
 -2.14914531e-06 -2.23910841e-12 -4.53739026e-05 -2.33094492e-05
  1.66427328e-04  1.16613932e-06  1.20393167e-06 -3.49738144e-19
  4.54040094e-05  2.32802874e-05 -1.66430902e-04  3.38541710e-07
 -3.35249061e-07]","[0.0009765625, 0.0009765625, -0.0009765625, 0.0]",-1.0,"[0.0009765625, 0.0009765625, -0.0009765625, 0.0]",[-0.38794628 -0.9999659   0.21591839  0.40414414],[1.39922648 0.68809563 0.42469975],[1.34269329 0.6007992  0.42470209],21,651,1459,1.0069783414723725,0,0
75,80,2024-09-26 22:35:27.100235776,TASK_BEGIN,20,0.0736426506750001,0.0506533277123236,-4.661349570690253,0.4984741884552667,-0.4524237345785113,-0.1186712996340073,0.0151166420920987,0.1428066367122055,3,2024-09-26 22:35:27.192786176,1727390127.1927862,2024-09-26 22:35:27.192786092,0,"[ 1.35611748e+00  7.57021739e-01  4.79012903e-01  1.34269328e+00
  6.00799199e-01  4.24784489e-01 -1.34241998e-02 -1.56222540e-01
 -5.42284137e-02  7.81006258e-06  9.91516140e-08 -4.77487115e-09
 -4.92961559e-09 -2.19594619e-15 -4.55721098e-05 -2.32952771e-05
  1.66857163e-04  2.67492463e-09  2.76161382e-09  3.24575086e-18
  4.55721789e-05  2.32952102e-05 -1.66857171e-04  3.38779826e-07
 -3.35318215e-07]","[0.0009765625, 0.0009765625, -0.0009765625, 0.0]",-1.0,"[0.0009765625, 0.0009765625, -0.0009765625, 0.0]",[-0.37413192 -0.99995303  0.22925347  0.41094536],[1.39922648 0.68809563 0.42469975],[1.34269329 0.6007992  0.42470209],21,651,1459,1.0072986205651113,0,0
76,81,2024-09-26 22:35:27.182427904,TASK_BEGIN,20,0.0863786398518131,0.0501968789056476,-4.60564813043472,0.5010958650670156,-0.4761187929167292,-0.1232931366129605,0.0704624005188915,0.1160956745273045,3,2024-09-26 22:35:27.192786176,1727390127.1927862,2024-09-26 22:35:27.192786092,0,"[ 1.35611748e+00  7.57021739e-01  4.79012903e-01  1.34269328e+00
  6.00799199e-01  4.24784489e-01 -1.34241998e-02 -1.56222540e-01
 -5.42284137e-02  7.81006258e-06  9.91516140e-08 -4.77487115e-09
 -4.92961559e-09 -2.19594619e-15 -4.55721098e-05 -2.32952771e-05
  1.66857163e-04  2.67492463e-09  2.76161382e-09  3.24575086e-18
  4.55721789e-05  2.32952102e-05 -1.66857171e-04  3.38779826e-07
 -3.35318215e-07]","[0.0009765625, 0.0009765625, -0.0009765625, 0.0]",-1.0,"[0.0009765625, 0.0009765625, -0.0009765625, 0.0]",[-0.37413192 -0.99995303  0.22925347  0.41094536],[1.39922648 0.68809563 0.42469975],[1.34269329 0.6007992  0.42470209],21,651,1459,1.0072986205651113,0,0
77,82,2024-09-26 22:35:27.238482944,TASK_BEGIN,20,0.1064043604070274,0.0484677446179712,-4.56922836993332,0.5105030350314281,-0.4971475607013024,-0.1299314620787777,0.1148223872434222,0.089967715312688,3,2024-09-26 22:35:27.192786176,1727390127.1927862,2024-09-26 22:35:27.192786092,0,"[ 1.35611748e+00  7.57021739e-01  4.79012903e-01  1.34269328e+00
  6.00799199e-01  4.24784489e-01 -1.34241998e-02 -1.56222540e-01
 -5.42284137e-02  7.81006258e-06  9.91516140e-08 -4.77487115e-09
 -4.92961559e-09 -2.19594619e-15 -4.55721098e-05 -2.32952771e-05
  1.66857163e-04  2.67492463e-09  2.76161382e-09  3.24575086e-18
  4.55721789e-05  2.32952102e-05 -1.66857171e-04  3.38779826e-07
 -3.35318215e-07]","[0.0009765625, 0.0009765625, -0.0009765625, 0.0]",-1.0,"[0.0009765625, 0.0009765625, -0.0009765625, 0.0]",[-0.37413192 -0.99995303  0.22925347  0.41094536],[1.39922648 0.68809563 0.42469975],[1.34269329 0.6007992  0.42470209],21,651,1459,1.0072986205651113,0,0
78,83,2024-09-26 22:35:27.318030080,TASK_BEGIN,20,0.1323962522289805,0.0455874448670289,-4.550651761115006,0.5259724805419632,-0.5144700509576655,-0.1384898864170337,0.1491545740339443,0.0649754792877158,3,2024-09-26 22:35:27.192786176,1727390127.1927862,2024-09-26 22:35:27.192786092,0,"[ 1.35611748e+00  7.57021739e-01  4.79012903e-01  1.34269328e+00
  6.00799199e-01  4.24784489e-01 -1.34241998e-02 -1.56222540e-01
 -5.42284137e-02  7.81006258e-06  9.91516140e-08 -4.77487115e-09
 -4.92961559e-09 -2.19594619e-15 -4.55721098e-05 -2.32952771e-05
  1.66857163e-04  2.67492463e-09  2.76161382e-09  3.24575086e-18
  4.55721789e-05  2.32952102e-05 -1.66857171e-04  3.38779826e-07
 -3.35318215e-07]","[0.0009765625, 0.0009765625, -0.0009765625, 0.0]",-1.0,"[0.0009765625, 0.0009765625, -0.0009765625, 0.0]",[-0.37413192 -0.99995303  0.22925347  0.41094536],[1.39922648 0.68809563 0.42469975],[1.34269329 0.6007992  0.42470209],21,651,1459,1.0072986205651113,0,0
79,84,2024-09-26 22:35:27.377263104,TASK_BEGIN,20,0.1627890249272764,0.0417292725902862,-4.546482884035179,0.5462393553924704,-0.5270184580647397,-0.1488518204889591,0.1747234057325211,0.0413851687206039,3,2024-09-26 22:35:27.192786176,1727390127.1927862,2024-09-26 22:35:27.192786092,0,"[ 1.35611748e+00  7.57021739e-01  4.79012903e-01  1.34269328e+00
  6.00799199e-01  4.24784489e-01 -1.34241998e-02 -1.56222540e-01
 -5.42284137e-02  7.81006258e-06  9.91516140e-08 -4.77487115e-09
 -4.92961559e-09 -2.19594619e-15 -4.55721098e-05 -2.32952771e-05
  1.66857163e-04  2.67492463e-09  2.76161382e-09  3.24575086e-18
  4.55721789e-05  2.32952102e-05 -1.66857171e-04  3.38779826e-07
 -3.35318215e-07]","[0.0009765625, 0.0009765625, -0.0009765625, 0.0]",-1.0,"[0.0009765625, 0.0009765625, -0.0009765625, 0.0]",[-0.37413192 -0.99995303  0.22925347  0.41094536],[1.39922648 0.68809563 0.42469975],[1.34269329 0.6007992  0.42470209],21,651,1459,1.0072986205651113,0,0
80,85,2024-09-26 22:35:27.439291136,TASK_BEGIN,20,0.1958647137753956,0.0371101726690108,-4.551670661859641,0.5696012535348629,-0.5337813327136192,-0.1608775561401066,0.1930632177661112,0.0191721782102571,3,2024-09-26 22:35:27.192786176,1727390127.1927862,2024-09-26 22:35:27.192786092,0,"[ 1.35611748e+00  7.57021739e-01  4.79012903e-01  1.34269328e+00
  6.00799199e-01  4.24784489e-01 -1.34241998e-02 -1.56222540e-01
 -5.42284137e-02  7.81006258e-06  9.91516140e-08 -4.77487115e-09
 -4.92961559e-09 -2.19594619e-15 -4.55721098e-05 -2.32952771e-05
  1.66857163e-04  2.67492463e-09  2.76161382e-09  3.24575086e-18
  4.55721789e-05  2.32952102e-05 -1.66857171e-04  3.38779826e-07
 -3.35318215e-07]","[0.0009765625, 0.0009765625, -0.0009765625, 0.0]",-1.0,"[0.0009765625, 0.0009765625, -0.0009765625, 0.0]",[-0.37413192 -0.99995303  0.22925347  0.41094536],[1.39922648 0.68809563 0.42469975],[1.34269329 0.6007992  0.42470209],21,651,1459,1.0072986205651113,0,0
81,86,2024-09-26 22:35:27.516749056,TASK_BEGIN,20,0.2298549554819898,0.031977640248748,-4.560071376960504,0.5940412361359134,-0.5338774092358259,-0.1743979770504651,0.2059843525223795,-0.0019420029626805,3,2024-09-26 22:35:27.192786176,1727390127.1927862,2024-09-26 22:35:27.192786092,0,"[ 1.35611748e+00  7.57021739e-01  4.79012903e-01  1.34269328e+00
  6.00799199e-01  4.24784489e-01 -1.34241998e-02 -1.56222540e-01
 -5.42284137e-02  7.81006258e-06  9.91516140e-08 -4.77487115e-09
 -4.92961559e-09 -2.19594619e-15 -4.55721098e-05 -2.32952771e-05
  1.66857163e-04  2.67492463e-09  2.76161382e-09  3.24575086e-18
  4.55721789e-05  2.32952102e-05 -1.66857171e-04  3.38779826e-07
 -3.35318215e-07]","[0.0009765625, 0.0009765625, -0.0009765625, 0.0]",-1.0,"[0.0009765625, 0.0009765625, -0.0009765625, 0.0]",[-0.37413192 -0.99995303  0.22925347  0.41094536],[1.39922648 0.68809563 0.42469975],[1.34269329 0.6007992  0.42470209],21,651,1459,1.0072986205651113,0,0
82,87,2024-09-26 22:35:28.459905024,TASK_BEGIN,20,0.2630787698673047,0.0265882796849331,-4.564976675929586,0.6173633484319917,-0.5265937989759211,-0.1892124470642776,0.2155366487030545,-0.0224168221412615,3,2024-09-26 22:35:28.102350592,1727390128.1023507,2024-09-26 22:35:28.102350057,0,"[ 1.35706103e+00  7.57530204e-01  4.75324630e-01  1.34269328e+00
  6.00799199e-01  4.24784489e-01 -1.43677473e-02 -1.56731005e-01
 -5.05401406e-02  8.21058025e-06 -1.78799432e-08 -6.91443450e-13
 -7.13845247e-13 -2.18679591e-15 -4.58094191e-05 -2.33190124e-05
  1.67459616e-04  3.87362646e-13  3.99898646e-13 -3.49079893e-18
  4.58094191e-05  2.33190124e-05 -1.67459616e-04  3.39037384e-07
 -1.75599905e-07]","[0.0009765625, 0.0009765625, -0.0009765625, 0.0]",-1.0,"[0.0009765625, 0.0009765625, -0.0009765625, 0.0]",[-0.347744   -0.99992     0.25322762  0.41809028],[1.39922648 0.68809563 0.42469975],[1.34269329 0.6007992  0.42470209],21,651,1459,1.0065704324645253,0,0
83,88,2024-09-26 22:35:28.532588800,TASK_BEGIN,20,0.294101114737805,0.0211823950766218,-4.559692912386499,0.6373555802389136,-0.5114026460534732,-0.2050959467049491,0.2239203753180598,-0.042790411922634,3,2024-09-26 22:35:28.157881856,1727390128.157882,2024-09-26 22:35:28.157882039,0,"[ 1.35712013e+00  7.57561997e-01  4.75093659e-01  1.34269328e+00
  6.00799199e-01  4.24784489e-01 -1.44268445e-02 -1.56762798e-01
 -5.03091700e-02  8.23571252e-06  8.52674773e-08 -3.97931502e-13
 -4.10820922e-13 -2.18780414e-15 -4.58239752e-05 -2.33179996e-05
  1.67496593e-04  2.22919088e-13  2.30146409e-13 -3.42313472e-19
  4.58239752e-05  2.33179996e-05 -1.67496593e-04  3.39152376e-07
 -2.47746904e-07]","[0.0009765625, 0.0009765625, -0.0009765625, 0.0]",-1.0,"[0.0009765625, 0.0009765625, -0.0009765625, 0.0]",[-0.3455513  -0.9999172   0.25526866  0.4181921 ],[1.39922648 0.68809563 0.42469975],[1.34269329 0.6007992  0.42470209],21,651,1459,1.0065309249747636,0,0
84,89,2024-09-26 22:35:28.584931840,TASK_BEGIN,20,0.3218506595595543,0.0159666375139402,-4.538275183196829,0.6519905923986393,-0.4879763105064781,-0.2218135209231244,0.2333575812019601,-0.0635624004630812,3,2024-09-26 22:35:28.213882624,1727390128.2138827,2024-09-26 22:35:28.213882039,0,"[ 1.35717924e+00  7.57593791e-01  4.74862636e-01  1.34269328e+00
  6.00799199e-01  4.24784489e-01 -1.44859563e-02 -1.56794593e-01
 -5.00781468e-02  8.26086095e-06  1.29826726e-07 -2.29014153e-13
 -2.36431810e-13 -2.18771935e-15 -4.58384913e-05 -2.33196984e-05
  1.67533498e-04  1.28296594e-13  1.32449493e-13  6.16186042e-19
  4.58384913e-05  2.33196984e-05 -1.67533498e-04  3.39155418e-07
 -2.91554873e-07]","[0.0009765625, 0.0009765625, -0.0009765625, 0.0]",-1.0,"[0.0009765625, 0.0009765625, -0.0009765625, 0.0]",[-0.34335417 -0.9999143   0.25730705  0.41829374],[1.39922648 0.68809563 0.42469975],[1.34269329 0.6007992  0.42470209],21,651,1459,1.0065028807379734,0,0
85,90,2024-09-26 22:35:28.661660928,TASK_BEGIN,20,0.3456435049666647,0.0111130220180343,-4.496383208016696,0.6596398194296249,-0.4561957771672819,-0.2391364771601584,0.2459414668273012,-0.0850946098541725,3,2024-09-26 22:35:28.269042688,1727390128.2690427,2024-09-26 22:35:28.269041951,0,"[ 1.35723837e+00  7.57625587e-01  4.74631560e-01  1.34269328e+00
  6.00799199e-01  4.24784489e-01 -1.45450825e-02 -1.56826389e-01
 -4.98470711e-02  8.28601535e-06  1.40973467e-07 -1.31793989e-13
 -1.36068973e-13 -2.18612513e-15 -4.58529771e-05 -2.33210717e-05
  1.67570327e-04  7.38354838e-14  7.62271022e-14  1.51629604e-18
  4.58529771e-05  2.33210717e-05 -1.67570327e-04  3.39174731e-07
 -3.14386151e-07]","[0.0009765625, 0.0009765625, -0.0009765625, 0.0]",-1.0,"[0.0009765625, 0.0009765625, -0.0009765625, 0.0]",[-0.34115306 -0.99991125  0.25934407  0.41839567],[1.39922648 0.68809563 0.42469975],[1.34269329 0.6007992  0.42470209],21,651,1459,1.0064693232939146,0,0
86,91,2024-09-26 22:35:28.723704064,TASK_BEGIN,20,0.3651114227113194,0.0067703890959383,-4.432104139770532,0.6592530901756414,-0.4161487181315276,-0.2568548164996477,0.2635126278258905,-0.1075726277108346,3,2024-09-26 22:35:28.324203264,1727390128.3242033,2024-09-26 22:35:28.324202840,0,"[ 1.35729751e+00  7.57657385e-01  4.74400432e-01  1.34269328e+00
  6.00799199e-01  4.24784489e-01 -1.46042230e-02 -1.56858186e-01
 -4.96159430e-02  8.31117986e-06  1.34713241e-07 -7.58476990e-14
 -7.83054784e-14 -2.18518506e-15 -4.58674310e-05 -2.33224609e-05
  1.67607079e-04  4.24881919e-14  4.38729932e-14 -2.67207508e-19
  4.58674310e-05  2.33224609e-05 -1.67607079e-04  3.39194119e-07
 -3.26285155e-07]","[0.0009765625, 0.0009765625, -0.0009765625, 0.0]",-1.0,"[0.0009765625, 0.0009765625, -0.0009765625, 0.0]",[-0.33881417 -0.99990815  0.2615307   0.4184347 ],[1.39922648 0.68809563 0.42469975],[1.34269329 0.6007992  0.42470209],21,651,1459,1.0064084116824559,0,0
87,92,2024-09-26 22:35:28.803724032,TASK_BEGIN,20,0.3800802293823466,0.0030761571884699,-4.346574136508343,0.6504654071137577,-0.3681439980411477,-0.2747806916921841,0.287616213666025,-0.1310381835461588,3,2024-09-26 22:35:28.436872448,1727390128.4368725,2024-09-26 22:35:28.436872029,0,"[ 1.35741583e+00  7.57720985e-01  4.73938019e-01  1.34269328e+00
  6.00799199e-01  4.24784489e-01 -1.47225472e-02 -1.56921786e-01
 -4.91535298e-02  8.36154191e-06  9.93225415e-08 -2.51185281e-14
 -2.59348828e-14 -2.18541774e-15 -4.58962443e-05 -2.33252108e-05
  1.67680354e-04  1.40661139e-14  1.45324691e-14  1.50981666e-18
  4.58962443e-05  2.33252108e-05 -1.67680354e-04  3.39234297e-07
 -3.35733468e-07]","[0.0009765625, 0.0009765625, -0.0009765625, 0.0]",-1.0,"[0.0009765625, 0.0009765625, -0.0009765625, 0.0]",[-0.33352947 -0.99990183  0.26656666  0.41823477],[1.39922648 0.68809563 0.42469975],[1.34269329 0.6007992  0.42470209],21,651,1459,1.0062603879086724,0,0
88,93,2024-09-26 22:35:28.867294976,TASK_BEGIN,20,0.3904605045249618,0.0001586016094276,-4.244220250653604,0.6336102635320997,-0.3127679919322673,-0.2927405292279471,0.3195367629499068,-0.1554450895930238,3,2024-09-26 22:35:28.492870144,1727390128.49287,2024-09-26 22:35:28.492870076,0,"[ 1.35747501e+00  7.57752788e-01  4.73706734e-01  1.34269328e+00
  6.00799199e-01  4.24784489e-01 -1.47817306e-02 -1.56953589e-01
 -4.89222451e-02  8.38673985e-06  7.67944096e-08 -1.44570810e-14
 -1.49259484e-14 -2.18617432e-15 -4.59106041e-05 -2.33265817e-05
  1.67716877e-04  8.10496079e-15  8.36288874e-15  2.20604265e-18
  4.59106041e-05  2.33265817e-05 -1.67716877e-04  3.39254396e-07
 -3.37431295e-07]","[0.0009765625, 0.0009765625, -0.0009765625, 0.0]",-1.0,"[0.0009765625, 0.0009765625, -0.0009765625, 0.0]",[-0.33087853 -0.99989843  0.26908016  0.41813484],[1.39922648 0.68809563 0.42469975],[1.34269329 0.6007992  0.42470209],21,651,1459,1.0061642092387413,0,0
89,94,2024-09-26 22:35:29.778272000,TASK_BEGIN,20,0.3961980231790664,-0.0018720647267706,-4.132435648079342,0.6096361947203144,-0.2509591697598521,-0.3105605252992464,0.3603129815868884,-0.1806814605541697,3,2024-09-26 22:35:29.408203776,1727390129.4082038,2024-09-26 22:35:29.408203084,0,"[ 1.35842385e+00  7.58261846e-01  4.69999184e-01  1.34269330e+00
  6.00799170e-01  4.24784490e-01 -1.57305496e-02 -1.57462677e-01
 -4.52146931e-02  8.79139859e-06  8.51729702e-08  1.09170910e-06
  6.40094965e-07 -3.51586061e-13 -4.61451915e-05 -2.33328501e-05
  1.68290394e-04 -6.11578876e-07 -3.58583217e-07 -5.34952865e-19
  4.61362243e-05  2.33481440e-05 -1.68291148e-04  3.39584309e-07
 -2.47119957e-07]","[0.0009765625, 0.0009765625, -0.0009765625, 0.0]",-1.0,"[0.0009765625, 0.0009765625, -0.0009765625, 0.0]",[-0.26816624 -0.99973816  0.32043228  0.3993963 ],[1.39922648 0.68809563 0.42469975],[1.34269329 0.6007992  0.42470209],21,651,1459,1.0035145693060863,0,0
90,95,2024-09-26 22:35:29.857595904,TASK_BEGIN,20,0.3972956347331359,-0.0029396771781635,-4.020642163635451,0.5799548630951518,-0.1840353179998461,-0.3280558975631718,0.410604467170844,-0.2065485825452383,3,2024-09-26 22:35:29.467318784,1727390129.4673188,2024-09-26 22:35:29.467317830,0,"[ 1.35848327e+00  7.58293676e-01  4.69767030e-01  1.34269329e+00
  6.00799181e-01  4.24784490e-01 -1.57899751e-02 -1.57494495e-01
 -4.49825402e-02  8.81678707e-06  1.30299689e-07  6.28285619e-07
  3.68378777e-07 -1.17911253e-13 -4.61552334e-05 -2.33410501e-05
  1.68325988e-04 -3.51970916e-07 -2.06368906e-07  1.32043900e-18
  4.61500726e-05  2.33498520e-05 -1.68326420e-04  3.39585934e-07
 -2.91433964e-07]","[0.0009765625, 0.0009765625, -0.0009765625, 0.0]",-1.0,"[0.0009765625, 0.0009765625, -0.0009765625, 0.0]",[-0.26444787 -0.999723    0.32349035  0.39802203],[1.39922648 0.68809563 0.42469975],[1.34269329 0.6007992  0.42470209],21,651,1459,1.0033623603833106,0,0
91,96,2024-09-26 22:35:29.925356032,TASK_BEGIN,20,0.3938848032183765,-0.0030199074150311,-3.9189577615238966,0.5462710315759185,-0.1136246269115979,-0.3450321217541027,0.4703605539866871,-0.2327193031468164,3,2024-09-26 22:35:29.526948352,1727390129.5269485,2024-09-26 22:35:29.526948201,0,"[ 1.35854270e+00  7.58325507e-01  4.69534826e-01  1.34269329e+00
  6.00799188e-01  4.24784490e-01 -1.58494112e-02 -1.57526320e-01
 -4.47503369e-02  8.84218065e-06  1.41627774e-07  3.61581904e-07
  2.12004056e-07 -4.05148135e-14 -4.61668638e-05 -2.33461683e-05
  1.68361375e-04 -2.02561327e-07 -1.18766516e-07  2.35666177e-18
  4.61638938e-05  2.33512338e-05 -1.68361623e-04  3.39603888e-07
 -3.14528146e-07]","[0.0009765625, 0.0009765625, -0.0009765625, 0.0]",-1.0,"[0.0009765625, 0.0009765625, -0.0009765625, 0.0]",[-0.26059374 -0.99970746  0.32666102  0.39657792],[1.39922648 0.68809563 0.42469975],[1.34269329 0.6007992  0.42470209],21,651,1459,1.0032133665236231,0,0
92,97,2024-09-26 22:35:29.979067136,TASK_BEGIN,20,0.38631457405425,-0.0021556929642154,-3.836818526311783,0.5104272728084924,-0.0415170098085972,-0.3612968014890541,0.5383432890547108,-0.2586882690546815,3,2024-09-26 22:35:29.584860416,1727390129.5848603,2024-09-26 22:35:29.584860066,0,"[ 1.35860215e+00  7.58357340e-01  4.69302573e-01  1.34269329e+00
  6.00799192e-01  4.24784489e-01 -1.59088591e-02 -1.57558149e-01
 -4.45180834e-02  8.86758350e-06  1.35348197e-07  2.08092400e-07
  1.22009515e-07 -1.48790981e-14 -4.61793952e-05 -2.33497161e-05
  1.68396612e-04 -1.16575179e-07 -6.83507952e-08  4.32614635e-19
  4.61776859e-05  2.33526313e-05 -1.68396755e-04  3.39621930e-07
 -3.26563423e-07]","[0.0009765625, 0.0009765625, -0.0009765625, 0.0]",-1.0,"[0.0009765625, 0.0009765625, -0.0009765625, 0.0]",[-0.25673085 -0.999691    0.32982525  0.39513165],[1.39922648 0.68809563 0.42469975],[1.34269329 0.6007992  0.42470209],21,651,1459,1.00307194832671,0,0
93,98,2024-09-26 22:35:30.060940032,TASK_BEGIN,20,0.375226247465754,-0.0004657929438369,-3.78182695993171,0.4742684323615179,0.0305000718885574,-0.3766733362741342,0.6116467268607363,-0.2837205858263742,3,2024-09-26 22:35:29.696380160,1727390129.6963801,2024-09-26 22:35:29.696380086,0,"[ 1.35872108e+00  7.58421011e-01  4.68837916e-01  1.34269329e+00
  6.00799195e-01  4.24784489e-01 -1.60277923e-02 -1.57621816e-01
 -4.40534266e-02  8.91841979e-06  9.96567062e-08  6.89215860e-08
  4.04103624e-08 -3.57806945e-15 -4.62057511e-05 -2.33544320e-05
  1.68466758e-04 -3.86104754e-08 -2.26382385e-08  5.91392191e-19
  4.62051850e-05  2.33553975e-05 -1.68466805e-04  3.39659432e-07
 -3.36118047e-07]","[0.0009765625, 0.0009765625, -0.0009765625, 0.0]",-1.0,"[0.0009765625, 0.0009765625, -0.0009765625, 0.0]",[-0.24897778 -0.9996553   0.33613372  0.39223224],[1.39922648 0.68809563 0.42469975],[1.34269329 0.6007992  0.42470209],21,651,1459,1.002830440078458,0,0
94,99,2024-09-26 22:35:30.118688000,TASK_BEGIN,20,0.3615771569111259,0.0018592746826476,-3.759006561028515,0.4395315726192028,0.1007638969846788,-0.3910102460414624,0.685456040363763,-0.3068266213828762,3,2024-09-26 22:35:29.752381440,1727390129.7523816,2024-09-26 22:35:29.752381062,0,"[ 1.35878056e+00  7.58452849e-01  4.68605513e-01  1.34269329e+00
  6.00799196e-01  4.24784489e-01 -1.60872783e-02 -1.57653653e-01
 -4.38210235e-02  8.94385361e-06  7.69236170e-08  3.96647553e-08
  2.32563879e-08 -2.64659792e-15 -4.62192179e-05 -2.33562208e-05
  1.68501698e-04 -2.22205431e-08 -1.30284321e-08  2.19535326e-18
  4.62188921e-05  2.33567764e-05 -1.68501725e-04  3.39678193e-07
 -3.37833973e-07]","[0.0009765625, 0.0009765625, -0.0009765625, 0.0]",-1.0,"[0.0009765625, 0.0009765625, -0.0009765625, 0.0]",[-0.24508809 -0.9996359   0.33927786  0.39077926],[1.39922648 0.68809563 0.42469975],[1.34269329 0.6007992  0.42470209],21,651,1459,1.002707216823546,0,0
95,100,2024-09-26 22:35:30.196367872,TASK_BEGIN,20,0.3465831796865348,0.0045774428474101,-3.770551519237468,0.4077723250014152,0.1677933401190073,-0.4041862471750466,0.753292215379556,-0.3268038703373379,3,2024-09-26 22:35:29.808380160,1727390129.8083801,2024-09-26 22:35:29.808380086,0,"[ 1.35884006e+00  7.58484689e-01  4.68373060e-01  1.34269328e+00
  6.00799196e-01  4.24784489e-01 -1.61467773e-02 -1.57685493e-01
 -4.35885708e-02  8.96929786e-06  5.28858068e-08  2.28272868e-08
  1.33841803e-08 -2.33762795e-15 -4.62327585e-05 -2.33578346e-05
  1.68536559e-04 -1.27880459e-08 -7.49793498e-09 -3.77443516e-19
  4.62325710e-05  2.33581544e-05 -1.68536575e-04  3.39696871e-07
 -3.38736470e-07]","[0.0009765625, 0.0009765625, -0.0009765625, 0.0]",-1.0,"[0.0009765625, 0.0009765625, -0.0009765625, 0.0]",[-0.24116124 -0.9996153   0.34238404  0.38928345],[1.39922648 0.68809563 0.42469975],[1.34269329 0.6007992  0.42470209],21,651,1459,1.00258612084979,0,0
96,101,2024-09-26 22:35:31.137389824,TASK_BEGIN,20,0.3315798578706723,0.007428363216261,-3.81596934520108,0.3803184203375911,0.2302880168314875,-0.4161122216239104,0.8077867290338275,-0.3423645565796419,3,2024-09-26 22:35:30.767893504,1727390130.7678936,2024-09-26 22:35:30.767893025,0,"[ 1.35985352e+00  7.59026206e-01  4.64413873e-01  1.34269328e+00
  6.00799197e-01  4.24784489e-01 -1.71602398e-02 -1.58227009e-01
 -3.96293839e-02  9.40340165e-06  1.42385448e-07  1.90237704e-12
  1.11541283e-12 -2.18428851e-15 -4.64609429e-05 -2.33815678e-05
  1.69118540e-04 -1.06572881e-12 -6.24860878e-13  2.67618138e-18
  4.64609429e-05  2.33815678e-05 -1.69118540e-04  3.40003554e-07
 -3.14628850e-07]","[0.0009765625, 0.0009765625, -0.0009765625, 0.0]",-1.0,"[0.0009765625, 0.0009765625, -0.0009765625, 0.0]",[-0.18028064 -0.9990306   0.3993864   0.3639337 ],[1.39922648 0.68809563 0.42469975],[1.34269329 0.6007992  0.42470209],21,651,1459,1.0009077823535826,0,0
97,102,2024-09-26 22:35:31.207703040,TASK_BEGIN,20,0.3178413191237985,0.0101696783624602,-3.892422533524704,0.35823152239321,0.2871041908286636,-0.4267313800655863,0.8418006131897386,-0.3523336543941731,3,2024-09-26 22:35:30.824889856,1727390130.82489,2024-09-26 22:35:30.824890096,0,"[ 1.35991325e+00  7.59058074e-01  4.64180545e-01  1.34269328e+00
  6.00799197e-01  4.24784489e-01 -1.72199695e-02 -1.58258877e-01
 -3.93960557e-02  9.42902502e-06  1.36113338e-07  1.09482862e-12
  6.41928568e-13 -2.18549553e-15 -4.64741387e-05 -2.33829731e-05
  1.69152170e-04 -6.13339044e-13 -3.59611412e-13 -2.40658837e-18
  4.64741387e-05  2.33829731e-05 -1.69152170e-04  3.40020246e-07
 -3.26806051e-07]","[0.0009765625, 0.0009765625, -0.0009765625, 0.0]",-1.0,"[0.0009765625, 0.0009765625, -0.0009765625, 0.0]",[-0.17691158 -0.9989773   0.40280497  0.3624632 ],[1.39922648 0.68809563 0.42469975],[1.34269329 0.6007992  0.42470209],21,651,1459,1.0008137193980464,0,0
98,103,2024-09-26 22:35:31.275464960,TASK_BEGIN,20,0.3064164308656304,0.0126046821279503,-3.995181698492527,0.3422785065898977,0.3372539681180374,-0.4360213141056037,0.8496456087507119,-0.3558801319753216,3,2024-09-26 22:35:30.880891136,1727390130.880891,2024-09-26 22:35:30.880891072,0,"[ 1.35997300e+00  7.59089944e-01  4.63947169e-01  1.34269328e+00
  6.00799197e-01  4.24784489e-01 -1.72797117e-02 -1.58290747e-01
 -3.91626798e-02  9.45465768e-06  1.20558096e-07  6.30082148e-13
  3.69431987e-13 -2.18768730e-15 -4.64873090e-05 -2.33843659e-05
  1.69185735e-04 -3.52973897e-13 -2.06961002e-13 -7.01667686e-18
  4.64873090e-05  2.33843659e-05 -1.69185735e-04  3.40037608e-07
 -3.33156150e-07]","[0.0009765625, 0.0009765625, -0.0009765625, 0.0]",-1.0,"[0.0009765625, 0.0009765625, -0.0009765625, 0.0]",[-0.17365776 -0.99892247  0.40613464  0.36108196],[1.39922648 0.68809563 0.42469975],[1.34269329 0.6007992  0.42470209],21,651,1459,1.0007235780818238,0,0
99,104,2024-09-26 22:35:31.337876992,TASK_BEGIN,20,0.2980220221727646,0.014595870228203,-4.118158715541749,0.33292230570849,0.3799490669916055,-0.4439987171363259,0.8281822040563591,-0.3527199646344145,3,2024-09-26 22:35:30.992892160,1727390130.9928923,2024-09-26 22:35:30.992891805,0,"[ 1.36009252e+00  7.59153689e-01  4.63480275e-01  1.34269328e+00
  6.00799197e-01  4.24784489e-01 -1.73992333e-02 -1.58354492e-01
 -3.86957854e-02  9.50595191e-06  7.72447345e-08  2.08685827e-13
  1.22357148e-13 -2.18997779e-15 -4.65135734e-05 -2.33871411e-05
  1.69252669e-04 -1.16908030e-13 -6.85432740e-14  2.40943082e-18
  4.65135733e-05  2.33871411e-05 -1.69252669e-04  3.40072484e-07
 -3.38206276e-07]","[0.0009765625, 0.0009765625, -0.0009765625, 0.0]",-1.0,"[0.0009765625, 0.0009765625, -0.0009765625, 0.0]",[-0.16713716 -0.99880373  0.41276366  0.3583141 ],[1.39922648 0.68809563 0.42469975],[1.34269329 0.6007992  0.42470209],21,651,1459,1.0005582302027205,0,0
100,105,2024-09-26 22:35:31.411060992,TASK_BEGIN,20,0.2929949104561388,0.0160664731288658,-4.254452814989641,0.3303340671233288,0.414660095893864,-0.450719373751112,0.7775494731160363,-0.3432181187802889,3,2024-09-26 22:35:31.048891904,1727390131.048892,2024-09-26 22:35:31.048891805,0,"[ 1.36015230e+00  7.59185563e-01  4.63246756e-01  1.34269328e+00
  6.00799197e-01  4.24784489e-01 -1.74590125e-02 -1.58386367e-01
 -3.84622670e-02  9.53161350e-06  5.30063534e-08  1.20100140e-13
  7.04190021e-14 -2.19100080e-15 -4.65266677e-05 -2.33885266e-05
  1.69286039e-04 -6.72819167e-14 -3.94411474e-14 -4.76006244e-18
  4.65266677e-05  2.33885266e-05 -1.69286039e-04  3.40089822e-07
 -3.39117970e-07]","[0.0009765625, 0.0009765625, -0.0009765625, 0.0]",-1.0,"[0.0009765625, 0.0009765625, -0.0009765625, 0.0]",[-0.16387032 -0.99873954  0.41606298  0.35692742],[1.39922648 0.68809563 0.42469975],[1.34269329 0.6007992  0.42470209],21,651,1459,1.0004290339064787,0,0
101,106,2024-09-26 22:35:31.477122048,TASK_BEGIN,20,0.2912909723333228,0.0169938357045093,-4.396879724613033,0.3344266022163607,0.4411443853285925,-0.4562657517606597,0.7013447870075876,-0.3283588032329652,3,2024-09-26 22:35:31.104894720,1727390131.1048946,2024-09-26 22:35:31.104894002,0,"[ 1.36021209e+00  7.59217440e-01  4.63013190e-01  1.34269328e+00
  6.00799197e-01  4.24784489e-01 -1.75188041e-02 -1.58418243e-01
 -3.82287013e-02  9.55728466e-06  2.80763457e-08  6.91164243e-14
  4.05308450e-14 -2.19169002e-15 -4.65397369e-05 -2.33899118e-05
  1.69319344e-04 -3.87183394e-14 -2.27012961e-14  2.33699027e-19
  4.65397369e-05  2.33899118e-05 -1.69319344e-04  3.40107069e-07
 -3.39600964e-07]","[0.0009765625, 0.0009765625, -0.0009765625, 0.0]",-1.0,"[0.0009765625, 0.0009765625, -0.0009765625, 0.0]",[-0.15996772 -0.99867165  0.41935164  0.35480034],[1.39922648 0.68809563 0.42469975],[1.34269329 0.6007992  0.42470209],21,651,1459,1.0002773789101482,0,0
102,107,2024-09-26 22:35:31.546658048,TASK_BEGIN,20,0.2925286326960345,0.0173971029246608,-4.538485908541148,0.344904444091346,0.4594316223698458,-0.4607252713426107,0.6062203220553151,-0.3096121549110084,3,2024-09-26 22:35:31.162891264,1727390131.1628914,2024-09-26 22:35:31.162891072,0,"[ 1.36027189e+00  7.59249318e-01  4.62779578e-01  1.34269328e+00
  6.00799197e-01  4.24784489e-01 -1.75786079e-02 -1.58450121e-01
 -3.79950885e-02  9.58296533e-06  2.78164180e-09  3.97789935e-14
  2.33292653e-14 -2.19440253e-15 -4.65527812e-05 -2.33912970e-05
  1.69352584e-04 -2.22775928e-14 -1.30662758e-14  2.03438056e-19
  4.65527812e-05  2.33912970e-05 -1.69352584e-04  3.40124229e-07
 -3.39860669e-07]","[0.0009765625, 0.0009765625, -0.0009765625, 0.0]",-1.0,"[0.0009765625, 0.0009765625, -0.0009765625, 0.0]",[-0.15572971 -0.99860007  0.4226296   0.3522833 ],[1.39922648 0.68809563 0.42469975],[1.34269329 0.6007992  0.42470209],21,651,1459,1.0000984115278095,0,0
103,108,2024-09-26 22:35:32.485004800,TASK_BEGIN,20,0.2960742690390808,0.0173221381143828,-4.672989140287891,0.3613161938097847,0.4697890008847868,-0.4641693406504342,0.5009386085527335,-0.2887366339149466,3,2024-09-26 22:35:32.097207040,1727390132.097207,2024-09-26 22:35:32.097206990,0,"[ 1.36123039e+00  7.59759582e-01  4.59035430e-01  1.34269325e+00
  6.00799230e-01  4.24784493e-01 -1.85371382e-02 -1.58960352e-01
 -3.42509373e-02  9.99511813e-06  1.37019711e-07 -1.19802560e-06
 -1.23685133e-06 -7.43091711e-13 -4.67408783e-05 -2.34302629e-05
  1.69873806e-04  6.71143114e-07  6.92893581e-07  4.09696702e-19
  4.67582056e-05  2.34134794e-05 -1.69875857e-04  3.40389058e-07
 -3.27011638e-07]","[0.0009765625, 0.0009765625, -0.0009765625, 0.0]",-1.0,"[0.0009765625, 0.0009765625, -0.0009765625, 0.0]",[-0.09213012 -0.99684334  0.4702061   0.30352223],[1.39922648 0.68809563 0.42469975],[1.34269329 0.6007992  0.42470209],21,651,1459,0.997204430362275,0,0
104,109,2024-09-26 22:35:32.557812992,TASK_BEGIN,20,0.3011573953459301,0.016826759039748,-4.795091257098604,0.3831004806025712,0.4726759446957697,-0.4666387253351879,0.3950221121014178,-0.2675466450407149,3,2024-09-26 22:35:32.211628800,1727390132.2116287,2024-09-26 22:35:32.211628133,0,"[ 1.36135041e+00  7.59823394e-01  4.58566583e-01  1.34269327e+00
  6.00799210e-01  4.24784490e-01 -1.86571417e-02 -1.59024184e-01
 -3.37820926e-02  1.00467972e-05  1.00855343e-07 -3.96794306e-07
 -4.09653652e-07 -8.34731011e-14 -4.67777247e-05 -2.34218348e-05
  1.69939480e-04  2.22287586e-07  2.29491503e-07  2.32394544e-18
  4.67834636e-05  2.34162760e-05 -1.69940156e-04  3.40421199e-07
 -3.36793328e-07]","[0.0009765625, 0.0009765625, -0.0009765625, 0.0]",-1.0,"[0.0009765625, 0.0009765625, -0.0009765625, 0.0]",[-0.08520946 -0.9965247   0.47561425  0.29649195],[1.39922648 0.68809563 0.42469975],[1.34269329 0.6007992  0.42470209],21,651,1459,0.9969148876303304,0,0
105,110,2024-09-26 22:35:32.625657856,TASK_BEGIN,20,0.3070004996897154,0.0159675235526304,-4.900670352677861,0.40962096139959,0.4686845105915914,-0.4681354315317072,0.2973472169493044,-0.2476892211662669,3,2024-09-26 22:35:32.269032448,1727390132.2690325,2024-09-26 22:35:32.269032186,0,"[ 1.36141044e+00  7.59855302e-01  4.58332091e-01  1.34269328e+00
  6.00799206e-01  4.24784490e-01 -1.87171668e-02 -1.59056097e-01
 -3.35476014e-02  1.00726500e-05  7.77691916e-08 -2.28357349e-07
 -2.35757975e-07 -2.91134915e-14 -4.67927560e-05 -2.34208691e-05
  1.69971827e-04  1.27927768e-07  1.32073662e-07  3.38981785e-18
  4.67960588e-05  2.34176700e-05 -1.69972215e-04  3.40437283e-07
 -3.38548023e-07]","[0.0009765625, 0.0009765625, -0.0009765625, 0.0]",-1.0,"[0.0009765625, 0.0009765625, -0.0009765625, 0.0]",[-0.08174491 -0.99635345  0.47830567  0.29296362],[1.39922648 0.68809563 0.42469975],[1.34269329 0.6007992  0.42470209],21,651,1459,0.996815048952676,0,0
106,111,2024-09-26 22:35:32.687155968,TASK_BEGIN,20,0.312945591645251,0.0147889765794046,-4.98677150669573,0.4401659849379729,0.4584782269207504,-0.4686218923399713,0.2150833040180794,-0.2304765711814535,3,2024-09-26 22:35:32.324980480,1727390132.3249805,2024-09-26 22:35:32.324979939,0,"[ 1.36147048e+00  7.59887212e-01  4.58097554e-01  1.34269328e+00
  6.00799203e-01  4.24784490e-01 -1.87772052e-02 -1.59088009e-01
 -3.33130647e-02  1.00985117e-05  5.33482734e-08 -1.31420929e-07
 -1.35680031e-07 -1.11100211e-14 -4.68067309e-05 -2.34209041e-05
  1.70003991e-04  7.36231493e-08  7.60091350e-08  4.68411205e-19
  4.68086316e-05  2.34190630e-05 -1.70004214e-04  3.40453284e-07
 -3.39469428e-07]","[0.0009765625, 0.0009765625, -0.0009765625, 0.0]",-1.0,"[0.0009765625, 0.0009765625, -0.0009765625, 0.0]",[-0.07822786 -0.99613905  0.48089752  0.28946233],[1.39922648 0.68809563 0.42469975],[1.34269329 0.6007992  0.42470209],21,651,1459,0.9967023933094424,0,0
107,112,2024-09-26 22:35:32.750870784,TASK_BEGIN,20,0.3185496763535408,0.0133181261409203,-5.051256452821741,0.4738902669945277,0.442754112807816,-0.4680284740230498,0.1530866046090065,-0.2167848198143507,3,2024-09-26 22:35:32.382981376,1727390132.3829813,2024-09-26 22:35:32.382980916,0,"[ 1.36153054e+00  7.59919124e-01  4.57862972e-01  1.34269328e+00
  6.00799202e-01  4.24784489e-01 -1.88372561e-02 -1.59119922e-01
 -3.30784826e-02  1.01243822e-05  2.82280731e-08 -7.56334766e-08
 -7.80846132e-08 -5.14897661e-15 -4.68200883e-05 -2.34215153e-05
  1.70036025e-04  4.23705339e-08  4.37436820e-08 -3.07041112e-18
  4.68211822e-05  2.34204557e-05 -1.70036153e-04  3.40469195e-07
 -3.39956839e-07]","[0.0009765625, 0.0009765625, -0.0009765625, 0.0]",-1.0,"[0.0009765625, 0.0009765625, -0.0009765625, 0.0]",[-0.07457504 -0.99581736  0.4833048   0.28608853],[1.39922648 0.68809563 0.42469975],[1.34269329 0.6007992  0.42470209],21,651,1459,0.9966302920979805,0,0
108,113,2024-09-26 22:35:32.826971904,TASK_BEGIN,20,0.3236225954130522,0.0115667533433284,-5.092271189891473,0.5097369052008944,0.4222357530025586,-0.4662685142075106,0.113561532658614,-0.2069985585219685,3,2024-09-26 22:35:32.441495552,1727390132.4414957,2024-09-26 22:35:32.441495076,0,"[ 1.36159060e+00  7.59951037e-01  4.57628345e-01  1.34269328e+00
  6.00799201e-01  4.24784489e-01 -1.88973191e-02 -1.59151836e-01
 -3.28438553e-02  1.01502615e-05  2.73955744e-09 -4.35274862e-08
 -4.49381289e-08 -3.17412351e-15 -4.68330812e-05 -2.34224582e-05
  1.70067959e-04  2.43844783e-08  2.51747327e-08 -1.72355940e-18
  4.68337107e-05  2.34218484e-05 -1.70068032e-04  3.40485020e-07
 -3.40218204e-07]","[0.0009765625, 0.0009765625, -0.0009765625, 0.0]",-1.0,"[0.0009765625, 0.0009765625, -0.0009765625, 0.0]",[-0.07078575 -0.9954158   0.48610035  0.28317738],[1.39922648 0.68809563 0.42469975],[1.34269329 0.6007992  0.42470209],21,651,1459,0.9965737467505033,0,0
109,114,2024-09-26 22:35:32.889046784,TASK_BEGIN,20,0.3282025009662377,0.0095409298206887,-5.108021042209689,0.5464277791975969,0.3976841647661329,-0.4632596216851823,0.0958438493550491,-0.2009944605928813,3,2024-09-26 22:35:32.497494528,1727390132.4974945,2024-09-26 22:35:32.497494100,0,"[ 1.36165067e+00  7.59982951e-01  4.57393672e-01  1.34269328e+00
  6.00799201e-01  4.24784489e-01 -1.89573938e-02 -1.59183751e-01
 -3.26091828e-02  1.01761456e-05 -1.48753138e-08 -2.50503100e-08
 -2.58621428e-08 -2.51980505e-15 -4.68458479e-05 -2.34255634e-05
  1.70099816e-04  1.40334029e-08  1.44881987e-08 -1.83103994e-18
  4.68462102e-05  2.34252124e-05 -1.70099858e-04  3.40425419e-07
 -1.78970205e-07]","[0.0009765625, 0.0009765625, -0.0009765625, 0.0]",-1.0,"[0.0009765625, 0.0009765625, -0.0009765625, 0.0]",[-0.06747558 -0.9949776   0.48889795  0.2802518 ],[1.39922648 0.68809563 0.42469975],[1.34269329 0.6007992  0.42470209],21,651,1459,0.9965120212836223,0,0
110,115,2024-09-26 22:35:33.839315968,TASK_BEGIN,20,0.3324899532556612,0.0072536221063223,-5.097144646965193,0.582566366178763,0.3699040443814569,-0.4589471829832516,0.0964474791078641,-0.1981922284789246,3,2024-09-26 22:35:33.472156160,1727390133.4721563,2024-09-26 22:35:33.472155965,0,"[ 1.36267366e+00  7.60525743e-01  4.53397432e-01  1.34269328e+00
  6.00799200e-01  4.24784489e-01 -1.99803822e-02 -1.59726543e-01
 -2.86129428e-02  1.06175375e-05  1.01745358e-07 -2.08763883e-12
 -2.15529546e-12 -2.19955796e-15 -4.70555871e-05 -2.34469643e-05
  1.70631905e-04  1.16951696e-12  1.20741858e-12 -7.30651352e-19
  4.70555872e-05  2.34469642e-05 -1.70631905e-04  3.40758007e-07
 -3.37083393e-07]","[0.0009765625, 0.0009765625, -0.0009765625, 0.0]",-1.0,"[0.0009765625, 0.0009765625, -0.0009765625, 0.0]",[-0.00468912 -0.9755354   0.54299086  0.21876533],[1.39922648 0.68809563 0.42469975],[1.34269329 0.6007992  0.42470209],21,651,1459,0.9953613975637456,0,0
111,116,2024-09-26 22:35:33.907836928,TASK_BEGIN,20,0.3367750297858621,0.0047342045556998,-5.059440483869993,0.6168060088818319,0.3397290578605433,-0.4533220390852395,0.1096268966372788,-0.1977013474907004,3,2024-09-26 22:35:33.530646784,1727390133.5306468,2024-09-26 22:35:33.530646932,0,"[ 1.36273394e+00  7.60557686e-01  4.53161964e-01  1.34269328e+00
  6.00799200e-01  4.24784489e-01 -2.00406567e-02 -1.59758487e-01
 -2.83774743e-02  1.06435745e-05  7.85106777e-08 -1.20144868e-12
 -1.24038338e-12 -2.19932265e-15 -4.70677195e-05 -2.34483661e-05
  1.70662691e-04  6.73055226e-13  6.94879480e-13  1.55604725e-19
  4.70677195e-05  2.34483660e-05 -1.70662691e-04  3.40772766e-07
 -3.38859164e-07]","[0.0009765625, 0.0009765625, -0.0009765625, 0.0]",-1.0,"[0.0009765625, 0.0009765625, -0.0009765625, 0.0]",[-9.6223567e-04 -9.7316521e-01  5.4605061e-01  2.1501915e-01],[1.39922648 0.68809563 0.42469975],[1.34269329 0.6007992  0.42470209],21,651,1459,0.9951615025458931,0,0
112,117,2024-09-26 22:35:33.962458112,TASK_BEGIN,20,0.3413844612598999,0.0020303407579268,-4.9964285188495365,0.6480015368298384,0.3079951455354708,-0.4464280867704107,0.1284054418031608,-0.1985331524699947,3,2024-09-26 22:35:33.587179776,1727390133.58718,2024-09-26 22:35:33.587179891,0,"[ 1.36279422e+00  7.60589631e-01  4.52926452e-01  1.34269328e+00
  6.00799200e-01  4.24784489e-01 -2.01009420e-02 -1.59790431e-01
 -2.81419625e-02  1.06696197e-05  5.39248931e-08 -6.91441014e-13
 -7.13846778e-13 -2.19647887e-15 -4.70798322e-05 -2.34497669e-05
  1.70693421e-04  3.87357592e-13  3.99899702e-13  1.78819103e-18
  4.70798323e-05  2.34497669e-05 -1.70693421e-04  3.40787443e-07
 -3.39790910e-07]","[0.0009765625, 0.0009765625, -0.0009765625, 0.0]",-1.0,"[0.0009765625, 0.0009765625, -0.0009765625, 0.0]",[ 0.00276412 -0.9705787   0.54906124  0.21104012],[1.39922648 0.68809563 0.42469975],[1.34269329 0.6007992  0.42470209],21,651,1459,0.9948430927339595,0,0
113,118,2024-09-26 22:35:34.040102144,TASK_BEGIN,20,0.3466504726669756,-0.0007964373002812,-4.911365014373227,0.675285275084672,0.2755319418383211,-0.4383634947871683,0.1456923792650455,-0.1997929554612897,3,2024-09-26 22:35:33.645164800,1727390133.6451647,2024-09-26 22:35:33.645163777,0,"[ 1.36285452e+00  7.60621578e-01  4.52690897e-01  1.34269328e+00
  6.00799200e-01  4.24784489e-01 -2.01612379e-02 -1.59822378e-01
 -2.79064074e-02  1.06956729e-05  2.86316738e-08 -3.97931254e-13
 -4.10819670e-13 -2.19497338e-15 -4.70919255e-05 -2.34511674e-05
  1.70724096e-04  2.22920413e-13  2.30143464e-13 -9.32844514e-19
  4.70919255e-05  2.34511674e-05 -1.70724096e-04  3.40802029e-07
 -3.40283072e-07]","[0.0009765625, 0.0009765625, -0.0009765625, 0.0]",-1.0,"[0.0009765625, 0.0009765625, -0.0009765625, 0.0]",[ 0.00649121 -0.96774614  0.55205834  0.20705335],[1.39922648 0.68809563 0.42469975],[1.34269329 0.6007992  0.42470209],21,651,1459,0.9945012546482352,0,0
114,119,2024-09-26 22:35:34.101650944,TASK_BEGIN,20,0.3528813307180486,-0.0036757836463104,-4.808634240895347,0.6980375230633814,0.2431941858263507,-0.4292802660262608,0.1551774111409238,-0.2007903600558253,3,2024-09-26 22:35:33.757164800,1727390133.7571647,2024-09-26 22:35:33.757164021,0,"[ 1.36297514e+00  7.60685475e-01  4.52219657e-01  1.34269328e+00
  6.00799200e-01  4.24784489e-01 -2.02818619e-02 -1.59886275e-01
 -2.74351675e-02  1.07477994e-05 -1.48201756e-08 -1.31796990e-13
 -1.36067367e-13 -2.19584606e-15 -4.71160466e-05 -2.34559395e-05
  1.70785286e-04  7.38303745e-14  7.62333130e-14  4.85242260e-19
  4.71160466e-05  2.34559395e-05 -1.70785286e-04  3.40755609e-07
 -1.79158099e-07]","[0.0009765625, 0.0009765625, -0.0009765625, 0.0]",-1.0,"[0.0009765625, 0.0009765625, -0.0009765625, 0.0]",[ 0.01394665 -0.9612515   0.5580114   0.19905716],[1.39922648 0.68809563 0.42469975],[1.34269329 0.6007992  0.42470209],21,651,1459,0.9937725166241125,0,0
115,120,2024-09-26 22:35:34.164957952,TASK_BEGIN,20,0.3603145159867246,-0.006529730335078,-4.692771537288348,0.7157643281485563,0.2119220222947048,-0.4193816264441527,0.1519184477391065,-0.2010673785965611,3,2024-09-26 22:35:33.816164608,1727390133.8161647,2024-09-26 22:35:33.816163777,0,"[ 1.36303547e+00  7.60717427e-01  4.51983972e-01  1.34269328e+00
  6.00799200e-01  4.24784489e-01 -2.03421899e-02 -1.59918227e-01
 -2.71994829e-02  1.07738779e-05  8.53551316e-08 -7.58515855e-14
 -7.83063135e-14 -2.19794756e-15 -4.71280909e-05 -2.34549928e-05
  1.70815790e-04  4.24875048e-14  4.38670532e-14 -3.16897331e-18
  4.71280909e-05  2.34549928e-05 -1.70815790e-04  3.40863381e-07
 -2.51493068e-07]","[0.0009765625, 0.0009765625, -0.0009765625, 0.0]",-1.0,"[0.0009765625, 0.0009765625, -0.0009765625, 0.0]",[ 0.017675   -0.95753795  0.56096774  0.19504765],[1.39922648 0.68809563 0.42469975],[1.34269329 0.6007992  0.42470209],21,651,1459,0.9933599743761189,0,0
116,121,2024-09-26 22:35:34.246881024,TASK_BEGIN,20,0.3690528271074498,-0.009269308168225,-4.56760260501107,0.7279542874677288,0.1827831938614635,-0.4089125938186043,0.1326359887989291,-0.2003710750903137,3,2024-09-26 22:35:33.872163840,1727390133.8721638,2024-09-26 22:35:33.872163045,0,"[ 1.36309581e+00  7.60749379e-01  4.51748244e-01  1.34269328e+00
  6.00799200e-01  4.24784489e-01 -2.04025284e-02 -1.59950179e-01
 -2.69637553e-02  1.07999688e-05  1.27419832e-07 -4.36541031e-14
 -4.50648815e-14 -2.19873010e-15 -4.71401060e-05 -2.34567241e-05
  1.70846245e-04  2.44507786e-14  2.52446322e-14 -7.94955538e-19
  4.71401060e-05  2.34567241e-05 -1.70846245e-04  3.40860598e-07
 -2.94319888e-07]","[0.0009765625, 0.0009765625, -0.0009765625, 0.0]",-1.0,"[0.0009765625, 0.0009765625, -0.0009765625, 0.0]",[ 0.0216987  -0.9533968   0.56395525  0.19017188],[1.39922648 0.68809563 0.42469975],[1.34269329 0.6007992  0.42470209],21,651,1459,0.9928824545323336,0,0
117,122,2024-09-26 22:35:35.163477760,TASK_BEGIN,20,0.3790044051210385,-0.0117896600627704,-4.435918798010112,0.7340026823167668,0.1569491131853122,-0.3981420747779856,0.0958012192696445,-0.1986042097773999,3,2024-09-26 22:35:34.785044224,1727390134.7850442,2024-09-26 22:35:34.785044148,0,"[ 1.36406264e+00  7.61260838e-01  4.47970826e-01  1.34269333e+00
  6.00799111e-01  4.24784493e-01 -2.13693083e-02 -1.60461727e-01
 -2.31863323e-02  1.12183640e-05  2.09736323e-07  3.47844360e-06
  2.03949407e-06 -3.54932917e-12 -4.73581545e-05 -2.34310296e-05
  1.71323866e-04 -1.93055261e-06 -1.13192883e-06 -3.07648465e-19
  4.73298883e-05  2.34792387e-05 -1.71326264e-04  3.41079064e-07
 -3.38376704e-07]","[0.0009765625, 0.0009765625, -0.0009765625, 0.0]",-1.0,"[0.0009765625, 0.0009765625, -0.0009765625, 0.0]",[ 0.11639197 -0.8320519   0.6089047   0.11028991],[1.39922648 0.68809563 0.42469975],[1.34269329 0.6007992  0.42470209],21,651,1459,0.9826570271770573,0,0
118,123,2024-09-26 22:35:35.226003968,TASK_BEGIN,20,0.389859260602189,-0.0139695009372316,-4.299775594233791,0.7332427498231715,0.1356009218348204,-0.3873431906172806,0.0416583379094341,-0.1957911500204932,3,2024-09-26 22:35:34.844060160,1727390134.8440602,2024-09-26 22:35:34.844060018,0,"[ 1.36412316e+00  7.61292817e-01  4.47734380e-01  1.34269331e+00
  6.00799148e-01  4.24784492e-01 -2.14298438e-02 -1.60493669e-01
 -2.29498885e-02  1.12445763e-05  1.85584928e-07  2.00460807e-06
  1.17534931e-06 -1.18025425e-12 -4.73580596e-05 -2.34525772e-05
  1.71354434e-04 -1.12260213e-06 -6.58208283e-07 -5.11855325e-19
  4.73416007e-05  2.34806486e-05 -1.71355821e-04  3.41092479e-07
 -3.39685192e-07]","[0.0009765625, 0.0009765625, -0.0009765625, 0.0]",-1.0,"[0.0009765625, 0.0009765625, -0.0009765625, 0.0]",[ 0.12164962 -0.83055794  0.61155283  0.1080908 ],[1.39922648 0.68809563 0.42469975],[1.34269329 0.6007992  0.42470209],21,651,1459,0.9825651642863547,0,0
119,124,2024-09-26 22:35:35.288118016,TASK_BEGIN,20,0.4011291241967908,-0.0156793891396583,-4.1612052813964775,0.7250670036955587,0.1197964715635484,-0.3767796671248495,-0.0277601627146587,-0.1920719222703811,3,2024-09-26 22:35:34.900059136,1727390134.9000592,2024-09-26 22:35:34.900059041,0,"[ 1.36418368e+00  7.61324798e-01  4.47497893e-01  1.34269330e+00
  6.00799169e-01  4.24784491e-01 -2.14903802e-02 -1.60525629e-01
 -2.27134024e-02  1.12707959e-05  1.60438504e-07  1.15372346e-06
  6.76455453e-07 -3.92416284e-13 -4.73627727e-05 -2.34658954e-05
  1.71384530e-04 -6.46317081e-07 -3.78951049e-07  2.25223806e-18
  4.73532962e-05  2.34820579e-05 -1.71385326e-04  3.41105792e-07
 -3.40372929e-07]","[0.0009765625, 0.0009765625, -0.0009765625, 0.0]",-1.0,"[0.0009765625, 0.0009765625, -0.0009765625, 0.0]",[ 0.12686367 -0.82906693  0.61417353  0.10590123],[1.39922648 0.68809563 0.42469975],[1.34269329 0.6007992  0.42470209],21,651,1459,0.9824902806192961,0,0
120,125,2024-09-26 22:35:35.368472064,TASK_BEGIN,20,0.4122453532231563,-0.016797655672719,-4.023043669492896,0.7091041731301796,0.1103176539852734,-0.366695911400383,-0.108703814411927,-0.1876977701282599,3,2024-09-26 22:35:35.011071232,1727390135.0110712,2024-09-26 22:35:35.011071004,0,"[ 1.36430476e+00  7.61388766e-01  4.47024794e-01  1.34269329e+00
  6.00799188e-01  4.24784490e-01 -2.16114695e-02 -1.60589577e-01
 -2.22403049e-02  1.13232571e-05  1.08827293e-07  3.82121730e-07
  2.24047042e-07 -4.50031410e-14 -4.73797762e-05 -2.34795232e-05
  1.71443922e-04 -2.14067914e-07 -1.25513100e-07 -2.35838952e-18
  4.73766374e-05  2.34848765e-05 -1.71444184e-04  3.41132141e-07
 -3.40933392e-07]","[0.0009765625, 0.0009765625, -0.0009765625, 0.0]",-1.0,"[0.0009765625, 0.0009765625, -0.0009765625, 0.0]",[ 0.13712682 -0.8261093   0.6193211   0.10156117],[1.39922648 0.68809563 0.42469975],[1.34269329 0.6007992  0.42470209],21,651,1459,0.982384825207955,0,0
121,126,2024-09-26 22:35:35.436314112,TASK_BEGIN,20,0.4226738836150074,-0.0172295783939159,-3.889547355305165,0.6854078293734506,0.1075071778223872,-0.3573026887135516,-0.1960186843945691,-0.1829849834148314,3,2024-09-26 22:35:35.066074880,1727390135.0660748,2024-09-26 22:35:35.066073934,0,"[ 1.36436531e+00  7.61420751e-01  4.46788183e-01  1.34269329e+00
  6.00799192e-01  4.24784489e-01 -2.16720257e-02 -1.60621559e-01
 -2.20036938e-02  1.13494985e-05  8.27374734e-08  2.19913185e-07
  1.28940322e-07 -1.63737293e-14 -4.73900896e-05 -2.34832053e-05
  1.71473386e-04 -1.23197285e-07 -7.22334932e-08 -1.66081146e-18
  4.73882833e-05  2.34862861e-05 -1.71473537e-04  3.41145196e-07
 -3.41041694e-07]","[0.0009765625, 0.0009765625, -0.0009765625, 0.0]",-1.0,"[0.0009765625, 0.0009765625, -0.0009765625, 0.0]",[ 0.14224881 -0.8246127   0.6218758   0.09938893],[1.39922648 0.68809563 0.42469975],[1.34269329 0.6007992  0.42470209],21,651,1459,0.9823770265623348,0,0
122,127,2024-09-26 22:35:35.504115968,TASK_BEGIN,20,0.4320052918749223,-0.0169267640706142,-3.7664863787487177,0.6545839945936859,0.1111378611954133,-0.3487597203690938,-0.2838262249626491,-0.1782013469546853,3,2024-09-26 22:35:35.122072320,1727390135.1220722,2024-09-26 22:35:35.122071980,0,"[ 1.36442588e+00  7.61452739e-01  4.46551531e-01  1.34269328e+00
  6.00799195e-01  4.24784489e-01 -2.17325909e-02 -1.60653544e-01
 -2.17670415e-02  1.13757470e-05  5.65678739e-08  1.26561261e-07
  7.42058721e-08 -6.89390354e-15 -4.74009524e-05 -2.34859230e-05
  1.71502753e-04 -7.09007245e-08 -4.15707781e-08  7.00823849e-20
  4.73999128e-05  2.34876961e-05 -1.71502839e-04  3.41158181e-07
 -3.41104281e-07]","[0.0009765625, 0.0009765625, -0.0009765625, 0.0]",-1.0,"[0.0009765625, 0.0009765625, -0.0009765625, 0.0]",[ 0.14736414 -0.82310426  0.62441796  0.09721548],[1.39922648 0.68809563 0.42469975],[1.34269329 0.6007992  0.42470209],21,651,1459,0.9823165337482285,0,0
123,128,2024-09-26 22:35:35.570756864,TASK_BEGIN,20,0.4400021870181297,-0.0159038419835295,-3.660626503458548,0.6177968378464063,0.120384283370234,-0.3411671297930525,-0.3664993869883512,-0.17341194937577,3,2024-09-26 22:35:35.178072064,1727390135.178072,2024-09-26 22:35:35.178071980,0,"[ 1.36448645e+00  7.61484728e-01  4.46314837e-01  1.34269328e+00
  6.00799196e-01  4.24784489e-01 -2.17931655e-02 -1.60685532e-01
 -2.15303480e-02  1.14020026e-05  3.03533465e-08  7.28367087e-08
  4.27058916e-08 -3.75282921e-15 -4.74121244e-05 -2.34880860e-05
  1.71532042e-04 -4.08037614e-08 -2.39242141e-08  2.13358406e-18
  4.74115261e-05  2.34891064e-05 -1.71532091e-04  3.41171101e-07
 -3.41143031e-07]","[0.0009765625, 0.0009765625, -0.0009765625, 0.0]",-1.0,"[0.0009765625, 0.0009765625, -0.0009765625, 0.0]",[ 0.15247262 -0.8215838   0.6269475   0.09504074],[1.39922648 0.68809563 0.42469975],[1.34269329 0.6007992  0.42470209],21,651,1459,0.9822140962623971,0,0
124,129,2024-09-26 22:35:36.515208960,TASK_BEGIN,20,0.4465988626994694,-0.0142468323553392,-3.57884724193535,0.5766618248280516,0.133928733267745,-0.3345741954673102,-0.4396495866219234,-0.1683671198769799,3,2024-09-26 22:35:36.140608256,1727390136.1406083,2024-09-26 22:35:36.140607869,0,"[ 1.36551769e+00  7.62028783e-01  4.42284830e-01  1.34269328e+00
  6.00799198e-01  4.24784489e-01 -2.28244074e-02 -1.61229585e-01
 -1.75003405e-02  1.18494082e-05  2.65739166e-07  6.07005058e-12
  3.55901298e-12 -2.19656229e-15 -4.76065881e-05 -2.35131170e-05
  1.72021851e-04 -3.40049211e-12 -1.99378848e-12 -1.67162957e-18
  4.76065881e-05  2.35131171e-05 -1.72021851e-04  3.41380562e-07
 -3.21899932e-07]","[0.0009765625, 0.0009765625, -0.0009765625, 0.0]",-1.0,"[0.0009765625, 0.0009765625, -0.0009765625, 0.0]",[ 0.18139867 -0.8119422   0.642031    0.07189254],[1.39922648 0.68809563 0.42469975],[1.34269329 0.6007992  0.42470209],21,651,1459,0.9792564634952718,0,0
125,130,2024-09-26 22:35:36.583048960,TASK_BEGIN,20,0.4518505483275692,-0.0121071267533973,-3.5271896324503293,0.5330759632047036,0.1501661940544592,-0.3290020174200143,-0.5007541501665773,-0.1625114901743006,3,2024-09-26 22:35:36.196607232,1727390136.196607,2024-09-26 22:35:36.196606893,0,"[ 1.36557844e+00  7.62060800e-01  4.42047409e-01  1.34269328e+00
  6.00799198e-01  4.24784489e-01 -2.28851546e-02 -1.61261602e-01
 -1.72629198e-02  1.18757849e-05  2.54218836e-07  3.49334846e-12
  2.04823298e-12 -2.19707001e-15 -4.76179300e-05 -2.35145494e-05
  1.72050228e-04 -1.95700308e-12 -1.14744114e-12 -1.09485417e-18
  4.76179299e-05  2.35145494e-05 -1.72050228e-04  3.41392365e-07
