,Unnamed: 0,time,MARKER,pid,L_O_DSI,L_D_DSI,L_O_DSphi,L_D_DSphi,R_O_DSI,R_D_DSI,R_O_DSphi,R_D_DSphi,trial_id,dateTimestamps,floatTimestamps,timestamps,episode,actions,rewards,discounted_rewards,chosen_actions,optimal_actions,states,continuous_optimal,binary_optimal,discrete_optimal
1,1,2024-09-27 16:25:10.129204224,TASK_BEGIN,21,0.0055603090894727,-0.0906827511412989,-0.1132845637521254,0.6771748735791664,0.7201397507209034,0.2074364111093905,-19.732905144466237,3.3158831714145123,0,2024-09-27 16:25:10.077692871,1727454310.077694,2024-09-27 16:25:10.077693952,0,1.0,0.1,0.7725530557207989,[0.29880418 0.70119582],[0.29880418 0.70119582],"[ 0.88888889  0.33203125  0.52734375  1.          0.          1.
  1.          0.          1.          0.3515625  -0.8         0.5       ]",0.06905623367687098,0,0
2,2,2024-09-27 16:25:10.196107008,TASK_BEGIN,21,-0.0052079571057698,-0.050019514319194,-0.9749096709309052,1.053493676747357,0.1387209771622255,0.346927421080052,-18.583664046935045,3.613055518969085,0,2024-09-27 16:25:10.077692871,1727454310.077694,2024-09-27 16:25:10.077693952,0,1.0,0.1,0.7725530557207989,[0.29880418 0.70119582],[0.29880418 0.70119582],"[ 0.88888889  0.33203125  0.52734375  1.          0.          1.
  1.          0.          1.          0.3515625  -0.8         0.5       ]",0.06905623367687098,0,0
3,3,2024-09-27 16:25:10.262751232,TASK_BEGIN,21,-0.0127810418594288,-0.0122643287064888,-1.791710581788146,1.4068810707274095,-0.4049306401258925,0.47939699217078,-17.49844164940782,3.898575756448924,0,2024-09-27 16:25:10.077692871,1727454310.077694,2024-09-27 16:25:10.077693952,0,1.0,0.1,0.7725530557207989,[0.29880418 0.70119582],[0.29880418 0.70119582],"[ 0.88888889  0.33203125  0.52734375  1.          0.          1.
  1.          0.          1.          0.3515625  -0.8         0.5       ]",0.06905623367687098,0,0
4,4,2024-09-27 16:25:10.332300032,TASK_BEGIN,21,-0.0163404217448383,0.0214127784855766,-2.548422422104465,1.7290033724608938,-0.8970711521252408,0.6018329017593627,-16.493884739093566,4.166746337311231,0,2024-09-27 16:25:10.077692871,1727454310.077694,2024-09-27 16:25:10.077693952,0,1.0,0.1,0.7725530557207989,[0.29880418 0.70119582],[0.29880418 0.70119582],"[ 0.88888889  0.33203125  0.52734375  1.          0.          1.
  1.          0.          1.          0.3515625  -0.8         0.5       ]",0.06905623367687098,0,0
5,5,2024-09-27 16:25:10.400019712,TASK_BEGIN,21,-0.015529710234987,0.0500983163615951,-3.233962123185542,2.0142057923722088,-1.3275075411352106,0.7116597457811289,-15.570703674600011,4.411364663477928,0,2024-09-27 16:25:10.077692871,1727454310.077694,2024-09-27 16:25:10.077693952,0,1.0,0.1,0.7725530557207989,[0.29880418 0.70119582],[0.29880418 0.70119582],"[ 0.88888889  0.33203125  0.52734375  1.          0.          1.
  1.          0.          1.          0.3515625  -0.8         0.5       ]",0.06905623367687098,0,0
6,6,2024-09-27 16:25:10.467685120,TASK_BEGIN,21,-0.0104454513409035,0.0731631618487191,-3.841029822149437,2.2595638795000226,-1.6898692004896425,0.8067838907305669,-14.715109022568855,4.625950315145597,0,2024-09-27 16:25:10.077692871,1727454310.077694,2024-09-27 16:25:10.077693952,0,1.0,0.1,0.7725530557207989,[0.29880418 0.70119582],[0.29880418 0.70119582],"[ 0.88888889  0.33203125  0.52734375  1.          0.          1.
  1.          0.          1.          0.3515625  -0.8         0.5       ]",0.06905623367687098,0,0
7,7,2024-09-27 16:25:11.411534080,TASK_BEGIN,21,-0.001561869354921,0.0902587107721042,-4.365331875770409,2.4646090055827807,-1.9814255831476173,0.885598486282346,-13.902735702996596,4.804062474764284,0,2024-09-27 16:25:11.402158936,1727454311.4021592,2024-09-27 16:25:11.402159104,0,0.0,0.1,2.894467727277078,[9.99999683e-01 3.17115106e-07],[9.99999683e-01 3.17115106e-07],"[ 0.52777778  0.33203125  0.52734375  1.          0.          1.
  1.          0.          1.          0.34960938  1.         -0.16666667]",0.41261289045268695,0,0
8,8,2024-09-27 16:25:11.479271936,TASK_BEGIN,21,0.0103762709786531,0.1012921491082715,-4.804878622258896,2.6308395270580704,-2.2026112610412283,0.9469749351561728,-13.10410064839527,4.9397292927909,0,2024-09-27 16:25:11.453114014,1727454311.4531145,2024-09-27 16:25:11.453114624,0,0.0,0.1,2.965523050004307,[9.99997129e-01 2.87056251e-06],[9.99997129e-01 2.87056251e-06],"[ 0.51388889  0.33203125  0.52734375  1.          0.          1.
  1.          0.          1.          0.36914062  1.         -0.2       ]",0.4310438559840018,0,0
9,9,2024-09-27 16:25:11.546993920,TASK_BEGIN,21,0.0244349396806894,0.1063987998670538,-5.159535877096078,2.7611599585767426,-2.3564990342208687,0.9902870499216132,-12.290447040941157,5.028040941207164,0,2024-09-27 16:25:11.453114014,1727454311.4531145,2024-09-27 16:25:11.453114624,0,0.0,0.1,2.965523050004307,[9.99997129e-01 2.87056251e-06],[9.99997129e-01 2.87056251e-06],"[ 0.51388889  0.33203125  0.52734375  1.          0.          1.
  1.          0.          1.          0.36914062  1.         -0.2       ]",0.4310438559840018,0,0
10,10,2024-09-27 16:25:11.614649856,TASK_BEGIN,21,0.0395184781387579,0.1059235466200925,-5.430752210096404,2.859349329342805,-2.4483453262163883,1.0154784940411667,-11.438612463633936,5.065780364476301,0,2024-09-27 16:25:11.606158936,1727454311.6061592,2024-09-27 16:25:11.606159104,0,0.0,0.1,3.17445404989613,[9.99566853e-01 4.33147292e-04],[9.99566853e-01 4.33147292e-04],"[ 0.47222222  0.33203125  0.52734375  0.97222222  0.234375    0.4296875
  1.          0.          1.          0.42773438  1.         -0.3       ]",0.5007896045389156,0,0
11,11,2024-09-27 16:25:11.682425088,TASK_BEGIN,21,0.0543880987156669,0.1004023767542534,-5.621269457131676,2.929579710853345,-2.4851625952641214,1.023127931160165,-10.533736770081315,5.051843678805653,0,2024-09-27 16:25:11.657113037,1727454311.6571136,2024-09-27 16:25:11.657113600,0,0.0,0.1,3.2427095093971685,[0.9868747 0.0131253],[0.9868747 0.0131253],"[ 0.45833333  0.33203125  0.52734375  0.95833333  0.234375    0.4296875
  1.          0.          1.          0.44726562  1.         -0.33333333]",0.54379899569152,0,0
12,12,2024-09-27 16:25:11.749308160,TASK_BEGIN,21,0.0677357447395516,0.0905259241674444,-5.734734921812732,2.975991993007193,-2.4752692032760253,1.0144590403643787,-9.56939319294668,4.987311913227534,0,2024-09-27 16:25:11.657113037,1727454311.6571136,2024-09-27 16:25:11.657113600,0,0.0,0.1,3.2427095093971685,[0.9868747 0.0131253],[0.9868747 0.0131253],"[ 0.45833333  0.33203125  0.52734375  0.95833333  0.234375    0.4296875
  1.          0.          1.          0.44726562  1.         -0.33333333]",0.54379899569152,0,0
13,13,2024-09-27 16:25:11.817843968,TASK_BEGIN,21,0.0783196636836299,0.0770833999568982,-5.77537444939741,3.0023633271861296,-2.4278578468005736,0.9912887884030552,-8.546071187846906,4.875256726291098,0,2024-09-27 16:25:11.657113037,1727454311.6571136,2024-09-27 16:25:11.657113600,0,0.0,0.1,3.2427095093971685,[0.9868747 0.0131253],[0.9868747 0.0131253],"[ 0.45833333  0.33203125  0.52734375  0.95833333  0.234375    0.4296875
  1.          0.          1.          0.44726562  1.         -0.33333333]",0.54379899569152,0,0
14,14,2024-09-27 16:25:12.732559104,TASK_BEGIN,21,0.0851200845722513,0.060901804238523,-5.747991481587733,3.011910009103107,-2.3526243378031606,0.9559420120186362,-7.469868031285868,4.720502532935393,0,2024-09-27 16:25:12.422213135,1727454312.422213,2024-09-27 16:25:12.422213120,0,0.0,0.1,4.1883358588189035,[0.99896674 0.00103326],[0.99896674 0.00103326],"[0.25       0.33203125 0.52734375 0.75       0.234375   0.4296875
 1.         0.         1.         0.42578125 0.5        0.06666667]",0.5782817462656628,0,0
15,15,2024-09-27 16:25:12.795527168,TASK_BEGIN,21,0.0874790602197203,0.042792726570711,-5.658375252343548,3.007265429236071,-2.259416250270457,0.9111412239683948,-6.352574748571981,4.529486730379372,0,2024-09-27 16:25:12.422213135,1727454312.422213,2024-09-27 16:25:12.422213120,0,0.0,0.1,4.1883358588189035,[0.99896674 0.00103326],[0.99896674 0.00103326],"[0.25       0.33203125 0.52734375 0.75       0.234375   0.4296875
 1.         0.         1.         0.42578125 0.5        0.06666667]",0.5782817462656628,0,0
16,16,2024-09-27 16:25:12.872993024,TASK_BEGIN,21,0.0852000075176962,0.0235109251075737,-5.513861173725466,2.99062999047169,-2.157807228072923,0.859851309969457,-5.212643248329502,4.310121598390135,0,2024-09-27 16:25:12.422213135,1727454312.422213,2024-09-27 16:25:12.422213120,0,0.0,0.1,4.1883358588189035,[0.99896674 0.00103326],[0.99896674 0.00103326],"[0.25       0.33203125 0.52734375 0.75       0.234375   0.4296875
 1.         0.         1.         0.42578125 0.5        0.06666667]",0.5782817462656628,0,0
17,17,2024-09-27 16:25:12.940684032,TASK_BEGIN,21,0.0785801900445708,0.0037276946916788,-5.323633970124932,2.964005674014632,-2.0565699398630124,0.8050816519060282,-4.075419744358752,4.071435679148012,0,2024-09-27 16:25:12.422213135,1727454312.422213,2024-09-27 16:25:12.422213120,0,0.0,0.1,4.1883358588189035,[0.99896674 0.00103326],[0.99896674 0.00103326],"[0.25       0.33203125 0.52734375 0.75       0.234375   0.4296875
 1.         0.         1.         0.42578125 0.5        0.06666667]",0.5782817462656628,0,0
18,18,2024-09-27 16:25:13.008424192,TASK_BEGIN,21,0.068356609984285,-0.0159780185348649,-5.098589107028194,2.9293928849967723,-1.9631565617478848,0.7496926137699558,-2.9712459478271303,3.822863503140509,0,2024-09-27 16:25:12.422213135,1727454312.422213,2024-09-27 16:25:12.422213120,0,0.0,0.1,4.1883358588189035,[0.99896674 0.00103326],[0.99896674 0.00103326],"[0.25       0.33203125 0.52734375 0.75       0.234375   0.4296875
 1.         0.         1.         0.42578125 0.5        0.06666667]",0.5782817462656628,0,0
19,19,2024-09-27 16:25:13.076049152,TASK_BEGIN,21,0.0555697768789916,-0.0351133518681767,-4.850918857456129,2.8888865945299744,-1.883294568952146,0.696240763833962,-1.9314539852767088,3.573284323952074,0,2024-09-27 16:25:12.626211914,1727454312.6262128,2024-09-27 16:25:12.626212864,0,0.0,0.1,4.417338614521361,[9.99912168e-01 8.78317076e-05],[9.99912168e-01 8.78317076e-05],"[ 0.19444444  0.33203125  0.52734375  0.69444444  0.234375    0.4296875
  1.          0.          1.          0.39648438 -0.6         0.43333333]",0.3331810488361525,0,0
20,20,2024-09-27 16:25:13.143739904,TASK_BEGIN,21,0.0413865700276342,-0.053260970378211,-4.593641402067617,2.844684380958252,-1.820683035338928,0.6468505137707083,-0.9839809192430108,3.3301552513145727,0,2024-09-27 16:25:13.133997070,1727454313.133997,2024-09-27 16:25:13.133997056,0,0.0,0.1,5.7899999252455885,[9.99999075e-01 9.25436263e-07],[9.99999075e-01 9.25436263e-07],"[0.05555556 0.33203125 0.52734375 0.55555556 0.234375   0.4296875
 1.         0.         1.         0.38671875 0.4        0.1       ]",0.33769299953091586,0,0
21,21,2024-09-27 16:25:14.082545920,TASK_BEGIN,21,0.0269501702971084,-0.0700762705943386,-4.340030964609346,2.799044373706326,-1.776778943306223,0.6031016438392978,-0.1505212710562803,3.099080912205882,0,2024-09-27 16:25:13.633996094,1727454313.6339967,2024-09-27 16:25:13.633996800,0,1.0,0.1,6.1925513966063805,[0.07550833 0.92449167],[0.07550833 0.92449167],"[-0.08333333  0.33203125  0.52734375  0.41666667  0.234375    0.4296875
  0.91666667  0.234375    0.4296875   0.37695312 -0.8         0.5       ]",0.5660633713643514,0,0
22,22,2024-09-27 16:25:14.145076992,TASK_BEGIN,21,0.013298198268583,-0.0852928989928639,-4.1027842307178,2.754228330269867,-1.7507911851755955,0.5659579042563759,0.5543619942158796,2.883874819295174,0,2024-09-27 16:25:13.633996094,1727454313.6339967,2024-09-27 16:25:13.633996800,0,1.0,0.1,6.1925513966063805,[0.07550833 0.92449167],[0.07550833 0.92449167],"[-0.08333333  0.33203125  0.52734375  0.41666667  0.234375    0.4296875
  0.91666667  0.234375    0.4296875   0.37695312 -0.8         0.5       ]",0.5660633713643514,0,0
23,23,2024-09-27 16:25:14.221858816,TASK_BEGIN,21,0.0013241948820416,-0.0987252970530942,-3.8929877927220304,2.712455504725468,-1.7400154664680303,0.5357646260315752,1.1228658790260908,2.6869480443265705,0,2024-09-27 16:25:13.633996094,1727454313.6339967,2024-09-27 16:25:13.633996800,0,1.0,0.1,6.1925513966063805,[0.07550833 0.92449167],[0.07550833 0.92449167],"[-0.08333333  0.33203125  0.52734375  0.41666667  0.234375    0.4296875
  0.91666667  0.234375    0.4296875   0.37695312 -0.8         0.5       ]",0.5660633713643514,0,0
24,24,2024-09-27 16:25:14.285125120,TASK_BEGIN,21,-0.0082625446875093,-0.1102599057306413,-3.7191823177742296,2.675868419629629,-1.740502409733827,0.5123162535668095,1.5527794956633856,2.509858021442841,0,2024-09-27 16:25:13.833996094,1727454313.8339965,2024-09-27 16:25:13.833996544,0,0.0,0.1,6.342580063300015,[0.99755436 0.00244564],[0.99755436 0.00244564],"[-0.13888889  0.33203125  0.52734375  0.36111111  0.234375    0.4296875
  0.86111111  0.234375    0.4296875   0.3203125  -0.6         0.43333333]",0.3437749052937334,0,0
25,25,2024-09-27 16:25:14.357804032,TASK_BEGIN,21,-0.0149720254807674,-0.1198383637686999,-3.5867364655391243,2.646485288947423,-1.7478992108306968,0.4949761897887206,1.8455939093858236,2.353882709745525,0,2024-09-27 16:25:14.335199219,1727454314.3351996,2024-09-27 16:25:14.335199488,0,0.0,0.1,6.692294968468693,[9.99995848e-01 4.15165150e-06],[9.99995848e-01 4.15165150e-06],"[0.22222222 0.234375   0.4296875  0.72222222 0.234375   0.4296875
 1.         0.         1.         0.31054688 0.4        0.1       ]",0.365683625952121,0,0
26,26,2024-09-27 16:25:14.425515008,TASK_BEGIN,21,-0.0185159511875689,-0.1274430811111181,-3.497540545695358,2.6261059794757777,-1.7582300630787255,0.4828299893359054,2.0043274348867235,2.2204727967879943,0,2024-09-27 16:25:14.385101074,1727454314.3851018,2024-09-27 16:25:14.385101824,0,0.0,0.1,6.725372018784006,[9.99792464e-01 2.07535718e-04],[9.99792464e-01 2.07535718e-04],"[0.20833333 0.234375   0.4296875  0.70833333 0.234375   0.4296875
 1.         0.         1.         0.3203125  0.5        0.06666667]",0.45250428593572245,0,0
27,27,2024-09-27 16:25:14.493184000,TASK_BEGIN,21,-0.018721648438017,-0.1330951557490677,-3.4500077861593783,2.6161631567068357,-1.7684276241854195,0.4748574605517614,2.032098609576647,2.111453022972104,0,2024-09-27 16:25:14.435740967,1727454314.4357417,2024-09-27 16:25:14.435741696,0,0.0,0.1,6.758118298596165,[0.9901852 0.0098148],[0.9901852 0.0098148],"[0.19444444 0.234375   0.4296875  0.69444444 0.234375   0.4296875
 1.         0.         1.         0.33203125 0.6        0.03333333]",0.602308677843595,0,0
28,28,2024-09-27 16:25:15.436162048,TASK_BEGIN,21,-0.0154259623539801,-0.1368656922408648,-3.439461284571732,2.6175658263090096,-1.7765827648657424,0.4701043405223429,1.932266738132008,2.028947413366223,0,2024-09-27 16:25:15.394912842,1727454315.3949137,2024-09-27 16:25:15.394913792,0,0.0,0.1,8.087971050098806,[9.99024906e-01 9.75093998e-04],[9.99024906e-01 9.75093998e-04],"[-0.06944444  0.234375    0.4296875   0.43055556  0.234375    0.4296875
  1.          0.          1.          0.36328125  0.9        -0.06666667]",0.7771504880583769,0,0
29,29,2024-09-27 16:25:15.504800000,TASK_BEGIN,21,-0.0084252477251341,-0.1388878149923814,-3.458957066658854,2.630602585489072,-1.781984621350848,0.4678202997463825,1.7098747924868398,1.975118830934085,0,2024-09-27 16:25:15.444964844,1727454315.4449658,2024-09-27 16:25:15.444965888,0,0.0,0.1,8.107091339597819,[0.99778216 0.00221784],[0.99778216 0.00221784],"[-0.08333333  0.234375    0.4296875   0.41666667  0.234375    0.4296875
  0.99166667  0.3125      0.5078125   0.3828125   1.         -0.1       ]",0.7998248511160695,0,0
30,30,2024-09-27 16:25:15.572510976,TASK_BEGIN,21,0.0024859401406177,-0.1393558098654841,-3.500408172632172,2.654902071236457,-1.785003425040068,0.4675293212323242,1.3733898524349484,1.9518056662729864,0,2024-09-27 16:25:15.444964844,1727454315.4449658,2024-09-27 16:25:15.444965888,0,0.0,0.1,8.107091339597819,[0.99778216 0.00221784],[0.99778216 0.00221784],"[-0.08333333  0.234375    0.4296875   0.41666667  0.234375    0.4296875
  0.99166667  0.3125      0.5078125   0.3828125   1.         -0.1       ]",0.7998248511160695,0,0
31,31,2024-09-27 16:25:15.640227072,TASK_BEGIN,21,0.0174383986670368,-0.1385136165086878,-3.555689527207845,2.6893758014992573,-1.786858168496809,0.4690213148268166,0.9359402047328652,1.960070083182308,0,2024-09-27 16:25:15.594991943,1727454315.5949926,2024-09-27 16:25:15.594992640,0,1.0,0.1,8.163312619720422,[0.02644212 0.97355788],[0.02644212 0.97355788],"[-0.125      0.234375   0.4296875  0.375      0.234375   0.4296875
  0.95       0.3125     0.5078125  0.3359375 -0.8        0.5      ]",0.8018792728151537,0,0
32,32,2024-09-27 16:25:15.697657344,TASK_BEGIN,21,0.0364548850454555,-0.1366442507902897,-3.617412095452899,2.73211077428894,-1.7893674371445103,0.4722850811269798,0.4156663800204606,1.9997096718970893,0,2024-09-27 16:25:15.594991943,1727454315.5949926,2024-09-27 16:25:15.594992640,0,1.0,0.1,8.163312619720422,[0.02644212 0.97355788],[0.02644212 0.97355788],"[-0.125      0.234375   0.4296875  0.375      0.234375   0.4296875
  0.95       0.3125     0.5078125  0.3359375 -0.8        0.5      ]",0.8018792728151537,0,0
33,33,2024-09-27 16:25:15.774545920,TASK_BEGIN,21,0.0594801362019593,-0.134064719815716,-3.6792562250632783,2.780276457820732,-1.7947657788619602,0.4774194215214227,-0.1649480606484663,2.0688752639587835,0,2024-09-27 16:25:15.594991943,1727454315.5949926,2024-09-27 16:25:15.594992640,0,1.0,0.1,8.163312619720422,[0.02644212 0.97355788],[0.02644212 0.97355788],"[-0.125      0.234375   0.4296875  0.375      0.234375   0.4296875
  0.95       0.3125     0.5078125  0.3359375 -0.8        0.5      ]",0.8018792728151537,0,0
34,34,2024-09-27 16:25:15.843419904,TASK_BEGIN,21,0.0864218945746923,-0.131121556894258,-3.735973289591577,2.830138440078021,-1.8055322061862165,0.484550622658548,-0.7806949332432657,2.1639583349519613,0,2024-09-27 16:25:15.594991943,1727454315.5949926,2024-09-27 16:25:15.594992640,0,1.0,0.1,8.163312619720422,[0.02644212 0.97355788],[0.02644212 0.97355788],"[-0.125      0.234375   0.4296875  0.375      0.234375   0.4296875
  0.95       0.3125     0.5078125  0.3359375 -0.8        0.5      ]",0.8018792728151537,0,0
35,35,2024-09-27 16:25:16.787770112,TASK_BEGIN,21,0.1171442117176719,-0.1281790440905307,-3.783277974149197,2.8772525682662566,-1.8241134494598057,0.4937667059162297,-1.405916847978074,2.279840368729358,0,2024-09-27 16:25:16.459386230,1727454316.4593863,2024-09-27 16:25:16.459386368,0,0.0,0.1,9.342776874419167,[0.99857904 0.00142096],[0.99857904 0.00142096],"[ 0.13888889  0.234375    0.4296875   0.71388889  0.3125      0.5078125
  1.          0.          1.          0.3359375   0.8        -0.03333333]",0.6186623252654639,0,0
36,36,2024-09-27 16:25:16.855006208,TASK_BEGIN,21,0.1514105497692715,-0.1255948493715934,-3.8177943619428167,2.91688265457923,-1.8525457025088157,0.5050722095903487,-2.0165826637003628,2.410394696174764,0,2024-09-27 16:25:16.459386230,1727454316.4593863,2024-09-27 16:25:16.459386368,0,0.0,0.1,9.342776874419167,[0.99857904 0.00142096],[0.99857904 0.00142096],"[ 0.13888889  0.234375    0.4296875   0.71388889  0.3125      0.5078125
  1.          0.          1.          0.3359375   0.8        -0.03333333]",0.6186623252654639,0,0
37,37,2024-09-27 16:25:16.923207936,TASK_BEGIN,21,0.1888289729692975,-0.1236859202568092,-3.837046217380504,2.9445817774448084,-1.8921072668436392,0.5183638381656822,-2.590901961487186,2.5489608816571567,0,2024-09-27 16:25:16.459386230,1727454316.4593863,2024-09-27 16:25:16.459386368,0,0.0,0.1,9.342776874419167,[0.99857904 0.00142096],[0.99857904 0.00142096],"[ 0.13888889  0.234375    0.4296875   0.71388889  0.3125      0.5078125
  1.          0.          1.          0.3359375   0.8        -0.03333333]",0.6186623252654639,0,0
38,38,2024-09-27 16:25:16.990885888,TASK_BEGIN,21,0.2288503134418769,-0.1226970421350212,-3.839432637087232,2.9567726797243226,-1.9430929068511908,0.5334118205757041,-3.108222980148477,2.688674095585857,0,2024-09-27 16:25:16.459386230,1727454316.4593863,2024-09-27 16:25:16.459386368,0,0.0,0.1,9.342776874419167,[0.99857904 0.00142096],[0.99857904 0.00142096],"[ 0.13888889  0.234375    0.4296875   0.71388889  0.3125      0.5078125
  1.          0.          1.          0.3359375   0.8        -0.03333333]",0.6186623252654639,0,0
39,39,2024-09-27 16:25:17.058617088,TASK_BEGIN,21,0.2708214850753805,-0.1227843224278888,-3.824255939590646,2.9512027708363,-2.0046783916292283,0.5498239320242453,-3.547576344885259,2.8227890291672257,0,2024-09-27 16:25:16.510386963,1727454316.510387,2024-09-27 16:25:16.510386944,0,0.0,0.1,9.349349105674975,[0.89834787 0.10165213],[0.89834787 0.10165213],"[ 0.125       0.234375    0.4296875   0.7         0.3125      0.5078125
  1.          0.          1.          0.35351562  0.9        -0.06666667]",0.5700287938741733,0,0
40,40,2024-09-27 16:25:17.126126848,TASK_BEGIN,21,0.3140489471299963,-0.1240143234723472,-3.791886300025472,2.9272468841993198,-2.074835844686193,0.5669983151898933,-3.887427891112591,2.945068048498643,0,2024-09-27 16:25:16.561386963,1727454316.5613878,2024-09-27 16:25:16.561387776,0,1.0,0.1,9.355855614618225,[0.22200854 0.77799146],[0.22200854 0.77799146],"[ 0.11111111  0.234375    0.4296875   0.68611111  0.3125      0.5078125
  1.          0.          1.          0.33789062 -0.8         0.5       ]",0.3599642529031585,0,0
41,41,2024-09-27 16:25:17.193052928,TASK_BEGIN,21,0.357825760693834,-0.1263726837637105,-3.74394919716864,2.8860277454545287,-2.15037908922811,0.5841097092968628,-4.107039258342267,3.050118394787536,0,2024-09-27 16:25:16.663386963,1727454316.6633873,2024-09-27 16:25:16.663387392,0,0.0,0.1,9.368674087887321,[0.99825978 0.00174022],[0.99825978 0.00174022],"[ 0.08333333  0.234375    0.4296875   0.65833333  0.3125      0.5078125
  1.          0.          1.          0.3125     -0.6         0.43333333]",0.34310620838792566,0,0
42,42,2024-09-27 16:25:18.112814848,TASK_BEGIN,21,0.4014224800621697,-0.129779237807817,-3.6833295852303087,2.8303030325942014,-2.227262865049141,0.6001625683675734,-4.188542167738511,3.1335631434409685,0,2024-09-27 16:25:17.580385986,1727454317.5803864,2024-09-27 16:25:17.580386304,0,0.0,0.1,9.473149838381932,[0.98879361 0.01120639],[0.98879361 0.01120639],"[-0.16666667  0.234375    0.4296875   0.40833333  0.3125      0.5078125
  0.90833333  0.1953125   0.390625    0.4296875   1.         -0.16666667]",0.8079757218466964,0,0
43,43,2024-09-27 16:25:18.180542976,TASK_BEGIN,21,0.4440761072026243,-0.1341065914565042,-3.6139652910283866,2.764139771384924,-2.3011011180066343,0.6140946952273049,-4.118269274295142,3.192033228411681,0,2024-09-27 16:25:17.682387207,1727454317.682387,2024-09-27 16:25:17.682387200,0,1.0,0.1,9.48363415659813,[0.06256163 0.93743837],[0.06256163 0.93743837],"[ 0.38055556  0.3125      0.5078125   0.88055556  0.1953125   0.390625
  1.          0.          1.          0.43359375 -0.8         0.5       ]",0.556774777017682,0,0
44,44,2024-09-27 16:25:18.248176896,TASK_BEGIN,21,0.484990801844873,-0.1391947012973869,-3.540539471333564,2.6924641675889744,-2.367694195741634,0.6248913513198319,-3.886852896324881,3.2231104942877096,0,2024-09-27 16:25:17.682387207,1727454317.682387,2024-09-27 16:25:17.682387200,0,1.0,0.1,9.48363415659813,[0.06256163 0.93743837],[0.06256163 0.93743837],"[ 0.38055556  0.3125      0.5078125   0.88055556  0.1953125   0.390625
  1.          0.          1.          0.43359375 -0.8         0.5       ]",0.556774777017682,0,0
45,45,2024-09-27 16:25:18.315737088,TASK_BEGIN,21,0.5233403323822001,-0.1448566705277138,-3.4680907638217224,2.620559241157689,-2.42340916521112,0.6316868145378148,-3.489142387896144,3.225420537441445,0,2024-09-27 16:25:18.292416016,1727454318.2924168,2024-09-27 16:25:18.292416768,0,0.0,0.1,9.542301128137636,[9.99717062e-01 2.82937918e-04],[9.99717062e-01 2.82937918e-04],"[0.21388889 0.3125     0.5078125  0.71388889 0.1953125  0.390625
 1.         0.         1.         0.3984375  0.4        0.1       ]",0.4831093564658055,0,0
46,46,2024-09-27 16:25:18.381509120,TASK_BEGIN,21,0.5582762978643184,-0.1508794135943397,-3.4014925486536893,2.553559045758492,-2.4654235433380083,0.6338477030847357,-2.92492854373114,3.1989123265988697,0,2024-09-27 16:25:18.343385986,1727454318.343387,2024-09-27 16:25:18.343386880,0,0.0,0.1,9.54687811685626,[0.98581102 0.01418898],[0.98581102 0.01418898],"[0.2        0.3125     0.5078125  0.7        0.1953125  0.390625
 1.         0.         1.         0.40820312 0.5        0.06666667]",0.6007265709679409,0,0
47,47,2024-09-27 16:25:18.443993088,TASK_BEGIN,21,0.5889589314984472,-0.1570263768075287,-3.3448997279184125,2.4960060567618623,-2.4918554044531747,0.6310244709832398,-2.200369844067479,3.145169182545902,0,2024-09-27 16:25:18.343385986,1727454318.343387,2024-09-27 16:25:18.343386880,0,0.0,0.1,9.54687811685626,[0.98581102 0.01418898],[0.98581102 0.01418898],"[0.2        0.3125     0.5078125  0.7        0.1953125  0.390625
 1.         0.         1.         0.40820312 0.5        0.06666667]",0.6007265709679409,0,0
48,48,2024-09-27 16:25:18.506478080,TASK_BEGIN,21,0.6146160544721774,-0.1630442298291428,-3.301418241088609,2.451535791487418,-2.5017306206269896,0.6231473266241531,-1.3296888567232057,3.06759983177489,0,2024-09-27 16:25:18.343385986,1727454318.343387,2024-09-27 16:25:18.343386880,0,0.0,0.1,9.54687811685626,[0.98581102 0.01418898],[0.98581102 0.01418898],"[0.2        0.3125     0.5078125  0.7        0.1953125  0.390625
 1.         0.         1.         0.40820312 0.5        0.06666667]",0.6007265709679409,0,0
49,49,2024-09-27 16:25:19.459550976,TASK_BEGIN,21,0.6346226489518416,-0.1686670726454778,-3.2731686654666725,2.422690938334489,-2.4947968216469576,0.6103669976009353,-0.3366066841999527,2.971426966114181,0,2024-09-27 16:25:19.363083008,1727454319.3630838,2024-09-27 16:25:19.363083776,0,1.0,0.1,10.395700462184992,[0.01105234 0.98894766],[0.01105234 0.98894766],"[-0.07777778  0.3125      0.5078125   0.42222222  0.1953125   0.390625
  0.92222222  0.29296875  0.48828125  0.35742188 -0.8         0.5       ]",0.7329703754712515,0,0
50,50,2024-09-27 16:25:19.529580032,TASK_BEGIN,21,0.6485831857094506,-0.1736109184130839,-3.261640662478338,2.410827568475369,-2.4713232075858467,0.5929828390627785,0.7454504993628807,2.8633930849181515,0,2024-09-27 16:25:19.363083008,1727454319.3630838,2024-09-27 16:25:19.363083776,0,1.0,0.1,10.395700462184992,[0.01105234 0.98894766],[0.01105234 0.98894766],"[-0.07777778  0.3125      0.5078125   0.42222222  0.1953125   0.390625
  0.92222222  0.29296875  0.48828125  0.35742188 -0.8         0.5       ]",0.7329703754712515,0,0
51,51,2024-09-27 16:25:19.597302016,TASK_BEGIN,21,0.6563882780119825,-0.1775602896845492,-3.267970926504025,2.416095038765301,-2.432020408379285,0.5714074127914449,1.8749905451100373,2.751131044508511,0,2024-09-27 16:25:19.363083008,1727454319.3630838,2024-09-27 16:25:19.363083776,0,1.0,0.1,10.395700462184992,[0.01105234 0.98894766],[0.01105234 0.98894766],"[-0.07777778  0.3125      0.5078125   0.42222222  0.1953125   0.390625
  0.92222222  0.29296875  0.48828125  0.35742188 -0.8         0.5       ]",0.7329703754712515,0,0
52,52,2024-09-27 16:25:19.664152064,TASK_BEGIN,21,0.6582236410592759,-0.1801578577711863,-3.2927678627388923,2.4374713083781443,-2.378072805629341,0.5461800249376172,3.005337976058016,2.6422766132571804,0,2024-09-27 16:25:19.363083008,1727454319.3630838,2024-09-27 16:25:19.363083776,0,1.0,0.1,10.395700462184992,[0.01105234 0.98894766],[0.01105234 0.98894766],"[-0.07777778  0.3125      0.5078125   0.42222222  0.1953125   0.390625
  0.92222222  0.29296875  0.48828125  0.35742188 -0.8         0.5       ]",0.7329703754712515,0,0
53,53,2024-09-27 16:25:19.732728064,TASK_BEGIN,21,0.6545396537030362,-0.1810108059456205,-3.335495000045666,2.4728325625369623,-2.311190864592036,0.5180082607996942,4.08760617008245,2.5435379682297192,0,2024-09-27 16:25:19.363083008,1727454319.3630838,2024-09-27 16:25:19.363083776,0,1.0,0.1,10.395700462184992,[0.01105234 0.98894766],[0.01105234 0.98894766],"[-0.07777778  0.3125      0.5078125   0.42222222  0.1953125   0.390625
  0.92222222  0.29296875  0.48828125  0.35742188 -0.8         0.5       ]",0.7329703754712515,0,0
54,54,2024-09-27 16:25:19.800474880,TASK_BEGIN,21,0.6460116225730755,-0.1797218965473326,-3.3938461673679257,2.51907901839186,-2.2336582090613133,0.4878136717147719,5.073374488348281,2.4599338992265016,0,2024-09-27 16:25:19.363083008,1727454319.3630838,2024-09-27 16:25:19.363083776,0,1.0,0.1,10.395700462184992,[0.01105234 0.98894766],[0.01105234 0.98894766],"[-0.07777778  0.3125      0.5078125   0.42222222  0.1953125   0.390625
  0.92222222  0.29296875  0.48828125  0.35742188 -0.8         0.5       ]",0.7329703754712515,0,0
55,55,2024-09-27 16:25:19.868168192,TASK_BEGIN,21,0.6335059103020455,-0.1759390136152306,-3.463515994212873,2.5723487024771217,-2.1484217569360364,0.4567590686650152,5.91759904045571,2.394278922474101,0,2024-09-27 16:25:19.363083008,1727454319.3630838,2024-09-27 16:25:19.363083776,0,1.0,0.1,10.395700462184992,[0.01105234 0.98894766],[0.01105234 0.98894766],"[-0.07777778  0.3125      0.5078125   0.42222222  0.1953125   0.390625
  0.92222222  0.29296875  0.48828125  0.35742188 -0.8         0.5       ]",0.7329703754712515,0,0
56,56,2024-09-27 16:25:20.811953152,TASK_BEGIN,21,0.6180444302975433,-0.1694070587333982,-3.538436250303944,2.628303491104443,-2.0591997795130457,0.426222181418209,6.582139255245328,2.34690278216632,0,2024-09-27 16:25:20.221793945,1727454320.2217948,2024-09-27 16:25:20.221794816,0,0.0,0.1,10.333553011217704,[0.99628998 0.00371002],[0.99628998 0.00371002],"[0.18611111 0.1953125  0.390625   0.68611111 0.29296875 0.48828125
 1.         0.         1.         0.296875   0.6        0.03333333]",0.5955000613571206,0,0
57,57,2024-09-27 16:25:20.879696896,TASK_BEGIN,21,0.6007620341374553,-0.16001076992936,-3.611290523506375,2.6824381703494184,-1.9704577635559144,0.3976867326075478,7.039449408227232,2.315633677447664,0,2024-09-27 16:25:20.422765869,1727454320.422767,2024-09-27 16:25:20.422766848,0,0.0,0.1,11.21140969169921,[9.99236627e-01 7.63373058e-04],[9.99236627e-01 7.63373058e-04],"[ 0.13055556  0.1953125   0.390625    0.63055556  0.29296875  0.48828125
  1.          0.          1.          0.26953125 -0.6         0.43333333]",0.3493702846238346,0,0
58,58,2024-09-27 16:25:20.947180800,TASK_BEGIN,21,0.5828599393511207,-0.1478054745633475,-3.674031605566877,2.7303607371611616,-1.887124323663449,0.3725634952015592,7.275551721496821,2.2961299194470546,0,2024-09-27 16:25:20.422765869,1727454320.422767,2024-09-27 16:25:20.422766848,0,0.0,0.1,11.21140969169921,[9.99236627e-01 7.63373058e-04],[9.99236627e-01 7.63373058e-04],"[ 0.13055556  0.1953125   0.390625    0.63055556  0.29296875  0.48828125
  1.          0.          1.          0.26953125 -0.6         0.43333333]",0.3493702846238346,0,0
59,59,2024-09-27 16:25:21.004834048,TASK_BEGIN,21,0.5655509972153309,-0.1330327828744779,-3.71829664246518,2.7680326157245103,-1.814075127275663,0.3519903547308102,7.291651937966304,2.2825647354297165,0,2024-09-27 16:25:20.422765869,1727454320.422767,2024-09-27 16:25:20.422766848,0,0.0,0.1,11.21140969169921,[9.99236627e-01 7.63373058e-04],[9.99236627e-01 7.63373058e-04],"[ 0.13055556  0.1953125   0.390625    0.63055556  0.29296875  0.48828125
  1.          0.          1.          0.26953125 -0.6         0.43333333]",0.3493702846238346,0,0
60,60,2024-09-27 16:25:21.079322880,TASK_BEGIN,21,0.5499789682716341,-0.1161137405041709,-3.7360005044292586,2.7920232321051075,-1.7555408911106674,0.3366671543977319,7.104160618165529,2.2684950738798304,0,2024-09-27 16:25:21.077083984,1727454321.077084,2024-09-27 16:25:21.077084160,0,0.0,0.1,11.063037471930748,[9.99999969e-01 3.07308312e-08],[9.99999969e-01 3.07308312e-08],"[-0.05        0.1953125   0.390625    0.45        0.29296875  0.48828125
  1.          0.          1.          0.29492188  0.7         0.        ]",0.4237734687139451,0,0
61,61,2024-09-27 16:25:21.150538752,TASK_BEGIN,21,0.537099594441533,-0.0976130514265566,-3.720428864787883,2.7998135490624527,-1.71464259559241,0.3267729938468138,6.743001445114804,2.247692767046644,0,2024-09-27 16:25:21.128086182,1727454321.1280863,2024-09-27 16:25:21.128086272,0,0.0,0.1,11.052407097211441,[9.99999986e-01 1.38082501e-08],[9.99999986e-01 1.38082501e-08],"[-0.06388889  0.1953125   0.390625    0.43611111  0.29296875  0.48828125
  1.          0.          1.          0.31054688  0.8        -0.03333333]",0.5142601942114007,0,0
62,62,2024-09-27 16:25:21.203383040,TASK_BEGIN,21,0.5275422601576097,-0.0781792405282751,-3.667525622065687,2.7900635751457767,-1.693213365594335,0.3219906138688054,6.248176037191251,2.2148645374997438,0,2024-09-27 16:25:21.128086182,1727454321.1280863,2024-09-27 16:25:21.128086272,0,0.0,0.1,11.052407097211441,[9.99999986e-01 1.38082501e-08],[9.99999986e-01 1.38082501e-08],"[-0.06388889  0.1953125   0.390625    0.43611111  0.29296875  0.48828125
  1.          0.          1.          0.31054688  0.8        -0.03333333]",0.5142601942114007,0,0
63,63,2024-09-27 16:25:22.162042112,TASK_BEGIN,21,0.5215018332995146,-0.058481280079984,-3.576553098405871,2.7627016703895526,-1.691903568039845,0.3216194267384467,5.665071535030467,2.166300883994,0,2024-09-27 16:25:22.139085938,1727454322.139086,2024-09-27 16:25:22.139086080,0,0.0,0.1,10.86077106598579,[0.99733797 0.00266203],[0.99733797 0.00266203],"[0.15833333 0.29296875 0.48828125 0.72777778 0.1953125  0.390625
 1.         0.         1.         0.38476562 0.5        0.06666667]",0.5321944253900159,0,0
64,64,2024-09-27 16:25:22.229060864,TASK_BEGIN,21,0.5187120177670114,-0.0391659326612914,-3.4497484425280294,2.718798490589432,-1.7104049138007775,0.32472186098438,5.039578907981502,2.1003888612315773,0,2024-09-27 16:25:22.190083984,1727454322.190084,2024-09-27 16:25:22.190084096,0,0.0,1.0,11.752163355325933,[0.92916936 0.07083064],[0.92916936 0.07083064],"[0.14444444 0.29296875 0.48828125 0.71388889 0.1953125  0.390625
 1.         0.         1.         0.39648438 0.6        0.03333333]",0.541397445985952,0,0
65,65,2024-09-27 16:25:22.296724992,TASK_BEGIN,21,0.5185154625312799,-0.0208425711808755,-3.2914640432653592,2.660323761225716,-1.7476446273329644,0.3302490829846322,4.414062732714434,2.0177960779265787,0,2024-09-27 16:25:22.190083984,1727454322.190084,2024-09-27 16:25:22.190084096,0,0.0,1.0,11.752163355325933,[0.92916936 0.07083064],[0.92916936 0.07083064],"[0.14444444 0.29296875 0.48828125 0.71388889 0.1953125  0.390625
 1.         0.         1.         0.39648438 0.6        0.03333333]",0.541397445985952,0,0
66,66,2024-09-27 16:25:22.365214976,TASK_BEGIN,21,0.5199996932755097,-0.0040798451396134,-3.107477553507506,2.5898923437640256,-1.8019288159311544,0.3371288549494979,3.8246878524981343,1.9212383283351604,0,2024-09-27 16:25:22.190083984,1727454322.190084,2024-09-27 16:25:22.190084096,0,0.0,1.0,11.752163355325933,[0.92916936 0.07083064],[0.92916936 0.07083064],"[0.14444444 0.29296875 0.48828125 0.71388889 0.1953125  0.390625
 1.         0.         1.         0.39648438 0.6        0.03333333]",0.541397445985952,0,0
67,67,2024-09-27 16:25:22.432715776,TASK_BEGIN,21,0.5221582804451399,0.0106048829909134,-2.904699509892779,2.510544638070426,-1.8710704383095973,0.3443312112877995,3.3000579376614256,1.8149672921592543,0,2024-09-27 16:25:22.190083984,1727454322.190084,2024-09-27 16:25:22.190084096,0,0.0,1.0,11.752163355325933,[0.92916936 0.07083064],[0.92916936 0.07083064],"[0.14444444 0.29296875 0.48828125 0.71388889 0.1953125  0.390625
 1.         0.         1.         0.39648438 0.6        0.03333333]",0.541397445985952,0,0
68,68,2024-09-27 16:25:22.500487936,TASK_BEGIN,21,0.5240595634709063,0.0227681193083308,-2.691090134031667,2.4255771037887173,-1.952524039624468,0.3509292379235282,2.8608355501189533,1.7041801729328283,0,2024-09-27 16:25:22.190083984,1727454322.190084,2024-09-27 16:25:22.190084096,0,0.0,1.0,11.752163355325933,[0.92916936 0.07083064],[0.92916936 0.07083064],"[0.14444444 0.29296875 0.48828125 0.71388889 0.1953125  0.390625
 1.         0.         1.         0.39648438 0.6        0.03333333]",0.541397445985952,0,0
69,69,2024-09-27 16:25:22.567696896,TASK_BEGIN,21,0.5250090706032423,0.0320673386848188,-2.4754523698393998,2.338409307340163,-2.043550688285212,0.3561571789755401,2.5200353319456483,1.5944806797131434,0,2024-09-27 16:25:22.190083984,1727454322.190084,2024-09-27 16:25:22.190084096,0,0.0,1.0,11.752163355325933,[0.92916936 0.07083064],[0.92916936 0.07083064],"[0.14444444 0.29296875 0.48828125 0.71388889 0.1953125  0.390625
 1.         0.         1.         0.39648438 0.6        0.03333333]",0.541397445985952,0,0
70,70,2024-09-27 16:25:23.487163136,TASK_BEGIN,21,0.5246680501216131,0.0382834645618344,-2.266842715066502,2.252436948755234,-2.1414074671327787,0.3594601932152936,2.2836839891527774,1.4914877802646844,0,2024-09-27 16:25:22.998050049,1727454322.9980502,2024-09-27 16:25:22.998050304,0,0.0,0.1,11.49189310511993,[9.99698669e-01 3.01331425e-04],[9.99698669e-01 3.01331425e-04],"[-0.07777778  0.29296875  0.48828125  0.49166667  0.1953125   0.390625
  0.99166667  0.2734375   0.46875     0.38085938  0.7         0.        ]",0.7485375848856192,0,0
71,71,2024-09-27 16:25:23.554880000,TASK_BEGIN,21,0.5230872387951769,0.0413352480529426,-2.073668874070081,2.170839492226745,-2.243497225703243,0.3605331014544502,2.1514660171753084,1.4006402271711178,0,2024-09-27 16:25:22.998050049,1727454322.9980502,2024-09-27 16:25:22.998050304,0,0.0,0.1,11.49189310511993,[9.99698669e-01 3.01331425e-04],[9.99698669e-01 3.01331425e-04],"[-0.07777778  0.29296875  0.48828125  0.49166667  0.1953125   0.390625
  0.99166667  0.2734375   0.46875     0.38085938  0.7         0.        ]",0.7485375848856192,0,0
72,72,2024-09-27 16:25:23.622601984,TASK_BEGIN,21,0.5206523188383552,0.0412894560169521,-1.9028865883322643,2.096369456694454,-2.347439059173181,0.3593512418072961,2.117292526462617,1.3271053084548088,0,2024-09-27 16:25:23.149048096,1727454323.1490488,2024-09-27 16:25:23.149048832,0,1.0,0.1,11.447582388004761,[0.04706579 0.95293421],[0.04706579 0.95293421],"[-0.11944444  0.29296875  0.48828125  0.45        0.1953125   0.390625
  0.95        0.2734375   0.46875     0.33398438 -0.8         0.5       ]",0.7350883844679672,0,0
73,73,2024-09-27 16:25:23.690409984,TASK_BEGIN,21,0.5179776240112804,0.0383694108041477,-1.759656770616588,2.031172633390768,-2.45109507845242,0.3561931235013854,2.170123792405372,1.275635124259345,0,2024-09-27 16:25:23.149048096,1727454323.1490488,2024-09-27 16:25:23.149048832,0,1.0,0.1,11.447582388004761,[0.04706579 0.95293421],[0.04706579 0.95293421],"[-0.11944444  0.29296875  0.48828125  0.45        0.1953125   0.390625
  0.95        0.2734375   0.46875     0.33398438 -0.8         0.5       ]",0.7350883844679672,0,0
74,74,2024-09-27 16:25:23.757267968,TASK_BEGIN,21,0.5157892771911782,0.0329541412338341,-1.6474153997469416,1.9766653459782808,-2.552591181658405,0.3516381413661109,2.2952081415183896,1.2503076940304236,0,2024-09-27 16:25:23.199075928,1727454323.1990764,2024-09-27 16:25:23.199076352,0,1.0,0.1,11.433106564124714,[0.14994906 0.85005094],[0.14994906 0.85005094],"[-0.13333333  0.29296875  0.48828125  0.43611111  0.1953125   0.390625
  0.93611111  0.2734375   0.46875     0.31835938 -0.8         0.5       ]",0.5120738135748845,0,0
75,75,2024-09-27 16:25:23.825814016,TASK_BEGIN,21,0.5148156447210356,0.0255587266451122,-1.5680295514796605,1.9334906768371032,-2.6503191523689265,0.3465139377676259,2.4757104085060693,1.2541788547052546,0,2024-09-27 16:25:23.399097900,1727454323.3990986,2024-09-27 16:25:23.399098624,0,0.0,0.1,11.376636447403008,[9.99917777e-01 8.22225917e-05],[9.99917777e-01 8.22225917e-05],"[ 0.38055556  0.1953125   0.390625    0.88055556  0.2734375   0.46875
  1.          0.          1.          0.26757812 -0.5         0.4       ]",0.33728151956697616,0,0
76,76,2024-09-27 16:25:23.893518080,TASK_BEGIN,21,0.5156883167820051,0.0167975821409538,-1.5218575487395736,1.901602007429604,-2.7428808600954127,0.3417885227557962,2.694917805713111,1.2888453577267234,0,2024-09-27 16:25:23.854051025,1727454323.8540516,2024-09-27 16:25:23.854051584,0,0.0,0.1,11.25758113821725,[9.99999839e-01 1.61138610e-07],[9.99999839e-01 1.61138610e-07],"[0.25555556 0.1953125  0.390625   0.75555556 0.2734375  0.46875
 1.         0.         1.         0.26757812 0.4        0.1       ]",0.344482904868659,0,0
77,77,2024-09-27 16:25:24.836695040,TASK_BEGIN,21,0.5188617304473476,0.0073401722095546,-1.5078156841614336,1.8804815179039476,-2.828975580138909,0.3384368955229899,2.9389921202029625,1.353919692470648,0,2024-09-27 16:25:24.766436035,1727454324.7664363,2024-09-27 16:25:24.766436352,0,0.0,0.1,11.863412633490274,[9.99999704e-01 2.95676543e-07],[9.99999704e-01 2.95676543e-07],"[0.00555556 0.1953125  0.390625   0.50555556 0.2734375  0.46875
 1.         0.         1.         0.27734375 0.5        0.06666667]",0.37484124786583395,0,0
78,78,2024-09-27 16:25:24.904058112,TASK_BEGIN,21,0.5245621736738861,-0.0021347093704559,-1.5235841013010012,1.8693941038880528,-2.9073271239679768,0.3373255652127193,3.1993214892650474,1.4466007056448609,0,2024-09-27 16:25:24.766436035,1727454324.7664363,2024-09-27 16:25:24.766436352,0,0.0,0.1,11.863412633490274,[9.99999704e-01 2.95676543e-07],[9.99999704e-01 2.95676543e-07],"[0.00555556 0.1953125  0.390625   0.50555556 0.2734375  0.46875
 1.         0.         1.         0.27734375 0.5        0.06666667]",0.37484124786583395,0,0
79,79,2024-09-27 16:25:24.972184832,TASK_BEGIN,21,0.5327737229404373,-0.0109862821688934,-1.5659218401856043,1.8675576262675444,-2.9767531305368027,0.339137998762178,3.473190254742374,1.5616890712033171,0,2024-09-27 16:25:24.968337158,1727454324.968338,2024-09-27 16:25:24.968337920,0,0.0,0.1,11.789986740714347,[9.99999915e-01 8.49671457e-08],[9.99999915e-01 8.49671457e-08],"[-0.05        0.1953125   0.390625    0.45        0.2734375   0.46875
  0.95        0.21484375  0.41015625  0.3359375   0.9        -0.06666667]",0.4503489311886449,0,0
80,80,2024-09-27 16:25:25.032624896,TASK_BEGIN,21,0.543268798426507,-0.0186617570319585,-1.6309676808337492,1.8742074790094403,-3.036322825977183,0.3443319787395246,3.762403057968588,1.6922176716881316,0,2024-09-27 16:25:25.018364014,1727454325.0183644,2024-09-27 16:25:25.018364416,0,0.0,0.1,11.772086873307204,[9.99996515e-01 3.48513798e-06],[9.99996515e-01 3.48513798e-06],"[-0.06388889  0.1953125   0.390625    0.43611111  0.2734375   0.46875
  0.93611111  0.21484375  0.41015625  0.35546875  1.         -0.1       ]",0.565569035985505,0,0
81,81,2024-09-27 16:25:25.106969856,TASK_BEGIN,21,0.555679568673083,-0.0247453880713149,-1.7144383204953006,1.8886159353057983,-3.0854386740960087,0.3531115993363998,4.0707373426341045,1.83045739959238,0,2024-09-27 16:25:25.069334961,1727454325.069335,2024-09-27 16:25:25.069335040,0,0.0,0.1,11.754366004574132,[9.99692891e-01 3.07109407e-04],[9.99692891e-01 3.07109407e-04],"[-0.07777778  0.1953125   0.390625    0.42222222  0.2734375   0.46875
  0.92222222  0.21484375  0.41015625  0.375       1.         -0.13333333]",0.7373121018506641,0,0
82,82,2024-09-27 16:25:25.175407872,TASK_BEGIN,21,0.5695814610302619,-0.0289976995105153,-1.8117321299319968,1.9101181280407,-3.1237792371029114,0.3654198852692353,4.40172415462126,1.968815248599367,0,2024-09-27 16:25:25.120367920,1727454325.1203687,2024-09-27 16:25:25.120368640,0,0.0,0.1,11.73682234452839,[0.9793869 0.0206131],[0.9793869 0.0206131],"[-0.09166667  0.1953125   0.390625    0.40833333  0.2734375   0.46875
  0.90833333  0.21484375  0.41015625  0.39453125  1.         -0.16666667]",0.7826228691560857,0,0
83,83,2024-09-27 16:25:25.242483968,TASK_BEGIN,21,0.5845564798971895,-0.0313738342862432,-1.9180233917447411,1.938130867445724,-3.151196157912252,0.3809727493980298,4.7578421204018655,2.1002717817555143,0,2024-09-27 16:25:25.120367920,1727454325.1203687,2024-09-27 16:25:25.120368640,0,0.0,0.1,11.73682234452839,[0.9793869 0.0206131],[0.9793869 0.0206131],"[-0.09166667  0.1953125   0.390625    0.40833333  0.2734375   0.46875
  0.90833333  0.21484375  0.41015625  0.39453125  1.         -0.16666667]",0.7826228691560857,0,0
84,84,2024-09-27 16:25:26.184118016,TASK_BEGIN,21,0.6002339150307092,-0.0320155184572334,-2.028406231576471,1.9721164633265305,-3.167650338582041,0.3993237356022288,5.1408272055308935,2.2184203849701425,0,2024-09-27 16:25:25.884679199,1727454325.8846788,2024-09-27 16:25:25.884678912,0,0.0,0.1,11.493768567939307,[0.96807749 0.03192251],[0.96807749 0.03192251],"[0.2        0.2734375  0.46875    0.7        0.21484375 0.41015625
 1.         0.         1.         0.37304688 0.5        0.06666667]",0.5793578111530252,0,0
85,85,2024-09-27 16:25:26.252324096,TASK_BEGIN,21,0.6163261127300089,-0.0312221540595746,-2.138061733254352,2.0114906743846523,-3.173149568317612,0.4199104589997848,5.551797636956555,2.3175199168970604,0,2024-09-27 16:25:25.884679199,1727454325.8846788,2024-09-27 16:25:25.884678912,0,0.0,0.1,11.493768567939307,[0.96807749 0.03192251],[0.96807749 0.03192251],"[0.2        0.2734375  0.46875    0.7        0.21484375 0.41015625
 1.         0.         1.         0.37304688 0.5        0.06666667]",0.5793578111530252,0,0
86,86,2024-09-27 16:25:26.319560960,TASK_BEGIN,21,0.6326589488932199,-0.0294120290764571,-2.2424326365448954,2.055535173363616,-3.1675998009773005,0.4420467834007724,5.990454380856042,2.392876296903089,0,2024-09-27 16:25:25.884679199,1727454325.8846788,2024-09-27 16:25:25.884678912,0,0.0,0.1,11.493768567939307,[0.96807749 0.03192251],[0.96807749 0.03192251],"[0.2        0.2734375  0.46875    0.7        0.21484375 0.41015625
 1.         0.         1.         0.37304688 0.5        0.06666667]",0.5793578111530252,0,0
87,87,2024-09-27 16:25:26.387312896,TASK_BEGIN,21,0.6491773957938617,-0.0270802445182338,-2.3374803451190203,2.103372048243644,-3.150556019634188,0.4648680892026531,6.453744818121969,2.441425310420858,0,2024-09-27 16:25:25.884679199,1727454325.8846788,2024-09-27 16:25:25.884678912,0,0.0,0.1,11.493768567939307,[0.96807749 0.03192251],[0.96807749 0.03192251],"[0.2        0.2734375  0.46875    0.7        0.21484375 0.41015625
 1.         0.         1.         0.37304688 0.5        0.06666667]",0.5793578111530252,0,0
88,88,2024-09-27 16:25:26.451374080,TASK_BEGIN,21,0.6659155437213198,-0.0247525073577148,-2.4200518478626742,2.1540200785699284,-3.1209692858081155,0.4872688313511664,6.934649775326136,2.462149695538986,0,2024-09-27 16:25:25.884679199,1727454325.8846788,2024-09-27 16:25:25.884678912,0,0.0,0.1,11.493768567939307,[0.96807749 0.03192251],[0.96807749 0.03192251],"[0.2        0.2734375  0.46875    0.7        0.21484375 0.41015625
 1.         0.         1.         0.37304688 0.5        0.06666667]",0.5793578111530252,0,0
89,89,2024-09-27 16:25:26.522749952,TASK_BEGIN,21,0.6829376470985877,-0.0229334578412592,-2.4882088457673923,2.206519128579391,-3.0770744025707644,0.5078887923874507,7.421427439438739,2.45616296852897,0,2024-09-27 16:25:25.986679932,1727454325.9866807,2024-09-27 16:25:25.986680832,0,1.0,0.1,11.464042573437315,[0.11753316 0.88246684],[0.11753316 0.88246684],"[ 0.17222222  0.2734375   0.46875     0.67222222  0.21484375  0.41015625
  1.          0.          1.          0.36914062 -0.8         0.5       ]",0.4478989070724403,0,0
90,90,2024-09-27 16:25:26.590478080,TASK_BEGIN,21,0.7002679309467119,-0.0220559027106814,-2.541321715515351,2.260053951772954,-3.0164995473589347,0.5251902462515234,7.897342595942509,2.426571198085559,0,2024-09-27 16:25:26.596689941,1727454326.596691,2024-09-27 16:25:26.596690944,0,0.0,0.1,12.111649056151107,[9.99999123e-01 8.76787322e-07],[9.99999123e-01 8.76787322e-07],"[0.00555556 0.2734375  0.46875    0.50555556 0.21484375 0.41015625
 1.         0.         1.         0.33398438 0.4        0.1       ]",0.35033412124411656,0,0
91,91,2024-09-27 16:25:27.536841984,TASK_BEGIN,21,0.7178296984716348,-0.0224418048099163,-2.579835344089646,2.313959730016939,-2.9365775950201507,0.5376182950298174,8.340731919401364,2.378243984512839,0,2024-09-27 16:25:27.155054932,1727454327.1550555,2024-09-27 16:25:27.155055616,0,1.0,0.1,11.890640179541395,[0.01725917 0.98274083],[0.01725917 0.98274083],"[-0.14722222  0.2734375   0.46875     0.35277778  0.21484375  0.41015625
  0.92222222  0.29296875  0.48828125  0.34375    -0.8         0.5       ]",0.8545524373571164,0,0
92,92,2024-09-27 16:25:27.600834048,TASK_BEGIN,21,0.7354040910942524,-0.0242822380159982,-2.6047337244804605,2.367547283664268,-2.834805946881572,0.5437981810661331,8.725422252395889,2.317510082114507,0,2024-09-27 16:25:27.155054932,1727454327.1550555,2024-09-27 16:25:27.155055616,0,1.0,0.1,11.890640179541395,[0.01725917 0.98274083],[0.01725917 0.98274083],"[-0.14722222  0.2734375   0.46875     0.35277778  0.21484375  0.41015625
  0.92222222  0.29296875  0.48828125  0.34375    -0.8         0.5       ]",0.8545524373571164,0,0
93,93,2024-09-27 16:25:27.672395008,TASK_BEGIN,21,0.7526073132715952,-0.0276379523015616,-2.6168705510509667,2.4198335220092617,-2.70939451512537,0.5427203580833504,9.02190069043219,2.2517836442003487,0,2024-09-27 16:25:27.155054932,1727454327.1550555,2024-09-27 16:25:27.155055616,0,1.0,0.1,11.890640179541395,[0.01725917 0.98274083],[0.01725917 0.98274083],"[-0.14722222  0.2734375   0.46875     0.35277778  0.21484375  0.41015625
  0.92222222  0.29296875  0.48828125  0.34375    -0.8         0.5       ]",0.8545524373571164,0,0
94,94,2024-09-27 16:25:27.740094976,TASK_BEGIN,21,0.768886253562987,-0.032458578007113,-2.616446999931304,2.4693427575053515,-2.5597836909272424,0.5338740190772999,9.199583658230203,2.1891511235998644,0,2024-09-27 16:25:27.155054932,1727454327.1550555,2024-09-27 16:25:27.155055616,0,1.0,0.1,11.890640179541395,[0.01725917 0.98274083],[0.01725917 0.98274083],"[-0.14722222  0.2734375   0.46875     0.35277778  0.21484375  0.41015625
  0.92222222  0.29296875  0.48828125  0.34375    -0.8         0.5       ]",0.8545524373571164,0,0
95,95,2024-09-27 16:25:27.807836928,TASK_BEGIN,21,0.7835437513358913,-0.0386173303894239,-2.60282736864306,2.514066204604058,-2.386991692126609,0.5173064518153253,9.229832465495926,2.1379080744708525,0,2024-09-27 16:25:27.766231934,1727454327.7662327,2024-09-27 16:25:27.766232832,0,0.0,0.1,11.675834853004156,[9.99999845e-01 1.54665624e-07],[9.99999845e-01 1.54665624e-07],"[0.18611111 0.21484375 0.41015625 0.75555556 0.29296875 0.48828125
 1.         0.         1.         0.28515625 0.3        0.13333333]",0.3390076012933135,0,0
96,96,2024-09-27 16:25:27.875022080,TASK_BEGIN,21,0.7958092408483572,-0.0459556448504516,-2.574663487830005,2.551540453770406,-2.1937390748799905,0.4936119288504084,9.088792694503844,2.1060304642479672,0,2024-09-27 16:25:27.868201904,1727454327.8682024,2024-09-27 16:25:27.868202496,0,0.0,0.1,11.642485739429373,[9.99935643e-01 6.43569687e-05],[9.99935643e-01 6.43569687e-05],"[0.15833333 0.21484375 0.41015625 0.72777778 0.29296875 0.48828125
 1.         0.         1.         0.30273438 0.5        0.06666667]",0.4359823762081481,0,0
97,97,2024-09-27 16:25:27.943305984,TASK_BEGIN,21,0.804953998329248,-0.0543263940391507,-2.530245056916004,2.578990644130257,-1.984372674292587,0.4638660992383617,8.75950315128331,2.1005874596626755,0,2024-09-27 16:25:27.919200928,1727454327.9192019,2024-09-27 16:25:27.919201792,0,0.0,1.0,12.526060882035079,[0.9985576 0.0014424],[0.9985576 0.0014424],"[0.14444444 0.21484375 0.41015625 0.71388889 0.29296875 0.48828125
 1.         0.         1.         0.31445312 0.6        0.03333333]",0.554997612997829,0,0
98,98,2024-09-27 16:25:28.862495744,TASK_BEGIN,21,0.8104292035831887,-0.0636230933867306,-2.468063238742624,2.593563614896888,-1.7645837380015286,0.4295091610953782,8.233415061367698,2.1271190039927914,0,2024-09-27 16:25:28.837328857,1727454328.837329,2024-09-27 16:25:28.837328896,0,0.0,0.1,12.108032568319011,[1.00000000e+00 2.65077172e-10],[1.00000000e+00 2.65077172e-10],"[-0.10555556  0.21484375  0.41015625  0.46388889  0.29296875  0.48828125
  0.96388889  0.25390625  0.44921875  0.328125    0.7         0.        ]",0.35687748087395565,0,0
99,99,2024-09-27 16:25:28.930496000,TASK_BEGIN,21,0.8119985628793513,-0.0737900786185057,-2.387491170863138,2.59268844229698,-1.5409216494678368,0.3921769477586369,7.511573336400618,2.189040152805948,0,2024-09-27 16:25:28.888300781,1727454328.8883014,2024-09-27 16:25:28.888301312,0,0.0,0.1,12.086952242635821,[9.99999997e-01 2.60977992e-09],[9.99999997e-01 2.60977992e-09],"[-0.11944444  0.21484375  0.41015625  0.45        0.29296875  0.48828125
  0.95        0.25390625  0.44921875  0.34375     0.8        -0.03333333]",0.3809698635664347,0,0
100,100,2024-09-27 16:25:28.990978048,TASK_BEGIN,21,0.8098350179375836,-0.0848176795552348,-2.289339542974427,2.5745083613448787,-1.320200634832616,0.3535033281585078,6.605536140146977,2.287112232858469,0,2024-09-27 16:25:28.990299072,1727454328.9903,2024-09-27 16:25:28.990299904,0,0.0,0.1,12.045421893007367,[9.99998636e-01 1.36412068e-06],[9.99998636e-01 1.36412068e-06],"[-0.14722222  0.21484375  0.41015625  0.42222222  0.29296875  0.48828125
  0.92222222  0.25390625  0.44921875  0.38085938  1.         -0.1       ]",0.5376466138617071,0,0
101,101,2024-09-27 16:25:29.065884928,TASK_BEGIN,21,0.8045555640450143,-0.0967289607036045,-2.176109366503111,2.538266878486548,-1.108921034484862,0.3149364258415175,5.537841313942923,2.4190060991760856,0,2024-09-27 16:25:29.041325928,1727454329.0413263,2024-09-27 16:25:29.041326336,0,0.0,0.1,12.024967674077292,[9.99913476e-01 8.65242298e-05],[9.99913476e-01 8.65242298e-05],"[-0.16111111  0.21484375  0.41015625  0.40833333  0.29296875  0.48828125
  0.90833333  0.25390625  0.44921875  0.40039062  1.         -0.13333333]",0.6878127124016614,0,0
102,102,2024-09-27 16:25:29.133052928,TASK_BEGIN,21,0.7971906432889486,-0.1095598460220006,-2.0519640885488264,2.4845572373609706,-0.9127493253326358,0.2776029301981466,4.341392027409105,2.5791090044012672,0,2024-09-27 16:25:29.092300781,1727454329.0923011,2024-09-27 16:25:29.092301056,0,0.0,0.1,12.004717997336519,[0.98467762 0.01532238],[0.98467762 0.01532238],"[-0.175       0.21484375  0.41015625  0.39444444  0.29296875  0.48828125
  0.89444444  0.25390625  0.44921875  0.41992188  1.         -0.16666667]",0.7619981785771911,0,0
103,103,2024-09-27 16:25:29.200866048,TASK_BEGIN,21,0.7891028507132837,-0.1233313381794439,-1.922553193799276,2.4153840037758205,-0.7360896230933036,0.2422414118655721,3.0573327821344645,2.7587805726502315,0,2024-09-27 16:25:29.092300781,1727454329.0923011,2024-09-27 16:25:29.092301056,0,0.0,0.1,12.004717997336519,[0.98467762 0.01532238],[0.98467762 0.01532238],"[-0.175       0.21484375  0.41015625  0.39444444  0.29296875  0.48828125
  0.89444444  0.25390625  0.44921875  0.41992188  1.         -0.16666667]",0.7619981785771911,0,0
104,104,2024-09-27 16:25:29.269035264,TASK_BEGIN,21,0.7818728236113135,-0.1380204909828009,-1.7947850448483742,2.3340217048706715,-0.581855607794843,0.2092153431462614,1.732023529518615,2.947080046608246,0,2024-09-27 16:25:29.092300781,1727454329.0923011,2024-09-27 16:25:29.092301056,0,0.0,0.1,12.004717997336519,[0.98467762 0.01532238],[0.98467762 0.01532238],"[-0.175       0.21484375  0.41015625  0.39444444  0.29296875  0.48828125
  0.89444444  0.25390625  0.44921875  0.41992188  1.         -0.16666667]",0.7619981785771911,0,0
105,105,2024-09-27 16:25:30.211876096,TASK_BEGIN,21,0.7771693552590114,-0.1535446766957615,-1.6765010030402607,2.244701580657224,-0.4515383798206402,0.1785960061810619,0.4143237075663998,3.131789614643057,0,2024-09-27 16:25:29.803353027,1727454329.8033538,2024-09-27 16:25:29.803353856,0,0.0,0.1,11.74159036596871,[0.98962576 0.01037424],[0.98962576 0.01037424],"[0.2        0.29296875 0.48828125 0.7        0.25390625 0.44921875
 1.         0.         1.         0.38867188 0.4        0.1       ]",0.5406055490068994,0,0
106,106,2024-09-27 16:25:30.280298752,TASK_BEGIN,21,0.7766097901996426,-0.1697622600756294,-1.5759191574601252,2.1521895416386108,-0.3455163100200373,0.1502811043410833,-0.8460972824091538,3.300508224944418,0,2024-09-27 16:25:29.803353027,1727454329.8033538,2024-09-27 16:25:29.803353856,0,0.0,0.1,11.74159036596871,[0.98962576 0.01037424],[0.98962576 0.01037424],"[0.2        0.29296875 0.48828125 0.7        0.25390625 0.44921875
 1.         0.         1.         0.38867188 0.4        0.1       ]",0.5406055490068994,0,0
107,107,2024-09-27 16:25:30.348034048,TASK_BEGIN,21,0.7816089275542324,-0.1864743507791328,-1.500894041788598,2.061345607609008,-0.2634453668448699,0.1241087004239465,-1.9995788567982529,3.4416192662343583,0,2024-09-27 16:25:29.803353027,1727454329.8033538,2024-09-27 16:25:29.803353856,0,0.0,0.1,11.74159036596871,[0.98962576 0.01037424],[0.98962576 0.01037424],"[0.2        0.29296875 0.48828125 0.7        0.25390625 0.44921875
 1.         0.         1.         0.38867188 0.4        0.1       ]",0.5406055490068994,0,0
108,108,2024-09-27 16:25:30.414956032,TASK_BEGIN,21,0.7932347391910123,-0.2034160585061044,-1.4582152567818822,1.976763589760684,-0.2046031591058594,0.0999458809189412,-2.997201477861035,3.545030072767488,0,2024-09-27 16:25:29.854302979,1727454329.8543036,2024-09-27 16:25:29.854303488,0,0.0,0.1,11.724174462309023,[0.89669233 0.10330767],[0.89669233 0.10330767],"[0.18611111 0.29296875 0.48828125 0.68611111 0.25390625 0.44921875
 1.         0.         1.         0.3984375  0.5        0.06666667]",0.4673626766891833,0,0
109,109,2024-09-27 16:25:30.483479040,TASK_BEGIN,21,0.8121072289587843,-0.2202450957763383,-1.453019069045059,1.902520206803204,-0.1681257257640359,0.0777527442230853,-3.79250930096796,3.602737316637271,0,2024-09-27 16:25:30.007299805,1727454330.0073001,2024-09-27 16:25:30.007300096,0,0.0,1.0,12.572964756603982,[9.99171446e-01 8.28554277e-04],[9.99171446e-01 8.28554277e-04],"[ 0.14444444  0.29296875  0.48828125  0.64444444  0.25390625  0.44921875
  1.          0.          1.          0.35742188 -0.6         0.43333333]",0.3365224475109,0,0
110,110,2024-09-27 16:25:30.551238912,TASK_BEGIN,21,0.8383539213222931,-0.2365404372773943,-1.4882352548422275,1.8419703789612865,-0.1530878614971753,0.0576171080803376,-4.344861904149595,3.609337019907556,0,2024-09-27 16:25:30.517339844,1727454330.5173407,2024-09-27 16:25:30.517340672,0,0.0,0.1,12.326943205502028,[9.99999902e-01 9.78334311e-08],[9.99999902e-01 9.78334311e-08],"[0.00555556 0.29296875 0.48828125 0.50555556 0.25390625 0.44921875
 1.         0.         1.         0.34765625 0.4        0.1       ]",0.33770122947847153,0,0
111,111,2024-09-27 16:25:30.618941952,TASK_BEGIN,21,0.8715994256521278,-0.2518126285769573,-1.564157778170149,1.7975458043854735,-0.1584402005061862,0.0397513653609046,-4.623812046483004,3.562487955815828,0,2024-09-27 16:25:30.619298828,1727454330.6192997,2024-09-27 16:25:30.619299584,0,0.0,0.1,12.280637035712537,[0.99893955 0.00106045],[0.99893955 0.00106045],"[-0.02222222  0.29296875  0.48828125  0.47777778  0.25390625  0.44921875
  0.97777778  0.21484375  0.41015625  0.36914062  0.6         0.03333333]",0.458222043356296,0,0
112,112,2024-09-27 16:25:31.561070080,TASK_BEGIN,21,0.9109704365800412,-0.2655210647600481,-1.6783760032651875,1.770620000296944,-0.1829615928097836,0.0244727848987103,-4.612946116293895,3.4632065493909647,0,2024-09-27 16:25:30.975284180,1727454330.9752848,2024-09-27 16:25:30.975284736,0,1.0,0.1,12.125702752140969,[0.13273397 0.86726603],[0.13273397 0.86726603],"[-0.11944444  0.29296875  0.48828125  0.38055556  0.25390625  0.44921875
  0.88055556  0.21484375  0.41015625  0.35351562 -0.8         0.5       ]",0.5330335502878807,0,0
113,113,2024-09-27 16:25:31.630458880,TASK_BEGIN,21,0.955133968440242,-0.2770972930092926,-1.8261373417586608,1.7615283885509885,-0.2253679800840245,0.0121975130296453,-4.311723194462902,3.315842419116511,0,2024-09-27 16:25:31.179285889,1727454331.1792865,2024-09-27 16:25:31.179286528,0,0.0,0.1,12.041941582152631,[9.99630134e-01 3.69865785e-04],[9.99630134e-01 3.69865785e-04],"[-0.175       0.29296875  0.48828125  0.325       0.25390625  0.44921875
  0.825       0.21484375  0.41015625  0.31054688 -0.4         0.36666667]",0.3354465543665631,0,0
114,114,2024-09-27 16:25:31.696553984,TASK_BEGIN,21,1.0023933843645731,-0.2859773750570924,-2.000981767980999,1.7697360730630134,-0.2844739897501171,0.0034302336529892,-3.734634546220872,3.1276187296003504,0,2024-09-27 16:25:31.689318848,1727454331.6893196,2024-09-27 16:25:31.689319680,0,0.0,0.1,11.846695365113954,[9.99187839e-01 8.12160756e-04],[9.99187839e-01 8.12160756e-04],"[0.18611111 0.25390625 0.44921875 0.68611111 0.21484375 0.41015625
 1.         0.         1.         0.33984375 0.6        0.03333333]",0.49175572900374925,0,0
115,115,2024-09-27 16:25:31.764451840,TASK_BEGIN,21,1.0508271566685925,-0.2916437101157336,-2.195451692302759,1.794043961943664,-0.3591779284449812,-0.0012918748718888,-2.908096410595992,2.9077402159855947,0,2024-09-27 16:25:31.740323975,1727454331.7403245,2024-09-27 16:25:31.740324608,0,0.0,0.1,11.828228411462813,[0.95867162 0.04132838],[0.95867162 0.04132838],"[0.17222222 0.25390625 0.44921875 0.67222222 0.21484375 0.41015625
 1.         0.         1.         0.35351562 0.7        0.        ]",0.5899070662467458,0,0
116,116,2024-09-27 16:25:31.822274816,TASK_BEGIN,21,1.098428983644702,-0.2936693276409459,-2.4017493920612063,1.8327175867479328,-0.4481844412171327,-0.0014972010819162,-1.8666044881133284,2.666299913171515,0,2024-09-27 16:25:31.740323975,1727454331.7403245,2024-09-27 16:25:31.740324608,0,0.0,0.1,11.828228411462813,[0.95867162 0.04132838],[0.95867162 0.04132838],"[0.17222222 0.25390625 0.44921875 0.67222222 0.21484375 0.41015625
 1.         0.         1.         0.35351562 0.7        0.        ]",0.5899070662467458,0,0
117,117,2024-09-27 16:25:31.901300992,TASK_BEGIN,21,1.143231038679092,-0.2917541764664339,-2.612215172913485,1.883505369048004,-0.5495662154041974,0.003123442250326,-0.6500345613157862,2.413372694189546,0,2024-09-27 16:25:31.740323975,1727454331.7403245,2024-09-27 16:25:31.740324608,0,0.0,0.1,11.828228411462813,[0.95867162 0.04132838],[0.95867162 0.04132838],"[0.17222222 0.25390625 0.44921875 0.67222222 0.21484375 0.41015625
 1.         0.         1.         0.35351562 0.7        0.        ]",0.5899070662467458,0,0
118,118,2024-09-27 16:25:31.968760064,TASK_BEGIN,21,1.183427434814224,-0.2857497414814756,-2.819464493529218,1.9435909015629835,-0.6603472032654045,0.0126517082445379,0.6970022373834385,2.158568294598854,0,2024-09-27 16:25:31.740323975,1727454331.7403245,2024-09-27 16:25:31.740324608,0,0.0,0.1,11.828228411462813,[0.95867162 0.04132838],[0.95867162 0.04132838],"[0.17222222 0.25390625 0.44921875 0.67222222 0.21484375 0.41015625
 1.         0.         1.         0.35351562 0.7        0.        ]",0.5899070662467458,0,0
119,119,2024-09-27 16:25:32.913070080,TASK_BEGIN,21,1.2175150364173728,-0.2756782621736641,-3.0161430469882458,2.0095517627238686,-0.7762669764119342,0.0269074108159971,2.124519711128164,1.9110086485976885,0,2024-09-27 16:25:32.654537842,1727454332.6545384,2024-09-27 16:25:32.654538496,0,0.0,0.1,12.291993762425134,[9.99324917e-01 6.75083245e-04],[9.99324917e-01 6.75083245e-04],"[-0.07777778  0.25390625  0.44921875  0.42222222  0.21484375  0.41015625
  0.99166667  0.1953125   0.390625    0.37109375  0.9        -0.06666667]",0.8036279248016166,0,0
120,120,2024-09-27 16:25:32.980837888,TASK_BEGIN,21,1.2444265067541236,-0.2617500490228736,-3.1945221857672874,2.0773991190826817,-0.8918283486233002,0.0454378958363464,3.577035519397012,1.679449622803683,0,2024-09-27 16:25:32.654537842,1727454332.6545384,2024-09-27 16:25:32.654538496,0,0.0,0.1,12.291993762425134,[9.99324917e-01 6.75083245e-04],[9.99324917e-01 6.75083245e-04],"[-0.07777778  0.25390625  0.44921875  0.42222222  0.21484375  0.41015625
  0.99166667  0.1953125   0.390625    0.37109375  0.9        -0.06666667]",0.8036279248016166,0,0
121,121,2024-09-27 16:25:33.048580864,TASK_BEGIN,21,1.2635921409179367,-0.2443684963162369,-3.346303859399991,2.142752487329456,-1.0006975655793688,0.0675447210470869,4.995375640384991,1.4722402756653876,0,2024-09-27 16:25:32.654537842,1727454332.6545384,2024-09-27 16:25:32.654538496,0,0.0,0.1,12.291993762425134,[9.99324917e-01 6.75083245e-04],[9.99324917e-01 6.75083245e-04],"[-0.07777778  0.25390625  0.44921875  0.42222222  0.21484375  0.41015625
  0.99166667  0.1953125   0.390625    0.37109375  0.9        -0.06666667]",0.8036279248016166,0,0
122,122,2024-09-27 16:25:33.116267776,TASK_BEGIN,21,1.2748914826635325,-0.2241106202052316,-3.462913900467352,2.2011752160100246,-1.0964218450638703,0.0923640935284872,6.320373025026936,1.2970112100112816,0,2024-09-27 16:25:32.654537842,1727454332.6545384,2024-09-27 16:25:32.654538496,0,0.0,0.1,12.291993762425134,[9.99324917e-01 6.75083245e-04],[9.99324917e-01 6.75083245e-04],"[-0.07777778  0.25390625  0.44921875  0.42222222  0.21484375  0.41015625
  0.99166667  0.1953125   0.390625    0.37109375  0.9        -0.06666667]",0.8036279248016166,0,0
123,123,2024-09-27 16:25:33.183986944,TASK_BEGIN,21,1.2785275421654063,-0.2016883078121349,-3.536307913881851,2.2486524055384587,-1.1732570509003326,0.1189832830255875,7.497356693370753,1.1602292429519003,0,2024-09-27 16:25:32.654537842,1727454332.6545384,2024-09-27 16:25:32.654538496,0,0.0,0.1,12.291993762425134,[9.99324917e-01 6.75083245e-04],[9.99324917e-01 6.75083245e-04],"[-0.07777778  0.25390625  0.44921875  0.42222222  0.21484375  0.41015625
  0.99166667  0.1953125   0.390625    0.37109375  0.9        -0.06666667]",0.8036279248016166,0,0
124,124,2024-09-27 16:25:33.251723264,TASK_BEGIN,21,1.2748963340410484,-0.1779075888233423,-3.5600257213709536,2.282107726346957,-1.2268583408826614,0.1465443325228543,8.48053866886578,1.0667786685373537,0,2024-09-27 16:25:33.011564941,1727454333.0115657,2024-09-27 16:25:33.011565568,0,0.0,0.1,12.136287963575429,[9.99708156e-01 2.91843801e-04],[9.99708156e-01 2.91843801e-04],"[-0.175       0.25390625  0.44921875  0.325       0.21484375  0.41015625
  0.89444444  0.1953125   0.390625    0.2734375  -0.5         0.4       ]",0.34274903150014635,0,0
125,125,2024-09-27 16:25:33.318644992,TASK_BEGIN,21,1.264489959239132,-0.1536314313444351,-3.5301154401765427,2.299797969232455,-1.254680449514226,0.1742935339173623,9.23685902236523,1.0195964619748568,0,2024-09-27 16:25:33.011564941,1727454333.0115657,2024-09-27 16:25:33.011565568,0,0.0,0.1,12.136287963575429,[9.99708156e-01 2.91843801e-04],[9.99708156e-01 2.91843801e-04],"[-0.175       0.25390625  0.44921875  0.325       0.21484375  0.41015625
  0.89444444  0.1953125   0.390625    0.2734375  -0.5         0.4       ]",0.34274903150014635,0,0
126,126,2024-09-27 16:25:34.250982912,TASK_BEGIN,21,1.2478101485880897,-0.1297318835649007,-3.445671901652849,2.3014596783321637,-1.2560426746413054,0.2015746190968801,9.748488459260455,1.0194115193000084,0,2024-09-27 16:25:33.724581055,1727454333.724581,2024-09-27 16:25:33.724581120,0,1.0,0.1,12.746891223224917,[0.12954376 0.87045624],[0.12954376 0.87045624],"[ 0.13055556  0.21484375  0.41015625  0.7         0.1953125   0.390625
  1.          0.          1.          0.30859375 -0.8         0.5       ]",0.4846019899356381,0,0
127,127,2024-09-27 16:25:34.328299008,TASK_BEGIN,21,1.2252689343699683,-0.1070194985212023,-3.308906147997136,2.2881655359977167,-1.2319534380612631,0.2278021868362668,10.012936217227532,1.0647927179437868,0,2024-09-27 16:25:34.334184814,1727454334.3341851,2024-09-27 16:25:34.334185216,0,0.0,0.1,12.434802824516375,[9.99999848e-01 1.51754855e-07],[9.99999848e-01 1.51754855e-07],"[-0.03611111  0.21484375  0.41015625  0.53333333  0.1953125   0.390625
  1.          0.          1.          0.2734375   0.4         0.1       ]",0.337277879125986,0,0
128,128,2024-09-27 16:25:34.398778880,TASK_BEGIN,21,1.1971120662814,-0.0861622109966688,-3.1247833851220457,2.2619462633067307,-1.1849103143121245,0.2524606630997437,10.040441843624578,1.152681026690784,0,2024-09-27 16:25:34.385513184,1727454334.3855133,2024-09-27 16:25:34.385513216,0,0.0,0.1,12.41045479627121,[9.99999444e-01 5.55720463e-07],[9.99999444e-01 5.55720463e-07],"[-0.05        0.21484375  0.41015625  0.51944444  0.1953125   0.390625
  1.          0.          1.          0.28320312  0.5         0.06666667]",0.3566862919818684,0,0
129,129,2024-09-27 16:25:34.451311104,TASK_BEGIN,21,1.1634192087035204,-0.0676216954970755,-2.9003885434863346,2.225327144697266,-1.1188423618626329,0.2751499860283606,9.849457789024235,1.2792700645869637,0,2024-09-27 16:25:34.437619873,1727454334.4376206,2024-09-27 16:25:34.437620736,0,0.0,0.1,12.386350248308498,[9.99997940e-01 2.05959237e-06],[9.99997940e-01 2.05959237e-06],"[-0.06388889  0.21484375  0.41015625  0.50555556  0.1953125   0.390625
  1.          0.          1.          0.29492188  0.6         0.03333333]",0.39920890949345295,0,0
130,130,2024-09-27 16:25:34.528155136,TASK_BEGIN,21,1.1241861458538835,-0.0516269178158826,-2.644282580710104,2.180947347428285,-1.039157568316966,0.2956538918530887,9.46196009032296,1.4407826197287517,0,2024-09-27 16:25:34.487672119,1727454334.4876723,2024-09-27 16:25:34.487672320,0,0.0,0.1,12.362486745825413,[9.99986435e-01 1.35650524e-05],[9.99986435e-01 1.35650524e-05],"[-0.07777778  0.21484375  0.41015625  0.49166667  0.1953125   0.390625
  0.99166667  0.33203125  0.52734375  0.30859375  0.7         0.        ]",0.4819275838869124,0,0
131,131,2024-09-27 16:25:34.601772032,TASK_BEGIN,21,1.079451953365041,-0.0381866206840456,-2.366085396041448,2.13135035655951,-0.9526976976802998,0.3139784619949344,8.900530881687983,1.6337031042674806,0,2024-09-27 16:25:34.487672119,1727454334.4876723,2024-09-27 16:25:34.487672320,0,0.0,0.1,12.362486745825413,[9.99986435e-01 1.35650524e-05],[9.99986435e-01 1.35650524e-05],"[-0.07777778  0.21484375  0.41015625  0.49166667  0.1953125   0.390625
  0.99166667  0.33203125  0.52734375  0.30859375  0.7         0.        ]",0.4819275838869124,0,0
132,132,2024-09-27 16:25:34.666995968,TASK_BEGIN,21,1.029427454295221,-0.0271287597464858,-2.0762877320060853,2.078915550554602,-0.8674149760579605,0.330330492938709,8.188001931526586,1.8543872132222436,0,2024-09-27 16:25:34.487672119,1727454334.4876723,2024-09-27 16:25:34.487672320,0,0.0,0.1,12.362486745825413,[9.99986435e-01 1.35650524e-05],[9.99986435e-01 1.35650524e-05],"[-0.07777778  0.21484375  0.41015625  0.49166667  0.1953125   0.390625
  0.99166667  0.33203125  0.52734375  0.30859375  0.7         0.        ]",0.4819275838869124,0,0
133,133,2024-09-27 16:25:35.584455936,TASK_BEGIN,21,0.9745874082961086,-0.0181495387884303,-1.786080723455473,2.025839738379153,-0.7917335337475386,0.3450491037325773,7.348870397831619,2.0983367514726337,0,2024-09-27 16:25:35.555641846,1727454335.5556428,2024-09-27 16:25:35.555642880,0,0.0,0.1,11.912971356398181,[9.99996405e-01 3.59486598e-06],[9.99996405e-01 3.59486598e-06],"[0.2        0.1953125  0.390625   0.7        0.33203125 0.52734375
 1.         0.         1.         0.27929688 0.7        0.        ]",0.4317182786556059,0,0
134,134,2024-09-27 16:25:35.655649024,TASK_BEGIN,21,0.9157065411754972,-0.0108617163786303,-1.5070755245389464,1.974122943751802,-0.7337413769334216,0.3585277326452162,6.411235676426281,2.35949548201682,0,2024-09-27 16:25:35.658056885,1727454335.6580577,2024-09-27 16:25:35.658057728,0,0.0,0.1,11.874903226405856,[0.9824845 0.0175155],[0.9824845 0.0175155],"[ 0.17222222  0.1953125   0.390625    0.67222222  0.33203125  0.52734375
  1.          0.          1.          0.3125      0.9        -0.06666667]",0.7873917670179508,0,0
135,135,2024-09-27 16:25:35.723251968,TASK_BEGIN,21,0.8538390921282519,-0.0048422787356456,-1.2509564382050398,1.9255768121007464,-0.7004389713186026,0.3711549946536339,5.408319830753238,2.6297939529662244,0,2024-09-27 16:25:35.658056885,1727454335.6580577,2024-09-27 16:25:35.658057728,0,0.0,0.1,11.874903226405856,[0.9824845 0.0175155],[0.9824845 0.0175155],"[ 0.17222222  0.1953125   0.390625    0.67222222  0.33203125  0.52734375
  1.          0.          1.          0.3125      0.9        -0.06666667]",0.7873917670179508,0,0
136,136,2024-09-27 16:25:35.791075072,TASK_BEGIN,21,0.790244354382145,0.000323253296494,-1.0290632297614355,1.8818453696911668,-0.6971938743926163,0.3832769803608326,4.378888408153714,2.8990769354794703,0,2024-09-27 16:25:35.658056885,1727454335.6580577,2024-09-27 16:25:35.658057728,0,0.0,0.1,11.874903226405856,[0.9824845 0.0175155],[0.9824845 0.0175155],"[ 0.17222222  0.1953125   0.390625    0.67222222  0.33203125  0.52734375
  1.          0.          1.          0.3125      0.9        -0.06666667]",0.7873917670179508,0,0
137,137,2024-09-27 16:25:35.858800128,TASK_BEGIN,21,0.7262684878914059,0.0050102571032863,-0.851766032442749,1.8443675536846127,-0.7274260046934803,0.3951772050521293,3.3662747728731124,3.1554639547933454,0,2024-09-27 16:25:35.658056885,1727454335.6580577,2024-09-27 16:25:35.658057728,0,0.0,0.1,11.874903226405856,[0.9824845 0.0175155],[0.9824845 0.0175155],"[ 0.17222222  0.1953125   0.390625    0.67222222  0.33203125  0.52734375
  1.          0.          1.          0.3125      0.9        -0.06666667]",0.7873917670179508,0,0
138,138,2024-09-27 16:25:35.926529792,TASK_BEGIN,21,0.6632185890926362,0.0095410156816557,-0.7275828463423084,1.8142562442315784,-0.7924430358783159,0.4070763614657572,2.416241007586205,3.386080189158289,0,2024-09-27 16:25:35.658056885,1727454335.6580577,2024-09-27 16:25:35.658057728,0,0.0,0.1,11.874903226405856,[0.9824845 0.0175155],[0.9824845 0.0175155],"[ 0.17222222  0.1953125   0.390625    0.67222222  0.33203125  0.52734375
  1.          0.          1.          0.3125      0.9        -0.06666667]",0.7873917670179508,0,0
139,139,2024-09-27 16:25:35.987269120,TASK_BEGIN,21,0.602276175210819,0.0141753512172059,-0.6622759462223283,1.7921810592057414,-0.8913116161906941,0.4191364364969578,1.5741127064972262,3.578068401693309,0,2024-09-27 16:25:35.658056885,1727454335.6580577,2024-09-27 16:25:35.658057728,0,0.0,0.1,11.874903226405856,[0.9824845 0.0175155],[0.9824845 0.0175155],"[ 0.17222222  0.1953125   0.390625    0.67222222  0.33203125  0.52734375
  1.          0.          1.          0.3125      0.9        -0.06666667]",0.7873917670179508,0,0
140,140,2024-09-27 16:25:36.931180800,TASK_BEGIN,21,0.5444759111974234,0.0190927067924304,-0.6582583247433395,1.778352903167369,-1.020771943530122,0.4314437387874848,0.8815365090728539,3.719802105088773,0,2024-09-27 16:25:36.721811035,1727454336.7218115,2024-09-27 16:25:36.721811456,0,0.0,0.1,12.261713154090796,[9.99999999e-01 1.02149440e-09],[9.99999999e-01 1.02149440e-09],"[-0.11944444  0.1953125   0.390625    0.38055556  0.33203125  0.52734375
  0.88055556  0.1953125   0.390625    0.38867188  1.         -0.13333333]",0.5910245739931028,0,0
141,141,2024-09-27 16:25:36.993153024,TASK_BEGIN,21,0.4907369506255715,0.0243662963803595,-0.7144085876543721,1.7725952145137271,-1.175316376946287,0.4439727820629343,0.3733442881136808,3.802095194541613,0,2024-09-27 16:25:36.721811035,1727454336.7218115,2024-09-27 16:25:36.721811456,0,0.0,0.1,12.261713154090796,[9.99999999e-01 1.02149440e-09],[9.99999999e-01 1.02149440e-09],"[-0.11944444  0.1953125   0.390625    0.38055556  0.33203125  0.52734375
  0.88055556  0.1953125   0.390625    0.38867188  1.         -0.13333333]",0.5910245739931028,0,0
142,142,2024-09-27 16:25:37.070370048,TASK_BEGIN,21,0.4419037755401005,0.0299461908569591,-0.8262126772322473,1.7744038831974491,-1.3474857015994584,0.4565562941631623,0.0751703188826986,3.819111398381103,0,2024-09-27 16:25:36.721811035,1727454336.7218115,2024-09-27 16:25:36.721811456,0,0.0,0.1,12.261713154090796,[9.99999999e-01 1.02149440e-09],[9.99999999e-01 1.02149440e-09],"[-0.11944444  0.1953125   0.390625    0.38055556  0.33203125  0.52734375
  0.88055556  0.1953125   0.390625    0.38867188  1.         -0.13333333]",0.5910245739931028,0,0
143,143,2024-09-27 16:25:37.132012032,TASK_BEGIN,21,0.3987523385152491,0.0356714315408525,-0.986218461514334,1.7829461547759542,-1.5283621122500664,0.4688806825590699,0.0018749481261243,3.768864343775735,0,2024-09-27 16:25:36.721811035,1727454336.7218115,2024-09-27 16:25:36.721811456,0,0.0,0.1,12.261713154090796,[9.99999999e-01 1.02149440e-09],[9.99999999e-01 1.02149440e-09],"[-0.11944444  0.1953125   0.390625    0.38055556  0.33203125  0.52734375
  0.88055556  0.1953125   0.390625    0.38867188  1.         -0.13333333]",0.5910245739931028,0,0
144,144,2024-09-27 16:25:37.194561024,TASK_BEGIN,21,0.3619451467399813,0.0413145028501864,-1.1848160599567386,1.7970426693252175,-1.7082382439698778,0.4805062375263724,0.15597484896317,3.653447900705928,0,2024-09-27 16:25:36.721811035,1727454336.7218115,2024-09-27 16:25:36.721811456,0,0.0,0.1,12.261713154090796,[9.99999999e-01 1.02149440e-09],[9.99999999e-01 1.02149440e-09],"[-0.11944444  0.1953125   0.390625    0.38055556  0.33203125  0.52734375
  0.88055556  0.1953125   0.390625    0.38867188  1.         -0.13333333]",0.5910245739931028,0,0
145,145,2024-09-27 16:25:37.274981888,TASK_BEGIN,21,0.331952444296453,0.0466412431593337,-1.4112010377802724,1.8151837198887368,-1.8773755317584704,0.4908937781212247,0.5256442701205447,3.4791062923723994,0,2024-09-27 16:25:36.721811035,1727454336.7218115,2024-09-27 16:25:36.721811456,0,0.0,0.1,12.261713154090796,[9.99999999e-01 1.02149440e-09],[9.99999999e-01 1.02149440e-09],"[-0.11944444  0.1953125   0.390625    0.38055556  0.33203125  0.52734375
  0.88055556  0.1953125   0.390625    0.38867188  1.         -0.13333333]",0.5910245739931028,0,0
146,146,2024-09-27 16:25:37.334295808,TASK_BEGIN,21,0.3089748004458942,0.0514646405480953,-1.6543060032277257,1.835584051321532,-2.026692575206852,0.4994249720015855,1.0832955433976588,3.2560580701138924,0,2024-09-27 16:25:36.872394043,1727454336.8723946,2024-09-27 16:25:36.872394496,0,1.0,0.1,12.194538011701145,[0.73103226 0.26896774],[9.99933084e-01 6.69163793e-05],"[-0.16111111  0.1953125   0.390625    0.33888889  0.33203125  0.52734375
  0.83888889  0.1953125   0.390625    0.34375    -0.8         0.5       ]",0.08383957285471212,0,0
147,151,2024-09-27 16:25:38.551864064,TASK_BEGIN,21,0.288282615888416,0.0664789653417417,-2.797690641383442,1.9041274521074143,-2.26112920349274,0.4922140228960337,4.941131904176246,1.9489159713393212,0,2024-09-27 16:25:38.530270996,1727454338.5302713,2024-09-27 16:25:38.530271232,1,1.0,0.1,0.1,[0.38959824 0.61040176],[0.38959824 0.61040176],"[ 0.98611111  0.3125      0.5078125   1.          0.          1.
  1.          0.          1.          0.4609375  -0.8         0.5       ]",0.0231942842010815,0,0
148,152,2024-09-27 16:25:38.612389888,TASK_BEGIN,21,0.2993058861443648,0.0676515769184413,-2.969217750823306,1.9012206674972865,-2.1912017810153888,0.4779591642495384,5.56068003175672,1.760837751531488,0,2024-09-27 16:25:38.579260986,1727454338.5792608,2024-09-27 16:25:38.579260928,1,1.0,0.1,0.199,[0.3677225 0.6322775],[0.3677225 0.6322775],"[ 0.97222222  0.3125      0.5078125   1.          0.          1.
  1.          0.          1.          0.4453125  -0.8         0.5       ]",0.0328252071563779,0,0
149,153,2024-09-27 16:25:38.690054912,TASK_BEGIN,21,0.3141109284924736,0.0680026765913581,-3.115482917631969,1.8923674480083303,-2.088341951044748,0.4593802087524704,6.048689871062575,1.6240727706965057,0,2024-09-27 16:25:38.629286133,1727454338.6292868,2024-09-27 16:25:38.629286656,1,1.0,0.1,0.29701,[0.35778312 0.64221688],[0.35778312 0.64221688],"[ 0.95833333  0.3125      0.5078125   1.          0.          1.
  1.          0.          1.          0.4296875  -0.8         0.5       ]",0.03763683074417045,0,0
150,154,2024-09-27 16:25:39.596850176,TASK_BEGIN,21,0.3319912335945557,0.067328672325803,-3.23612617447092,1.878997012758054,-1.9591152111717327,0.4368222183769492,6.398835257861151,1.5422320939064391,0,2024-09-27 16:25:39.494609131,1727454339.4946094,2024-09-27 16:25:39.494609408,1,0.0,0.1,1.8209306240276917,[0.94401186 0.05598814],[0.94401186 0.05598814],"[ 0.72222222  0.3125      0.5078125   1.          0.          1.
  1.          0.          1.          0.19335938 -0.3         0.33333333]",0.19853627465370277,0,0
151,155,2024-09-27 16:25:39.674403840,TASK_BEGIN,21,0.3521314244254451,0.0654136610216388,-3.330849383802336,1.8631535927896952,-1.8112276599964665,0.4107845310898461,6.618689679639319,1.5144590160861875,0,2024-09-27 16:25:39.494609131,1727454339.4946094,2024-09-27 16:25:39.494609408,1,0.0,0.1,1.8209306240276917,[0.94401186 0.05598814],[0.94401186 0.05598814],"[ 0.72222222  0.3125      0.5078125   1.          0.          1.
  1.          0.          1.          0.19335938 -0.3         0.33333333]",0.19853627465370277,0,0
152,156,2024-09-27 16:25:39.746587904,TASK_BEGIN,21,0.3737306573523238,0.0620543920795701,-3.399156107523929,1.8472478245943051,-1.6529639661354238,0.3819133579023314,6.72701639155902,1.5358152044977311,0,2024-09-27 16:25:39.494609131,1727454339.4946094,2024-09-27 16:25:39.494609408,1,0.0,0.1,1.8209306240276917,[0.94401186 0.05598814],[0.94401186 0.05598814],"[ 0.72222222  0.3125      0.5078125   1.          0.          1.
  1.          0.          1.          0.19335938 -0.3         0.33333333]",0.19853627465370277,0,0
153,157,2024-09-27 16:25:39.814071040,TASK_BEGIN,21,0.3961561966177936,0.0570797987065211,-3.4404661991648857,1.8338040999019536,-1.492637609098615,0.3509786722553972,6.750276430385926,1.5979340159894817,0,2024-09-27 16:25:39.494609131,1727454339.4946094,2024-09-27 16:25:39.494609408,1,0.0,0.1,1.8209306240276917,[0.94401186 0.05598814],[0.94401186 0.05598814],"[ 0.72222222  0.3125      0.5078125   1.          0.          1.
  1.          0.          1.          0.19335938 -0.3         0.33333333]",0.19853627465370277,0,0
154,158,2024-09-27 16:25:39.876071936,TASK_BEGIN,21,0.4190565963589364,0.0503726889800949,-3.454424246082284,1.8252182131868095,-1.3380754116862583,0.3188367407443487,6.719037519423853,1.6898157405803351,0,2024-09-27 16:25:39.494609131,1727454339.4946094,2024-09-27 16:25:39.494609408,1,0.0,0.1,1.8209306240276917,[0.94401186 0.05598814],[0.94401186 0.05598814],"[ 0.72222222  0.3125      0.5078125   1.          0.          1.
  1.          0.          1.          0.19335938 -0.3         0.33333333]",0.19853627465370277,0,0
155,159,2024-09-27 16:25:39.938658816,TASK_BEGIN,21,0.442398585177246,0.0418903755964526,-3.4412266293629483,1.8235174610694709,-1.1961657691537677,0.2863856859178545,6.664918031958992,1.7987209969968847,0,2024-09-27 16:25:39.494609131,1727454339.4946094,2024-09-27 16:25:39.494609408,1,0.0,0.1,1.8209306240276917,[0.94401186 0.05598814],[0.94401186 0.05598814],"[ 0.72222222  0.3125      0.5078125   1.          0.          1.
  1.          0.          1.          0.19335938 -0.3         0.33333333]",0.19853627465370277,0,0
156,160,2024-09-27 16:25:40.017379072,TASK_BEGIN,21,0.4664239219687472,0.0316735848091433,-3.401914813577543,1.830126562021663,-1.072526074743536,0.2545190605430497,6.618411939786994,1.9111276261252628,0,2024-09-27 16:25:39.494609131,1727454339.4946094,2024-09-27 16:25:39.494609408,1,0.0,0.1,1.8209306240276917,[0.94401186 0.05598814],[0.94401186 0.05598814],"[ 0.72222222  0.3125      0.5078125   1.          0.          1.
  1.          0.          1.          0.19335938 -0.3         0.33333333]",0.19853627465370277,0,0
157,161,2024-09-27 16:25:40.961273856,TASK_BEGIN,21,0.4915383766599698,0.0198418929122648,-3.3386365862523677,1.845668357217838,-0.9713296779776072,0.2240851636044905,6.607227026453678,2.0137611241815896,0,2024-09-27 16:25:40.712388916,1727454340.7123895,2024-09-27 16:25:40.712389376,1,1.0,-0.5,-2.1631915203189136,[0.14741765 0.85258235],[0.14741765 0.85258235],"[ 0.38888889  0.3125      0.5078125   0.88888889  0.29296875  0.48828125
  1.          0.          1.         -0.02929688 -0.8         0.5       ]",0.32175597023221003,1,2
158,162,2024-09-27 16:25:41.028491008,TASK_BEGIN,21,0.5181677682306686,0.0065825599044497,-3.254769240632206,1.8698313562865727,-0.8952449631258208,0.1958633067258379,6.654283198087291,2.0947799888116974,0,2024-09-27 16:25:40.712388916,1727454340.7123895,2024-09-27 16:25:40.712389376,1,1.0,-0.5,-2.1631915203189136,[0.14741765 0.85258235],[0.14741765 0.85258235],"[ 0.38888889  0.3125      0.5078125   0.88888889  0.29296875  0.48828125
  1.          0.          1.         -0.02929688 -0.8         0.5       ]",0.32175597023221003,1,2
159,163,2024-09-27 16:25:41.083298816,TASK_BEGIN,21,0.5466365285008403,-0.0078629598030098,-3.1547073552096485,1.9013134669526928,-0.8454500459716269,0.1705751555731254,6.77513372808615,2.145084651335027,0,2024-09-27 16:25:40.712388916,1727454340.7123895,2024-09-27 16:25:40.712389376,1,1.0,-0.5,-2.1631915203189136,[0.14741765 0.85258235],[0.14741765 0.85258235],"[ 0.38888889  0.3125      0.5078125   0.88888889  0.29296875  0.48828125
  1.          0.          1.         -0.02929688 -0.8         0.5       ]",0.32175597023221003,1,2
160,164,2024-09-27 16:25:41.160527104,TASK_BEGIN,21,0.5771053601443094,-0.0232134942676893,-3.0433080530536274,1.9378586542903136,-0.8217679086138812,0.1489361690550242,6.975636545555,2.159482679321272,0,2024-09-27 16:25:40.712388916,1727454340.7123895,2024-09-27 16:25:40.712389376,1,1.0,-0.5,-2.1631915203189136,[0.14741765 0.85258235],[0.14741765 0.85258235],"[ 0.38888889  0.3125      0.5078125   0.88888889  0.29296875  0.48828125
  1.          0.          1.         -0.02929688 -0.8         0.5       ]",0.32175597023221003,1,2
161,165,2024-09-27 16:25:41.222596864,TASK_BEGIN,21,0.6095544752917061,-0.0391606884167142,-2.9253015080111617,1.976436288586268,-0.8228681608233962,0.1316993144106808,7.250886184233254,2.137331489814472,0,2024-09-27 16:25:40.712388916,1727454340.7123895,2024-09-27 16:25:40.712389376,1,1.0,-0.5,-2.1631915203189136,[0.14741765 0.85258235],[0.14741765 0.85258235],"[ 0.38888889  0.3125      0.5078125   0.88888889  0.29296875  0.48828125
  1.          0.          1.         -0.02929688 -0.8         0.5       ]",0.32175597023221003,1,2
162,166,2024-09-27 16:25:41.299814912,TASK_BEGIN,21,0.6437676674513306,-0.0553769024421091,-2.804925812284216,2.01358343726954,-0.8463717309705192,0.1196234943747418,7.585924581015954,2.0823314143812124,0,2024-09-27 16:25:40.712388916,1727454340.7123895,2024-09-27 16:25:40.712389376,1,1.0,-0.5,-2.1631915203189136,[0.14741765 0.85258235],[0.14741765 0.85258235],"[ 0.38888889  0.3125      0.5078125   0.88888889  0.29296875  0.48828125
  1.          0.          1.         -0.02929688 -0.8         0.5       ]",0.32175597023221003,1,2
163,167,2024-09-27 16:25:41.367372032,TASK_BEGIN,21,0.6792910652045866,-0.071517337344834,-2.685707946874426,2.0458462633482606,-0.8888819137788669,0.1133648892697022,7.958330537956162,2.001363302255785,0,2024-09-27 16:25:40.913884033,1727454340.9138842,2024-09-27 16:25:40.913884160,1,0.0,-0.5,-4.048152643284182,[0.68004965 0.31995035],[0.68004965 0.31995035],"[ 0.33333333  0.3125      0.5078125   0.83333333  0.29296875  0.48828125
  1.          0.          1.         -0.08398438 -0.7         0.46666667]",0.09760895792822588,1,2
164,172,2024-09-27 16:25:42.580962816,TASK_BEGIN,21,0.8440738509863369,-0.1375699240365273,-2.166838167316756,2.0559554328987883,-1.2333894288722969,0.1723104876796273,9.536486926541851,1.461674295563391,0,2024-09-27 16:25:42.568221191,1727454342.5682213,2024-09-27 16:25:42.568221440,2,1.0,0.1,0.1,[0.38959824 0.61040176],[0.38959824 0.61040176],"[ 0.98611111  0.3125      0.5078125   1.          0.          1.
  1.          0.          1.          0.4609375  -0.8         0.5       ]",0.0231942842010815,0,0
165,173,2024-09-27 16:25:42.649871104,TASK_BEGIN,21,0.8668674749247828,-0.1450218012502727,-2.0813451626595576,2.023933651094417,-1.3009941588788942,0.1974992440178379,9.676784688994822,1.3552752545654008,0,2024-09-27 16:25:42.617243164,1727454342.617244,2024-09-27 16:25:42.617243904,2,1.0,0.1,0.199,[0.3677225 0.6322775],[0.3677225 0.6322775],"[ 0.97222222  0.3125      0.5078125   1.          0.          1.
  1.          0.          1.          0.4453125  -0.8         0.5       ]",0.0328252071563779,0,0
166,174,2024-09-27 16:25:42.717551104,TASK_BEGIN,21,0.8843071064998439,-0.1496940345260876,-2.00168395326801,1.9833350273369588,-1.3615367384292223,0.223945147206661,9.745083014551852,1.2504342388549925,0,2024-09-27 16:25:42.668207764,1727454342.6682081,2024-09-27 16:25:42.668208128,2,1.0,0.1,0.29701,[0.35778312 0.64221688],[0.35778312 0.64221688],"[ 0.95833333  0.3125      0.5078125   1.          0.          1.
  1.          0.          1.          0.4296875  -0.8         0.5       ]",0.03763683074417045,0,0
167,175,2024-09-27 16:25:43.661451264,TASK_BEGIN,21,0.8960984900923242,-0.1513228830208684,-1.927928713568423,1.9370631315967568,-1.4132146098209108,0.2498734255067736,9.749863292862388,1.145206099245482,0,2024-09-27 16:25:43.637211182,1727454343.6372108,2024-09-27 16:25:43.637210880,2,0.0,0.1,1.9836941046095409,[0.99801866 0.00198134],[0.99801866 0.00198134],"[ 0.69444444  0.3125      0.5078125   1.          0.          1.
  1.          0.          1.          0.1875     -0.1         0.26666667]",0.32695000679866404,0,0
168,176,2024-09-27 16:25:43.726222848,TASK_BEGIN,21,0.9022836708916396,-0.149737556136901,-1.8606982529656344,1.8887225733110595,-1.4544803121504943,0.273552631765058,9.708721849658582,1.036924830190504,0,2024-09-27 16:25:43.688208984,1727454343.68821,2024-09-27 16:25:43.688209920,2,0.0,0.1,2.0638571635634455,[9.99668980e-01 3.31020066e-04],[9.99668980e-01 3.31020066e-04],"[0.68055556 0.3125     0.5078125  1.         0.         1.
 1.         0.         1.         0.1875     0.         0.23333333]",0.3292200073887919,0,0
169,177,2024-09-27 16:25:43.788370176,TASK_BEGIN,21,0.9032010104977932,-0.1448846779994677,-1.8011962838894566,1.8422552180821508,-1.483780756647333,0.2933960565213589,9.647403280205264,0.9225003962269552,0,2024-09-27 16:25:43.688208984,1727454343.68821,2024-09-27 16:25:43.688209920,2,0.0,0.1,2.0638571635634455,[9.99668980e-01 3.31020066e-04],[9.99668980e-01 3.31020066e-04],"[0.68055556 0.3125     0.5078125  1.         0.         1.
 1.         0.         1.         0.1875     0.         0.23333333]",0.3292200073887919,0,0
170,178,2024-09-27 16:25:43.863845888,TASK_BEGIN,21,0.899434093274034,-0.1368531348558219,-1.7511103128502674,1.8014485469993728,-1.4993443947346257,0.3080282941380189,9.596405393924192,0.7990448722399729,0,2024-09-27 16:25:43.688208984,1727454343.68821,2024-09-27 16:25:43.688209920,2,0.0,0.1,2.0638571635634455,[9.99668980e-01 3.31020066e-04],[9.99668980e-01 3.31020066e-04],"[0.68055556 0.3125     0.5078125  1.         0.         1.
 1.         0.         1.         0.1875     0.         0.23333333]",0.3292200073887919,0,0
171,179,2024-09-27 16:25:43.932382976,TASK_BEGIN,21,0.8917656289599815,-0.1258891701941203,-1.712533199404746,1.7694922247964182,-1.4991356095180817,0.3163565956456114,9.586343746159562,0.664673008530486,0,2024-09-27 16:25:43.688208984,1727454343.68821,2024-09-27 16:25:43.688209920,2,0.0,0.1,2.0638571635634455,[9.99668980e-01 3.31020066e-04],[9.99668980e-01 3.31020066e-04],"[0.68055556 0.3125     0.5078125  1.         0.         1.
 1.         0.         1.         0.1875     0.         0.23333333]",0.3292200073887919,0,0
172,180,2024-09-27 16:25:43.999728896,TASK_BEGIN,21,0.8811364562515219,-0.1123957477162299,-1.6879576348599103,1.748710489600571,-1.480992237599065,0.3176692847486866,9.643507171842108,0.5191867054287582,0,2024-09-27 16:25:43.688208984,1727454343.68821,2024-09-27 16:25:43.688209920,2,0.0,0.1,2.0638571635634455,[9.99668980e-01 3.31020066e-04],[9.99668980e-01 3.31020066e-04],"[0.68055556 0.3125     0.5078125  1.         0.         1.
 1.         0.         1.         0.1875     0.         0.23333333]",0.3292200073887919,0,0
173,181,2024-09-27 16:25:44.067728896,TASK_BEGIN,21,0.8686027834019581,-0.096920097847209,-1.680314512829016,1.7404741446179768,-1.442903270216015,0.3117383830540301,9.786401220052138,0.3644593754958894,0,2024-09-27 16:25:43.688208984,1727454343.68821,2024-09-27 16:25:43.688209920,2,0.0,0.1,2.0638571635634455,[9.99668980e-01 3.31020066e-04],[9.99668980e-01 3.31020066e-04],"[0.68055556 0.3125     0.5078125  1.         0.         1.
 1.         0.         1.         0.1875     0.         0.23333333]",0.3292200073887919,0,0
174,182,2024-09-27 16:25:45.011507968,TASK_BEGIN,21,0.8552774170044504,-0.0801301867511086,-1.6929190464540065,1.7451949359765109,-1.3833689765634496,0.2988814666558013,10.02372013593223,0.2044715494712044,0,2024-09-27 16:25:44.552681885,1727454344.5526826,2024-09-27 16:25:44.552682752,2,0.0,0.1,3.310282414303197,[0.98292641 0.01707359],[0.98292641 0.01707359],"[ 0.44444444  0.3125      0.5078125   0.94444444  0.2734375   0.46875
  1.          0.          1.          0.43164062  1.         -0.33333333]",0.5545640799195546,0,0
175,183,2024-09-27 16:25:45.066626048,TASK_BEGIN,21,0.8422489969237265,-0.0627728083458721,-1.7291125357633887,1.76230219560029,-1.301777162043082,0.2799568245294867,10.35394491863282,0.0450376758840931,0,2024-09-27 16:25:44.552681885,1727454344.5526826,2024-09-27 16:25:44.552682752,2,0.0,0.1,3.310282414303197,[0.98292641 0.01707359],[0.98292641 0.01707359],"[ 0.44444444  0.3125      0.5078125   0.94444444  0.2734375   0.46875
  1.          0.          1.          0.43164062  1.         -0.33333333]",0.5545640799195546,0,0
176,184,2024-09-27 16:25:45.143915008,TASK_BEGIN,21,0.8304906952290041,-0.0456095777962832,-1.791587232053991,1.7902094272767397,-1.1987375751522982,0.2562946331897611,10.76621656146336,-0.1066634020379538,0,2024-09-27 16:25:44.552681885,1727454344.5526826,2024-09-27 16:25:44.552682752,2,0.0,0.1,3.310282414303197,[0.98292641 0.01707359],[0.98292641 0.01707359],"[ 0.44444444  0.3125      0.5078125   0.94444444  0.2734375   0.46875
  1.          0.          1.          0.43164062  1.         -0.33333333]",0.5545640799195546,0,0
177,185,2024-09-27 16:25:45.205969920,TASK_BEGIN,21,0.8207750603863847,-0.0293396035530495,-1.881705481423167,1.8263832416920545,-1.076290328568002,0.2295717266381948,11.241806795060494,-0.2426213879217886,0,2024-09-27 16:25:44.806514893,1727454344.806516,2024-09-27 16:25:44.806515968,2,0.0,0.1,3.63814513936129,[0.99417063 0.00582937],[0.99417063 0.00582937],"[ 0.375       0.3125      0.5078125   0.875       0.2734375   0.46875
  1.          0.          1.          0.40039062 -0.5         0.4       ]",0.34362681324315114,0,0
178,186,2024-09-27 16:25:45.281647872,TASK_BEGIN,21,0.8135996574514619,-0.0145263581027562,-1.999146915100036,1.867603346154738,-0.9378605581716132,0.2016347975627241,11.7557985587635,-0.3545439872409868,0,2024-09-27 16:25:45.265516113,1727454345.2655168,2024-09-27 16:25:45.265516800,2,0.0,0.1,4.1883358588189035,[9.99918269e-01 8.17307310e-05],[9.99918269e-01 8.17307310e-05],"[0.25       0.3125     0.5078125  0.75       0.2734375  0.46875
 1.         0.         1.         0.40039062 0.4        0.1       ]",0.4594634551614459,0,0
179,187,2024-09-27 16:25:45.345784832,TASK_BEGIN,21,0.8091230588371413,-0.001546844139873,-2.141892158160036,1.9103695145608648,-0.7878947054751376,0.1742924481505375,12.27904124921069,-0.4344865682170956,0,2024-09-27 16:25:45.316515869,1727454345.3165166,2024-09-27 16:25:45.316516608,2,0.0,0.1,4.246452500230714,[0.99515041 0.00484959],[0.99515041 0.00484959],"[0.23611111 0.3125     0.5078125  0.73611111 0.2734375  0.46875
 1.         0.         1.         0.41015625 0.5        0.06666667]",0.6204198799100131,1,2
180,188,2024-09-27 16:25:45.408272896,TASK_BEGIN,21,0.8071348224777146,0.0094255778951751,-2.306274539006909,1.9513109606003,-0.6312895334340155,0.149120624792587,12.780621556811564,-0.475625867449245,0,2024-09-27 16:25:45.316515869,1727454345.3165166,2024-09-27 16:25:45.316516608,2,0.0,0.1,4.246452500230714,[0.99515041 0.00484959],[0.99515041 0.00484959],"[0.23611111 0.3125     0.5078125  0.73611111 0.2734375  0.46875
 1.         0.         1.         0.41015625 0.5        0.06666667]",0.6204198799100131,1,2
181,189,2024-09-27 16:25:46.337111040,TASK_BEGIN,21,0.8071001928335134,0.0184054591286739,-2.4869145871721186,1.9874892618543196,-0.4728587063172692,0.1273298409213898,13.230759684569744,-0.4731077372070346,0,2024-09-27 16:25:45.822863037,1727454345.8228636,2024-09-27 16:25:45.822863616,2,1.0,-1.0,4.561131182496932,[0.71136619 0.28863381],[0.95101427 0.04898573],"[ 0.09722222  0.3125      0.5078125   0.59722222  0.2734375   0.46875
  1.          0.          1.          0.30664062 -0.8         0.5       ]",0.10573374900528042,1,2
182,190,2024-09-27 16:25:46.404849152,TASK_BEGIN,21,0.8082859664920754,0.0255565766768397,-2.67663632293773,2.01659153540801,-0.3170563897339009,0.1097152211637411,13.603352212417764,-0.4247376121899142,0,2024-09-27 16:25:45.822863037,1727454345.8228636,2024-09-27 16:25:45.822863616,2,1.0,-1.0,4.561131182496932,[0.71136619 0.28863381],[0.95101427 0.04898573],"[ 0.09722222  0.3125      0.5078125   0.59722222  0.2734375   0.46875
  1.          0.          1.          0.30664062 -0.8         0.5       ]",0.10573374900528042,1,2
183,196,2024-09-27 16:25:47.687025152,TASK_BEGIN,21,0.8033150414485176,0.0469093314983141,-3.465598032469299,2.010115666104193,0.3196775401088142,0.0982501693256893,13.488954382101628,0.592486140819051,0,2024-09-27 16:25:47.678390137,1727454347.6783907,2024-09-27 16:25:47.678390784,3,1.0,0.1,0.6793465209301,[0.31864622 0.68135378],[0.31864622 0.68135378],"[ 0.90277778  0.29296875  0.48828125  1.          0.          1.
  1.          0.          1.          0.3671875  -0.8         0.5       ]",0.06022115609247141,0,0
184,197,2024-09-27 16:25:47.754759936,TASK_BEGIN,21,0.7968363941197917,0.0494686025699586,-3.45692209041702,1.9865501965896648,0.3355609759002818,0.1099698865262139,13.106196165246764,0.797967197740207,0,2024-09-27 16:25:47.729388916,1727454347.729389,2024-09-27 16:25:47.729389056,3,1.0,0.1,0.7725530557207989,[0.30449147 0.69550853],[0.30449147 0.69550853],"[ 0.88888889  0.29296875  0.48828125  1.          0.          1.
  1.          0.          1.          0.3515625  -0.8         0.5       ]",0.07030200785845474,0,0
185,198,2024-09-27 16:25:47.811089152,TASK_BEGIN,21,0.7889899639706787,0.0520379139374298,-3.3966202612908494,1.9605033168932469,0.3189237455788543,0.1244055917548853,12.669220238828128,0.9833041052979749,0,2024-09-27 16:25:47.780390137,1727454347.780391,2024-09-27 16:25:47.780390912,3,1.0,0.1,0.8648275251635908,[0.30006253 0.69993747],[0.30006253 0.69993747],"[ 0.875       0.29296875  0.48828125  1.          0.          1.
  1.          0.          1.          0.3359375  -0.8         0.5       ]",0.07185327322147068,0,0
186,199,2024-09-27 16:25:47.887917056,TASK_BEGIN,21,0.7803689732057921,0.0544610146506422,-3.286984183868121,1.9336564277443624,0.2714167788622347,0.1408084407408498,12.206647456684593,1.137902519206358,0,2024-09-27 16:25:47.831424072,1727454347.8314245,2024-09-27 16:25:47.831424512,3,1.0,0.1,0.9561792499119549,[0.28822894 0.71177106],[0.28822894 0.71177106],"[ 0.86111111  0.29296875  0.48828125  1.          0.          1.
  1.          0.          1.          0.3203125  -0.8         0.5       ]",0.07828799271495378,0,0
187,200,2024-09-27 16:25:47.949976832,TASK_BEGIN,21,0.7716364087936541,0.0564707001239634,-3.133545112291849,1.9077799145062655,0.196754198603169,0.1582783679213655,11.747485763480816,1.2530820872440611,0,2024-09-27 16:25:47.831424072,1727454347.8314245,2024-09-27 16:25:47.831424512,3,1.0,0.1,0.9561792499119549,[0.28822894 0.71177106],[0.28822894 0.71177106],"[ 0.86111111  0.29296875  0.48828125  1.          0.          1.
  1.          0.          1.          0.3203125  -0.8         0.5       ]",0.07828799271495378,0,0
188,201,2024-09-27 16:25:48.025437952,TASK_BEGIN,21,0.7634699237901228,0.0577187809310497,-2.944956112179137,1.8847085998273,0.1001627148235116,0.1758285916921431,11.319431992864972,1.322853911749331,0,2024-09-27 16:25:47.831424072,1727454347.8314245,2024-09-27 16:25:47.831424512,3,1.0,0.1,0.9561792499119549,[0.28822894 0.71177106],[0.28822894 0.71177106],"[ 0.86111111  0.29296875  0.48828125  1.          0.          1.
  1.          0.          1.          0.3203125  -0.8         0.5       ]",0.07828799271495378,0,0
189,202,2024-09-27 16:25:48.089207040,TASK_BEGIN,21,0.7565404510132028,0.0578130794957099,-2.7324999176927323,1.8662125625589825,-0.0123824171115348,0.1924868418006017,10.946917949782582,1.344569964755761,0,2024-09-27 16:25:47.831424072,1727454347.8314245,2024-09-27 16:25:47.831424512,3,1.0,0.1,0.9561792499119549,[0.28822894 0.71177106],[0.28822894 0.71177106],"[ 0.86111111  0.29296875  0.48828125  1.          0.          1.
  1.          0.          1.          0.3203125  -0.8         0.5       ]",0.07828799271495378,0,0
190,203,2024-09-27 16:25:49.029267968,TASK_BEGIN,21,0.7514681787346355,0.0563651940862217,-2.5090200741564743,1.8537076008124491,-0.1349352340091895,0.2074013071331679,10.648791258017498,1.319339718427106,0,2024-09-27 16:25:48.492723877,1727454348.4927242,2024-09-27 16:25:48.492724224,3,0.0,0.1,2.0638571635634455,[9.99211035e-01 7.88965175e-04],[9.99211035e-01 7.88965175e-04],"[ 0.68055556  0.29296875  0.48828125  1.          0.          1.
  1.          0.          1.          0.15820312 -0.2         0.3       ]",0.3284626083907495,0,0
191,204,2024-09-27 16:25:49.091273984,TASK_BEGIN,21,0.748729388377938,0.0530501994598691,-2.287479620962988,1.847861068531503,-0.2621329656942578,0.2199102642832719,10.436396115890576,1.2520081085840675,0,2024-09-27 16:25:48.543721924,1727454348.5437222,2024-09-27 16:25:48.543722240,3,0.0,0.1,2.1432185919278113,[9.99889789e-01 1.10211304e-04],[9.99889789e-01 1.10211304e-04],"[ 0.66666667  0.29296875  0.48828125  1.          0.          1.
  1.          0.          1.          0.15625    -0.1         0.26666667]",0.3264715545455558,0,0
192,205,2024-09-27 16:25:49.168466176,TASK_BEGIN,21,0.7485472278497086,0.0476699487174333,-2.0797667808256217,1.848299255631051,-0.38938402715926,0.2295546428065043,10.312725765410216,1.1506050000632664,0,2024-09-27 16:25:49.102770996,1727454349.1027715,2024-09-27 16:25:49.102771456,3,0.0,0.1,2.965523050004307,[1.00000000e+00 4.05459193e-10],[1.00000000e+00 4.05459193e-10],"[ 0.51388889  0.29296875  0.48828125  1.          0.          1.
  1.          0.          1.          0.26367188  1.         -0.1       ]",0.33148191292773305,0,0
193,206,2024-09-27 16:25:49.230503168,TASK_BEGIN,21,0.7508171474848675,0.0402046387873665,-1.8961460555895997,1.853627133846261,-0.5127778479307564,0.2360533940450425,10.27244667057612,1.0254578640237844,0,2024-09-27 16:25:49.102770996,1727454349.1027715,2024-09-27 16:25:49.102771456,3,0.0,0.1,2.965523050004307,[1.00000000e+00 4.05459193e-10],[1.00000000e+00 4.05459193e-10],"[ 0.51388889  0.29296875  0.48828125  1.          0.          1.
  1.          0.          1.          0.26367188  1.         -0.1       ]",0.33148191292773305,0,0
194,207,2024-09-27 16:25:49.307749120,TASK_BEGIN,21,0.7550911677940947,0.0308352702360487,-1.7451627216311247,1.8617894486409383,-0.6289399060133413,0.2392813827137589,10.302292166607456,0.8882288060832015,0,2024-09-27 16:25:49.102770996,1727454349.1027715,2024-09-27 16:25:49.102771456,3,0.0,0.1,2.965523050004307,[1.00000000e+00 4.05459193e-10],[1.00000000e+00 4.05459193e-10],"[ 0.51388889  0.29296875  0.48828125  1.          0.          1.
  1.          0.          1.          0.26367188  1.         -0.1       ]",0.33148191292773305,0,0
195,208,2024-09-27 16:25:49.370337024,TASK_BEGIN,21,0.7606227464712072,0.0199279553247295,-1.633574055477771,1.8705858463813383,-0.7349426720603738,0.2392630556438799,10.3818929258243,0.7509538494574347,0,2024-09-27 16:25:49.356988037,1727454349.3569882,2024-09-27 16:25:49.356988160,3,0.0,0.1,3.310282414303197,[9.99999913e-01 8.67703975e-08],[9.99999913e-01 8.67703975e-08],"[ 0.44444444  0.29296875  0.48828125  0.94444444  0.29296875  0.48828125
  1.          0.          1.          0.36132812  1.         -0.26666667]",0.35371311692947394,0,0
196,209,2024-09-27 16:25:49.433125888,TASK_BEGIN,21,0.7664648977237908,0.0079903243595189,-1.566041794241007,1.878081827004524,-0.8282174666560606,0.2361583751108067,10.485457188963348,0.625062666236382,0,2024-09-27 16:25:49.407822998,1727454349.4078236,2024-09-27 16:25:49.407823616,3,0.0,0.1,3.377179590160165,[9.99992313e-01 7.68679408e-06],[9.99992313e-01 7.68679408e-06],"[ 0.43055556  0.29296875  0.48828125  0.93055556  0.29296875  0.48828125
  1.          0.          1.          0.38085938  1.         -0.3       ]",0.46794679610826456,0,0
197,210,2024-09-27 16:25:50.350126848,TASK_BEGIN,21,0.7715964077609525,-0.0043783062062792,-1.5446024683721056,1.8827876068415397,-0.9064278113798464,0.2302221286319164,10.584563380955055,0.5204335731531576,0,2024-09-27 16:25:50.268265869,1727454350.2682667,2024-09-27 16:25:50.268266752,3,0.0,0.1,4.417338614521361,[0.99206103 0.00793897],[0.99206103 0.00793897],"[0.19444444 0.29296875 0.48828125 0.69444444 0.29296875 0.48828125
 1.         0.         1.         0.390625   0.6        0.03333333]",0.6147078162156477,0,0
198,211,2024-09-27 16:25:50.430468096,TASK_BEGIN,21,0.7750373467598458,-0.0165308009774745,-1.568167283749199,1.8836652956078797,-0.9673763303669388,0.2217521794330505,10.651992677254304,0.4446099840611178,0,2024-09-27 16:25:50.268265869,1727454350.2682667,2024-09-27 16:25:50.268266752,3,0.0,0.1,4.417338614521361,[0.99206103 0.00793897],[0.99206103 0.00793897],"[0.19444444 0.29296875 0.48828125 0.69444444 0.29296875 0.48828125
 1.         0.         1.         0.390625   0.6        0.03333333]",0.6147078162156477,0,0
199,212,2024-09-27 16:25:50.498173184,TASK_BEGIN,21,0.7759316403215955,-0.0278119535525369,-1.6323173587108968,1.8800918865262068,-1.0090599490007397,0.211055692353915,10.665629136184217,0.4023476121100568,0,2024-09-27 16:25:50.268265869,1727454350.2682667,2024-09-27 16:25:50.268266752,3,0.0,0.1,4.417338614521361,[0.99206103 0.00793897],[0.99206103 0.00793897],"[0.19444444 0.29296875 0.48828125 0.69444444 0.29296875 0.48828125
 1.         0.         1.         0.390625   0.6        0.03333333]",0.6147078162156477,0,0
200,213,2024-09-27 16:25:50.565902848,TASK_BEGIN,21,0.7736059196094135,-0.0375991055077983,-1.729507894594994,1.8718485026737284,-1.0299196721552577,0.1984403149703119,10.610816616980298,0.3956386038464991,0,2024-09-27 16:25:50.268265869,1727454350.2682667,2024-09-27 16:25:50.268266752,3,0.0,0.1,4.417338614521361,[0.99206103 0.00793897],[0.99206103 0.00793897],"[0.19444444 0.29296875 0.48828125 0.69444444 0.29296875 0.48828125
 1.         0.         1.         0.390625   0.6        0.03333333]",0.6147078162156477,0,0
201,214,2024-09-27 16:25:50.633625088,TASK_BEGIN,21,0.7676266626603588,-0.0453481713938366,-1.8496729582777391,1.8591261722392471,-1.0291588398931166,0.184210706023283,10.480670952908913,0.424114100970243,0,2024-09-27 16:25:50.268265869,1727454350.2682667,2024-09-27 16:25:50.268266752,3,0.0,0.1,4.417338614521361,[0.99206103 0.00793897],[0.99206103 0.00793897],"[0.19444444 0.29296875 0.48828125 0.69444444 0.29296875 0.48828125
 1.         0.         1.         0.390625   0.6        0.03333333]",0.6147078162156477,0,0
202,215,2024-09-27 16:25:50.700936960,TASK_BEGIN,21,0.7578665705472714,-0.0506491047112203,-1.98114221791426,1.8425100619966857,-1.0068920310423128,0.1686510998724503,10.275341913063832,0.485502586629833,0,2024-09-27 16:25:50.268265869,1727454350.2682667,2024-09-27 16:25:50.268266752,3,0.0,0.1,4.417338614521361,[0.99206103 0.00793897],[0.99206103 0.00793897],"[0.19444444 0.29296875 0.48828125 0.69444444 0.29296875 0.48828125
 1.         0.         1.         0.390625   0.6        0.03333333]",0.6147078162156477,0,0
203,216,2024-09-27 16:25:50.768976896,TASK_BEGIN,21,0.7445706164409803,-0.0532862101380565,-2.1117163770174945,1.822937172458858,-0.9640186056551252,0.1519998187151709,10.00112162069821,0.5759531754573735,0,2024-09-27 16:25:50.268265869,1727454350.2682667,2024-09-27 16:25:50.268266752,3,0.0,0.1,4.417338614521361,[0.99206103 0.00793897],[0.99206103 0.00793897],"[0.19444444 0.29296875 0.48828125 0.69444444 0.29296875 0.48828125
 1.         0.         1.         0.390625   0.6        0.03333333]",0.6147078162156477,0,0
204,217,2024-09-27 16:25:51.703499008,TASK_BEGIN,21,0.7283909518040671,-0.0532850234383934,-2.229777225816608,1.801651733711629,-0.9019396175676504,0.1344414369633113,9.669570204518395,0.6902695432050202,0,2024-09-27 16:25:51.232687012,1727454351.2326877,2024-09-27 16:25:51.232687616,3,0.0,0.1,6.154092319804425,[0.96795365 0.03204635],[0.96795365 0.03204635],"[-0.06944444  0.29296875  0.48828125  0.43055556  0.29296875  0.48828125
  0.93055556  0.234375    0.4296875   0.421875    0.9        -0.06666667]",0.5798930734458424,0,0
205,218,2024-09-27 16:25:51.765530112,TASK_BEGIN,21,0.7103543788521964,-0.0509244800384699,-2.325367590431946,1.780160058568779,-0.8223144917398039,0.116132502118133,9.296625110774974,0.8221484706257525,0,2024-09-27 16:25:51.232687012,1727454351.2326877,2024-09-27 16:25:51.232687616,3,0.0,0.1,6.154092319804425,[0.96795365 0.03204635],[0.96795365 0.03204635],"[-0.06944444  0.29296875  0.48828125  0.43055556  0.29296875  0.48828125
  0.93055556  0.234375    0.4296875   0.421875    0.9        -0.06666667]",0.5798930734458424,0,0
206,219,2024-09-27 16:25:51.848160000,TASK_BEGIN,21,0.6917570663859474,-0.0467082330793327,-2.391101758680072,1.7601536094093606,-0.7269898236037428,0.0972495704762071,8.901570168046646,0.9644766478201388,0,2024-09-27 16:25:51.486671875,1727454351.4866722,2024-09-27 16:25:51.486672128,3,1.0,0.1,6.342580063300015,[0.19263159 0.80736841],[0.19263159 0.80736841],"[-0.13888889  0.29296875  0.48828125  0.36111111  0.29296875  0.48828125
  0.86111111  0.234375    0.4296875   0.37890625 -0.8         0.5       ]",0.3921919956121412,0,0
207,220,2024-09-27 16:25:51.915887104,TASK_BEGIN,21,0.6740260140112599,-0.0413080524651366,-2.422675095069957,1.743370981526565,-0.6180911758348897,0.0780312823652148,8.505861615561171,1.109670716738009,0,2024-09-27 16:25:51.486671875,1727454351.4866722,2024-09-27 16:25:51.486672128,3,1.0,0.1,6.342580063300015,[0.19263159 0.80736841],[0.19263159 0.80736841],"[-0.13888889  0.29296875  0.48828125  0.36111111  0.29296875  0.48828125
  0.86111111  0.234375    0.4296875   0.37890625 -0.8         0.5       ]",0.3921919956121412,0,0
208,221,2024-09-27 16:25:51.982416128,TASK_BEGIN,21,0.6585975648883455,-0.0354967656621842,-2.4188164900676545,1.7313876887397732,-0.4981225549360458,0.0587861530933559,8.132231644061784,1.249976040411422,0,2024-09-27 16:25:51.486671875,1727454351.4866722,2024-09-27 16:25:51.486672128,3,1.0,0.1,6.342580063300015,[0.19263159 0.80736841],[0.19263159 0.80736841],"[-0.13888889  0.29296875  0.48828125  0.36111111  0.29296875  0.48828125
  0.86111111  0.234375    0.4296875   0.37890625 -0.8         0.5       ]",0.3921919956121412,0,0
209,222,2024-09-27 16:25:52.049560064,TASK_BEGIN,21,0.646836108461235,-0.0300807894285257,-2.380711677607253,1.7253590355365178,-0.3699309210158532,0.039858238638195,7.804278405010296,1.3776996471781038,0,2024-09-27 16:25:51.486671875,1727454351.4866722,2024-09-27 16:25:51.486672128,3,1.0,0.1,6.342580063300015,[0.19263159 0.80736841],[0.19263159 0.80736841],"[-0.13888889  0.29296875  0.48828125  0.36111111  0.29296875  0.48828125
  0.86111111  0.234375    0.4296875   0.37890625 -0.8         0.5       ]",0.3921919956121412,0,0
210,223,2024-09-27 16:25:52.107429888,TASK_BEGIN,21,0.6399837389758011,-0.0258367239401887,-2.311168673241716,1.7258237771626923,-0.2365729578371757,0.0215831238439524,7.545844741420152,1.4854970174904525,0,2024-09-27 16:25:51.638708008,1727454351.6387088,2024-09-27 16:25:51.638708736,3,0.0,0.1,6.45120909283994,[0.99898414 0.00101586],[0.99898414 0.00101586],"[-0.18055556  0.29296875  0.48828125  0.31944444  0.29296875  0.48828125
  0.81944444  0.234375    0.4296875   0.34375    -0.5         0.4       ]",0.34768916373617526,0,0
211,224,2024-09-27 16:25:53.062899200,TASK_BEGIN,21,0.6391147017577309,-0.0234561323931592,-2.2139623009446527,1.732708154915344,-0.1012399262671965,0.0042846591156111,7.379285070467192,1.5668579167413068,0,2024-09-27 16:25:53.063672119,1727454353.0636725,2024-09-27 16:25:53.063672576,3,0.0,0.1,8.087971050098806,[9.99997977e-01 2.02285216e-06],[9.99997977e-01 2.02285216e-06],"[-0.06944444  0.29296875  0.48828125  0.43055556  0.234375    0.4296875
  1.          0.          1.          0.36523438  0.6         0.03333333]",0.38795009838067823,0,0
212,225,2024-09-27 16:25:53.130648064,TASK_BEGIN,21,0.6450700218099885,-0.0235022413687352,-2.093571622026184,1.7455321761216327,0.0326972724006281,-0.0116775250377126,7.32272265485969,1.6167719676543244,0,2024-09-27 16:25:53.114715088,1727454353.1147149,2024-09-27 16:25:53.114714880,3,0.0,0.1,8.107091339597819,[9.99986570e-01 1.34300766e-05],[9.99986570e-01 1.34300766e-05],"[-0.08333333  0.29296875  0.48828125  0.41666667  0.234375    0.4296875
  0.99166667  0.234375    0.4296875   0.37890625  0.7         0.        ]",0.6529479612718277,0,0
213,226,2024-09-27 16:25:53.197371136,TASK_BEGIN,21,0.6583644227622878,-0.0263779677001215,-1.955068500351516,1.763639013038063,0.1616417904456827,-0.0258589968640494,7.387376082390643,1.6323463886084355,0,2024-09-27 16:25:53.114715088,1727454353.1147149,2024-09-27 16:25:53.114714880,3,0.0,0.1,8.107091339597819,[9.99986570e-01 1.34300766e-05],[9.99986570e-01 1.34300766e-05],"[-0.08333333  0.29296875  0.48828125  0.41666667  0.234375    0.4296875
  0.99166667  0.234375    0.4296875   0.37890625  0.7         0.        ]",0.6529479612718277,0,0
214,227,2024-09-27 16:25:53.266057984,TASK_BEGIN,21,0.6790821266165319,-0.0323002666115811,-1.8038322635173345,1.786265153804793,0.2818654252137053,-0.037739615928648,7.575975650158606,1.6131178867396008,0,2024-09-27 16:25:53.216698975,1727454353.2166998,2024-09-27 16:25:53.216699904,3,1.0,0.1,8.144760221939821,[0.08121139 0.91878861],[0.08121139 0.91878861],"[-0.11111111  0.29296875  0.48828125  0.38888889  0.234375    0.4296875
  0.96388889  0.234375    0.4296875   0.34765625 -0.8         0.5       ]",0.6575075475412799,0,0
215,228,2024-09-27 16:25:53.333798912,TASK_BEGIN,21,0.7068017379865218,-0.0412799686512603,-1.6451121104432826,1.8124307140885023,0.3896879610308726,-0.0467954398306428,7.882422531623873,1.560979666966858,0,2024-09-27 16:25:53.216698975,1727454353.2166998,2024-09-27 16:25:53.216699904,3,1.0,0.1,8.144760221939821,[0.08121139 0.91878861],[0.08121139 0.91878861],"[-0.11111111  0.29296875  0.48828125  0.38888889  0.234375    0.4296875
  0.96388889  0.234375    0.4296875   0.34765625 -0.8         0.5       ]",0.6575075475412799,0,0
216,229,2024-09-27 16:25:53.401509888,TASK_BEGIN,21,0.7405996624808872,-0.0531168091961649,-1.4837035337261613,1.8407833251665795,0.4815466292965649,-0.052576840847964,8.291938838882402,1.479845621511651,0,2024-09-27 16:25:53.216698975,1727454353.2166998,2024-09-27 16:25:53.216699904,3,1.0,0.1,8.144760221939821,[0.08121139 0.91878861],[0.08121139 0.91878861],"[-0.11111111  0.29296875  0.48828125  0.38888889  0.234375    0.4296875
  0.96388889  0.234375    0.4296875   0.34765625 -0.8         0.5       ]",0.6575075475412799,0,0
217,230,2024-09-27 16:25:53.469075968,TASK_BEGIN,21,0.7791588040303515,-0.0674223413160482,-1.323910641089872,1.869552935466574,0.5539776405742756,-0.0547498601738409,8.781082367992266,1.3752364983083505,0,2024-09-27 16:25:53.216698975,1727454353.2166998,2024-09-27 16:25:53.216699904,3,1.0,0.1,8.144760221939821,[0.08121139 0.91878861],[0.08121139 0.91878861],"[-0.11111111  0.29296875  0.48828125  0.38888889  0.234375    0.4296875
  0.96388889  0.234375    0.4296875   0.34765625 -0.8         0.5       ]",0.6575075475412799,0,0
218,231,2024-09-27 16:25:54.412002816,TASK_BEGIN,21,0.8209557671905948,-0.0836714658186659,-1.1697348508105896,1.8966578254390147,0.603807665222727,-0.0531222764452998,9.31834735287704,1.2538838245525696,0,2024-09-27 16:25:54.027689941,1727454354.0276902,2024-09-27 16:25:54.027690240,3,0.0,0.1,8.420341673726321,[0.99689923 0.00310077],[0.99689923 0.00310077],"[0.16666667 0.234375   0.4296875  0.74166667 0.234375   0.4296875
 1.         0.         1.         0.33203125 0.7        0.        ]",0.6047900147506748,0,0
219,232,2024-09-27 16:25:54.479690240,TASK_BEGIN,21,0.8644532711075669,-0.1012653302580005,-1.0251219277436916,1.919888306766108,0.6286735936551336,-0.0476849523474293,9.866636745400353,1.1233344317425686,0,2024-09-27 16:25:54.027689941,1727454354.0276902,2024-09-27 16:25:54.027690240,3,0.0,0.1,8.420341673726321,[0.99689923 0.00310077],[0.99689923 0.00310077],"[0.16666667 0.234375   0.4296875  0.74166667 0.234375   0.4296875
 1.         0.         1.         0.33203125 0.7        0.        ]",0.6047900147506748,0,0
220,233,2024-09-27 16:25:54.547429120,TASK_BEGIN,21,0.9082323603434406,-0.1195838396822735,-0.894207102745786,1.9371276317845012,0.6276075625930676,-0.0386566553133506,10.387373714484154,0.9915342271168556,0,2024-09-27 16:25:54.027689941,1727454354.0276902,2024-09-27 16:25:54.027690240,3,0.0,0.1,8.420341673726321,[0.99689923 0.00310077],[0.99689923 0.00310077],"[0.16666667 0.234375   0.4296875  0.74166667 0.234375   0.4296875
 1.         0.         1.         0.33203125 0.7        0.        ]",0.6047900147506748,0,0
221,234,2024-09-27 16:25:54.615111936,TASK_BEGIN,21,0.9510596486339842,-0.1380215607607303,-0.7815951277523412,1.9466445553063632,0.6014174550659042,-0.0265109012928183,10.844516462877444,0.8664175158289283,0,2024-09-27 16:25:54.027689941,1727454354.0276902,2024-09-27 16:25:54.027690240,3,0.0,0.1,8.420341673726321,[0.99689923 0.00310077],[0.99689923 0.00310077],"[0.16666667 0.234375   0.4296875  0.74166667 0.234375   0.4296875
 1.         0.         1.         0.33203125 0.7        0.        ]",0.6047900147506748,0,0
222,235,2024-09-27 16:25:54.682774784,TASK_BEGIN,21,0.991930366825784,-0.1560151515812322,-0.6925825365782314,1.9474464256568769,0.552811686900434,-0.0119794483860716,11.207258993810964,0.7555142626251633,0,2024-09-27 16:25:54.128671875,1727454354.128673,2024-09-27 16:25:54.128673024,3,1.0,0.1,9.342776874419167,[0.12730491 0.87269509],[0.12730491 0.87269509],"[ 0.13888889  0.234375    0.4296875   0.71388889  0.234375    0.4296875
  1.          0.          1.          0.33203125 -0.8         0.5       ]",0.4809830430288695,0,0
223,236,2024-09-27 16:25:54.750291968,TASK_BEGIN,21,1.0301019684889663,-0.1730650314057152,-0.6330695528507096,1.9395795465244323,0.4862597019100237,0.0039746078345522,11.45160977315664,0.665554566858855,0,2024-09-27 16:25:54.736109863,1727454354.7361104,2024-09-27 16:25:54.736110336,3,0.0,0.1,9.417447364143154,[9.99999844e-01 1.55907970e-07],[9.99999844e-01 1.55907970e-07],"[-0.02777778  0.234375    0.4296875   0.54722222  0.234375    0.4296875
  1.          0.          1.          0.296875    0.4         0.1       ]",0.3381409879645498,0,0
224,237,2024-09-27 16:25:54.807370240,TASK_BEGIN,21,1.0650837146171042,-0.1887446074755979,-0.6089775092808388,1.9242369209700427,0.4075629692208548,0.0202244889280072,11.561530940163962,0.6020780783264047,0,2024-09-27 16:25:54.787125000,1727454354.7871256,2024-09-27 16:25:54.787125504,3,0.0,0.1,9.423272890501721,[9.99999439e-01 5.61305672e-07],[9.99999439e-01 5.61305672e-07],"[-0.04166667  0.234375    0.4296875   0.53333333  0.234375    0.4296875
  1.          0.          1.          0.30664062  0.5         0.06666667]",0.35956738278471867,0,0
225,238,2024-09-27 16:25:55.762063104,TASK_BEGIN,21,1.0965662279317123,-0.2026991606669711,-0.6252456986857216,1.9036025007069373,0.3232192207494632,0.0355864938141932,11.529908302032265,0.5690827884895605,0,2024-09-27 16:25:55.194073975,1727454355.1940749,2024-09-27 16:25:55.194074880,3,1.0,0.1,9.46782811957771,[0.05841452 0.94158548],[0.05841452 0.94158548],"[-0.15277778  0.234375    0.4296875   0.42222222  0.234375    0.4296875
  0.92222222  0.29296875  0.48828125  0.33789062 -0.8         0.5       ]",0.7217441898555226,0,0
