,Unnamed: 0,time,MARKER,pid,L_O_DSI,L_D_DSI,L_O_DSphi,L_D_DSphi,R_O_DSI,R_D_DSI,R_O_DSphi,R_D_DSphi,trial_id,dateTimestamps,floatTimestamps,timestamps,episode,actions,rewards,discounted_rewards,chosen_actions,optimal_actions,desired_goal,states,continuous_optimal,binary_optimal,discrete_optimal
1,1,2024-09-28 16:50:04.669230848,TASK_BEGIN,23,-0.1470572169036757,-0.2730217168281104,-1.018174276177483,-0.03719812115834,0.0026639875751748,-0.0004846807891506,-0.9114997387732644,1.0133909866825312,2,2024-09-28 16:50:04.764794189,1727542204.764794,2024-09-28 16:50:04.764794112,0,"[0.0009765625, 0.0009765625, -0.0009765625, 0.0]",-1.0,-1.0,"[0.0009765625, 0.0009765625, -0.0009765625, 0.0]",[ 0.52064466 -0.99874455 -0.30477732  0.3137121 ],[1.29063608 0.77063697 0.43958478],"[ 1.34201128e+00  7.49129257e-01  5.34498328e-01  1.40598056e+00
  6.21998417e-01  4.24737381e-01  6.39692729e-02 -1.27130840e-01
 -1.09760947e-01  2.72685058e-06  9.53207065e-07 -5.03884423e-08
  7.75206804e-08 -2.39123193e-16 -5.34218055e-05 -2.55992571e-05
  2.12032856e-04  2.85323085e-08 -4.38958592e-08 -5.64681130e-19
  5.34207090e-05  2.55985443e-05 -1.85367298e-04 -1.85518720e-07
  5.68424103e-07]",0.7890485961004623,0,0
2,2,2024-09-28 16:50:04.746897920,TASK_BEGIN,23,-0.2076222121090462,-0.3018419402498812,-0.5078997818489551,-0.0792078987987617,-0.0827862758931273,0.0186257712605648,-0.5926430206180284,0.8362042992574813,2,2024-09-28 16:50:04.764794189,1727542204.764794,2024-09-28 16:50:04.764794112,0,"[0.0009765625, 0.0009765625, -0.0009765625, 0.0]",-1.0,-1.0,"[0.0009765625, 0.0009765625, -0.0009765625, 0.0]",[ 0.52064466 -0.99874455 -0.30477732  0.3137121 ],[1.29063608 0.77063697 0.43958478],"[ 1.34201128e+00  7.49129257e-01  5.34498328e-01  1.40598056e+00
  6.21998417e-01  4.24737381e-01  6.39692729e-02 -1.27130840e-01
 -1.09760947e-01  2.72685058e-06  9.53207065e-07 -5.03884423e-08
  7.75206804e-08 -2.39123193e-16 -5.34218055e-05 -2.55992571e-05
  2.12032856e-04  2.85323085e-08 -4.38958592e-08 -5.64681130e-19
  5.34207090e-05  2.55985443e-05 -1.85367298e-04 -1.85518720e-07
  5.68424103e-07]",0.7890485961004623,0,0
3,3,2024-09-28 16:50:04.818801920,TASK_BEGIN,23,-0.2633254453972495,-0.3316382778628675,-0.0392782725405653,-0.1146518725635582,-0.168801797071167,0.0375245480662026,-0.2937044579384428,0.6720164920744739,2,2024-09-28 16:50:04.764794189,1727542204.764794,2024-09-28 16:50:04.764794112,0,"[0.0009765625, 0.0009765625, -0.0009765625, 0.0]",-1.0,-1.0,"[0.0009765625, 0.0009765625, -0.0009765625, 0.0]",[ 0.52064466 -0.99874455 -0.30477732  0.3137121 ],[1.29063608 0.77063697 0.43958478],"[ 1.34201128e+00  7.49129257e-01  5.34498328e-01  1.40598056e+00
  6.21998417e-01  4.24737381e-01  6.39692729e-02 -1.27130840e-01
 -1.09760947e-01  2.72685058e-06  9.53207065e-07 -5.03884423e-08
  7.75206804e-08 -2.39123193e-16 -5.34218055e-05 -2.55992571e-05
  2.12032856e-04  2.85323085e-08 -4.38958592e-08 -5.64681130e-19
  5.34207090e-05  2.55985443e-05 -1.85367298e-04 -1.85518720e-07
  5.68424103e-07]",0.7890485961004623,0,0
4,4,2024-09-28 16:50:05.737672192,TASK_BEGIN,23,-0.3122656332796079,-0.3624711413874064,0.3701772217012513,-0.1392638684899874,-0.2548629940372238,0.0561078547277657,-0.0184891378322347,0.5252211287276319,2,2024-09-28 16:50:05.533523193,1727542205.5335236,2024-09-28 16:50:05.533523456,0,"[0.0009765625, 0.0009765625, -0.0009765625, 0.0]",-1.0,-13.12541872310217,"[0.0009765625, 0.0009765625, -0.0009765625, 0.0]",[ 0.5097666  -0.999326   -0.25702205  0.3206236 ],[1.29063608 0.77063697 0.43958478],"[ 1.34273336e+00  7.49537736e-01  5.31682550e-01  1.40598055e+00
  6.21998416e-01  4.24784455e-01  6.32471977e-02 -1.27539320e-01
 -1.06898095e-01  2.33123931e-06  1.95801727e-06 -3.78909009e-11
  5.82936913e-11 -2.18874368e-15 -4.08411814e-05 -2.29993096e-05
  1.54957140e-04  2.12269776e-11 -3.26568870e-11 -2.23037901e-19
  4.08411806e-05  2.29993091e-05 -1.54937817e-04  3.32007048e-07
 -3.31927723e-07]",0.7870167698329136,0,0
5,5,2024-09-28 16:50:05.805460992,TASK_BEGIN,23,-0.3532693489661791,-0.3940845453600337,0.7063971200941751,-0.1487559107162867,-0.3401817778830446,0.0743759411408345,0.2318667598770613,0.398602222357584,2,2024-09-28 16:50:05.588525146,1727542205.5885253,2024-09-28 16:50:05.588525312,0,"[0.0009765625, 0.0009765625, -0.0009765625, 0.0]",-1.0,-13.994164535871148,"[0.0009765625, 0.0009765625, -0.0009765625, 0.0]",[ 0.5088942  -0.9993555  -0.25332198  0.321145  ],[1.29063608 0.77063697 0.43958478],"[ 1.34278696e+00  7.49569137e-01  5.31469460e-01  1.40598055e+00
  6.21998416e-01  4.24784469e-01  6.31935973e-02 -1.27570721e-01
 -1.06684991e-01  2.35194402e-06  1.93737305e-06 -2.18063523e-11
  3.35482416e-11 -2.18948046e-15 -4.08340672e-05 -2.30001354e-05
  1.54953920e-04  1.22161736e-11 -1.87940927e-11 -2.02805002e-19
  4.08340667e-05  2.30001351e-05 -1.54942831e-04  3.32110198e-07
 -3.32068888e-07]",0.7868340313013884,0,0
6,6,2024-09-28 16:50:05.860641024,TASK_BEGIN,23,-0.3859380117223714,-0.4258654903774323,0.9592359279888576,-0.1390235066562061,-0.4236712894070144,0.0924174223922337,0.4589560094275747,0.2932037995169371,2,2024-09-28 16:50:05.645523926,1727542205.6455245,2024-09-28 16:50:05.645524480,0,"[0.0009765625, 0.0009765625, -0.0009765625, 0.0]",-1.0,-14.854222890512437,"[0.0009765625, 0.0009765625, -0.0009765625, 0.0]",[ 0.5074186  -0.99937284 -0.25031033  0.32183844],[1.29063608 0.77063697 0.43958478],"[ 1.34284055e+00  7.49600540e-01  5.31256363e-01  1.40598055e+00
  6.21998416e-01  4.24784478e-01  6.31400052e-02 -1.27602123e-01
 -1.06471885e-01  2.37272453e-06  1.91662404e-06 -1.25496519e-11
  1.93071667e-11 -2.19213141e-15 -4.08356468e-05 -2.30010243e-05
  1.54970062e-04  7.03044005e-12 -1.08160688e-11 -4.59260140e-18
  4.08356465e-05  2.30010241e-05 -1.54963698e-04  3.32187665e-07
 -3.32166152e-07]",0.7866483649992936,0,0
7,7,2024-09-28 16:50:05.938268672,TASK_BEGIN,23,-0.4105998829234283,-0.4568385569775699,1.122671164505964,-0.1064315241306126,-0.5039686101801291,0.1103687009493021,0.6666877861540903,0.2084316982501505,2,2024-09-28 16:50:05.701522949,1727542205.7015235,2024-09-28 16:50:05.701523456,0,"[0.0009765625, 0.0009765625, -0.0009765625, 0.0]",-1.0,-15.705680661607312,"[0.0009765625, 0.0009765625, -0.0009765625, 0.0]",[ 0.5059096  -0.9993892  -0.24732828  0.32254013],[1.29063608 0.77063697 0.43958478],"[ 1.34289414e+00  7.49631944e-01  5.31043236e-01  1.40598055e+00
  6.21998416e-01  4.24784483e-01  6.30864113e-02 -1.27633527e-01
 -1.06258753e-01  2.39356155e-06  1.89580344e-06 -7.22238652e-12
  1.11113728e-11 -2.19175079e-15 -4.08436781e-05 -2.30019607e-05
  1.55000029e-04  4.04605548e-12 -6.22468650e-12  1.55293086e-18
  4.08436780e-05  2.30019606e-05 -1.54996377e-04  3.32249863e-07
 -3.32238659e-07]",0.7864416864262727,0,0
8,8,2024-09-28 16:50:06.000878080,TASK_BEGIN,23,-0.4281928644952968,-0.485715016283164,1.1949057901768725,-0.0482073972854137,-0.5795452508781381,0.1283664449512962,0.8603276899078778,0.142382445388489,2,2024-09-28 16:50:05.812522949,1727542205.8125238,2024-09-28 16:50:05.812523776,0,"[0.0009765625, 0.0009765625, -0.0009765625, 0.0]",-1.0,-17.383137616441328,"[0.0009765625, 0.0009765625, -0.0009765625, 0.0]",[ 0.502882   -0.9994206  -0.24134897  0.32394272],[1.29063608 0.77063697 0.43958478],"[ 1.34300136e+00  7.49694755e-01  5.30616829e-01  1.40598055e+00
  6.21998416e-01  4.24784487e-01  6.29791898e-02 -1.27696339e-01
 -1.05832342e-01  2.43536370e-06  1.85401428e-06 -2.39209815e-12
  3.68015672e-12 -2.19032577e-15 -4.08728639e-05 -2.30039330e-05
  1.55087025e-04  1.34007998e-12 -2.06165563e-12 -4.63363563e-19
  4.08728639e-05  2.30039330e-05 -1.55085822e-04  3.32349365e-07
 -3.32346326e-07]",0.7860117221584342,0,0
9,9,2024-09-28 16:50:06.063576832,TASK_BEGIN,23,-0.4400914804813616,-0.5110136064545594,1.1784113220345844,0.037040355718728,-0.6488807457128345,0.1465113646541701,1.0451109655166262,0.0923521765706245,2,2024-09-28 16:50:05.871524170,1727542205.8715248,2024-09-28 16:50:05.871524864,0,"[0.0009765625, 0.0009765625, -0.0009765625, 0.0]",-1.0,-18.209306240276913,"[0.0009765625, 0.0009765625, -0.0009765625, 0.0]",[ 0.5013631  -0.9994357  -0.23835154  0.32464376],[1.29063608 0.77063697 0.43958478],"[ 1.34305500e+00  7.49726163e-01  5.30403527e-01  1.40598055e+00
  6.21998416e-01  4.24784488e-01  6.29255524e-02 -1.27727747e-01
 -1.05619039e-01  2.45631727e-06  1.83306303e-06 -1.37666116e-12
  2.11795215e-12 -2.18999573e-15 -4.08918605e-05 -2.30049540e-05
  1.55139318e-04  7.71230030e-13 -1.18649435e-12  1.04355377e-18
  4.08918605e-05  2.30049540e-05 -1.55138628e-04  3.32392070e-07
 -3.32390487e-07]",0.7857843008187475,0,0
10,10,2024-09-28 16:50:06.140777216,TASK_BEGIN,23,-0.447897751983507,-0.5312375945521071,1.0798261213838467,0.1487598558427222,-0.7106148018889297,0.1648485503745495,1.2247922393064254,0.0554134489593433,2,2024-09-28 16:50:05.927522949,1727542205.9275239,2024-09-28 16:50:05.927523840,0,"[0.0009765625, 0.0009765625, -0.0009765625, 0.0]",-1.0,-19.027213177874142,"[0.0009765625, 0.0009765625, -0.0009765625, 0.0]",[ 0.49984032 -0.99945045 -0.23534818  0.32534483],[1.29063608 0.77063697 0.43958478],"[ 1.34310866e+00  7.49757572e-01  5.30190150e-01  1.40598055e+00
  6.21998416e-01  4.24784488e-01  6.28718927e-02 -1.27759156e-01
 -1.05405662e-01  2.47730130e-06  1.81208020e-06 -7.92270288e-13
  1.21889358e-12 -2.18852111e-15 -4.09128007e-05 -2.30059914e-05
  1.55195387e-04  4.43840249e-13 -6.82835715e-13  1.66800065e-18
  4.09128007e-05  2.30059914e-05 -1.55194991e-04  3.32432010e-07
 -3.32431185e-07]",0.7855563009368023,0,0
11,11,2024-09-28 16:50:07.087696896,TASK_BEGIN,23,-0.4532292582846771,-0.5450617432762381,0.9095826396252494,0.2840887915894225,-0.7636140354213728,0.1833587076890743,1.4005907203254937,0.0289139287642475,2,2024-09-28 16:50:07.126970947,1727542207.1269715,2024-09-28 16:50:07.126971392,0,"[0.0009765625, 0.0009765625, -0.0009765625, 0.0]",-1.0,-34.4340779425856,"[0.0009765625, 0.0009765625, -0.0009765625, 0.0]",[ 0.5525868  -0.91252    -0.46554425  0.42876095],[1.29063608 0.77063697 0.43958478],"[ 1.34405544e+00  7.10641149e-01  5.26362154e-01  1.40598055e+00
  6.21998416e-01  4.24784489e-01  6.19251095e-02 -8.86427329e-02
 -1.01577665e-01  1.69904171e-04  4.21284129e-04  3.23474258e-17
  4.59869578e-17 -2.18668352e-15 -3.92768085e-05 -2.68895271e-04
  1.45884530e-04 -1.03482542e-17 -2.68384944e-17  1.62938415e-18
  3.92768085e-05  2.68895271e-04 -1.45884530e-04 -1.35978691e-04
  1.43248753e-04]",0.8021778338801202,0,0
12,12,2024-09-28 16:50:07.156129024,TASK_BEGIN,23,-0.4575180732268018,-0.551489593117441,0.6812069544433991,0.4379337740968027,-0.8069631732867156,0.2019543997548559,1.5708472982183768,0.010780716224163,2,2024-09-28 16:50:07.126970947,1727542207.1269715,2024-09-28 16:50:07.126971392,0,"[0.0009765625, 0.0009765625, -0.0009765625, 0.0]",-1.0,-34.4340779425856,"[0.0009765625, 0.0009765625, -0.0009765625, 0.0]",[ 0.5525868  -0.91252    -0.46554425  0.42876095],[1.29063608 0.77063697 0.43958478],"[ 1.34405544e+00  7.10641149e-01  5.26362154e-01  1.40598055e+00
  6.21998416e-01  4.24784489e-01  6.19251095e-02 -8.86427329e-02
 -1.01577665e-01  1.69904171e-04  4.21284129e-04  3.23474258e-17
  4.59869578e-17 -2.18668352e-15 -3.92768085e-05 -2.68895271e-04
  1.45884530e-04 -1.03482542e-17 -2.68384944e-17  1.62938415e-18
  3.92768085e-05  2.68895271e-04 -1.45884530e-04 -1.35978691e-04
  1.43248753e-04]",0.8021778338801202,0,0
13,13,2024-09-28 16:50:07.218705920,TASK_BEGIN,23,-0.4618164750735979,-0.5499692999485523,0.4103392171107793,0.6035509001221908,-0.8399360594377021,0.2204780106409261,1.731377577868809,-0.000406217305896,2,2024-09-28 16:50:07.126970947,1727542207.1269715,2024-09-28 16:50:07.126971392,0,"[0.0009765625, 0.0009765625, -0.0009765625, 0.0]",-1.0,-34.4340779425856,"[0.0009765625, 0.0009765625, -0.0009765625, 0.0]",[ 0.5525868  -0.91252    -0.46554425  0.42876095],[1.29063608 0.77063697 0.43958478],"[ 1.34405544e+00  7.10641149e-01  5.26362154e-01  1.40598055e+00
  6.21998416e-01  4.24784489e-01  6.19251095e-02 -8.86427329e-02
 -1.01577665e-01  1.69904171e-04  4.21284129e-04  3.23474258e-17
  4.59869578e-17 -2.18668352e-15 -3.92768085e-05 -2.68895271e-04
  1.45884530e-04 -1.03482542e-17 -2.68384944e-17  1.62938415e-18
  3.92768085e-05  2.68895271e-04 -1.45884530e-04 -1.35978691e-04
  1.43248753e-04]",0.8021778338801202,0,0
14,14,2024-09-28 16:50:07.291380736,TASK_BEGIN,23,-0.4666386771224047,-0.5404604817663514,0.1135724731627136,0.773449444587966,-0.8619972131558257,0.2387011030016724,1.8762404594106536,-0.0055236053114668,2,2024-09-28 16:50:07.126970947,1727542207.1269715,2024-09-28 16:50:07.126971392,0,"[0.0009765625, 0.0009765625, -0.0009765625, 0.0]",-1.0,-34.4340779425856,"[0.0009765625, 0.0009765625, -0.0009765625, 0.0]",[ 0.5525868  -0.91252    -0.46554425  0.42876095],[1.29063608 0.77063697 0.43958478],"[ 1.34405544e+00  7.10641149e-01  5.26362154e-01  1.40598055e+00
  6.21998416e-01  4.24784489e-01  6.19251095e-02 -8.86427329e-02
 -1.01577665e-01  1.69904171e-04  4.21284129e-04  3.23474258e-17
  4.59869578e-17 -2.18668352e-15 -3.92768085e-05 -2.68895271e-04
  1.45884530e-04 -1.03482542e-17 -2.68384944e-17  1.62938415e-18
  3.92768085e-05  2.68895271e-04 -1.45884530e-04 -1.35978691e-04
  1.43248753e-04]",0.8021778338801202,0,0
15,15,2024-09-28 16:50:07.359428096,TASK_BEGIN,23,-0.4718977083518975,-0.523433474808907,-0.1927263326033591,0.940318996252726,-0.8728587561474346,0.2563321632823473,1.998708906855314,-0.0051135942182791,2,2024-09-28 16:50:07.126970947,1727542207.1269715,2024-09-28 16:50:07.126971392,0,"[0.0009765625, 0.0009765625, -0.0009765625, 0.0]",-1.0,-34.4340779425856,"[0.0009765625, 0.0009765625, -0.0009765625, 0.0]",[ 0.5525868  -0.91252    -0.46554425  0.42876095],[1.29063608 0.77063697 0.43958478],"[ 1.34405544e+00  7.10641149e-01  5.26362154e-01  1.40598055e+00
  6.21998416e-01  4.24784489e-01  6.19251095e-02 -8.86427329e-02
 -1.01577665e-01  1.69904171e-04  4.21284129e-04  3.23474258e-17
  4.59869578e-17 -2.18668352e-15 -3.92768085e-05 -2.68895271e-04
  1.45884530e-04 -1.03482542e-17 -2.68384944e-17  1.62938415e-18
  3.92768085e-05  2.68895271e-04 -1.45884530e-04 -1.35978691e-04
  1.43248753e-04]",0.8021778338801202,0,0
16,16,2024-09-28 16:50:07.422194944,TASK_BEGIN,23,-0.4769624796831779,-0.4997977384861423,-0.4934180936178143,1.0977411060161362,-0.8725878640554736,0.2730422328074929,2.0924287738602176,0.0003855400935312,2,2024-09-28 16:50:07.182972900,1727542207.1829736,2024-09-28 16:50:07.182973696,0,"[0.0009765625, 0.0009765625, -0.0009765625, 0.0]",-1.0,-35.08973716315975,"[0.0009765625, 0.0009765625, -0.0009765625, 0.0]",[ 0.54909647 -0.91284764 -0.46655142  0.43212909],[1.29063608 0.77063697 0.43958478],"[ 1.34410880e+00  7.10699759e-01  5.26147613e-01  1.40598055e+00
  6.21998416e-01  4.24784489e-01  6.18717567e-02 -8.87013427e-02
 -1.01363124e-01  7.27072937e-05  5.24025305e-04  6.27789638e-17
  4.59869578e-17 -2.18668352e-15 -4.15491082e-05  5.88558012e-06
  1.58029226e-04 -2.52617525e-17 -1.70653398e-17 -5.31842644e-19
  4.15491082e-05 -5.88558012e-06 -1.58029226e-04 -6.40168842e-05
  6.78028614e-05]",0.8018799002241567,0,0
17,17,2024-09-28 16:50:07.494316288,TASK_BEGIN,23,-0.4808106485675095,-0.470784919140881,-0.7753424844115987,1.2406258940905444,-0.8617253223094288,0.2885059918096514,2.152674071659837,0.0104580662137855,2,2024-09-28 16:50:07.293972900,1727542207.2939734,2024-09-28 16:50:07.293973504,0,"[0.0009765625, 0.0009765625, -0.0009765625, 0.0]",-1.0,-36.38145139361287,"[0.0009765625, 0.0009765625, -0.0009765625, 0.0]",[ 0.549994   -0.913219   -0.46235147  0.43234822],[1.29063608 0.77063697 0.43958478],"[ 1.34421726e+00  7.10756649e-01  5.25716286e-01  1.40598035e+00
  6.21998724e-01  4.24784523e-01  6.17630921e-02 -8.87579251e-02
 -1.00931762e-01 -1.45374635e-06  6.04242661e-04 -1.22043840e-05
 -7.91748268e-06 -4.83161843e-11 -4.14169417e-05 -2.14378518e-05
  1.56716318e-04  4.76956277e-06  3.09421033e-06  1.34279654e-18
  4.14914970e-05  2.13229288e-05 -1.56730458e-04 -3.07731956e-06
  1.84666776e-05]",0.8016520627455807,0,0
18,18,2024-09-28 16:50:08.434660864,TASK_BEGIN,23,-0.4822372793231124,-0.4378165335975597,-1.0278500806868176,1.3654065419062693,-0.8413524060379016,0.3024416758462038,2.177380852120442,0.0244325729449113,2,2024-09-28 16:50:08.765928955,1727542208.765929,2024-09-28 16:50:08.765928960,0,"[0.02646636962890625, -0.25, -0.0009765625, 0.0]",-1.0,-51.01097269957947,"[0.02646636962890625, -0.25, -0.0009765625, 0.0]",[ 0.5017924  0.8786407 -0.6758267  0.6980365],[1.29063608 0.77063697 0.43958478],"[ 1.38452589e+00  5.17624991e-01  5.22240234e-01  1.40598055e+00
  6.21998420e-01  4.24784489e-01  2.14546586e-02  1.04373429e-01
 -9.74557447e-02  3.61048492e-04  2.76662578e-04 -7.36972777e-12
 -4.78104982e-12 -2.18523431e-15 -6.28760914e-04  5.86425729e-03
  8.79411366e-05  4.12858916e-12  2.67838678e-12 -9.35431710e-19
  6.28760914e-04 -5.86425729e-03 -8.79411366e-05 -9.58118349e-05
  9.58118921e-05]",0.9900560529878575,0,0
19,19,2024-09-28 16:50:08.504605952,TASK_BEGIN,23,-0.4800787115159774,-0.4023741546861405,-1.2431168200680665,1.4700107062620589,-0.8130658594943169,0.3146348594740297,2.1676709378630457,0.0415038990531527,2,2024-09-28 16:50:08.765928955,1727542208.765929,2024-09-28 16:50:08.765928960,0,"[0.02646636962890625, -0.25, -0.0009765625, 0.0]",-1.0,-51.01097269957947,"[0.02646636962890625, -0.25, -0.0009765625, 0.0]",[ 0.5017924  0.8786407 -0.6758267  0.6980365],[1.29063608 0.77063697 0.43958478],"[ 1.38452589e+00  5.17624991e-01  5.22240234e-01  1.40598055e+00
  6.21998420e-01  4.24784489e-01  2.14546586e-02  1.04373429e-01
 -9.74557447e-02  3.61048492e-04  2.76662578e-04 -7.36972777e-12
 -4.78104982e-12 -2.18523431e-15 -6.28760914e-04  5.86425729e-03
  8.79411366e-05  4.12858916e-12  2.67838678e-12 -9.35431710e-19
  6.28760914e-04 -5.86425729e-03 -8.79411366e-05 -9.58118349e-05
  9.58118921e-05]",0.9900560529878575,0,0
20,20,2024-09-28 16:50:08.571757056,TASK_BEGIN,23,-0.4734171415152224,-0.365883146559903,-1.416229696628723,1.5536631756100812,-0.7788805644075816,0.3249454774540062,2.1277429132716854,0.0608133960347091,2,2024-09-28 16:50:08.765928955,1727542208.765929,2024-09-28 16:50:08.765928960,0,"[0.02646636962890625, -0.25, -0.0009765625, 0.0]",-1.0,-51.01097269957947,"[0.02646636962890625, -0.25, -0.0009765625, 0.0]",[ 0.5017924  0.8786407 -0.6758267  0.6980365],[1.29063608 0.77063697 0.43958478],"[ 1.38452589e+00  5.17624991e-01  5.22240234e-01  1.40598055e+00
  6.21998420e-01  4.24784489e-01  2.14546586e-02  1.04373429e-01
 -9.74557447e-02  3.61048492e-04  2.76662578e-04 -7.36972777e-12
 -4.78104982e-12 -2.18523431e-15 -6.28760914e-04  5.86425729e-03
  8.79411366e-05  4.12858916e-12  2.67838678e-12 -9.35431710e-19
  6.28760914e-04 -5.86425729e-03 -8.79411366e-05 -9.58118349e-05
  9.58118921e-05]",0.9900560529878575,0,0
21,21,2024-09-28 16:50:08.633529856,TASK_BEGIN,23,-0.4617419415233144,-0.3296196250976808,-1.5450956670366534,1.616635715065634,-0.7411083109652888,0.3333059586811362,2.064112339119668,0.0815626252271562,2,2024-09-28 16:50:08.765928955,1727542208.765929,2024-09-28 16:50:08.765928960,0,"[0.02646636962890625, -0.25, -0.0009765625, 0.0]",-1.0,-51.01097269957947,"[0.02646636962890625, -0.25, -0.0009765625, 0.0]",[ 0.5017924  0.8786407 -0.6758267  0.6980365],[1.29063608 0.77063697 0.43958478],"[ 1.38452589e+00  5.17624991e-01  5.22240234e-01  1.40598055e+00
  6.21998420e-01  4.24784489e-01  2.14546586e-02  1.04373429e-01
 -9.74557447e-02  3.61048492e-04  2.76662578e-04 -7.36972777e-12
 -4.78104982e-12 -2.18523431e-15 -6.28760914e-04  5.86425729e-03
  8.79411366e-05  4.12858916e-12  2.67838678e-12 -9.35431710e-19
  6.28760914e-04 -5.86425729e-03 -8.79411366e-05 -9.58118349e-05
  9.58118921e-05]",0.9900560529878575,0,0
22,22,2024-09-28 16:50:08.695571712,TASK_BEGIN,23,-0.445042243083515,-0.2946477409410787,-1.6302483361971094,1.6600353079254986,-0.7022283728753248,0.3397148160416872,1.9844605414699,0.1031370411920271,2,2024-09-28 16:50:08.765928955,1727542208.765929,2024-09-28 16:50:08.765928960,0,"[0.02646636962890625, -0.25, -0.0009765625, 0.0]",-1.0,-51.01097269957947,"[0.02646636962890625, -0.25, -0.0009765625, 0.0]",[ 0.5017924  0.8786407 -0.6758267  0.6980365],[1.29063608 0.77063697 0.43958478],"[ 1.38452589e+00  5.17624991e-01  5.22240234e-01  1.40598055e+00
  6.21998420e-01  4.24784489e-01  2.14546586e-02  1.04373429e-01
 -9.74557447e-02  3.61048492e-04  2.76662578e-04 -7.36972777e-12
 -4.78104982e-12 -2.18523431e-15 -6.28760914e-04  5.86425729e-03
  8.79411366e-05  4.12858916e-12  2.67838678e-12 -9.35431710e-19
  6.28760914e-04 -5.86425729e-03 -8.79411366e-05 -9.58118349e-05
  9.58118921e-05]",0.9900560529878575,0,0
23,23,2024-09-28 16:50:08.775636992,TASK_BEGIN,23,-0.4238077377069825,-0.2617878173362303,-1.6745553857491855,1.6856486383540954,-0.6647286135554503,0.3442245128754366,1.8966243389459776,0.1251788607637194,2,2024-09-28 16:50:08.765928955,1727542208.765929,2024-09-28 16:50:08.765928960,0,"[0.02646636962890625, -0.25, -0.0009765625, 0.0]",-1.0,-51.01097269957947,"[0.02646636962890625, -0.25, -0.0009765625, 0.0]",[ 0.5017924  0.8786407 -0.6758267  0.6980365],[1.29063608 0.77063697 0.43958478],"[ 1.38452589e+00  5.17624991e-01  5.22240234e-01  1.40598055e+00
  6.21998420e-01  4.24784489e-01  2.14546586e-02  1.04373429e-01
 -9.74557447e-02  3.61048492e-04  2.76662578e-04 -7.36972777e-12
 -4.78104982e-12 -2.18523431e-15 -6.28760914e-04  5.86425729e-03
  8.79411366e-05  4.12858916e-12  2.67838678e-12 -9.35431710e-19
  6.28760914e-04 -5.86425729e-03 -8.79411366e-05 -9.58118349e-05
  9.58118921e-05]",0.9900560529878575,0,0
24,24,2024-09-28 16:50:08.843386880,TASK_BEGIN,23,-0.3989416440744613,-0.2316101484533572,-1.6827621728135729,1.6958074920482042,-0.630905215951636,0.346922389744442,1.8080003982156176,0.1475515902210158,2,2024-09-28 16:50:08.765928955,1727542208.765929,2024-09-28 16:50:08.765928960,0,"[0.02646636962890625, -0.25, -0.0009765625, 0.0]",-1.0,-51.01097269957947,"[0.02646636962890625, -0.25, -0.0009765625, 0.0]",[ 0.5017924  0.8786407 -0.6758267  0.6980365],[1.29063608 0.77063697 0.43958478],"[ 1.38452589e+00  5.17624991e-01  5.22240234e-01  1.40598055e+00
  6.21998420e-01  4.24784489e-01  2.14546586e-02  1.04373429e-01
 -9.74557447e-02  3.61048492e-04  2.76662578e-04 -7.36972777e-12
 -4.78104982e-12 -2.18523431e-15 -6.28760914e-04  5.86425729e-03
  8.79411366e-05  4.12858916e-12  2.67838678e-12 -9.35431710e-19
  6.28760914e-04 -5.86425729e-03 -8.79411366e-05 -9.58118349e-05
  9.58118921e-05]",0.9900560529878575,0,0
25,25,2024-09-28 16:50:09.753881856,TASK_BEGIN,23,-0.3716229835317656,-0.2044484286163689,-1.660873832765224,1.6932173711475704,-0.6026476712883808,0.3479077964138833,1.725165792777493,0.170198090005846,2,2024-09-28 16:50:09.784903076,1727542209.7849038,2024-09-28 16:50:09.784903680,0,"[0.0009765625, 0.0009765625, 0.25, 0.0]",-1.0,-59.117982557745016,"[0.0009765625, 0.0009765625, 0.25, 0.0]",[ 0.41609514  0.8750858  -0.33828542  0.66774225],[1.29063608 0.77063697 0.43958478],"[ 1.38533916e+00  5.17603868e-01  4.94911565e-01  1.40598055e+00
  6.21998420e-01  4.24784489e-01  2.06413959e-02  1.04394552e-01
 -7.01270761e-02  1.94891295e-05  8.01802810e-04 -3.61923413e-16
 -2.29116184e-16 -2.18018636e-15  1.84487679e-05 -3.77313145e-05
 -5.82400417e-03  1.99713323e-16  1.31582054e-16  2.63676229e-18
 -1.84487679e-05  3.77313145e-05  5.82400417e-03  4.32104359e-08
 -3.98013289e-08]",1.0158368343789883,0,0
26,26,2024-09-28 16:50:09.815905024,TASK_BEGIN,23,-0.3431657113959436,-0.1804261188958506,-1.615489422894801,1.6807196556869246,-0.5812668032848409,0.3472731555740651,1.6534861466723585,0.1929425309153145,2,2024-09-28 16:50:09.784903076,1727542209.7849038,2024-09-28 16:50:09.784903680,0,"[0.0009765625, 0.0009765625, 0.25, 0.0]",-1.0,-59.117982557745016,"[0.0009765625, 0.0009765625, 0.25, 0.0]",[ 0.41609514  0.8750858  -0.33828542  0.66774225],[1.29063608 0.77063697 0.43958478],"[ 1.38533916e+00  5.17603868e-01  4.94911565e-01  1.40598055e+00
  6.21998420e-01  4.24784489e-01  2.06413959e-02  1.04394552e-01
 -7.01270761e-02  1.94891295e-05  8.01802810e-04 -3.61923413e-16
 -2.29116184e-16 -2.18018636e-15  1.84487679e-05 -3.77313145e-05
 -5.82400417e-03  1.99713323e-16  1.31582054e-16  2.63676229e-18
 -1.84487679e-05  3.77313145e-05  5.82400417e-03  4.32104359e-08
 -3.98013289e-08]",1.0158368343789883,0,0
27,27,2024-09-28 16:50:09.897499136,TASK_BEGIN,23,-0.31490418342482,-0.1594877271726524,-1.5531890924374778,1.6610215654635374,-0.567421065960097,0.3450962163259175,1.5967003455355326,0.2153196279343942,2,2024-09-28 16:50:09.784903076,1727542209.7849038,2024-09-28 16:50:09.784903680,0,"[0.0009765625, 0.0009765625, 0.25, 0.0]",-1.0,-59.117982557745016,"[0.0009765625, 0.0009765625, 0.25, 0.0]",[ 0.41609514  0.8750858  -0.33828542  0.66774225],[1.29063608 0.77063697 0.43958478],"[ 1.38533916e+00  5.17603868e-01  4.94911565e-01  1.40598055e+00
  6.21998420e-01  4.24784489e-01  2.06413959e-02  1.04394552e-01
 -7.01270761e-02  1.94891295e-05  8.01802810e-04 -3.61923413e-16
 -2.29116184e-16 -2.18018636e-15  1.84487679e-05 -3.77313145e-05
 -5.82400417e-03  1.99713323e-16  1.31582054e-16  2.63676229e-18
 -1.84487679e-05  3.77313145e-05  5.82400417e-03  4.32104359e-08
 -3.98013289e-08]",1.0158368343789883,0,0
28,28,2024-09-28 16:50:09.955311104,TASK_BEGIN,23,-0.2881115600123718,-0.1414295465073268,-1.4800109602021885,1.636462723231748,-0.5611525325263247,0.341443451101063,1.556495992187256,0.2365513011124993,2,2024-09-28 16:50:09.784903076,1727542209.7849038,2024-09-28 16:50:09.784903680,0,"[0.0009765625, 0.0009765625, 0.25, 0.0]",-1.0,-59.117982557745016,"[0.0009765625, 0.0009765625, 0.25, 0.0]",[ 0.41609514  0.8750858  -0.33828542  0.66774225],[1.29063608 0.77063697 0.43958478],"[ 1.38533916e+00  5.17603868e-01  4.94911565e-01  1.40598055e+00
  6.21998420e-01  4.24784489e-01  2.06413959e-02  1.04394552e-01
 -7.01270761e-02  1.94891295e-05  8.01802810e-04 -3.61923413e-16
 -2.29116184e-16 -2.18018636e-15  1.84487679e-05 -3.77313145e-05
 -5.82400417e-03  1.99713323e-16  1.31582054e-16  2.63676229e-18
 -1.84487679e-05  3.77313145e-05  5.82400417e-03  4.32104359e-08
 -3.98013289e-08]",1.0158368343789883,0,0
29,29,2024-09-28 16:50:10.032536832,TASK_BEGIN,23,-0.2639478753283454,-0.1259295798908433,-1.401052694439864,1.608862291763324,-0.5619969678462371,0.3363796970570369,1.5321234194898614,0.2557377382624977,2,2024-09-28 16:50:10.190269043,1727542210.1902695,2024-09-28 16:50:10.190269440,0,"[0.12058258056640625, -0.1049041748046875, -0.0009765625, 0.0]",-1.0,-61.89528818954497,"[0.12058258056640625, -0.1049041748046875, -0.0009765625, 0.0]",[ 0.11157395  0.99073404 -0.66351277  0.38731956],[1.29063608 0.77063697 0.43958478],"[ 1.42819505e+00  4.99378400e-01  4.94528175e-01  1.40598063e+00
  6.21998321e-01  4.24784494e-01 -2.22144237e-02  1.22619921e-01
 -6.97436804e-02  2.02808450e-04  6.18489357e-04  3.90372108e-06
  2.90720542e-06 -5.67663910e-12 -2.48589589e-03  2.49419943e-03
  9.07137608e-05 -2.11139030e-06 -1.57240878e-06 -3.18963324e-18
  2.48585676e-03 -2.49414687e-03 -9.07165202e-05 -2.23989090e-05
  2.23989920e-05]",0.9596525740724546,0,0
30,30,2024-09-28 16:50:10.100827904,TASK_BEGIN,23,-0.2434294610608748,-0.1125783097177825,-1.320267847933431,1.579455093081251,-0.5691264106616702,0.3299851919286009,1.5203207123411389,0.2721600575726535,2,2024-09-28 16:50:10.190269043,1727542210.1902695,2024-09-28 16:50:10.190269440,0,"[0.12058258056640625, -0.1049041748046875, -0.0009765625, 0.0]",-1.0,-61.89528818954497,"[0.12058258056640625, -0.1049041748046875, -0.0009765625, 0.0]",[ 0.11157395  0.99073404 -0.66351277  0.38731956],[1.29063608 0.77063697 0.43958478],"[ 1.42819505e+00  4.99378400e-01  4.94528175e-01  1.40598063e+00
  6.21998321e-01  4.24784494e-01 -2.22144237e-02  1.22619921e-01
 -6.97436804e-02  2.02808450e-04  6.18489357e-04  3.90372108e-06
  2.90720542e-06 -5.67663910e-12 -2.48589589e-03  2.49419943e-03
  9.07137608e-05 -2.11139030e-06 -1.57240878e-06 -3.18963324e-18
  2.48585676e-03 -2.49414687e-03 -9.07165202e-05 -2.23989090e-05
  2.23989920e-05]",0.9596525740724546,0,0
31,31,2024-09-28 16:50:10.168584192,TASK_BEGIN,23,-0.2274112115720543,-0.1009082446438111,-1.2405271898045194,1.5489315587741668,-0.5814980912567514,0.3223852526513329,1.5158129658022683,0.2855067900193033,2,2024-09-28 16:50:10.190269043,1727542210.1902695,2024-09-28 16:50:10.190269440,0,"[0.12058258056640625, -0.1049041748046875, -0.0009765625, 0.0]",-1.0,-61.89528818954497,"[0.12058258056640625, -0.1049041748046875, -0.0009765625, 0.0]",[ 0.11157395  0.99073404 -0.66351277  0.38731956],[1.29063608 0.77063697 0.43958478],"[ 1.42819505e+00  4.99378400e-01  4.94528175e-01  1.40598063e+00
  6.21998321e-01  4.24784494e-01 -2.22144237e-02  1.22619921e-01
 -6.97436804e-02  2.02808450e-04  6.18489357e-04  3.90372108e-06
  2.90720542e-06 -5.67663910e-12 -2.48589589e-03  2.49419943e-03
  9.07137608e-05 -2.11139030e-06 -1.57240878e-06 -3.18963324e-18
  2.48585676e-03 -2.49414687e-03 -9.07165202e-05 -2.23989090e-05
  2.23989920e-05]",0.9596525740724546,0,0
32,32,2024-09-28 16:50:11.103776000,TASK_BEGIN,23,-0.2165827095236048,-0.0904178144280231,-1.163917330738935,1.5175956968776818,-0.5979823176064982,0.3137856476506338,1.5122773728425778,0.2959305316582655,2,2024-09-28 16:50:11.445250000,1727542211.44525,2024-09-28 16:50:11.445250048,0,"[0.0009765625, 0.0009765625, 0.14608001708984375, 0.0]",-1.0,-69.4540974071695,"[0.0009765625, 0.0009765625, 0.14608001708984375, 0.0]",[ 0.01291787  0.97172165 -0.8108385   0.18316223],[1.29063608 0.77063697 0.43958478],"[ 1.42989093e+00  4.99575979e-01  5.25028657e-01  1.40598055e+00
  6.21998418e-01  4.24784489e-01 -2.39103776e-02  1.22422439e-01
 -1.00244167e-01  6.52009632e-06  8.14778088e-04  2.06471976e-11
  1.53765190e-11 -2.17506283e-15 -1.28260889e-05 -2.66764885e-05
 -3.37119036e-03 -1.15667318e-11 -8.61405882e-12  1.31929492e-18
  1.28260887e-05  2.66764888e-05  3.37119036e-03  2.77744129e-07
 -2.77743070e-07]",1.0290255483178774,0,0
33,33,2024-09-28 16:50:11.179357952,TASK_BEGIN,23,-0.2114835762404154,-0.0805906355093076,-1.0921056130235594,1.485591314551974,-0.617446115746661,0.3044930702860342,1.5034763628345118,0.3039423670075173,2,2024-09-28 16:50:11.726237061,1727542211.7262373,2024-09-28 16:50:11.726237184,0,"[0.0009765625, 0.0009765625, 0.1598052978515625, 0.0]",-1.0,-70.95115056900357,"[0.0009765625, 0.0009765625, 0.1598052978515625, 0.0]",[-0.03406803  0.89222443 -0.9203174   0.11445437],[1.29063608 0.77063697 0.43958478],"[ 1.42996785e+00  4.99769326e-01  5.49587627e-01  1.40598055e+00
  6.21998418e-01  4.24784489e-01 -2.39873023e-02  1.22229093e-01
 -1.24803138e-01  6.07995381e-06  8.15218238e-04  1.30349730e-12
  9.70745677e-13 -2.17235578e-15 -9.16041847e-06 -2.79594580e-05
 -3.68580109e-03 -7.30231690e-13 -5.43814171e-13  1.01918908e-18
  9.16041845e-06  2.79594581e-05  3.68580109e-03  5.25011678e-07
 -5.25010079e-07]",1.0341328787806947,0,0
34,34,2024-09-28 16:50:11.247507968,TASK_BEGIN,23,-0.2125309813033872,-0.070916276958044,-1.0265423865564929,1.4530941679658724,-0.638803042483126,0.2949064675503035,1.4843732999798416,0.3101890489089592,2,2024-09-28 16:50:11.726237061,1727542211.7262373,2024-09-28 16:50:11.726237184,0,"[0.0009765625, 0.0009765625, 0.1598052978515625, 0.0]",-1.0,-70.95115056900357,"[0.0009765625, 0.0009765625, 0.1598052978515625, 0.0]",[-0.03406803  0.89222443 -0.9203174   0.11445437],[1.29063608 0.77063697 0.43958478],"[ 1.42996785e+00  4.99769326e-01  5.49587627e-01  1.40598055e+00
  6.21998418e-01  4.24784489e-01 -2.39873023e-02  1.22229093e-01
 -1.24803138e-01  6.07995381e-06  8.15218238e-04  1.30349730e-12
  9.70745677e-13 -2.17235578e-15 -9.16041847e-06 -2.79594580e-05
 -3.68580109e-03 -7.30231690e-13 -5.43814171e-13  1.01918908e-18
  9.16041845e-06  2.79594581e-05  3.68580109e-03  5.25011678e-07
 -5.25010079e-07]",1.0341328787806947,0,0
35,35,2024-09-28 16:50:11.314249984,TASK_BEGIN,23,-0.2200327828258178,-0.0609170745278001,-0.9683585901184336,1.4204075594464298,-0.6610648291370272,0.2854853336271742,1.452044155739164,0.3152107536745094,2,2024-09-28 16:50:11.726237061,1727542211.7262373,2024-09-28 16:50:11.726237184,0,"[0.0009765625, 0.0009765625, 0.1598052978515625, 0.0]",-1.0,-70.95115056900357,"[0.0009765625, 0.0009765625, 0.1598052978515625, 0.0]",[-0.03406803  0.89222443 -0.9203174   0.11445437],[1.29063608 0.77063697 0.43958478],"[ 1.42996785e+00  4.99769326e-01  5.49587627e-01  1.40598055e+00
  6.21998418e-01  4.24784489e-01 -2.39873023e-02  1.22229093e-01
 -1.24803138e-01  6.07995381e-06  8.15218238e-04  1.30349730e-12
  9.70745677e-13 -2.17235578e-15 -9.16041847e-06 -2.79594580e-05
 -3.68580109e-03 -7.30231690e-13 -5.43814171e-13  1.01918908e-18
  9.16041845e-06  2.79594581e-05  3.68580109e-03  5.25011678e-07
 -5.25010079e-07]",1.0341328787806947,0,0
36,36,2024-09-28 16:50:11.370240000,TASK_BEGIN,23,-0.2341618816481459,-0.0501822278599413,-0.9180346738712744,1.3879775036858375,-0.6834141451871364,0.2767132910097007,1.4061265352071486,0.3192999094471804,2,2024-09-28 16:50:11.896238037,1727542211.8962388,2024-09-28 16:50:11.896238848,0,"[-0.25, -0.01274871826171875, -0.00293731689453125, 0.0]",-1.0,-71.8139304459536,"[-0.25, -0.01274871826171875, -0.00293731689453125, 0.0]",[ 0.03454686  0.8843223  -0.9709529   0.06227276],[1.29063608 0.77063697 0.43958478],"[ 1.42295215e+00  4.99243262e-01  5.59724492e-01  1.40598055e+00
  6.21998418e-01  4.24784489e-01 -1.69715971e-02  1.22755157e-01
 -1.34940003e-01  2.52119787e-05  7.96086428e-04  2.48462837e-13
  1.85042053e-13 -2.17495302e-15  6.57195981e-03  3.05334907e-04
  5.28244200e-04 -1.39193503e-13 -1.03652616e-13  9.33596432e-19
 -6.57195981e-03 -3.05334907e-04 -5.28244200e-04  8.91987070e-07
 -8.91720226e-07]",1.0506685473442217,0,0
37,37,2024-09-28 16:50:11.450814976,TASK_BEGIN,23,-0.2549078033246454,-0.0384027529060708,-0.8751260409125964,1.356372695629342,-0.7052745513504344,0.2690688482136866,1.3486993684326103,0.3225062406266699,2,2024-09-28 16:50:12.007260010,1727542212.0072603,2024-09-28 16:50:12.007260416,0,"[-0.25, 0.0009765625, -0.0009765625, 0.0]",-1.0,-72.37483323007912,"[-0.25, 0.0009765625, -0.0009765625, 0.0]",[ 0.15753959  0.89518857 -0.9485784   0.15162352],[1.29063608 0.77063697 0.43958478],"[ 1.40703407e+00  4.98514438e-01  5.59548217e-01  1.40598055e+00
  6.21998418e-01  4.24784489e-01 -1.05351857e-03  1.23483980e-01
 -1.34763728e-01  2.33338694e-05  7.97964887e-04  8.22934891e-14
  6.12882592e-14 -2.17572456e-15  5.91440213e-03 -8.65814138e-05
  9.39676022e-05 -4.61012131e-14 -3.43390648e-14  1.30393792e-18
 -5.91440213e-03  8.65814138e-05 -9.39676022e-05 -1.54156064e-05
  1.54157085e-05]",1.0772172953638426,0,0
38,38,2024-09-28 16:50:11.518606080,TASK_BEGIN,23,-0.2820537130176903,-0.0253896096633965,-0.8382991878991394,1.326254238007797,-0.7263241888078423,0.2630010438679376,1.2837260258687009,0.3247384324828267,2,2024-09-28 16:50:12.062820801,1727542212.0628214,2024-09-28 16:50:12.062821376,0,"[-0.25, 0.0009765625, -0.0009765625, 0.0]",-1.0,-72.65108489777833,"[-0.25, 0.0009765625, -0.0009765625, 0.0]",[ 0.21394087  0.9017585  -0.9359896   0.19765896],[1.29063608 0.77063697 0.43958478],"[ 1.39905153e+00  4.98449698e-01  5.59473422e-01  1.40598055e+00
  6.21998418e-01  4.24784489e-01  6.92902668e-03  1.23548721e-01
 -1.34688933e-01  1.57303843e-05  8.05568458e-04  4.73600423e-14
  3.52709864e-14 -2.17566225e-15  5.90230114e-03 -4.05089842e-05
  8.73537612e-05 -2.65254046e-14 -1.97612266e-14  3.27242908e-18
 -5.90230114e-03  4.05089842e-05 -8.73537612e-05 -9.51178008e-06
  9.51184877e-06]",1.0887043842686759,0,0
39,39,2024-09-28 16:50:12.461442816,TASK_BEGIN,23,-0.3152009522219705,-0.0110617411364742,-0.8056791787223597,1.298342509188543,-0.7464285117284122,0.2589039794157754,1.2162811808200182,0.3258848872668684,2,2024-09-28 16:50:12.229885986,1727542212.229886,2024-09-28 16:50:12.229885952,0,"[-0.25, 0.0009765625, -0.0009765625, 0.0]",-1.0,-73.46337502522941,"[-0.25, 0.0009765625, -0.0009765625, 0.0]",[ 0.31438172  0.91512674 -0.9067751   0.29864812],[1.29063608 0.77063697 0.43958478],"[ 1.37494204e+00  4.98297939e-01  5.59229453e-01  1.40598055e+00
  6.21998418e-01  4.24784489e-01  3.10385087e-02  1.23700479e-01
 -1.34444963e-01  5.65302599e-06  8.15645956e-04  9.02895843e-15
  6.72374368e-15 -2.17632147e-15  5.89905637e-03 -4.43353143e-05
  8.61071253e-05 -5.05760582e-15 -3.76453353e-15 -7.41015267e-19
 -5.89905637e-03  4.43353143e-05 -8.61071253e-05 -5.11638790e-06
  5.11642101e-06]",1.083367140705271,0,0
40,40,2024-09-28 16:50:12.529198080,TASK_BEGIN,23,-0.3538194545847113,0.0045860221029389,-0.7753495082227418,1.273392399372318,-0.7655331416756311,0.2570916454930604,1.151766049284662,0.3258998993611492,2,2024-09-28 16:50:12.287399170,1727542212.2873998,2024-09-28 16:50:12.287399680,0,"[-0.25, 0.0009765625, -0.0009765625, 0.0]",-1.0,-73.72874127497711,"[-0.25, 0.0009765625, -0.0009765625, 0.0]",[ 0.34095642  0.91518134 -0.9000525   0.31077462],[1.29063608 0.77063697 0.43958478],"[ 1.36686441e+00  4.98261524e-01  5.59142839e-01  1.40598055e+00
  6.21998418e-01  4.24784489e-01  3.91161398e-02  1.23736894e-01
 -1.34358350e-01  3.88038344e-06  8.17418630e-04  5.19502088e-15
  3.87301148e-15 -2.17625571e-15  5.89753299e-03 -4.39919154e-05
  8.54811032e-05 -2.90689744e-15 -2.16677184e-15  1.89195302e-18
 -5.89753299e-03  4.39919154e-05 -8.54811032e-05 -4.50475198e-06
  4.50478091e-06]",1.076570598230156,0,0
41,41,2024-09-28 16:50:12.586476032,TASK_BEGIN,23,-0.3972980263425374,0.0215120341659106,-0.7458804190958546,1.2521843257438747,-0.783575109573461,0.2577770212835052,1.0952692518293132,0.324833949807671,2,2024-09-28 16:50:12.399927979,1727542212.3999286,2024-09-28 16:50:12.399928576,0,"[-0.25, 0.0009765625, -0.0009765625, 0.0]",-1.0,-74.25153932360507,"[-0.25, 0.0009765625, -0.0009765625, 0.0]",[ 0.38320556  0.90860856 -0.8447008   0.29582924],[1.29063608 0.77063697 0.43958478],"[ 1.35066450e+00  4.98204198e-01  5.58964019e-01  1.40598055e+00
  6.21998418e-01  4.24784489e-01  5.53160503e-02  1.23794220e-01
 -1.34179530e-01  1.17276403e-06  8.20126302e-04  1.72085967e-15
  1.28201066e-15 -2.17438709e-15  5.89469079e-03 -4.33398265e-05
  8.42813164e-05 -9.55193990e-16 -7.28114595e-16  1.32808495e-18
 -5.89469079e-03  4.33398265e-05 -8.42813164e-05 -3.71820060e-06
  3.71822459e-06]",1.0625464494270727,0,0
42,42,2024-09-28 16:50:12.664756224,TASK_BEGIN,23,-0.4449859292352192,0.0396438271774151,-0.7167698957480999,1.235512839115551,-0.8004264883884685,0.2610542179334301,1.0510907109566487,0.3228276572092991,2,2024-09-28 16:50:12.454929199,1727542212.4549296,2024-09-28 16:50:12.454929664,0,"[-0.25, 0.0009765625, -0.0009765625, 0.0]",-1.0,-74.50902393036903,"[-0.25, 0.0009765625, -0.0009765625, 0.0]",[ 0.40874746  0.90286183 -0.82898074  0.28437072],[1.29063608 0.77063697 0.43958478],"[ 1.34254603e+00  4.98182065e-01  5.58872332e-01  1.40598055e+00
  6.21998418e-01  4.24784489e-01  6.34345227e-02  1.23816353e-01
 -1.34087843e-01  6.49002681e-08  8.21234189e-04  9.97112503e-16
  7.35790179e-16 -2.17341144e-15  5.89338200e-03 -4.30325061e-05
  8.37082148e-05 -5.54504646e-16 -4.07113833e-16  1.19283960e-18
 -5.89338200e-03  4.30325061e-05 -8.37082148e-05 -3.44163599e-06
  3.44165841e-06]",1.0537138188741464,0,0
43,43,2024-09-28 16:50:12.732507136,TASK_BEGIN,23,-0.4962234579767125,0.0588875251250542,-0.6886462395821439,1.2241414392523498,-0.8158580308155167,0.2668833423301467,1.0223216242307676,0.3201191638795613,2,2024-09-28 16:50:12.510927002,1727542212.510928,2024-09-28 16:50:12.510927872,0,"[-0.25, 0.0009765625, -0.0009765625, 0.0]",-1.0,-74.76393369106533,"[-0.25, 0.0009765625, -0.0009765625, 0.0]",[ 0.4286437   0.9023643  -0.809751    0.26772162],[1.29063608 0.77063697 0.43958478],"[ 1.33441720e+00  4.98163653e-01  5.58779396e-01  1.40598055e+00
  6.21998418e-01  4.24784489e-01  7.15633571e-02  1.23834766e-01
 -1.33994907e-01 -2.36505592e-07  8.22237184e-04  5.78708264e-16
  4.16329359e-16 -2.17294506e-15  5.89214855e-03 -4.27352700e-05
  8.31522931e-05 -3.19031653e-16 -2.38040433e-16  6.35910399e-19
 -5.89214855e-03  4.27352700e-05 -8.31522931e-05 -6.47147649e-08
  3.20937136e-06]",1.0426991019612788,0,0
44,44,2024-09-28 16:50:12.787794176,TASK_BEGIN,23,-0.5503564193782379,0.0791343863688241,-0.6631733053292796,1.21871213683595,-0.8295294639832504,0.2750843144376841,1.010473121389592,0.3170786112456449,2,2024-09-28 16:50:12.566930176,1727542212.5669308,2024-09-28 16:50:12.566930688,0,"[-0.25, 0.0009765625, -0.0009765625, 0.0]",-1.0,-75.01629435415468,"[-0.25, 0.0009765625, -0.0009765625, 0.0]",[ 0.45667586  0.8977532  -0.7695085   0.24673887],[1.29063608 0.77063697 0.43958478],"[ 1.32627918e+00  4.98148594e-01  5.58685371e-01  1.40598055e+00
  6.21998418e-01  4.24784489e-01  7.97013743e-02  1.23849824e-01
 -1.33900882e-01  1.28769236e-06  8.23159304e-04  3.36375479e-16
  2.36246889e-16 -2.17332302e-15  5.89098857e-03 -4.24642863e-05
  8.26101788e-05 -1.83394036e-16 -1.36732532e-16  1.15039611e-18
 -5.89098857e-03  4.24642863e-05 -8.26101788e-05 -1.28831399e-06
  3.00918741e-06]",1.0289917007740228,0,0
45,45,2024-09-28 16:50:12.868077056,TASK_BEGIN,23,-0.606725703323452,0.1002596975688501,-0.6427547120104532,1.21962876765903,-0.841026813294565,0.2853455067080465,1.0153147066849202,0.3142222907334263,2,2024-09-28 16:50:12.678441162,1727542212.6784415,2024-09-28 16:50:12.678441472,0,"[-0.25, 0.0009765625, -0.0009765625, 0.0]",-1.0,-75.51347009650699,"[-0.25, 0.0009765625, -0.0009765625, 0.0]",[ 0.5204261   0.886747   -0.6799086   0.21848707],[1.29063608 0.77063697 0.43958478],"[ 1.30997942e+00  4.98127350e-01  5.58494564e-01  1.40598055e+00
  6.21998418e-01  4.24784489e-01  9.60011286e-02  1.23871069e-01
 -1.33710075e-01  1.62413847e-06  8.24818682e-04  1.10434781e-16
  8.03039055e-17 -2.17437500e-15  5.88887570e-03 -4.19530822e-05
  8.15651205e-05 -5.46254196e-17 -4.62491743e-17  1.98841534e-18
 -5.88887570e-03  4.19530822e-05 -8.15651205e-05 -2.20726326e-06
  2.67396649e-06]",0.9947885645477056,0,0
46,46,2024-09-28 16:50:13.811575808,TASK_BEGIN,23,-0.6646248173236825,0.1221138002063105,-0.6301894082948636,1.2269534726076197,-0.8499547795946522,0.2972494149226527,1.0350271912396012,0.3121675665896573,2,2024-09-28 16:50:13.925192139,1727542213.9251924,2024-09-28 16:50:13.925192448,0,"[0.0009765625, 0.24999237060546875, -0.0009765625, 0.0]",-1.0,-80.37084859769739,"[0.0009765625, 0.24999237060546875, -0.0009765625, 0.0]",[ 0.99574935  0.04690316 -0.43804696  0.4191813 ],[1.29063608 0.77063697 0.43958478],"[ 1.27632408e+00  6.05025113e-01  5.55706238e-01  1.40598055e+00
  6.21998422e-01  4.24784489e-01  1.29656471e-01  1.69733092e-02
 -1.30921749e-01  1.58682757e-04  1.26033185e-03 -1.62620108e-10
 -1.05498311e-10 -2.17527044e-15 -1.33796976e-05 -5.85910289e-03
  8.09155544e-05  9.11012017e-11  5.91010805e-11 -3.00116540e-18
  1.33796991e-05  5.85910289e-03 -8.09155547e-05  9.59402496e-05
 -9.58552205e-05]",0.8601708397300214,0,0
47,47,2024-09-28 16:50:13.879355904,TASK_BEGIN,23,-0.7232337643549706,0.1445130489717075,-0.6283805532594054,1.24035736963665,-0.8560625319475662,0.3103146567345731,1.0666028962790208,0.3115409840827308,2,2024-09-28 16:50:13.925192139,1727542213.9251924,2024-09-28 16:50:13.925192448,0,"[0.0009765625, 0.24999237060546875, -0.0009765625, 0.0]",-1.0,-80.37084859769739,"[0.0009765625, 0.24999237060546875, -0.0009765625, 0.0]",[ 0.99574935  0.04690316 -0.43804696  0.4191813 ],[1.29063608 0.77063697 0.43958478],"[ 1.27632408e+00  6.05025113e-01  5.55706238e-01  1.40598055e+00
  6.21998422e-01  4.24784489e-01  1.29656471e-01  1.69733092e-02
 -1.30921749e-01  1.58682757e-04  1.26033185e-03 -1.62620108e-10
 -1.05498311e-10 -2.17527044e-15 -1.33796976e-05 -5.85910289e-03
  8.09155544e-05  9.11012017e-11  5.91010805e-11 -3.00116540e-18
  1.33796991e-05  5.85910289e-03 -8.09155547e-05  9.59402496e-05
 -9.58552205e-05]",0.8601708397300214,0,0
48,48,2024-09-28 16:50:13.946574080,TASK_BEGIN,23,-0.7815572788916644,0.1672368418070361,-0.6401033971467941,1.2591342266185126,-0.8593405184074533,0.324044176977978,1.106410234818957,0.3128613432706809,2,2024-09-28 16:50:13.925192139,1727542213.9251924,2024-09-28 16:50:13.925192448,0,"[0.0009765625, 0.24999237060546875, -0.0009765625, 0.0]",-1.0,-80.37084859769739,"[0.0009765625, 0.24999237060546875, -0.0009765625, 0.0]",[ 0.99574935  0.04690316 -0.43804696  0.4191813 ],[1.29063608 0.77063697 0.43958478],"[ 1.27632408e+00  6.05025113e-01  5.55706238e-01  1.40598055e+00
  6.21998422e-01  4.24784489e-01  1.29656471e-01  1.69733092e-02
 -1.30921749e-01  1.58682757e-04  1.26033185e-03 -1.62620108e-10
 -1.05498311e-10 -2.17527044e-15 -1.33796976e-05 -5.85910289e-03
  8.09155544e-05  9.11012017e-11  5.91010805e-11 -3.00116540e-18
  1.33796991e-05  5.85910289e-03 -8.09155547e-05  9.59402496e-05
 -9.58552205e-05]",0.8601708397300214,0,0
49,49,2024-09-28 16:50:14.008083968,TASK_BEGIN,23,-0.8383971221981306,0.1900296589678838,-0.6677795285997687,1.2822386594213269,-0.860027115921405,0.3379623600400823,1.1509049292585387,0.3163969748884643,2,2024-09-28 16:50:13.925192139,1727542213.9251924,2024-09-28 16:50:13.925192448,0,"[0.0009765625, 0.24999237060546875, -0.0009765625, 0.0]",-1.0,-80.37084859769739,"[0.0009765625, 0.24999237060546875, -0.0009765625, 0.0]",[ 0.99574935  0.04690316 -0.43804696  0.4191813 ],[1.29063608 0.77063697 0.43958478],"[ 1.27632408e+00  6.05025113e-01  5.55706238e-01  1.40598055e+00
  6.21998422e-01  4.24784489e-01  1.29656471e-01  1.69733092e-02
 -1.30921749e-01  1.58682757e-04  1.26033185e-03 -1.62620108e-10
 -1.05498311e-10 -2.17527044e-15 -1.33796976e-05 -5.85910289e-03
  8.09155544e-05  9.11012017e-11  5.91010805e-11 -3.00116540e-18
  1.33796991e-05  5.85910289e-03 -8.09155547e-05  9.59402496e-05
 -9.58552205e-05]",0.8601708397300214,0,0
50,50,2024-09-28 16:50:14.082446080,TASK_BEGIN,23,-0.8923730738938258,0.2126032603956875,-0.713261256576874,1.3083139760524602,-0.858535193875514,0.3516316792425808,1.197368529801382,0.3220142380401337,2,2024-09-28 16:50:13.925192139,1727542213.9251924,2024-09-28 16:50:13.925192448,0,"[0.0009765625, 0.24999237060546875, -0.0009765625, 0.0]",-1.0,-80.37084859769739,"[0.0009765625, 0.24999237060546875, -0.0009765625, 0.0]",[ 0.99574935  0.04690316 -0.43804696  0.4191813 ],[1.29063608 0.77063697 0.43958478],"[ 1.27632408e+00  6.05025113e-01  5.55706238e-01  1.40598055e+00
  6.21998422e-01  4.24784489e-01  1.29656471e-01  1.69733092e-02
 -1.30921749e-01  1.58682757e-04  1.26033185e-03 -1.62620108e-10
 -1.05498311e-10 -2.17527044e-15 -1.33796976e-05 -5.85910289e-03
  8.09155544e-05  9.11012017e-11  5.91010805e-11 -3.00116540e-18
  1.33796991e-05  5.85910289e-03 -8.09155547e-05  9.59402496e-05
 -9.58552205e-05]",0.8601708397300214,0,0
51,51,2024-09-28 16:50:14.147712000,TASK_BEGIN,23,-0.9419928948520614,0.2346369635385252,-0.7776935528071793,1.3357233523672754,-0.8553595362063602,0.3646509150647209,1.244366944668103,0.3290894891276145,2,2024-09-28 16:50:13.925192139,1727542213.9251924,2024-09-28 16:50:13.925192448,0,"[0.0009765625, 0.24999237060546875, -0.0009765625, 0.0]",-1.0,-80.37084859769739,"[0.0009765625, 0.24999237060546875, -0.0009765625, 0.0]",[ 0.99574935  0.04690316 -0.43804696  0.4191813 ],[1.29063608 0.77063697 0.43958478],"[ 1.27632408e+00  6.05025113e-01  5.55706238e-01  1.40598055e+00
  6.21998422e-01  4.24784489e-01  1.29656471e-01  1.69733092e-02
 -1.30921749e-01  1.58682757e-04  1.26033185e-03 -1.62620108e-10
 -1.05498311e-10 -2.17527044e-15 -1.33796976e-05 -5.85910289e-03
  8.09155544e-05  9.11012017e-11  5.91010805e-11 -3.00116540e-18
  1.33796991e-05  5.85910289e-03 -8.09155547e-05  9.59402496e-05
 -9.58552205e-05]",0.8601708397300214,0,0
52,52,2024-09-28 16:50:14.218068224,TASK_BEGIN,23,-0.9857549002436118,0.2557774588622059,-0.8614481840547984,1.3626073104283456,-0.8509932527669601,0.3766406770241827,1.2916707365267373,0.3365636916442301,2,2024-09-28 16:50:14.487818115,1727542214.4878185,2024-09-28 16:50:14.487818496,0,"[0.13626861572265625, 0.23626708984375, -0.0009765625, 0.0]",-1.0,-82.24774732412357,"[0.13626861572265625, 0.23626708984375, -0.0009765625, 0.0]",[ 0.88867486 -0.05931618 -0.65900093  0.53388774],[1.29063608 0.77063697 0.43958478],"[ 1.30666118e+00  6.30474901e-01  5.54357868e-01  1.40598055e+00
  6.21998422e-01  4.24784489e-01  9.93193735e-02 -8.47647834e-03
 -1.29573379e-01  2.37676259e-04  1.18147546e-03 -6.48136195e-13
 -4.20477539e-13 -2.17667932e-15 -3.22751284e-03 -5.54083156e-03
  8.73077032e-05  3.63087512e-13  2.35552048e-13 -2.65385549e-18
  3.22751284e-03  5.54083156e-03 -8.73077032e-05  7.27900109e-05
 -7.27898191e-05]",0.8520798218419477,0,0
53,53,2024-09-28 16:50:15.163853056,TASK_BEGIN,23,-1.022247866401916,0.2756381568394718,-0.9640617856669084,1.3869673870896664,-0.8458442915833781,0.3872256970440612,1.339693881046077,0.3431487781660932,2,2024-09-28 16:50:15.686469971,1727542215.68647,2024-09-28 16:50:15.686470144,0,"[0.2205810546875, -0.1990203857421875, -0.0009765625, 0.0]",-1.0,-85.62550628463742,"[0.2205810546875, -0.1990203857421875, -0.0009765625, 0.0]",[-0.11794432  0.58934635 -0.99464756  0.51386535],[1.29063608 0.77063697 0.43958478],"[ 1.45572787e+00  5.53730582e-01  5.50921537e-01  1.40598061e+00
  6.21998346e-01  4.24784493e-01 -4.97472600e-02  6.82677644e-02
 -1.26137044e-01  1.05162994e-03  3.67522913e-04  2.97406355e-06
  2.21486461e-06 -3.29575250e-12 -4.98559077e-03  4.62490829e-03
  1.12939027e-04 -1.65494161e-06 -1.23247925e-06 -3.15683501e-18
  4.98555998e-03 -4.62486695e-03 -1.12941172e-04 -7.46333545e-05
  7.46334235e-05]",0.8984786127227871,0,0
54,54,2024-09-28 16:50:15.229778944,TASK_BEGIN,23,-1.0502180702910635,0.2937979357501146,-1.084169482595584,1.4067798745636149,-0.8401623181858014,0.3960274046421722,1.388740972985114,0.3476210892168513,2,2024-09-28 16:50:15.745011963,1727542215.7450128,2024-09-28 16:50:15.745012736,0,"[0.22254180908203125, -0.1990203857421875, -0.0009765625, 0.0]",-1.0,-85.76925122179105,"[0.22254180908203125, -0.1990203857421875, -0.0009765625, 0.0]",[-0.16584755  0.6018587  -0.9957419   0.46850228],[1.29063608 0.77063697 0.43958478],"[ 1.46211766e+00  5.47373531e-01  5.50683220e-01  1.40598058e+00
  6.21998378e-01  4.24784491e-01 -5.61370737e-02  7.46248471e-02
 -1.25898729e-01  1.04229885e-03  3.76854085e-04  1.71328160e-06
  1.27592660e-06 -1.09519227e-12 -4.93280731e-03  4.59250694e-03
  1.25359216e-04 -9.59550615e-07 -7.14602988e-07 -3.36029300e-18
  4.93278944e-03 -4.59248294e-03 -1.25360453e-04 -7.28799410e-05
  7.28800248e-05]",0.9036120764778486,0,0
55,55,2024-09-28 16:50:15.299333888,TASK_BEGIN,23,-1.0686052033894529,0.3098058507859911,-1.2194422808881182,1.4201478985341165,-0.8340030800408185,0.4026749260002426,1.4383299075592078,0.3491096000933871,2,2024-09-28 16:50:15.803389160,1727542215.8033888,2024-09-28 16:50:15.803388928,0,"[0.1931304931640625, -0.20882415771484375, -0.0009765625, 0.0]",-1.0,-85.91155870957314,"[0.1931304931640625, -0.20882415771484375, -0.0009765625, 0.0]",[-0.22533111  0.6114182  -0.99674106  0.42573315],[1.29063608 0.77063697 0.43958478],"[ 1.46747987e+00  5.40757378e-01  5.50432474e-01  1.40598057e+00
  6.21998396e-01  4.24784490e-01 -6.14992960e-02  8.12410179e-02
 -1.25647983e-01  1.04298737e-03  3.76165675e-04  9.86040333e-07
  7.34330588e-07 -3.64220899e-13 -4.05400370e-03  4.81595458e-03
  1.35232114e-04 -5.52382911e-07 -4.11374317e-07  1.18805676e-19
  4.05399341e-03 -4.81594077e-03 -1.35232824e-04 -6.74467202e-05
  6.74468120e-05]",0.9060814667016734,0,0
56,56,2024-09-28 16:50:15.353863936,TASK_BEGIN,23,-1.0765708489116852,0.3232016998564883,-1.366506770830426,1.4254765838331518,-0.8272370476125465,0.4068323822092768,1.486815470798896,0.3472808476460771,2,2024-09-28 16:50:15.861926025,1727542215.8619266,2024-09-28 16:50:15.861926656,0,"[0.15195465087890625, -0.24019622802734375, -0.0009765625, 0.0]",-1.0,-86.05244312247741,"[0.15195465087890625, -0.24019622802734375, -0.0009765625, 0.0]",[-0.26767275  0.6508746  -0.99696463  0.36292368],[1.29063608 0.77063697 0.43958478],"[ 1.47134151e+00  5.33201977e-01  5.50167095e-01  1.40598056e+00
  6.21998406e-01  4.24784490e-01 -6.53609492e-02  8.87964293e-02
 -1.25382605e-01  1.06888047e-03  3.50272690e-04  5.67472561e-07
  4.22611982e-07 -1.22092617e-13 -2.91610613e-03  5.55767036e-03
  1.50651459e-04 -3.17902930e-07 -2.36750808e-07 -3.32345192e-18
  2.91610021e-03 -5.55766241e-03 -1.50651867e-04 -5.78798428e-05
  5.78799496e-05]",0.915691617655422,0,0
57,57,2024-09-28 16:50:15.434825984,TASK_BEGIN,23,-1.0735360460067285,0.3335534788290822,-1.5208818778740518,1.4216402707204323,-0.8195933244041325,0.4082359316898959,1.5315429255941604,0.3423540247179665,2,2024-09-28 16:50:15.861926025,1727542215.8619266,2024-09-28 16:50:15.861926656,0,"[0.15195465087890625, -0.24019622802734375, -0.0009765625, 0.0]",-1.0,-86.05244312247741,"[0.15195465087890625, -0.24019622802734375, -0.0009765625, 0.0]",[-0.26767275  0.6508746  -0.99696463  0.36292368],[1.29063608 0.77063697 0.43958478],"[ 1.47134151e+00  5.33201977e-01  5.50167095e-01  1.40598056e+00
  6.21998406e-01  4.24784490e-01 -6.53609492e-02  8.87964293e-02
 -1.25382605e-01  1.06888047e-03  3.50272690e-04  5.67472561e-07
  4.22611982e-07 -1.22092617e-13 -2.91610613e-03  5.55767036e-03
  1.50651459e-04 -3.17902930e-07 -2.36750808e-07 -3.32345192e-18
  2.91610021e-03 -5.55766241e-03 -1.50651867e-04 -5.78798428e-05
  5.78799496e-05]",0.915691617655422,0,0
58,58,2024-09-28 16:50:15.501554944,TASK_BEGIN,23,-1.0592306534776124,0.3405019130483502,-1.677057383688528,1.4081216103157843,-0.8107325229250558,0.4067328827911171,1.5695206379348734,0.3349804946260791,2,2024-09-28 16:50:15.861926025,1727542215.8619266,2024-09-28 16:50:15.861926656,0,"[0.15195465087890625, -0.24019622802734375, -0.0009765625, 0.0]",-1.0,-86.05244312247741,"[0.15195465087890625, -0.24019622802734375, -0.0009765625, 0.0]",[-0.26767275  0.6508746  -0.99696463  0.36292368],[1.29063608 0.77063697 0.43958478],"[ 1.47134151e+00  5.33201977e-01  5.50167095e-01  1.40598056e+00
  6.21998406e-01  4.24784490e-01 -6.53609492e-02  8.87964293e-02
 -1.25382605e-01  1.06888047e-03  3.50272690e-04  5.67472561e-07
  4.22611982e-07 -1.22092617e-13 -2.91610613e-03  5.55767036e-03
  1.50651459e-04 -3.17902930e-07 -2.36750808e-07 -3.32345192e-18
  2.91610021e-03 -5.55766241e-03 -1.50651867e-04 -5.78798428e-05
  5.78799496e-05]",0.915691617655422,0,0
59,59,2024-09-28 16:50:15.570256896,TASK_BEGIN,23,-1.0337540157258875,0.3438012461010341,-1.828862059594067,1.3851166052654722,-0.8003369166040623,0.4023114369091118,1.5982189101362778,0.3260936349266242,2,2024-09-28 16:50:15.861926025,1727542215.8619266,2024-09-28 16:50:15.861926656,0,"[0.15195465087890625, -0.24019622802734375, -0.0009765625, 0.0]",-1.0,-86.05244312247741,"[0.15195465087890625, -0.24019622802734375, -0.0009765625, 0.0]",[-0.26767275  0.6508746  -0.99696463  0.36292368],[1.29063608 0.77063697 0.43958478],"[ 1.47134151e+00  5.33201977e-01  5.50167095e-01  1.40598056e+00
  6.21998406e-01  4.24784490e-01 -6.53609492e-02  8.87964293e-02
 -1.25382605e-01  1.06888047e-03  3.50272690e-04  5.67472561e-07
  4.22611982e-07 -1.22092617e-13 -2.91610613e-03  5.55767036e-03
  1.50651459e-04 -3.17902930e-07 -2.36750808e-07 -3.32345192e-18
  2.91610021e-03 -5.55766241e-03 -1.50651867e-04 -5.78798428e-05
  5.78799496e-05]",0.915691617655422,0,0
60,60,2024-09-28 16:50:16.487291904,TASK_BEGIN,23,-0.9976403311723182,0.343348440636436,-1.970130969017774,1.353603374163015,-0.788193696593397,0.3951094964432278,1.6160525334807592,0.3167843499262697,2,2024-09-28 16:50:16.831757080,1727542216.831757,2024-09-28 16:50:16.831757056,0,"[0.0009765625, 0.0009765625, 0.25, 0.0]",-1.0,-88.24300186575715,"[0.0009765625, 0.0009765625, 0.25, 0.0]",[-0.20644732  0.554424   -0.9998524   0.15861784],[1.29063608 0.77063697 0.43958478],"[ 1.47198413e+00  5.31022105e-01  5.97831015e-01  1.40598055e+00
  6.21998421e-01  4.24784489e-01 -6.60035804e-02  9.09763153e-02
 -1.73046526e-01  6.16236745e-04  8.02917264e-04  4.72918899e-11
  3.52195408e-11 -2.18603359e-15  3.15891000e-04 -1.20043583e-04
 -5.75114510e-03 -2.64933305e-11 -1.97302932e-11  1.50191039e-19
 -3.15891001e-04  1.20043584e-04  5.75114510e-03  1.95652267e-06
 -1.95650961e-06]",1.0985322699724664,0,0
61,61,2024-09-28 16:50:16.554028032,TASK_BEGIN,23,-0.9519069579259798,0.3391930850182698,-2.095422668524161,1.3153769674110465,-0.774247749654141,0.3854008542918106,1.6224222691656545,0.3081815415375694,2,2024-09-28 16:50:16.831757080,1727542216.831757,2024-09-28 16:50:16.831757056,0,"[0.0009765625, 0.0009765625, 0.25, 0.0]",-1.0,-88.24300186575715,"[0.0009765625, 0.0009765625, 0.25, 0.0]",[-0.20644732  0.554424   -0.9998524   0.15861784],[1.29063608 0.77063697 0.43958478],"[ 1.47198413e+00  5.31022105e-01  5.97831015e-01  1.40598055e+00
  6.21998421e-01  4.24784489e-01 -6.60035804e-02  9.09763153e-02
 -1.73046526e-01  6.16236745e-04  8.02917264e-04  4.72918899e-11
  3.52195408e-11 -2.18603359e-15  3.15891000e-04 -1.20043583e-04
 -5.75114510e-03 -2.64933305e-11 -1.97302932e-11  1.50191039e-19
 -3.15891001e-04  1.20043584e-04  5.75114510e-03  1.95652267e-06
 -1.95650961e-06]",1.0985322699724664,0,0
62,62,2024-09-28 16:50:16.616513024,TASK_BEGIN,23,-0.8980601183279924,0.3315260321813253,-2.2004574074172485,1.2730386708225645,-0.758604300285422,0.3735655303225296,1.6175121790630418,0.3013200376806293,2,2024-09-28 16:50:16.831757080,1727542216.831757,2024-09-28 16:50:16.831757056,0,"[0.0009765625, 0.0009765625, 0.25, 0.0]",-1.0,-88.24300186575715,"[0.0009765625, 0.0009765625, 0.25, 0.0]",[-0.20644732  0.554424   -0.9998524   0.15861784],[1.29063608 0.77063697 0.43958478],"[ 1.47198413e+00  5.31022105e-01  5.97831015e-01  1.40598055e+00
  6.21998421e-01  4.24784489e-01 -6.60035804e-02  9.09763153e-02
 -1.73046526e-01  6.16236745e-04  8.02917264e-04  4.72918899e-11
  3.52195408e-11 -2.18603359e-15  3.15891000e-04 -1.20043583e-04
 -5.75114510e-03 -2.64933305e-11 -1.97302932e-11  1.50191039e-19
 -3.15891001e-04  1.20043584e-04  5.75114510e-03  1.95652267e-06
 -1.95650961e-06]",1.0985322699724664,0,0
63,63,2024-09-28 16:50:16.679603968,TASK_BEGIN,23,-0.8380487860950261,0.3206577492889144,-2.282162883568046,1.2298772660405908,-0.7414629727821069,0.3600480738141876,1.6020663012063907,0.297023990302269,2,2024-09-28 16:50:16.831757080,1727542216.831757,2024-09-28 16:50:16.831757056,0,"[0.0009765625, 0.0009765625, 0.25, 0.0]",-1.0,-88.24300186575715,"[0.0009765625, 0.0009765625, 0.25, 0.0]",[-0.20644732  0.554424   -0.9998524   0.15861784],[1.29063608 0.77063697 0.43958478],"[ 1.47198413e+00  5.31022105e-01  5.97831015e-01  1.40598055e+00
  6.21998421e-01  4.24784489e-01 -6.60035804e-02  9.09763153e-02
 -1.73046526e-01  6.16236745e-04  8.02917264e-04  4.72918899e-11
  3.52195408e-11 -2.18603359e-15  3.15891000e-04 -1.20043583e-04
 -5.75114510e-03 -2.64933305e-11 -1.97302932e-11  1.50191039e-19
 -3.15891001e-04  1.20043584e-04  5.75114510e-03  1.95652267e-06
 -1.95650961e-06]",1.0985322699724664,0,0
64,64,2024-09-28 16:50:16.756815872,TASK_BEGIN,23,-0.7741714778217277,0.3069991047016155,-2.33847366917574,1.1895794031278792,-0.7229962225751404,0.3453060449408396,1.5770874224798628,0.2958712699296268,2,2024-09-28 16:50:16.831757080,1727542216.831757,2024-09-28 16:50:16.831757056,0,"[0.0009765625, 0.0009765625, 0.25, 0.0]",-1.0,-88.24300186575715,"[0.0009765625, 0.0009765625, 0.25, 0.0]",[-0.20644732  0.554424   -0.9998524   0.15861784],[1.29063608 0.77063697 0.43958478],"[ 1.47198413e+00  5.31022105e-01  5.97831015e-01  1.40598055e+00
  6.21998421e-01  4.24784489e-01 -6.60035804e-02  9.09763153e-02
 -1.73046526e-01  6.16236745e-04  8.02917264e-04  4.72918899e-11
  3.52195408e-11 -2.18603359e-15  3.15891000e-04 -1.20043583e-04
 -5.75114510e-03 -2.64933305e-11 -1.97302932e-11  1.50191039e-19
 -3.15891001e-04  1.20043584e-04  5.75114510e-03  1.95652267e-06
 -1.95650961e-06]",1.0985322699724664,0,0
65,65,2024-09-28 16:50:16.826068992,TASK_BEGIN,23,-0.7089432790086911,0.2910429322531606,-2.368105287442751,1.1558137568275286,-0.703243479816355,0.3297609553567588,1.5432602726191569,0.2983008717194879,2,2024-09-28 16:50:16.831757080,1727542216.831757,2024-09-28 16:50:16.831757056,0,"[0.0009765625, 0.0009765625, 0.25, 0.0]",-1.0,-88.24300186575715,"[0.0009765625, 0.0009765625, 0.25, 0.0]",[-0.20644732  0.554424   -0.9998524   0.15861784],[1.29063608 0.77063697 0.43958478],"[ 1.47198413e+00  5.31022105e-01  5.97831015e-01  1.40598055e+00
  6.21998421e-01  4.24784489e-01 -6.60035804e-02  9.09763153e-02
 -1.73046526e-01  6.16236745e-04  8.02917264e-04  4.72918899e-11
  3.52195408e-11 -2.18603359e-15  3.15891000e-04 -1.20043583e-04
 -5.75114510e-03 -2.64933305e-11 -1.97302932e-11  1.50191039e-19
 -3.15891001e-04  1.20043584e-04  5.75114510e-03  1.95652267e-06
 -1.95650961e-06]",1.0985322699724664,0,0
66,66,2024-09-28 16:50:16.893841152,TASK_BEGIN,23,-0.6449401763419951,0.2733371056693099,-2.370425928364784,1.1318196300513867,-0.6820994726977514,0.3137699850877733,1.5002339174389454,0.3048341359638822,2,2024-09-28 16:50:16.831757080,1727542216.831757,2024-09-28 16:50:16.831757056,0,"[0.0009765625, 0.0009765625, 0.25, 0.0]",-1.0,-88.24300186575715,"[0.0009765625, 0.0009765625, 0.25, 0.0]",[-0.20644732  0.554424   -0.9998524   0.15861784],[1.29063608 0.77063697 0.43958478],"[ 1.47198413e+00  5.31022105e-01  5.97831015e-01  1.40598055e+00
  6.21998421e-01  4.24784489e-01 -6.60035804e-02  9.09763153e-02
 -1.73046526e-01  6.16236745e-04  8.02917264e-04  4.72918899e-11
  3.52195408e-11 -2.18603359e-15  3.15891000e-04 -1.20043583e-04
 -5.75114510e-03 -2.64933305e-11 -1.97302932e-11  1.50191039e-19
 -3.15891001e-04  1.20043584e-04  5.75114510e-03  1.95652267e-06
 -1.95650961e-06]",1.0985322699724664,0,0
67,67,2024-09-28 16:50:17.833541888,TASK_BEGIN,23,-0.5846488532671971,0.2544493217279966,-2.345463652957364,1.1201004502776342,-0.6593966568719567,0.297623139576846,1.4462545879367028,0.3162532226049814,2,2024-09-28 16:50:18.369931885,1727542218.369932,2024-09-28 16:50:18.369932032,0,"[0.0009765625, 0.0009765625, 0.1558837890625, 0.0]",-1.0,-91.03713812976747,"[0.0009765625, 0.0009765625, 0.1558837890625, 0.0]",[-0.59925604  0.9071584  -0.9850551   0.22692482],[1.29063608 0.77063697 0.43958478],"[ 1.48093364e+00  5.29610148e-01  5.45906802e-01  1.40598047e+00
  6.21998546e-01  4.24784503e-01 -7.49531655e-02  9.23883980e-02
 -1.21122299e-01  6.19863761e-04  7.99292835e-04 -4.85497323e-06
 -3.14961954e-06 -7.64783346e-12  1.31638989e-04 -6.72387641e-05
 -4.31587062e-03  2.71723240e-06  1.76277971e-06  8.60172674e-19
 -1.31594914e-04  6.71708248e-05  4.31586307e-03 -4.38678422e-06
  4.38686180e-06]",0.9635492682446241,0,0
68,68,2024-09-28 16:50:17.905261056,TASK_BEGIN,23,-0.5303410049966873,0.2349319510933719,-2.294089637359843,1.1222562160094918,-0.6350124691098217,0.2815527095334429,1.3785015359685018,0.3335653365560978,2,2024-09-28 16:50:18.425929932,1727542218.425931,2024-09-28 16:50:18.425931008,0,"[0.0009765625, 0.0009765625, 0.25, 0.0]",-1.0,-91.12676674846979,"[0.0009765625, 0.0009765625, 0.25, 0.0]",[-0.5022435   0.778521   -0.99058473  0.22671096],[1.29063608 0.77063697 0.43958478],"[ 1.48060988e+00  5.29743924e-01  5.53907983e-01  1.40598050e+00
  6.21998495e-01  4.24784497e-01 -7.46293786e-02  9.22545701e-02
 -1.29123486e-01  6.14402598e-04  8.04754097e-04 -2.79445553e-06
 -1.81287750e-06 -2.53517593e-12  2.94034240e-04 -1.13253989e-04
 -5.94219438e-03  1.56541966e-06  1.01555171e-06 -9.55525036e-19
 -2.94008844e-04  1.13214842e-04  5.94219004e-03 -2.78479740e-06
  2.78489548e-06]",1.0522346684268524,0,0
69,69,2024-09-28 16:50:17.973062912,TASK_BEGIN,23,-0.483974153708711,0.2152906836718022,-2.218340319597436,1.1389435348809835,-0.6089525787200861,0.2657429048479055,1.2940672171460317,0.3577273166338043,2,2024-09-28 16:50:18.481928955,1727542218.4819298,2024-09-28 16:50:18.481929728,0,"[0.0009765625, 0.0009765625, 0.25, 0.0]",-1.0,-91.2154990809851,"[0.0009765625, 0.0009765625, 0.25, 0.0]",[-0.3711283   0.6918534  -0.99670875  0.21092512],[1.29063608 0.77063697 0.43958478],"[ 1.48014117e+00  5.29918786e-01  5.62062172e-01  1.40598052e+00
  6.21998465e-01  4.24784494e-01 -7.41606516e-02  9.20796793e-02
 -1.37277678e-01  6.10474392e-04  8.08682402e-04 -1.60823431e-06
 -1.04332732e-06 -8.41128474e-13  3.69052403e-04 -1.34436139e-04
 -5.74315972e-03  9.00944830e-07  5.84479731e-07  4.62113182e-20
 -3.69037787e-04  1.34413609e-04  5.74315723e-03 -9.80137809e-07
  9.80221831e-07]",1.0697477636391362,0,0
70,70,2024-09-28 16:50:18.035682816,TASK_BEGIN,23,-0.447117951658774,0.1959549486244158,-2.1216616639142187,1.1699198076848505,-0.5814051330384842,0.2503383305352872,1.1912747686806122,0.389274547960892,2,2024-09-28 16:50:18.537928223,1727542218.5379283,2024-09-28 16:50:18.537928448,0,"[0.0009765625, 0.0009765625, 0.25, 0.0]",-1.0,-91.30334409017524,"[0.0009765625, 0.0009765625, 0.25, 0.0]",[-0.30673966  0.64562947 -0.99854237  0.20136748],[1.29063608 0.77063697 0.43958478],"[ 1.47954861e+00  5.30128694e-01  5.70173723e-01  1.40598053e+00
  6.21998448e-01  4.24784492e-01 -7.35680715e-02  9.18697539e-02
 -1.45389231e-01  6.07577844e-04  8.11579030e-04 -9.25548327e-07
 -6.00441024e-07 -2.80038179e-13  4.61857898e-04 -1.60705232e-04
 -5.74633333e-03  5.18499961e-07  3.36372114e-07 -3.36177400e-19
 -4.61849486e-04  1.60692266e-04  5.74633190e-03  7.64210423e-08
 -7.63544609e-08]",1.081110517899284,0,0
71,71,2024-09-28 16:50:18.097419008,TASK_BEGIN,23,-0.4209088053102335,0.177251991585515,-2.008837288081032,1.214135220671437,-0.5527637540815665,0.235452457968261,1.0709441813654557,0.4280329348935951,2,2024-09-28 16:50:18.649927979,1727542218.649928,2024-09-28 16:50:18.649928192,0,"[0.0009765625, 0.0009765625, 0.25, 0.0]",-1.0,-91.47640754278075,"[0.0009765625, 0.0009765625, 0.25, 0.0]",[-0.26174638  0.5952896  -0.9995712   0.16633567],[1.29063608 0.77063697 0.43958478],"[ 1.47798742e+00  5.30654905e-01  5.86319727e-01  1.40598054e+00
  6.21998432e-01  4.24784490e-01 -7.20068775e-02  9.13435273e-02
 -1.61535237e-01  6.03363334e-04  8.15793655e-04 -3.06547861e-07
 -1.98870125e-07 -3.26500711e-14  6.46677703e-04 -2.12976544e-04
 -5.70183019e-03  1.71730765e-07  1.11408765e-07  1.12404473e-18
 -6.46674917e-04  2.12972250e-04  5.70182972e-03  1.48797175e-06
 -1.48792862e-06]",1.0951140592736726,0,0
72,72,2024-09-28 16:50:18.175528192,TASK_BEGIN,23,-0.4060301413540438,0.1593933837077464,-1.885590707545442,1.269872028476874,-0.5236231899669604,0.2211777691492384,0.9372065078538054,0.4729981199086857,2,2024-09-28 16:50:18.706929932,1727542218.70693,2024-09-28 16:50:18.706929920,0,"[0.0009765625, 0.0009765625, 0.25, 0.0]",-1.0,-91.56164346735294,"[0.0009765625, 0.0009765625, 0.25, 0.0]",[-0.2463377   0.56210524 -0.99978566  0.16102378],[1.29063608 0.77063697 0.43958478],"[ 1.47701963e+00  5.30970942e-01  5.94345874e-01  1.40598055e+00
  6.21998429e-01  4.24784490e-01 -7.10390808e-02  9.10274875e-02
 -1.69561384e-01  6.01719348e-04  8.17437685e-04 -1.76420008e-07
 -1.14450869e-07 -1.22637355e-14  7.39235785e-04 -2.39135215e-04
 -5.67700888e-03  9.88320230e-08  6.41163723e-08  1.91133074e-18
 -7.39234181e-04  2.39132743e-04  5.67700861e-03  2.03624720e-06
 -2.03621037e-06]",1.0979972220154446,0,0
73,73,2024-09-28 16:50:18.237575936,TASK_BEGIN,23,-0.4027105924620141,0.1424815406436951,-1.7580968075041428,1.3349322677886537,-0.4947682030003627,0.207601357751917,0.7976236022336188,0.5223626550855354,2,2024-09-28 16:50:18.762927979,1727542218.7629285,2024-09-28 16:50:18.762928384,0,"[0.0009765625, 0.0009765625, 0.25, 0.0]",-1.0,-91.64602703267941,"[0.0009765625, 0.0009765625, 0.25, 0.0]",[-0.23108672  0.54191273 -0.9998931   0.14918278],[1.29063608 0.77063697 0.43958478],"[ 1.47592934e+00  5.31321588e-01  6.02337038e-01  1.40598055e+00
  6.21998427e-01  4.24784489e-01 -6.99487879e-02  9.06768397e-02
 -1.77552548e-01  6.00303725e-04  8.18853346e-04 -1.01530697e-07
 -6.58671127e-08 -5.51091317e-15  8.29354764e-04 -2.64589178e-04
 -5.65029273e-03  5.68783825e-08  3.68993312e-08 -1.75297541e-19
 -8.29353841e-04  2.64587755e-04  5.65029258e-03  2.55757846e-06
 -2.55754585e-06]",1.0984405606855356,0,0
74,74,2024-09-28 16:50:19.181686016,TASK_BEGIN,23,-0.4107415063856535,0.1265346784116217,-1.6326668998496086,1.4068501049133373,-0.4671484280977412,0.1948216219837683,0.6626150545057315,0.5736435173628551,2,2024-09-28 16:50:18.987452881,1727542218.9874537,2024-09-28 16:50:18.987453696,0,"[0.0009765625, 0.0009765625, 0.25, 0.0]",-1.0,-91.975206899944,"[0.0009765625, 0.0009765625, 0.25, 0.0]",[-0.15297121  0.52352273 -0.9999944   0.04444697],[1.29063608 0.77063697 0.43958478],"[ 1.47044216e+00  5.33041911e-01  6.33911044e-01  1.40598055e+00
  6.21998425e-01  4.24784489e-01 -6.44616144e-02  8.89565135e-02
 -2.09126555e-01  5.96922706e-04  8.22234483e-04 -1.11376982e-08
 -7.22548001e-09 -2.20638052e-15  1.14109466e-03 -3.52500655e-04
 -5.53180978e-03  6.23943608e-09  4.04777717e-09  3.00684856e-18
 -1.14109456e-03  3.52500499e-04  5.53180977e-03  4.61223683e-06
 -4.61221469e-06]",1.0927197796861141,0,0
75,75,2024-09-28 16:50:19.244484864,TASK_BEGIN,23,-0.4295186025072351,0.1115201508397719,-1.5156719781753276,1.4831020061491154,-0.4417913924281137,0.1829506318346256,0.5443204068687928,0.6238882756706263,2,2024-09-28 16:50:19.043452881,1727542219.0434537,2024-09-28 16:50:19.043453696,0,"[0.0009765625, 0.0009765625, 0.25, 0.0]",-1.0,-92.05545483094456,"[0.0009765625, 0.0009765625, 0.25, 0.0]",[-0.11109893  0.5084498  -0.9999968   0.03469525],[1.29063608 0.77063697 0.43958478],"[ 1.46881891e+00  5.33542866e-01  6.41699444e-01  1.40598055e+00
  6.21998425e-01  4.24784489e-01 -6.28383589e-02  8.84555593e-02
 -2.16914955e-01  5.96658609e-04  8.22498604e-04 -6.40980714e-09
 -4.15830383e-09 -2.18032495e-15  1.20678934e-03 -3.70997735e-04
 -5.50020517e-03  3.59083009e-09  2.32951822e-09 -3.91018606e-18
 -1.20678928e-03  3.70997645e-04  5.50020516e-03  5.09435293e-06
 -5.09433296e-06]",1.0911505816513287,0,0
76,76,2024-09-28 16:50:19.321620224,TASK_BEGIN,23,-0.4580967306376057,0.0973846920139496,-1.4135088539784029,1.5612906958728925,-0.419638737316053,0.172094466710193,0.4551258841498129,0.6699391103995487,2,2024-09-28 16:50:19.099456055,1727542219.099457,2024-09-28 16:50:19.099457024,0,"[0.0009765625, 0.0009765625, 0.25, 0.0]",-1.0,-92.13490028263512,"[0.0009765625, 0.0009765625, 0.25, 0.0]",[-0.06835774  0.49390194 -0.999998    0.02469303],[1.29063608 0.77063697 0.43958478],"[ 1.46710568e+00  5.34069152e-01  6.49443213e-01  1.40598055e+00
  6.21998425e-01  4.24784489e-01 -6.11251280e-02  8.79292732e-02
 -2.24658724e-01  5.96606968e-04  8.22550265e-04 -3.68887957e-09
 -2.39312693e-09 -2.17238379e-15  1.26905952e-03 -3.88521971e-04
 -5.46776983e-03  2.06654264e-09  1.34065066e-09 -1.44531080e-18
 -1.26905948e-03  3.88521919e-04  5.46776982e-03  5.55145011e-06
 -5.55143210e-06]",1.0896566496369169,0,0
77,77,2024-09-28 16:50:19.390759936,TASK_BEGIN,23,-0.4952392409314937,0.0840749994201336,-1.3323314861168598,1.6392729079854471,-0.4013708113320897,0.1623249337559537,0.4061862289762661,0.7087078267582453,2,2024-09-28 16:50:19.155455078,1727542219.1554554,2024-09-28 16:50:19.155455232,0,"[0.0009765625, 0.0009765625, 0.25, 0.0]",-1.0,-92.21355127980877,"[0.0009765625, 0.0009765625, 0.25, 0.0]",[-0.02966686  0.48089153 -0.99999875  0.01580751],[1.29063608 0.77063697 0.43958478],"[ 1.46530626e+00  5.34619693e-01  6.57140976e-01  1.40598055e+00
  6.21998425e-01  4.24784489e-01 -5.93257079e-02  8.73787316e-02
 -2.32356487e-01  5.96748854e-04  8.22408398e-04 -2.12297065e-09
 -1.37725782e-09 -2.16963887e-15  1.32871106e-03 -4.05301792e-04
 -5.43439892e-03  1.18930675e-09  7.71551893e-10 -3.01122685e-18
 -1.32871104e-03  4.05301762e-04  5.43439892e-03  5.98274309e-06
 -5.98272676e-06]",1.087707801443668,0,0
78,78,2024-09-28 16:50:19.457859072,TASK_BEGIN,23,-0.5394586140447718,0.0715499151249003,-1.277465080377803,1.7152180311607903,-0.3872987391632203,0.1536624362726291,0.40616936744998,0.7374293249845625,2,2024-09-28 16:50:19.267453857,1727542219.2674546,2024-09-28 16:50:19.267454720,0,"[0.0009765625, 0.0009765625, 0.25, 0.0]",-1.0,-92.36850160934057,"[0.0009765625, 0.0009765625, 0.25, 0.0]",[ 2.1417009e-02  4.4620901e-01 -9.9999946e-01 -4.0185798e-04],[1.29063608 0.77063697 0.43958478],"[ 1.46146018e+00  5.35790316e-01  6.72392519e-01  1.40598055e+00
  6.21998425e-01  4.24784489e-01 -5.54796330e-02  8.62081084e-02
 -2.47608030e-01  5.97539486e-04  8.21617799e-04 -7.03141970e-10
 -4.56156932e-10 -2.16610669e-15  1.44247177e-03 -4.37282468e-04
 -5.36450701e-03  3.93906285e-10  2.55543110e-10  2.91248364e-18
 -1.44247176e-03  4.37282459e-04  5.36450701e-03  6.77705241e-06
 -6.77703863e-06]",1.080388171860465,0,0
79,79,2024-09-28 16:50:19.521842944,TASK_BEGIN,23,-0.5890583227421378,0.0597935310029009,-1.2527041092707254,1.7876131734175331,-0.3773349293465318,0.1460737665160837,0.4602565230602598,0.7538974312397599,2,2024-09-28 16:50:19.323455078,1727542219.3234553,2024-09-28 16:50:19.323455232,0,"[0.0009765625, 0.0009765625, 0.25, 0.0]",-1.0,-92.44481659324717,"[0.0009765625, 0.0009765625, 0.25, 0.0]",[ 3.0676378e-02  4.2852125e-01 -9.9999964e-01  3.2772892e-04],[1.29063608 0.77063697 0.43958478],"[ 1.45941787e+00  5.36409158e-01  6.79943155e-01  1.40598055e+00
  6.21998425e-01  4.24784489e-01 -5.34373219e-02  8.55892664e-02
 -2.55158666e-01  5.98157745e-04  8.20999555e-04 -4.04662104e-10
 -2.62520847e-10 -2.16586510e-15  1.49728726e-03 -4.52682559e-04
 -5.32788559e-03  2.26695256e-10  1.47066473e-10  1.83465193e-19
 -1.49728726e-03  4.52682553e-04  5.32788559e-03  7.14712022e-06
 -7.14710737e-06]",1.077084784551548,0,0
80,80,2024-09-28 16:50:19.585594112,TASK_BEGIN,23,-0.6421865862955793,0.0488391502636765,-1.2597975561873014,1.8552388559635689,-0.3710079752913268,0.1394738723916999,0.5694444363867581,0.7566827518803647,2,2024-09-28 16:50:19.379457031,1727542219.3794572,2024-09-28 16:50:19.379457280,0,"[0.0009765625, 0.0009765625, 0.23431396484375, 0.0]",-1.0,-92.5203684273147,"[0.0009765625, 0.0009765625, 0.23431396484375, 0.0]",[ 0.03956329  0.41006938 -0.99999976  0.00192898],[1.29063608 0.77063697 0.43958478],"[ 1.45738654e+00  5.37024724e-01  6.86991755e-01  1.40598055e+00
  6.21998425e-01  4.24784489e-01 -5.14059954e-02  8.49737002e-02
 -2.62207266e-01  5.99670963e-04  8.19486348e-04 -2.32885286e-10
 -1.51082206e-10 -2.16570849e-15  1.46628262e-03 -4.43792293e-04
 -4.91011640e-03  1.30464373e-10  8.46375734e-11  4.58411724e-19
 -1.46628262e-03  4.43792290e-04  4.91011640e-03  7.96156611e-06
 -7.96155811e-06]",1.061151875951242,0,0
81,81,2024-09-28 16:50:20.533665024,TASK_BEGIN,23,-0.6969111956751024,0.0388014629827904,-1.2982842431653452,1.917139095421269,-0.3675166064086445,0.1337267249401253,0.730315659376923,0.7453071481555921,2,2024-09-28 16:50:20.869718994,1727542220.8697193,2024-09-28 16:50:20.869719296,0,"[0.0009765625, 0.0009765625, -0.0009765625, 0.0625]",-1.0,-94.24036097430583,"[0.0009765625, 0.0009765625, -0.0009765625, 0.0625]",[ 0.04441372  0.40280983 -0.9999998   0.00523479],[1.29063608 0.77063697 0.43958478],"[ 1.45671671e+00  5.38258873e-01  6.81352936e-01  1.40598055e+00
  6.21998425e-01  4.24784489e-01 -5.07361567e-02  8.37395514e-02
 -2.56568447e-01  1.33623367e-02  1.34969321e-02 -1.43210979e-16
 -8.04174534e-17 -2.15812228e-15 -9.98060475e-06 -2.64711110e-05
  1.72192859e-04  7.53004243e-17  4.64410453e-17  3.81988198e-18
  9.98060475e-06  2.64711110e-05 -1.72192859e-04  2.19988531e-02
  2.19984762e-02]",0.8864126665229952,0,0
82,82,2024-09-28 16:50:20.596201984,TASK_BEGIN,23,-0.7513176595351595,0.0299011650366082,-1.3656046382287128,1.972585619420545,-0.3658450327539311,0.1286549572495709,0.935356288832064,0.7203452666455592,2,2024-09-28 16:50:20.869718994,1727542220.8697193,2024-09-28 16:50:20.869719296,0,"[0.0009765625, 0.0009765625, -0.0009765625, 0.0625]",-1.0,-94.24036097430583,"[0.0009765625, 0.0009765625, -0.0009765625, 0.0625]",[ 0.04441372  0.40280983 -0.9999998   0.00523479],[1.29063608 0.77063697 0.43958478],"[ 1.45671671e+00  5.38258873e-01  6.81352936e-01  1.40598055e+00
  6.21998425e-01  4.24784489e-01 -5.07361567e-02  8.37395514e-02
 -2.56568447e-01  1.33623367e-02  1.34969321e-02 -1.43210979e-16
 -8.04174534e-17 -2.15812228e-15 -9.98060475e-06 -2.64711110e-05
  1.72192859e-04  7.53004243e-17  4.64410453e-17  3.81988198e-18
  9.98060475e-06  2.64711110e-05 -1.72192859e-04  2.19988531e-02
  2.19984762e-02]",0.8864126665229952,0,0
83,83,2024-09-28 16:50:20.673878784,TASK_BEGIN,23,-0.8036160312059484,0.0224677767434964,-1.457324245821353,2.021002375867284,-0.3649290250830105,0.1240667060205204,1.173686630936006,0.6834326306216897,2,2024-09-28 16:50:20.869718994,1727542220.8697193,2024-09-28 16:50:20.869719296,0,"[0.0009765625, 0.0009765625, -0.0009765625, 0.0625]",-1.0,-94.24036097430583,"[0.0009765625, 0.0009765625, -0.0009765625, 0.0625]",[ 0.04441372  0.40280983 -0.9999998   0.00523479],[1.29063608 0.77063697 0.43958478],"[ 1.45671671e+00  5.38258873e-01  6.81352936e-01  1.40598055e+00
  6.21998425e-01  4.24784489e-01 -5.07361567e-02  8.37395514e-02
 -2.56568447e-01  1.33623367e-02  1.34969321e-02 -1.43210979e-16
 -8.04174534e-17 -2.15812228e-15 -9.98060475e-06 -2.64711110e-05
  1.72192859e-04  7.53004243e-17  4.64410453e-17  3.81988198e-18
  9.98060475e-06  2.64711110e-05 -1.72192859e-04  2.19988531e-02
  2.19984762e-02]",0.8864126665229952,0,0
84,84,2024-09-28 16:50:20.742327808,TASK_BEGIN,23,-0.8522309737735527,0.0169180566141595,-1.5674350503171588,2.061860119432878,-0.3638158810443925,0.1197919840792652,1.4320390867211443,0.6371650504430514,2,2024-09-28 16:50:20.869718994,1727542220.8697193,2024-09-28 16:50:20.869719296,0,"[0.0009765625, 0.0009765625, -0.0009765625, 0.0625]",-1.0,-94.24036097430583,"[0.0009765625, 0.0009765625, -0.0009765625, 0.0625]",[ 0.04441372  0.40280983 -0.9999998   0.00523479],[1.29063608 0.77063697 0.43958478],"[ 1.45671671e+00  5.38258873e-01  6.81352936e-01  1.40598055e+00
  6.21998425e-01  4.24784489e-01 -5.07361567e-02  8.37395514e-02
 -2.56568447e-01  1.33623367e-02  1.34969321e-02 -1.43210979e-16
 -8.04174534e-17 -2.15812228e-15 -9.98060475e-06 -2.64711110e-05
  1.72192859e-04  7.53004243e-17  4.64410453e-17  3.81988198e-18
  9.98060475e-06  2.64711110e-05 -1.72192859e-04  2.19988531e-02
  2.19984762e-02]",0.8864126665229952,0,0
85,85,2024-09-28 16:50:20.797980928,TASK_BEGIN,23,-0.8958609116460255,0.0137173777035598,-1.6887801782472998,2.094621548153772,-0.3617638784805859,0.1157110427515342,1.695890124427551,0.5848885595313754,2,2024-09-28 16:50:20.869718994,1727542220.8697193,2024-09-28 16:50:20.869719296,0,"[0.0009765625, 0.0009765625, -0.0009765625, 0.0625]",-1.0,-94.24036097430583,"[0.0009765625, 0.0009765625, -0.0009765625, 0.0625]",[ 0.04441372  0.40280983 -0.9999998   0.00523479],[1.29063608 0.77063697 0.43958478],"[ 1.45671671e+00  5.38258873e-01  6.81352936e-01  1.40598055e+00
  6.21998425e-01  4.24784489e-01 -5.07361567e-02  8.37395514e-02
 -2.56568447e-01  1.33623367e-02  1.34969321e-02 -1.43210979e-16
 -8.04174534e-17 -2.15812228e-15 -9.98060475e-06 -2.64711110e-05
  1.72192859e-04  7.53004243e-17  4.64410453e-17  3.81988198e-18
  9.98060475e-06  2.64711110e-05 -1.72192859e-04  2.19988531e-02
  2.19984762e-02]",0.8864126665229952,0,0
86,86,2024-09-28 16:50:20.874690048,TASK_BEGIN,23,-0.9335146700112086,0.0133349577416609,-1.813508411951933,2.11877384863764,-0.3582650585738902,0.1117612090403157,1.9505793247792893,0.5304126185444178,2,2024-09-28 16:50:20.869718994,1727542220.8697193,2024-09-28 16:50:20.869719296,0,"[0.0009765625, 0.0009765625, -0.0009765625, 0.0625]",-1.0,-94.24036097430583,"[0.0009765625, 0.0009765625, -0.0009765625, 0.0625]",[ 0.04441372  0.40280983 -0.9999998   0.00523479],[1.29063608 0.77063697 0.43958478],"[ 1.45671671e+00  5.38258873e-01  6.81352936e-01  1.40598055e+00
  6.21998425e-01  4.24784489e-01 -5.07361567e-02  8.37395514e-02
 -2.56568447e-01  1.33623367e-02  1.34969321e-02 -1.43210979e-16
 -8.04174534e-17 -2.15812228e-15 -9.98060475e-06 -2.64711110e-05
  1.72192859e-04  7.53004243e-17  4.64410453e-17  3.81988198e-18
  9.98060475e-06  2.64711110e-05 -1.72192859e-04  2.19988531e-02
  2.19984762e-02]",0.8864126665229952,0,0
87,87,2024-09-28 16:50:20.936742912,TASK_BEGIN,23,-0.9645391376494687,0.0162013024575782,-1.9333761920280657,2.13388643125628,-0.3530029774489778,0.1079183993092461,2.182186602381789,0.4776929443169465,2,2024-09-28 16:50:20.869718994,1727542220.8697193,2024-09-28 16:50:20.869719296,0,"[0.0009765625, 0.0009765625, -0.0009765625, 0.0625]",-1.0,-94.24036097430583,"[0.0009765625, 0.0009765625, -0.0009765625, 0.0625]",[ 0.04441372  0.40280983 -0.9999998   0.00523479],[1.29063608 0.77063697 0.43958478],"[ 1.45671671e+00  5.38258873e-01  6.81352936e-01  1.40598055e+00
  6.21998425e-01  4.24784489e-01 -5.07361567e-02  8.37395514e-02
 -2.56568447e-01  1.33623367e-02  1.34969321e-02 -1.43210979e-16
 -8.04174534e-17 -2.15812228e-15 -9.98060475e-06 -2.64711110e-05
  1.72192859e-04  7.53004243e-17  4.64410453e-17  3.81988198e-18
  9.98060475e-06  2.64711110e-05 -1.72192859e-04  2.19988531e-02
  2.19984762e-02]",0.8864126665229952,0,0
88,88,2024-09-28 16:50:21.862600192,TASK_BEGIN,23,-0.9886322156160272,0.0226715905249461,-2.0398611411647902,2.1396197294035937,-0.3457702775077714,0.1041621424472104,2.378093734673724,0.4305138597067227,2,2024-09-28 16:50:22.282062988,1727542222.2820637,2024-09-28 16:50:22.282063616,0,"[0.0009765625, 0.0009765625, -0.0009765625, 0.0]",-1.0,-95.52002974338616,"[0.0009765625, 0.0009765625, -0.0009765625, 0.0]",[ 0.0536962   0.43723354 -0.99999976  0.0092926 ],[1.29063608 0.77063697 0.43958478],"[ 1.45678631e+00  5.39241962e-01  6.75290099e-01  1.40598055e+00
  6.21998423e-01  4.24784489e-01 -5.08057554e-02  8.27564609e-02
 -2.50505610e-01  1.87388900e-06  1.69082341e-06  5.58176891e-11
  4.15689249e-11 -2.15721519e-15  2.57075649e-05 -3.64424702e-05
  1.81713508e-04 -3.12695573e-11 -2.32872772e-11 -4.37414493e-18
 -2.57075655e-05  3.64424710e-05 -1.81713508e-04  1.62302512e-03
  1.62240249e-03]",0.8892407318924486,0,0
89,89,2024-09-28 16:50:21.929496064,TASK_BEGIN,23,-1.0058199181390697,0.0329951857395175,-2.1242676373019878,2.135672269995112,-0.3363872455322981,0.1004465876850894,2.527373702972035,0.3922033519017557,2,2024-09-28 16:50:22.282062988,1727542222.2820637,2024-09-28 16:50:22.282063616,0,"[0.0009765625, 0.0009765625, -0.0009765625, 0.0]",-1.0,-95.52002974338616,"[0.0009765625, 0.0009765625, -0.0009765625, 0.0]",[ 0.0536962   0.43723354 -0.99999976  0.0092926 ],[1.29063608 0.77063697 0.43958478],"[ 1.45678631e+00  5.39241962e-01  6.75290099e-01  1.40598055e+00
  6.21998423e-01  4.24784489e-01 -5.08057554e-02  8.27564609e-02
 -2.50505610e-01  1.87388900e-06  1.69082341e-06  5.58176891e-11
  4.15689249e-11 -2.15721519e-15  2.57075649e-05 -3.64424702e-05
  1.81713508e-04 -3.12695573e-11 -2.32872772e-11 -4.37414493e-18
 -2.57075655e-05  3.64424710e-05 -1.81713508e-04  1.62302512e-03
  1.62240249e-03]",0.8892407318924486,0,0
90,90,2024-09-28 16:50:21.989278976,TASK_BEGIN,23,-1.0163854323030186,0.0472883331351185,-2.178080080517053,2.121709075531423,-0.3246586638476794,0.0966994776037053,2.62122240375817,0.3654248800186263,2,2024-09-28 16:50:22.282062988,1727542222.2820637,2024-09-28 16:50:22.282063616,0,"[0.0009765625, 0.0009765625, -0.0009765625, 0.0]",-1.0,-95.52002974338616,"[0.0009765625, 0.0009765625, -0.0009765625, 0.0]",[ 0.0536962   0.43723354 -0.99999976  0.0092926 ],[1.29063608 0.77063697 0.43958478],"[ 1.45678631e+00  5.39241962e-01  6.75290099e-01  1.40598055e+00
  6.21998423e-01  4.24784489e-01 -5.08057554e-02  8.27564609e-02
 -2.50505610e-01  1.87388900e-06  1.69082341e-06  5.58176891e-11
  4.15689249e-11 -2.15721519e-15  2.57075649e-05 -3.64424702e-05
  1.81713508e-04 -3.12695573e-11 -2.32872772e-11 -4.37414493e-18
 -2.57075655e-05  3.64424710e-05 -1.81713508e-04  1.62302512e-03
  1.62240249e-03]",0.8892407318924486,0,0
91,91,2024-09-28 16:50:22.065812992,TASK_BEGIN,23,-1.020757704771278,0.0655059229339336,-2.1936927952674727,2.097338836562313,-0.3103673775057535,0.0928492237610436,2.6535124961857943,0.352058933940614,2,2024-09-28 16:50:22.282062988,1727542222.2820637,2024-09-28 16:50:22.282063616,0,"[0.0009765625, 0.0009765625, -0.0009765625, 0.0]",-1.0,-95.52002974338616,"[0.0009765625, 0.0009765625, -0.0009765625, 0.0]",[ 0.0536962   0.43723354 -0.99999976  0.0092926 ],[1.29063608 0.77063697 0.43958478],"[ 1.45678631e+00  5.39241962e-01  6.75290099e-01  1.40598055e+00
  6.21998423e-01  4.24784489e-01 -5.08057554e-02  8.27564609e-02
 -2.50505610e-01  1.87388900e-06  1.69082341e-06  5.58176891e-11
  4.15689249e-11 -2.15721519e-15  2.57075649e-05 -3.64424702e-05
  1.81713508e-04 -3.12695573e-11 -2.32872772e-11 -4.37414493e-18
 -2.57075655e-05  3.64424710e-05 -1.81713508e-04  1.62302512e-03
  1.62240249e-03]",0.8892407318924486,0,0
92,92,2024-09-28 16:50:22.133537024,TASK_BEGIN,23,-1.0193856230492628,0.0874146067770828,-2.165417506137852,2.0621977963762363,-0.2932795107493128,0.0888595279457646,2.6213354566308,0.3531484248258263,2,2024-09-28 16:50:22.282062988,1727542222.2820637,2024-09-28 16:50:22.282063616,0,"[0.0009765625, 0.0009765625, -0.0009765625, 0.0]",-1.0,-95.52002974338616,"[0.0009765625, 0.0009765625, -0.0009765625, 0.0]",[ 0.0536962   0.43723354 -0.99999976  0.0092926 ],[1.29063608 0.77063697 0.43958478],"[ 1.45678631e+00  5.39241962e-01  6.75290099e-01  1.40598055e+00
  6.21998423e-01  4.24784489e-01 -5.08057554e-02  8.27564609e-02
 -2.50505610e-01  1.87388900e-06  1.69082341e-06  5.58176891e-11
  4.15689249e-11 -2.15721519e-15  2.57075649e-05 -3.64424702e-05
  1.81713508e-04 -3.12695573e-11 -2.32872772e-11 -4.37414493e-18
 -2.57075655e-05  3.64424710e-05 -1.81713508e-04  1.62302512e-03
  1.62240249e-03]",0.8892407318924486,0,0
93,93,2024-09-28 16:50:22.191791872,TASK_BEGIN,23,-1.012635347060657,0.1125800593770767,-2.090477918053678,2.016146039932649,-0.2731570998753586,0.0847535573494338,2.5253286786859874,0.368886051168047,2,2024-09-28 16:50:22.282062988,1727542222.2820637,2024-09-28 16:50:22.282063616,0,"[0.0009765625, 0.0009765625, -0.0009765625, 0.0]",-1.0,-95.52002974338616,"[0.0009765625, 0.0009765625, -0.0009765625, 0.0]",[ 0.0536962   0.43723354 -0.99999976  0.0092926 ],[1.29063608 0.77063697 0.43958478],"[ 1.45678631e+00  5.39241962e-01  6.75290099e-01  1.40598055e+00
  6.21998423e-01  4.24784489e-01 -5.08057554e-02  8.27564609e-02
 -2.50505610e-01  1.87388900e-06  1.69082341e-06  5.58176891e-11
  4.15689249e-11 -2.15721519e-15  2.57075649e-05 -3.64424702e-05
  1.81713508e-04 -3.12695573e-11 -2.32872772e-11 -4.37414493e-18
 -2.57075655e-05  3.64424710e-05 -1.81713508e-04  1.62302512e-03
  1.62240249e-03]",0.8892407318924486,0,0
94,94,2024-09-28 16:50:22.254279936,TASK_BEGIN,23,-1.0007335690662154,0.1403803868135836,-1.9696296798095776,1.9594960016709373,-0.2497883023590378,0.0806228023846607,2.3696812457744807,0.3986328184408251,2,2024-09-28 16:50:22.282062988,1727542222.2820637,2024-09-28 16:50:22.282063616,0,"[0.0009765625, 0.0009765625, -0.0009765625, 0.0]",-1.0,-95.52002974338616,"[0.0009765625, 0.0009765625, -0.0009765625, 0.0]",[ 0.0536962   0.43723354 -0.99999976  0.0092926 ],[1.29063608 0.77063697 0.43958478],"[ 1.45678631e+00  5.39241962e-01  6.75290099e-01  1.40598055e+00
  6.21998423e-01  4.24784489e-01 -5.08057554e-02  8.27564609e-02
 -2.50505610e-01  1.87388900e-06  1.69082341e-06  5.58176891e-11
  4.15689249e-11 -2.15721519e-15  2.57075649e-05 -3.64424702e-05
  1.81713508e-04 -3.12695573e-11 -2.32872772e-11 -4.37414493e-18
 -2.57075655e-05  3.64424710e-05 -1.81713508e-04  1.62302512e-03
  1.62240249e-03]",0.8892407318924486,0,0
95,95,2024-09-28 16:50:23.202828800,TASK_BEGIN,23,-0.9837530282704134,0.1700444944476831,-1.807171316196241,1.893142604093895,-0.2230214634357185,0.0766188090228089,2.1618449892591585,0.440940781818361,2,2024-09-28 16:50:23.750106934,1727542223.7501073,2024-09-28 16:50:23.750107392,0,"[0.0009765625, 0.0009765625, -0.0009765625, -0.0625]",-1.0,-96.55022961048353,"[0.0009765625, 0.0009765625, -0.0009765625, -0.0625]",[ 0.04288015  0.41282684 -0.9999997   0.00967539],[1.29063608 0.77063697 0.43958478],"[ 1.45613122e+00  5.40463270e-01  6.68786415e-01  1.40598041e+00
  6.21998643e-01  4.24784513e-01 -5.01508173e-02  8.15353725e-02
 -2.44001902e-01  2.65850881e-05  2.63977704e-05 -8.63477279e-06
 -5.60172999e-06 -2.41869851e-11  3.94411105e-05 -4.02919048e-05
  1.84364403e-04  4.69556925e-06  3.04620768e-06 -1.43999528e-18
 -3.93652414e-05  4.01749566e-05 -1.84377599e-04 -4.34877191e-05
 -4.40206639e-05]",0.8962778648532236,0,0
96,96,2024-09-28 16:50:23.279072000,TASK_BEGIN,23,-0.9616392975561096,0.2007056045069571,-1.6103925583404006,1.8185196095720184,-0.1927798534728471,0.0729272858160869,1.912074549797032,0.4935662151166105,2,2024-09-28 16:50:23.806106934,1727542223.8061078,2024-09-28 16:50:23.806107648,0,"[0.0009765625, 0.0009765625, -0.0009765625, -0.0625]",-1.0,-96.5847273143787,"[0.0009765625, 0.0009765625, -0.0009765625, -0.0625]",[ 0.04291397  0.41311288 -0.9999997   0.0097991 ],[1.29063608 0.77063697 0.43958478],"[ 1.45609859e+00  5.40512275e-01  6.68534540e-01  1.40598047e+00
  6.21998552e-01  4.24784503e-01 -5.01181218e-02  8.14862764e-02
 -2.43750037e-01 -2.10536640e-06 -2.09458496e-06 -4.99083481e-06
 -3.23775850e-06 -8.08171282e-12  3.96702964e-05 -4.03177237e-05
  1.84402189e-04  2.79280430e-06  1.81180628e-06 -2.22485147e-18
 -3.96249969e-05  4.02478968e-05 -1.84409958e-04  3.03472394e-06
  3.04411179e-06]",0.896401847030044,0,0
97,97,2024-09-28 16:50:23.343111936,TASK_BEGIN,23,-0.934285101688604,0.2314592995202414,-1.3886942187569955,1.7374228692537397,-0.1590748913739819,0.0697358378555945,1.632878864256723,0.5535208625352168,2,2024-09-28 16:50:23.864104980,1727542223.8641052,2024-09-28 16:50:23.864105216,0,"[0.0009765625, 0.0009765625, -0.0009765625, -0.0625]",-1.0,-96.6188800412349,"[0.0009765625, 0.0009765625, -0.0009765625, -0.0625]",[ 0.0429111   0.41320193 -0.9999997   0.00989439],[1.29063608 0.77063697 0.43958478],"[ 1.45606558e+00  5.40561378e-01  6.68282590e-01  1.40598050e+00
  6.21998499e-01  4.24784497e-01 -5.00850814e-02  8.14371209e-02
 -2.43498093e-01  1.14700365e-06  1.11543300e-06 -2.87272649e-06
 -1.86365507e-06 -2.67904076e-12  3.98987216e-05 -4.03505079e-05
  1.84435009e-04  1.60925577e-06  1.04398999e-06 -2.63415587e-18
 -3.98726145e-05  4.03102651e-05 -1.84439472e-04  3.02482065e-06
  2.30263788e-06]",0.8965076927599789,0,0
98,98,2024-09-28 16:50:23.415366912,TASK_BEGIN,23,-0.901629465509826,0.2614155585389172,-1.1525622248365863,1.6518005633852324,-0.1220658081882597,0.0672133331950381,1.3383137273526082,0.6172278987945287,2,2024-09-28 16:50:23.864104980,1727542223.8641052,2024-09-28 16:50:23.864105216,0,"[0.0009765625, 0.0009765625, -0.0009765625, -0.0625]",-1.0,-96.6188800412349,"[0.0009765625, 0.0009765625, -0.0009765625, -0.0625]",[ 0.0429111   0.41320193 -0.9999997   0.00989439],[1.29063608 0.77063697 0.43958478],"[ 1.45606558e+00  5.40561378e-01  6.68282590e-01  1.40598050e+00
  6.21998499e-01  4.24784497e-01 -5.00850814e-02  8.14371209e-02
 -2.43498093e-01  1.14700365e-06  1.11543300e-06 -2.87272649e-06
 -1.86365507e-06 -2.67904076e-12  3.98987216e-05 -4.03505079e-05
  1.84435009e-04  1.60925577e-06  1.04398999e-06 -2.63415587e-18
 -3.98726145e-05  4.03102651e-05 -1.84439472e-04  3.02482065e-06
  2.30263788e-06]",0.8965076927599789,0,0
99,99,2024-09-28 16:50:23.482620160,TASK_BEGIN,23,-0.8637390949314556,0.2897407217147054,-0.9124758896493748,1.5635794713029576,-0.082173883961176,0.0655059081309463,1.0430921702123497,0.6807811044124742,2,2024-09-28 16:50:23.864104980,1727542223.8641052,2024-09-28 16:50:23.864105216,0,"[0.0009765625, 0.0009765625, -0.0009765625, -0.0625]",-1.0,-96.6188800412349,"[0.0009765625, 0.0009765625, -0.0009765625, -0.0625]",[ 0.0429111   0.41320193 -0.9999997   0.00989439],[1.29063608 0.77063697 0.43958478],"[ 1.45606558e+00  5.40561378e-01  6.68282590e-01  1.40598050e+00
  6.21998499e-01  4.24784497e-01 -5.00850814e-02  8.14371209e-02
 -2.43498093e-01  1.14700365e-06  1.11543300e-06 -2.87272649e-06
 -1.86365507e-06 -2.67904076e-12  3.98987216e-05 -4.03505079e-05
  1.84435009e-04  1.60925577e-06  1.04398999e-06 -2.63415587e-18
 -3.98726145e-05  4.03102651e-05 -1.84439472e-04  3.02482065e-06
  2.30263788e-06]",0.8965076927599789,0,0
100,100,2024-09-28 16:50:23.550838016,TASK_BEGIN,23,-0.8208628227685655,0.3156984003560998,-0.6779105409104041,1.474558760210842,-0.0401926336231563,0.0647383840578042,0.7617102920230625,0.7402336058067959,2,2024-09-28 16:50:23.864104980,1727542223.8641052,2024-09-28 16:50:23.864105216,0,"[0.0009765625, 0.0009765625, -0.0009765625, -0.0625]",-1.0,-96.6188800412349,"[0.0009765625, 0.0009765625, -0.0009765625, -0.0625]",[ 0.0429111   0.41320193 -0.9999997   0.00989439],[1.29063608 0.77063697 0.43958478],"[ 1.45606558e+00  5.40561378e-01  6.68282590e-01  1.40598050e+00
  6.21998499e-01  4.24784497e-01 -5.00850814e-02  8.14371209e-02
 -2.43498093e-01  1.14700365e-06  1.11543300e-06 -2.87272649e-06
 -1.86365507e-06 -2.67904076e-12  3.98987216e-05 -4.03505079e-05
  1.84435009e-04  1.60925577e-06  1.04398999e-06 -2.63415587e-18
 -3.98726145e-05  4.03102651e-05 -1.84439472e-04  3.02482065e-06
  2.30263788e-06]",0.8965076927599789,0,0
101,101,2024-09-28 16:50:23.618656000,TASK_BEGIN,23,-0.7734828961674823,0.338699336289737,-0.4567118030858688,1.3864030612853484,0.0026866472127428,0.0650096105560456,0.507746457938486,0.7918490088538439,2,2024-09-28 16:50:23.864104980,1727542223.8641052,2024-09-28 16:50:23.864105216,0,"[0.0009765625, 0.0009765625, -0.0009765625, -0.0625]",-1.0,-96.6188800412349,"[0.0009765625, 0.0009765625, -0.0009765625, -0.0625]",[ 0.0429111   0.41320193 -0.9999997   0.00989439],[1.29063608 0.77063697 0.43958478],"[ 1.45606558e+00  5.40561378e-01  6.68282590e-01  1.40598050e+00
  6.21998499e-01  4.24784497e-01 -5.00850814e-02  8.14371209e-02
 -2.43498093e-01  1.14700365e-06  1.11543300e-06 -2.87272649e-06
 -1.86365507e-06 -2.67904076e-12  3.98987216e-05 -4.03505079e-05
  1.84435009e-04  1.60925577e-06  1.04398999e-06 -2.63415587e-18
 -3.98726145e-05  4.03102651e-05 -1.84439472e-04  3.02482065e-06
  2.30263788e-06]",0.8965076927599789,0,0
102,102,2024-09-28 16:50:24.555620864,TASK_BEGIN,23,-0.722365496977382,0.3583524507672389,-0.2549756455655786,1.3007229069697936,0.0449826791640746,0.0663766748968387,0.2932273791657406,0.8323116421196535,2,2024-09-28 16:50:25.065514159,1727542225.0655143,2024-09-28 16:50:25.065514240,0,"[0.0009765625, 0.0009765625, -0.0009765625, 0.0]",-1.0,-97.26221294358878,"[0.0009765625, 0.0009765625, -0.0009765625, 0.0]",[ 0.04417894  0.4142945  -0.99999964  0.011418  ],[1.29063608 0.77063697 0.43958478],"[ 1.45530885e+00  5.41609391e-01  6.62980054e-01  1.40598055e+00
  6.21998427e-01  4.24784489e-01 -4.93283046e-02  8.03890355e-02
 -2.38195564e-01  6.70988057e-06  4.03024084e-06 -2.62625989e-11
 -1.70376198e-11 -2.15063732e-15  4.27708400e-05 -4.10422404e-05
  1.84511562e-04  1.47125403e-11  9.54462844e-12 -1.45552916e-18
 -4.27708397e-05  4.10422401e-05 -1.84511562e-04  4.08501834e-07
 -4.08495825e-07]",0.8949836994568485,0,0
103,103,2024-09-28 16:50:24.618108928,TASK_BEGIN,23,-0.6685787541492232,0.3744958631125694,-0.0772667029288615,1.2191260014400744,0.0851502580135235,0.0688256258945396,0.1278931585990017,0.8589368737353813,2,2024-09-28 16:50:25.121512939,1727542225.121514,2024-09-28 16:50:25.121513984,0,"[0.0009765625, 0.0009765625, -0.0009765625, 0.0]",-1.0,-97.28959081415289,"[0.0009765625, 0.0009765625, -0.0009765625, 0.0]",[ 0.04423948  0.414356   -0.99999964  0.01149209],[1.29063608 0.77063697 0.43958478],"[ 1.45527062e+00  5.41659866e-01  6.62727226e-01  1.40598055e+00
  6.21998427e-01  4.24784489e-01 -4.92900707e-02  8.03385605e-02
 -2.37942737e-01  6.77898873e-06  3.96113728e-06 -1.51142707e-11
 -9.80524382e-12 -2.15100164e-15  4.28284490e-05 -4.10546982e-05
  1.84496715e-04  8.46714507e-12  5.49297800e-12 -2.94591781e-18
 -4.28284488e-05  4.10546980e-05 -1.84496715e-04  4.09733134e-07
 -4.09729985e-07]",0.8950643904560256,0,0
104,104,2024-09-28 16:50:24.696688896,TASK_BEGIN,23,-0.6134554088520681,0.3871948827378013,0.0731391237258621,1.1431031306493018,0.1218405150294727,0.072235870988788,0.0184101561672661,0.869895727889185,2,2024-09-28 16:50:25.240590088,1727542225.24059,2024-09-28 16:50:25.240590080,0,"[0.0009765625, 0.0009765625, -0.0009765625, 0.0]",-1.0,-97.34352795695125,"[0.0009765625, 0.0009765625, -0.0009765625, 0.0]",[ 0.04436133  0.4144775  -0.99999964  0.01164085],[1.29063608 0.77063697 0.43958478],"[ 1.45519374e+00  5.41760919e-01  6.62221534e-01  1.40598055e+00
  6.21998427e-01  4.24784489e-01 -4.92131900e-02  8.02375075e-02
 -2.37437044e-01  6.91820654e-06  3.82192316e-06 -5.00594897e-12
 -3.24756768e-12 -2.15077058e-15  4.29280835e-05 -4.10752811e-05
  1.84463670e-04  2.80437186e-12  1.81931619e-12 -5.91924519e-20
 -4.29280834e-05  4.10752810e-05 -1.84463670e-04  4.12131549e-07
 -4.12130666e-07]",0.8952192870645697,0,0
105,105,2024-09-28 16:50:24.756994816,TASK_BEGIN,23,-0.558509240811988,0.3967114167836505,0.1942386419573833,1.073749986910763,0.1540842611781395,0.076360270476229,-0.0321984600918769,0.8644019087349587,2,2024-09-28 16:50:25.298741943,1727542225.2987428,2024-09-28 16:50:25.298742784,0,"[0.0009765625, 0.0009765625, -0.0009765625, 0.0]",-1.0,-97.37009267738173,"[0.0009765625, 0.0009765625, -0.0009765625, 0.0]",[ 0.04442271  0.4145377  -0.99999964  0.01171548],[1.29063608 0.77063697 0.43958478],"[ 1.45515510e+00  5.41811494e-01  6.61968671e-01  1.40598055e+00
  6.21998427e-01  4.24784489e-01 -4.91745555e-02  8.01869329e-02
 -2.37184182e-01  6.98829512e-06  3.75183526e-06 -2.88095920e-12
 -1.86899098e-12 -2.14959923e-15  4.29705133e-05 -4.10835198e-05
  1.84445572e-04  1.61393544e-12  1.04701850e-12  2.04309666e-18
 -4.29705133e-05  4.10835198e-05 -1.84445572e-04  4.13299295e-07
 -4.13298817e-07]",0.8952960228194055,0,0
106,106,2024-09-28 16:50:24.832244992,TASK_BEGIN,23,-0.5053266829129437,0.4034571025506898,0.285567374998642,1.0114809596694023,0.1813304828114229,0.0808399671277839,-0.024650217199749,0.842798660680385,2,2024-09-28 16:50:25.357505127,1727542225.3575056,2024-09-28 16:50:25.357505536,0,"[0.0009765625, 0.0009765625, -0.0009765625, 0.0]",-1.0,-97.39639175060792,"[0.0009765625, 0.0009765625, -0.0009765625, 0.0]",[ 0.0444843   0.41459775 -0.99999964  0.01179024],[1.29063608 0.77063697 0.43958478],"[ 1.45511635e+00  5.41862099e-01  6.61715800e-01  1.40598055e+00
  6.21998427e-01  4.24784489e-01 -4.91357993e-02  8.01363283e-02
 -2.36931311e-01  7.05868981e-06  3.68144095e-06 -1.65800814e-12
 -1.07561985e-12 -2.14784634e-15  4.30082745e-05 -4.10904621e-05
  1.84426488e-04  9.28825737e-13  6.02573919e-13 -4.63620276e-19
 -4.30082745e-05  4.10904621e-05 -1.84426488e-04  4.14446643e-07
 -4.14446375e-07]",0.8953725763069942,0,0
107,107,2024-09-28 16:50:24.897345024,TASK_BEGIN,23,-0.4554545480237711,0.4079394563146932,0.3485556812817239,0.9558989448244456,0.2033578540253939,0.0852495147659173,0.0369993947839751,0.8065379820487422,2,2024-09-28 16:50:25.414212891,1727542225.4142132,2024-09-28 16:50:25.414213120,0,"[0.0009765625, 0.0009765625, -0.0009765625, 0.0]",-1.0,-97.42242783310184,"[0.0009765625, 0.0009765625, -0.0009765625, 0.0]",[ 0.04454626  0.41465718 -0.99999964  0.01186516],[1.29063608 0.77063697 0.43958478],"[ 1.45507747e+00  5.41912731e-01  6.61462922e-01  1.40598055e+00
  6.21998427e-01  4.24784489e-01 -4.90969271e-02  8.00856955e-02
 -2.36678432e-01  7.12938069e-06  3.61075028e-06 -9.54191294e-13
 -6.19022255e-13 -2.14706337e-15  4.30415499e-05 -4.10961592e-05
  1.84406463e-04  5.34541806e-13  3.46785701e-13  3.15735459e-18
 -4.30415499e-05  4.10961592e-05 -1.84406463e-04  4.15574065e-07
 -4.15573907e-07]",0.895448845469109,0,0
108,108,2024-09-28 16:50:24.967793920,TASK_BEGIN,23,-0.4103093587372065,0.4107081596682871,0.3866812465003349,0.9058690258927646,0.2201399895350373,0.089152366165171,0.1460804142790627,0.758074589819797,2,2024-09-28 16:50:25.471018066,1727542225.4710186,2024-09-28 16:50:25.471018496,0,"[0.0009765625, 0.0009765625, -0.0009765625, 0.0]",-1.0,-97.44820355477081,"[0.0009765625, 0.0009765625, -0.0009765625, 0.0]",[ 0.04460834  0.4147166  -0.99999964  0.01194021],[1.29063608 0.77063697 0.43958478],"[ 1.45503849e+00  5.41963391e-01  6.61210037e-01  1.40598055e+00
  6.21998427e-01  4.24784489e-01 -4.90579441e-02  8.00350357e-02
 -2.36425548e-01  7.20035820e-06  3.53977290e-06 -5.49144996e-13
 -3.56253267e-13 -2.14350501e-15  4.30705153e-05 -4.11006606e-05
  1.84385539e-04  3.07626241e-13  1.99571453e-13  3.44774219e-18
 -4.30705153e-05  4.11006605e-05 -1.84385539e-04  4.16682040e-07
 -4.16681939e-07]",0.8955249943510966,0,0
109,109,2024-09-28 16:50:25.912745216,TASK_BEGIN,23,-0.3711238271259968,0.4123099946527149,0.4052731070544056,0.8597515701216851,0.2317413704622229,0.0921533604091695,0.2940990628033004,0.7006821443740662,2,2024-09-28 16:50:26.431041016,1727542226.4310412,2024-09-28 16:50:26.431041280,0,"[0.0009765625, 0.0009765625, -0.0009765625, 0.0]",-1.0,-97.84898055559275,"[0.0009765625, 0.0009765625, -0.0009765625, 0.0]",[ 0.04630727  0.4154124  -0.9999996   0.01373187],[1.29063608 0.77063697 0.43958478],"[ 1.45436325e+00  5.42827486e-01  6.56911268e-01  1.40598055e+00
  6.21998427e-01  4.24784489e-01 -4.83827072e-02  7.91709406e-02
 -2.32126779e-01  8.44297713e-06  2.29715473e-06 -4.88862212e-17
 -4.11562044e-17 -2.12839417e-15  4.30443655e-05 -4.10337353e-05
  1.83926457e-04  2.75542426e-17  2.89097945e-17 -1.89846575e-18
 -4.30443655e-05  4.10337353e-05 -1.83926457e-04  4.32955909e-07
 -4.32955873e-07]",0.8969613892615398,0,0
110,110,2024-09-28 16:50:25.970189824,TASK_BEGIN,23,-0.3389135809436804,0.4132553962613215,0.4110275065440451,0.8157319604363547,0.2382802210585972,0.0939438827483423,0.4713999660249596,0.6381938668818123,2,2024-09-28 16:50:26.487041992,1727542226.487043,2024-09-28 16:50:26.487042816,0,"[0.0009765625, 0.0009765625, -0.0009765625, 0.0]",-1.0,-97.87049075003682,"[0.0009765625, 0.0009765625, -0.0009765625, 0.0]",[ 0.04619084  0.41547498 -0.9999996   0.01401776],[1.29063608 0.77063697 0.43958478],"[ 1.45432302e+00  5.42878424e-01  6.56658471e-01  1.40598055e+00
  6.21998427e-01  4.24784489e-01 -4.83424686e-02  7.91200027e-02
 -2.31873982e-01  8.51780126e-06  2.22233063e-06 -1.94903264e-17
 -4.11562044e-17 -2.12839417e-15  4.30191549e-05 -4.10232743e-05
  1.83894988e-04 -1.20453465e-17  2.45133458e-17 -2.95016447e-18
 -4.30191549e-05  4.10232743e-05 -1.83894988e-04  4.33783503e-07
 -4.33783468e-07]",0.8970480624465414,0,0
111,111,2024-09-28 16:50:26.045262848,TASK_BEGIN,23,-0.3144322855609954,0.4139894699592935,0.4113386708249997,0.7721783732475515,0.2399583042102952,0.0943337294670795,0.6676946949052721,0.5746870147378321,2,2024-09-28 16:50:26.599040039,1727542226.5990405,2024-09-28 16:50:26.599040512,0,"[0.0009765625, 0.0009765625, -0.0009765625, 0.0]",-1.0,-97.91286798411109,"[0.0009765625, 0.0009765625, -0.0009765625, 0.0]",[ 0.04595925  0.41559884 -0.9999996   0.01459005],[1.29063608 0.77063697 0.43958478],"[ 1.45424243e+00  5.42980319e-01  6.56152917e-01  1.40598062e+00
  6.21998328e-01  4.24784494e-01 -4.82618082e-02  7.90180090e-02
 -2.31368423e-01  8.66791218e-06  2.07221979e-06  3.90372113e-06
  2.90720546e-06 -5.67659128e-12  4.29236553e-05 -4.09481707e-05
  1.83828254e-04 -2.11139032e-06 -1.57240881e-06  2.03206372e-18
 -4.29627924e-05  4.10007230e-05 -1.83831014e-04  4.35401731e-07
 -4.35401696e-07]",0.8972225429350766,0,0
112,112,2024-09-28 16:50:26.116684032,TASK_BEGIN,23,-0.2981134572229704,0.4148637597822376,0.4134879224488161,0.7279495181780508,0.2371171872937295,0.093264933169606,0.8725753794546067,0.5141613297273971,2,2024-09-28 16:50:26.655040039,1727542226.6550407,2024-09-28 16:50:26.655040768,0,"[0.0009765625, 0.0009765625, -0.0009765625, 0.0]",-1.0,-97.93373930426998,"[0.0009765625, 0.0009765625, -0.0009765625, 0.0]",[ 0.04584397  0.4156619  -0.9999996   0.01487465],[1.29063608 0.77063697 0.43958478],"[ 1.45420209e+00  5.43031274e-01  6.55900161e-01  1.40598059e+00
  6.21998369e-01  4.24784492e-01 -4.82214962e-02  7.89670950e-02
 -2.31115669e-01  8.74318951e-06  1.99694250e-06  2.25805212e-06
  1.68163176e-06 -1.90073658e-12  4.29082758e-05 -4.09570915e-05
  1.83796912e-04 -1.26332996e-06 -9.40835590e-07  1.17531123e-18
 -4.29317982e-05  4.09886768e-05 -1.83798544e-04  4.36192897e-07
 -4.36192862e-07]",0.8973091622562206,0,0
113,113,2024-09-28 16:50:26.184376064,TASK_BEGIN,23,-0.2900356686298507,0.4161199772837382,0.4237553211486174,0.6825913958970605,0.2302522246538969,0.0908128073461544,1.076018707888301,0.4602784862166796,2,2024-09-28 16:50:26.710561035,1727542226.7105615,2024-09-28 16:50:26.710561536,0,"[0.0009765625, 0.0009765625, -0.0009765625, 0.0]",-1.0,-97.95440191122728,"[0.0009765625, 0.0009765625, -0.0009765625, 0.0]",[ 0.04572776  0.41572404 -0.9999996   0.0151607 ],[1.29063608 0.77063697 0.43958478],"[ 1.45416171e+00  5.43082233e-01  6.55647421e-01  1.40598057e+00
  6.21998393e-01  4.24784491e-01 -4.81811420e-02  7.89161597e-02
 -2.30862930e-01  8.81860871e-06  1.92152333e-06  1.29977213e-06
  9.67975044e-07 -6.31204454e-13  4.28854691e-05 -4.09579371e-05
  1.83764838e-04 -7.28107268e-07 -5.42240943e-07  2.73277683e-18
 -4.28990290e-05  4.09761449e-05 -1.83765776e-04  4.36972440e-07
 -4.36972405e-07]",0.8973989193003259,0,0
114,114,2024-09-28 16:50:26.252083968,TASK_BEGIN,23,-0.2899365920476869,0.4178971414712009,0.4466395045387228,0.6363966715558543,0.2199499478995357,0.0871826297012241,1.268778276496889,0.4161887648902201,2,2024-09-28 16:50:26.766561035,1727542226.766561,2024-09-28 16:50:26.766561024,0,"[0.0009765625, 0.0009765625, -0.0009765625, 0.0]",-1.0,-97.97485789211501,"[0.0009765625, 0.0009765625, -0.0009765625, 0.0]",[ 0.04561203  0.41578606 -0.9999996   0.01544673],[1.29063608 0.77063697 0.43958478],"[ 1.45412132e+00  5.43133196e-01  6.55394696e-01  1.40598056e+00
  6.21998406e-01  4.24784490e-01 -4.81407530e-02  7.88652105e-02
 -2.30610206e-01  8.89416544e-06  1.84596664e-06  7.48031678e-07
  5.57079183e-07 -2.10486794e-13  4.28567522e-05 -4.09526679e-05
  1.83732186e-04 -4.19053014e-07 -3.12079979e-07 -8.89322082e-19
 -4.28645565e-05  4.09631473e-05 -1.83732724e-04  4.37740607e-07
 -4.37740572e-07]",0.8974936742574705,0,0
115,115,2024-09-28 16:50:26.310019072,TASK_BEGIN,23,-0.2972509796394108,0.4202545569309519,0.4844336375396752,0.5903361387998731,0.2067840639530694,0.082700418329679,1.4426463728833674,0.3844072168431879,2,2024-09-28 16:50:26.822562012,1727542226.822563,2024-09-28 16:50:26.822562816,0,"[0.0009765625, 0.0009765625, -0.0009765625, 0.0]",-1.0,-97.99510931319386,"[0.0009765625, 0.0009765625, -0.0009765625, 0.0]",[ 0.04552484  0.41584924 -0.9999995   0.01572656],[1.29063608 0.77063697 0.43958478],"[ 1.45408089e+00  5.43184162e-01  6.55141987e-01  1.40598056e+00
  6.21998414e-01  4.24784490e-01 -4.81003348e-02  7.88142525e-02
 -2.30357498e-01  8.96985548e-06  1.77027664e-06  4.30496538e-07
  3.20602278e-07 -7.11391954e-14  4.28239583e-05 -4.09436723e-05
  1.83699096e-04 -2.41167885e-07 -1.79604169e-07 -1.67338273e-18
 -4.28284497e-05  4.09497032e-05 -1.83699405e-04  4.38497641e-07
 -4.38497606e-07]",0.8975883188287798,0,0
116,116,2024-09-28 16:50:27.236990976,TASK_BEGIN,23,-0.3111328220250931,0.4231917265755527,0.5372564522444757,0.5459102586012142,0.1912280103776182,0.0777893216425767,1.5906558924482228,0.3666938688949094,2,2024-09-28 16:50:27.787823975,1727542227.7878242,2024-09-28 16:50:27.787824128,0,"[0.0009765625, 0.0009765625, -0.0009765625, 0.0]",-1.0,-98.30999104207793,"[0.0009765625, 0.0009765625, -0.0009765625, 0.0]",[ 0.04483018  0.41682732 -0.99999946  0.02028784],[1.29063608 0.77063697 0.43958478],"[ 1.45339181e+00  5.44050508e-01  6.50848921e-01  1.40598055e+00
  6.21998425e-01  4.24784489e-01 -4.74112643e-02  7.79479169e-02
 -2.26064432e-01  1.02734913e-05  4.66641366e-07  3.58766194e-11
  2.67182756e-11 -2.12844490e-15  4.20204925e-05 -4.06684406e-05
  1.83104268e-04 -2.00983927e-11 -1.49678165e-11  4.52154506e-18
 -4.20204929e-05  4.06684411e-05 -1.83104268e-04  4.49867408e-07
 -4.49867376e-07]",0.8990552681177564,0,0
117,117,2024-09-28 16:50:27.292990976,TASK_BEGIN,23,-0.3304578697831752,0.4266542139699758,0.6033988478825246,0.5049707783179196,0.1736124074964385,0.0729313373281856,1.7072882772000175,0.3639407140849423,2,2024-09-28 16:50:27.845567871,1727542227.8455684,2024-09-28 16:50:27.845568512,0,"[0.0009765625, 0.0009765625, -0.0009765625, 0.0]",-1.0,-98.32689113165715,"[0.0009765625, 0.0009765625, -0.0009765625, 0.0]",[ 0.04482532  0.4168082  -0.99999946  0.02053371],[1.29063608 0.77063697 0.43958478],"[ 1.45335126e+00  5.44101439e-01  6.50596587e-01  1.40598055e+00
  6.21998425e-01  4.24784489e-01 -4.73707162e-02  7.78969862e-02
 -2.25812098e-01  1.03509945e-05  3.89138218e-07  2.06471976e-11
  1.53765149e-11 -2.12547656e-15  4.19642843e-05 -4.06495576e-05
  1.83068157e-04 -1.15667366e-11 -8.61405882e-12  1.43156199e-18
 -4.19642845e-05  4.06495579e-05 -1.83068157e-04  4.50458473e-07
 -4.50458441e-07]",0.8991450103617236,0,0
118,118,2024-09-28 16:50:27.372545024,TASK_BEGIN,23,-0.3538252723971543,0.4305246692539425,0.6797984340224269,0.4695119896151409,0.154127009584722,0.0686251919719196,1.7887426066749998,0.376107207086773,2,2024-09-28 16:50:27.905552002,1727542227.9055521,2024-09-28 16:50:27.905552128,0,"[0.0009765625, 0.0009765625, -0.0009765625, 0.0]",-1.0,-98.34362222034058,"[0.0009765625, 0.0009765625, -0.0009765625, 0.0]",[ 0.04482052  0.4167889  -0.99999946  0.02077962],[1.29063608 0.77063697 0.43958478],"[ 1.45331072e+00  5.44152364e-01  6.50344277e-01  1.40598055e+00
  6.21998425e-01  4.24784489e-01 -4.73301754e-02  7.78460613e-02
 -2.25559787e-01  1.04285720e-05  3.11560782e-07  1.18825848e-11
  8.84927111e-12 -2.12619054e-15  4.19073637e-05 -4.06304848e-05
  1.83031976e-04 -6.65672085e-12 -4.95743870e-12 -5.57146486e-19
 -4.19073639e-05  4.06304850e-05 -1.83031976e-04  4.51041918e-07
 -4.51041886e-07]",0.8992384441908442,0,0
119,119,2024-09-28 16:50:27.431802880,TASK_BEGIN,23,-0.3795741574272054,0.4346041287337986,0.7625646929527975,0.4414097221884901,0.1328638468769976,0.0653479808225246,1.8333294626923675,0.4022278297998465,2,2024-09-28 16:50:27.961552002,1727542227.961552,2024-09-28 16:50:27.961551872,0,"[0.0009765625, 0.0009765625, -0.0009765625, 0.0]",-1.0,-98.36018599813717,"[0.0009765625, 0.0009765625, -0.0009765625, 0.0]",[ 0.04481564  0.4167696  -0.99999946  0.02102556],[1.29063608 0.77063697 0.43958478],"[ 1.45327019e+00  5.44203283e-01  6.50091991e-01  1.40598055e+00
  6.21998425e-01  4.24784489e-01 -4.72896432e-02  7.77951426e-02
 -2.25307502e-01  1.05062215e-05  2.33911307e-07  6.83849037e-12
  5.09280482e-12 -2.12702620e-15  4.18497639e-05 -4.06112315e-05
  1.82995732e-04 -3.83098713e-12 -2.85303389e-12  2.50852599e-18
 -4.18497640e-05  4.06112316e-05 -1.82995732e-04  4.51617884e-07
 -4.51617852e-07]",0.8993302563057531,0,0
120,120,2024-09-28 16:50:27.508050944,TASK_BEGIN,23,-0.4058409938039684,0.4385973668634572,0.8474830069335089,0.4221365513768459,0.109905465464424,0.063517174718033,1.841988089184205,0.440468942806637,2,2024-09-28 16:50:28.016551025,1727542228.0165515,2024-09-28 16:50:28.016551424,0,"[0.0009765625, 0.0009765625, -0.0009765625, 0.0]",-1.0,-98.37658413815579,"[0.0009765625, 0.0009765625, -0.0009765625, 0.0]",[ 0.04481076  0.41675043 -0.99999946  0.02127134],[1.29063608 0.77063697 0.43958478],"[ 1.45322967e+00  5.44254195e-01  6.49839731e-01  1.40598055e+00
  6.21998425e-01  4.24784489e-01 -4.72491207e-02  7.77442304e-02
 -2.25055241e-01  1.05839409e-05  1.56191972e-07  3.93559035e-12
  2.93093908e-12 -2.12503461e-15  4.17915165e-05 -4.05918065e-05
  1.82959431e-04 -2.20474172e-12 -1.64193592e-12 -1.12768157e-19
 -4.17915165e-05  4.05918065e-05 -1.82959431e-04  4.52186508e-07
 -4.52186477e-07]",0.8994127362413596,0,0
121,121,2024-09-28 16:50:27.575354880,TASK_BEGIN,23,-0.4306796044954327,0.4421193091357326,0.9303467660393356,0.4125288876155059,0.0854454628756241,0.0634513526614042,1.818721592459401,0.4882103465317054,2,2024-09-28 16:50:28.129549072,1727542228.1295497,2024-09-28 16:50:28.129549824,0,"[0.0009765625, 0.0009765625, -0.0009765625, 0.0]",-1.0,-98.40889011380649,"[0.0009765625, 0.0009765625, -0.0009765625, 0.0]",[ 0.04480077  0.416712   -0.99999946  0.02176292],[1.29063608 0.77063697 0.43958478],"[ 1.45314866e+00  5.44355998e-01  6.49335285e-01  1.40598055e+00
  6.21998425e-01  4.24784489e-01 -4.71681094e-02  7.76424268e-02
 -2.24550796e-01  1.07395808e-05  5.52133869e-10  1.30349871e-12
  9.70746477e-13 -2.12438698e-15  4.16732005e-05 -4.05524749e-05
  1.82886684e-04 -7.30231263e-13 -5.43823618e-13 -3.42123016e-18
 -4.16732005e-05  4.05524749e-05 -1.82886684e-04  4.53302264e-07
 -4.53302233e-07]",0.8995781502071146,0,0
122,122,2024-09-28 16:50:27.643141120,TASK_BEGIN,23,-0.4522160954650848,0.4447283864151388,1.007043662809704,0.4126674535963855,0.0598959573090949,0.065340610269417,1.7706065520885583,0.5421642490397941,2,2024-09-28 16:50:28.186551025,1727542228.1865513,2024-09-28 16:50:28.186551296,0,"[0.0009765625, 0.0009765625, -0.0009765625, 0.0]",-1.0,-98.42480121266843,"[0.0009765625, 0.0009765625, -0.0009765625, 0.0]",[ 0.04479593  0.41669285 -0.99999946  0.02200865],[1.29063608 0.77063697 0.43958478],"[ 1.45310817e+00  5.44406890e-01  6.49083101e-01  1.40598055e+00
  6.21998425e-01  4.24784489e-01 -4.71276227e-02  7.75915354e-02
 -2.24298612e-01  1.08174745e-05 -1.47264762e-08  7.50169363e-13
  5.58674535e-13 -2.12548017e-15  4.16127192e-05 -4.05363402e-05
  1.82850069e-04 -4.20255344e-13 -3.12964004e-13 -1.23116418e-18
 -4.16127192e-05  4.05363402e-05 -1.82850069e-04  4.53712355e-07
 -2.17060716e-09]",0.8996117725793351,0,0
123,123,2024-09-28 16:50:28.580612864,TASK_BEGIN,23,-0.4687812052789081,0.4459795324367815,1.073494590798228,0.4218907377918436,0.0339388631794213,0.0692384156307077,1.7071929396817362,0.5985575357407541,2,2024-09-28 16:50:29.090812012,1727542229.090813,2024-09-28 16:50:29.090812928,0,"[0.0009765625, 0.0009765625, -0.0009765625, 0.0]",-1.0,-98.65878475150728,"[0.0009765625, 0.0009765625, -0.0009765625, 0.0]",[ 0.04370286  0.41568917 -0.99999934  0.02683988],[1.29063608 0.77063697 0.43958478],"[ 1.45246287e+00  5.45219938e-01  6.45051815e-01  1.40598055e+00
  6.21998425e-01  4.24784489e-01 -4.64823226e-02  7.67784868e-02
 -2.20267325e-01  1.20713963e-05  1.87207212e-07  1.16152965e-16
  8.25086954e-17 -2.11920307e-15  4.05967272e-05 -4.01997661e-05
  1.82265786e-04 -5.99337385e-17 -4.76868630e-17  1.41796442e-18
 -4.05967272e-05  4.01997661e-05 -1.82265786e-04  4.61753948e-07
 -4.52957820e-07]",0.8997150636207932,0,0
124,124,2024-09-28 16:50:28.642636032,TASK_BEGIN,23,-0.4790034259329357,0.44548554997231,1.125573444841391,0.4389311510182428,0.0085072630081375,0.075074456397293,1.639371387051565,0.6533871504828593,2,2024-09-28 16:50:29.090812012,1727542229.090813,2024-09-28 16:50:29.090812928,0,"[0.0009765625, 0.0009765625, -0.0009765625, 0.0]",-1.0,-98.65878475150728,"[0.0009765625, 0.0009765625, -0.0009765625, 0.0]",[ 0.04370286  0.41568917 -0.99999934  0.02683988],[1.29063608 0.77063697 0.43958478],"[ 1.45246287e+00  5.45219938e-01  6.45051815e-01  1.40598055e+00
  6.21998425e-01  4.24784489e-01 -4.64823226e-02  7.67784868e-02
 -2.20267325e-01  1.20713963e-05  1.87207212e-07  1.16152965e-16
  8.25086954e-17 -2.11920307e-15  4.05967272e-05 -4.01997661e-05
  1.82265786e-04 -5.99337385e-17 -4.76868630e-17  1.41796442e-18
 -4.05967272e-05  4.01997661e-05 -1.82265786e-04  4.61753948e-07
 -4.52957820e-07]",0.8997150636207932,0,0
125,125,2024-09-28 16:50:28.720293888,TASK_BEGIN,23,-0.4818907556315686,0.4429752946028218,1.1590914789542597,0.4621428317483206,-0.0153007840749747,0.0826820205509761,1.577913801569175,0.7027363121373762,2,2024-09-28 16:50:29.261363037,1727542229.2613635,2024-09-28 16:50:29.261363456,0,"[0.0009765625, 0.0009765625, -0.0009765625, 0.0]",-1.0,-98.69862018560278,"[0.0009765625, 0.0009765625, -0.0009765625, 0.0]",[ 0.09024457  0.35175067 -0.9999996   0.0093275 ],[1.29063608 0.77063697 0.43958478],"[ 1.45234255e+00  5.45372107e-01  6.44296753e-01  1.40598045e+00
  6.21998581e-01  4.24784506e-01 -4.63620972e-02  7.66264737e-02
 -2.19512248e-01  5.03566642e-02  5.03553873e-02 -6.05337573e-06
 -3.92707221e-06 -1.18881461e-11  4.04605707e-05 -4.01714243e-05
  1.82149899e-04  3.37934446e-06  2.19231885e-06 -3.55761487e-18
 -4.04057782e-05  4.00869645e-05 -1.82159315e-04 -3.71300356e-03
 -3.70186332e-03]",0.9036250999968184,0,0
126,126,2024-09-28 16:50:28.789048832,TASK_BEGIN,23,-0.4769119418765336,0.4383356074984081,1.1699186986394272,0.4897729446460233,-0.0363558965852869,0.0918322479838398,1.5319951810873027,0.7431098981111902,2,2024-09-28 16:50:29.261363037,1727542229.2613635,2024-09-28 16:50:29.261363456,0,"[0.0009765625, 0.0009765625, -0.0009765625, 0.0]",-1.0,-98.69862018560278,"[0.0009765625, 0.0009765625, -0.0009765625, 0.0]",[ 0.09024457  0.35175067 -0.9999996   0.0093275 ],[1.29063608 0.77063697 0.43958478],"[ 1.45234255e+00  5.45372107e-01  6.44296753e-01  1.40598045e+00
  6.21998581e-01  4.24784506e-01 -4.63620972e-02  7.66264737e-02
 -2.19512248e-01  5.03566642e-02  5.03553873e-02 -6.05337573e-06
 -3.92707221e-06 -1.18881461e-11  4.04605707e-05 -4.01714243e-05
  1.82149899e-04  3.37934446e-06  2.19231885e-06 -3.55761487e-18
 -4.04057782e-05  4.00869645e-05 -1.82159315e-04 -3.71300356e-03
 -3.70186332e-03]",0.9036250999968184,0,0
127,127,2024-09-28 16:50:28.843365888,TASK_BEGIN,23,-0.4640503331990894,0.4316258430069079,1.1542497471701811,0.5202155273259761,-0.053636349384632,0.1022607867923721,1.5080434465987254,0.7717280591040199,2,2024-09-28 16:50:29.261363037,1727542229.2613635,2024-09-28 16:50:29.261363456,0,"[0.0009765625, 0.0009765625, -0.0009765625, 0.0]",-1.0,-98.69862018560278,"[0.0009765625, 0.0009765625, -0.0009765625, 0.0]",[ 0.09024457  0.35175067 -0.9999996   0.0093275 ],[1.29063608 0.77063697 0.43958478],"[ 1.45234255e+00  5.45372107e-01  6.44296753e-01  1.40598045e+00
  6.21998581e-01  4.24784506e-01 -4.63620972e-02  7.66264737e-02
 -2.19512248e-01  5.03566642e-02  5.03553873e-02 -6.05337573e-06
 -3.92707221e-06 -1.18881461e-11  4.04605707e-05 -4.01714243e-05
  1.82149899e-04  3.37934446e-06  2.19231885e-06 -3.55761487e-18
 -4.04057782e-05  4.00869645e-05 -1.82159315e-04 -3.71300356e-03
 -3.70186332e-03]",0.9036250999968184,0,0
128,128,2024-09-28 16:50:28.921765120,TASK_BEGIN,23,-0.443806228430684,0.4230627782821393,1.1089417730829518,0.5521865808592153,-0.0663433390770311,0.1136737731280987,1.509094002995004,0.7867326593160281,2,2024-09-28 16:50:29.261363037,1727542229.2613635,2024-09-28 16:50:29.261363456,0,"[0.0009765625, 0.0009765625, -0.0009765625, 0.0]",-1.0,-98.69862018560278,"[0.0009765625, 0.0009765625, -0.0009765625, 0.0]",[ 0.09024457  0.35175067 -0.9999996   0.0093275 ],[1.29063608 0.77063697 0.43958478],"[ 1.45234255e+00  5.45372107e-01  6.44296753e-01  1.40598045e+00
  6.21998581e-01  4.24784506e-01 -4.63620972e-02  7.66264737e-02
 -2.19512248e-01  5.03566642e-02  5.03553873e-02 -6.05337573e-06
 -3.92707221e-06 -1.18881461e-11  4.04605707e-05 -4.01714243e-05
  1.82149899e-04  3.37934446e-06  2.19231885e-06 -3.55761487e-18
 -4.04057782e-05  4.00869645e-05 -1.82159315e-04 -3.71300356e-03
 -3.70186332e-03]",0.9036250999968184,0,0
129,129,2024-09-28 16:50:28.992290048,TASK_BEGIN,23,-0.4171541476229902,0.4129848215464853,1.0318562602247503,0.5847980352747372,-0.0739952661224573,0.1257388841804508,1.5346947535911306,0.7872855772725089,2,2024-09-28 16:50:29.261363037,1727542229.2613635,2024-09-28 16:50:29.261363456,0,"[0.0009765625, 0.0009765625, -0.0009765625, 0.0]",-1.0,-98.69862018560278,"[0.0009765625, 0.0009765625, -0.0009765625, 0.0]",[ 0.09024457  0.35175067 -0.9999996   0.0093275 ],[1.29063608 0.77063697 0.43958478],"[ 1.45234255e+00  5.45372107e-01  6.44296753e-01  1.40598045e+00
  6.21998581e-01  4.24784506e-01 -4.63620972e-02  7.66264737e-02
