,Unnamed: 0,time,MARKER,pid,L_O_DSI,L_D_DSI,L_O_DSphi,L_D_DSphi,R_O_DSI,R_D_DSI,R_O_DSphi,R_D_DSphi,trial_id,dateTimestamps,floatTimestamps,timestamps,episode,actions,rewards,discounted_rewards,chosen_actions,optimal_actions,states,continuous_optimal,binary_optimal,discrete_optimal
1,1,2024-09-28 16:42:14.077980928,TASK_BEGIN,23,-0.9739368286650636,0.5909383498944135,-0.5982841197596683,0.0535704258030198,-0.752004274400229,0.1306795620573364,-1.8425278506662828,0.9500274526816632,1,2024-09-28 16:42:13.250588867,1727541733.2505891,2024-09-28 16:42:13.250589184,0,1.0,0.1,0.8648275251635908,[0.30917035 0.69082965],[0.30917035 0.69082965],"[ 0.875      0.2734375  0.46875    1.         0.         1.
  1.         0.         1.         0.3359375 -0.8        0.5      ]",0.0666408305656901,0,0
2,2,2024-09-28 16:42:14.147794944,TASK_BEGIN,23,-0.9720503252926134,0.6479410063816493,-1.095758855776064,0.213835729073149,-0.4834877507738419,0.1339087452581583,-2.086376982524454,0.9127846078086852,1,2024-09-28 16:42:13.301625977,1727541733.3016267,2024-09-28 16:42:13.301626624,0,1.0,0.1,0.9561792499119549,[0.28659101 0.71340899],[0.28659101 0.71340899],"[ 0.86111111  0.2734375   0.46875     1.          0.          1.
  1.          0.          1.          0.3203125  -0.8         0.5       ]",0.08321694845607315,0,0
3,3,2024-09-28 16:42:14.215635968,TASK_BEGIN,23,-0.9686216404176418,0.7032105495217595,-1.5582694945872388,0.3557223211438898,-0.2330995569292626,0.1371469068977255,-2.3475023633927976,0.8864600752100901,1,2024-09-28 16:42:13.301625977,1727541733.3016267,2024-09-28 16:42:13.301626624,0,1.0,0.1,0.9561792499119549,[0.28659101 0.71340899],[0.28659101 0.71340899],"[ 0.86111111  0.2734375   0.46875     1.          0.          1.
  1.          0.          1.          0.3203125  -0.8         0.5       ]",0.08321694845607315,0,0
4,4,2024-09-28 16:42:14.283359232,TASK_BEGIN,23,-0.9623699904696692,0.7558011776688743,-1.973243303910748,0.4724628068578387,-0.0067345700031739,0.1401526876786752,-2.6317220684935445,0.874001248934143,1,2024-09-28 16:42:13.301625977,1727541733.3016267,2024-09-28 16:42:13.301626624,0,1.0,0.1,0.9561792499119549,[0.28659101 0.71340899],[0.28659101 0.71340899],"[ 0.86111111  0.2734375   0.46875     1.          0.          1.
  1.          0.          1.          0.3203125  -0.8         0.5       ]",0.08321694845607315,0,0
5,5,2024-09-28 16:42:14.351113984,TASK_BEGIN,23,-0.9519917108609,0.8048739195366796,-2.3331291594978336,0.5595792154631294,0.1917856954900166,0.142564040549942,-2.945136869623026,0.8777082052678737,1,2024-09-28 16:42:13.301625977,1727541733.3016267,2024-09-28 16:42:13.301626624,0,1.0,0.1,0.9561792499119549,[0.28659101 0.71340899],[0.28659101 0.71340899],"[ 0.86111111  0.2734375   0.46875     1.          0.          1.
  1.          0.          1.          0.3203125  -0.8         0.5       ]",0.08321694845607315,0,0
6,6,2024-09-28 16:42:14.417155072,TASK_BEGIN,23,-0.9362313485530468,0.8496966785048141,-2.635339283941369,0.6150169562963947,0.3607768877337655,0.1439268527847888,-3.2934280212931366,0.8991582660745333,1,2024-09-28 16:42:13.301625977,1727541733.3016267,2024-09-28 16:42:13.301626624,0,1.0,0.1,0.9561792499119549,[0.28659101 0.71340899],[0.28659101 0.71340899],"[ 0.86111111  0.2734375   0.46875     1.          0.          1.
  1.          0.          1.          0.3203125  -0.8         0.5       ]",0.08321694845607315,0,0
7,7,2024-09-28 16:42:15.352951808,TASK_BEGIN,23,-0.913930848226841,0.8896164134717601,-2.8817479246262425,0.6390449365882876,0.500486905063068,0.1437595724828949,-3.680759659815188,0.9391029153075016,1,2024-09-28 16:42:14.521753174,1727541734.5217535,2024-09-28 16:42:14.521753600,0,0.0,0.1,2.894467727277078,[9.99999996e-01 4.24298448e-09],[9.99999996e-01 4.24298448e-09],"[ 0.52777778  0.2734375   0.46875     1.          0.          1.
  1.          0.          1.          0.24414062  0.9        -0.06666667]",0.332988467626368,0,0
8,8,2024-09-28 16:42:15.415033088,TASK_BEGIN,23,-0.88407521899237,0.924014719746587,-3.0779163482286185,0.6340090446094472,0.6127271155262297,0.1416300267301147,-4.108487290775548,0.9972771428828952,1,2024-09-28 16:42:14.571752930,1727541734.5717537,2024-09-28 16:42:14.571753728,0,0.0,0.1,2.965523050004307,[9.99999994e-01 5.79077320e-09],[9.99999994e-01 5.79077320e-09],"[ 0.51388889  0.2734375   0.46875     1.          0.          1.
  1.          0.          1.          0.26367188  1.         -0.1       ]",0.3537209651188359,0,0
9,9,2024-09-28 16:42:15.491765248,TASK_BEGIN,23,-0.845876937980677,0.9522701215971868,-3.232114466314972,0.6039741620693879,0.7004666015652384,0.1372185169145994,-4.574047492567563,1.0721749273306913,1,2024-09-28 16:42:14.571752930,1727541734.5717537,2024-09-28 16:42:14.571753728,0,0.0,0.1,2.965523050004307,[9.99999994e-01 5.79077320e-09],[9.99999994e-01 5.79077320e-09],"[ 0.51388889  0.2734375   0.46875     1.          0.          1.
  1.          0.          1.          0.26367188  1.         -0.1       ]",0.3537209651188359,0,0
10,10,2024-09-28 16:42:15.554457088,TASK_BEGIN,23,-0.7989025282159656,0.9737472520684716,-3.3542095142856057,0.5542863717905674,0.7674657060910095,0.1303537822964229,-5.070425139373812,1.160948151082743,1,2024-09-28 16:42:14.571752930,1727541734.5717537,2024-09-28 16:42:14.571753728,0,0.0,0.1,2.965523050004307,[9.99999994e-01 5.79077320e-09],[9.99999994e-01 5.79077320e-09],"[ 0.51388889  0.2734375   0.46875     1.          0.          1.
  1.          0.          1.          0.26367188  1.         -0.1       ]",0.3537209651188359,0,0
11,11,2024-09-28 16:42:15.631694080,TASK_BEGIN,23,-0.7431741121185916,0.9878082645164852,-3.454497502964054,0.4910974562963659,0.817955628999298,0.121019471094436,-5.586405010047375,1.2595453709243456,1,2024-09-28 16:42:14.774002930,1727541734.7740033,2024-09-28 16:42:14.774003200,0,0.0,0.1,3.2427095093971685,[9.99999623e-01 3.77007505e-07],[9.99999623e-01 3.77007505e-07],"[ 0.45833333  0.2734375   0.46875     0.95833333  0.1953125   0.390625
  1.          0.          1.          0.34179688  1.         -0.23333333]",0.3672202866586994,0,0
12,12,2024-09-28 16:42:15.700761088,TASK_BEGIN,23,-0.6791620182337688,0.9938268727803112,-3.542583104132311,0.4208656313042469,0.8563595559156769,0.1093367211694325,-6.107619265361143,1.3630855444412815,1,2024-09-28 16:42:14.875125000,1727541734.8751252,2024-09-28 16:42:14.875125248,0,0.0,0.1,3.377179590160165,[0.997854 0.002146],[0.997854 0.002146],"[ 0.43055556  0.2734375   0.46875     0.93055556  0.1953125   0.390625
  1.          0.          1.          0.38085938  1.         -0.3       ]",0.5960190441754877,0,0
13,13,2024-09-28 16:42:15.768466176,TASK_BEGIN,23,-0.6076545394336701,0.9912028190077518,-3.6264449153752807,0.3498330558917997,0.8870522226452575,0.09553773888613,-6.618228533161413,1.4663606606365087,1,2024-09-28 16:42:14.875125000,1727541734.8751252,2024-09-28 16:42:14.875125248,0,0.0,0.1,3.377179590160165,[0.997854 0.002146],[0.997854 0.002146],"[ 0.43055556  0.2734375   0.46875     0.93055556  0.1953125   0.390625
  1.          0.          1.          0.38085938  1.         -0.3       ]",0.5960190441754877,0,0
14,14,2024-09-28 16:42:16.684329216,TASK_BEGIN,23,-0.5295729885717942,0.9793932513566108,-3.711812937726029,0.2835324619381723,0.9141265261910166,0.0799471267416081,-7.102880768812443,1.5643327988459836,1,2024-09-28 16:42:15.689721191,1727541735.689721,2024-09-28 16:42:15.689721088,0,0.0,0.1,4.360948095476123,[0.98033397 0.01966603],[0.98033397 0.01966603],"[0.20833333 0.2734375  0.46875    0.70833333 0.1953125  0.390625
 1.         0.         1.         0.37109375 0.6        0.03333333]",0.6356789506614334,0,0
15,15,2024-09-28 16:42:16.756091136,TASK_BEGIN,23,-0.4458171102175454,0.9579690135373468,-3.801924126192453,0.2264089694116427,0.9411481340182872,0.062973700877912,-7.548493378536024,1.6525385416631333,1,2024-09-28 16:42:15.689721191,1727541735.689721,2024-09-28 16:42:15.689721088,0,0.0,0.1,4.360948095476123,[0.98033397 0.01966603],[0.98033397 0.01966603],"[0.20833333 0.2734375  0.46875    0.70833333 0.1953125  0.390625
 1.         0.         1.         0.37109375 0.6        0.03333333]",0.6356789506614334,0,0
16,16,2024-09-28 16:42:16.823676928,TASK_BEGIN,23,-0.3571857506815705,0.926685463488938,-3.8976082653018382,0.1815987606823716,0.9709536165849776,0.0450976915181726,-7.9454046587673695,1.7273605316594107,1,2024-09-28 16:42:15.689721191,1727541735.689721,2024-09-28 16:42:15.689721088,0,0.0,0.1,4.360948095476123,[0.98033397 0.01966603],[0.98033397 0.01966603],"[0.20833333 0.2734375  0.46875    0.70833333 0.1953125  0.390625
 1.         0.         1.         0.37109375 0.6        0.03333333]",0.6356789506614334,0,0
17,17,2024-09-28 16:42:16.885965056,TASK_BEGIN,23,-0.2643723923271291,0.8855515324615775,-3.9975890552366975,0.1508747351284048,1.005570575534175,0.0268370790050331,-8.287567659398023,1.786157449490659,1,2024-09-28 16:42:15.689721191,1727541735.689721,2024-09-28 16:42:15.689721088,0,0.0,0.1,4.360948095476123,[0.98033397 0.01966603],[0.98033397 0.01966603],"[0.20833333 0.2734375  0.46875    0.70833333 0.1953125  0.390625
 1.         0.         1.         0.37109375 0.6        0.03333333]",0.6356789506614334,0,0
18,18,2024-09-28 16:42:16.947964160,TASK_BEGIN,23,-0.1680105890236874,0.8348851194353174,-4.098972614280537,0.1347723039128738,1.0462494838693517,0.008695545842731,-8.571863388892153,1.8273014543489785,1,2024-09-28 16:42:15.689721191,1727541735.689721,2024-09-28 16:42:15.689721088,0,0.0,0.1,4.360948095476123,[0.98033397 0.01966603],[0.98033397 0.01966603],"[0.20833333 0.2734375  0.46875    0.70833333 0.1953125  0.390625
 1.         0.         1.         0.37109375 0.6        0.03333333]",0.6356789506614334,0,0
19,19,2024-09-28 16:42:17.025256192,TASK_BEGIN,23,-0.0687377682520758,0.7753484017865102,-4.19796062423312,0.1328547774503773,1.0935193575106188,-0.0088875649077692,-8.797061066559168,1.850193617638644,1,2024-09-28 16:42:15.689721191,1727541735.689721,2024-09-28 16:42:15.689721088,0,0.0,0.1,4.360948095476123,[0.98033397 0.01966603],[0.98033397 0.01966603],"[0.20833333 0.2734375  0.46875    0.70833333 0.1953125  0.390625
 1.         0.         1.         0.37109375 0.6        0.03333333]",0.6356789506614334,0,0
20,20,2024-09-28 16:42:17.094785792,TASK_BEGIN,23,0.0327449066848148,0.7079590524968332,-4.290672898947532,0.1440094392116119,1.1472194354110037,-0.0255684580763891,-8.96301350429871,1.855274223450368,1,2024-09-28 16:42:15.689721191,1727541735.689721,2024-09-28 16:42:15.689721088,0,0.0,0.1,4.360948095476123,[0.98033397 0.01966603],[0.98033397 0.01966603],"[0.20833333 0.2734375  0.46875    0.70833333 0.1953125  0.390625
 1.         0.         1.         0.37109375 0.6        0.03333333]",0.6356789506614334,0,0
21,21,2024-09-28 16:42:18.022022912,TASK_BEGIN,23,0.1356256598309877,0.6340715358019468,-4.373814201735475,0.1666858405863471,1.206542940015322,-0.0411117004150569,-9.07031804930088,1.8439979670463584,1,2024-09-28 16:42:16.803692139,1727541736.8036923,2024-09-28 16:42:16.803692288,0,1.0,0.1,6.230625882640316,[0.0335692 0.9664308],[0.0335692 0.9664308],"[-0.09722222  0.2734375   0.46875     0.40277778  0.1953125   0.390625
  0.90277778  0.2734375   0.46875     0.32226562 -0.8         0.5       ]",0.7506889826591554,0,0
22,22,2024-09-28 16:42:18.103838976,TASK_BEGIN,23,0.2389588270571466,0.5553242374245891,-4.445009748745321,0.1990550876160421,1.2701520585868562,-0.0553925744385596,-9.120236968850993,1.818734504732174,1,2024-09-28 16:42:16.803692139,1727541736.8036923,2024-09-28 16:42:16.803692288,0,1.0,0.1,6.230625882640316,[0.0335692 0.9664308],[0.0335692 0.9664308],"[-0.09722222  0.2734375   0.46875     0.40277778  0.1953125   0.390625
  0.90277778  0.2734375   0.46875     0.32226562 -0.8         0.5       ]",0.7506889826591554,0,0
23,23,2024-09-28 16:42:18.161253888,TASK_BEGIN,23,0.3416791976698838,0.473560826476369,-4.502809307309095,0.2391031103768602,1.3363707028842349,-0.0683900119685228,-9.114536467434066,1.782553341752754,1,2024-09-28 16:42:16.803692139,1727541736.8036923,2024-09-28 16:42:16.803692288,0,1.0,0.1,6.230625882640316,[0.0335692 0.9664308],[0.0335692 0.9664308],"[-0.09722222  0.2734375   0.46875     0.40277778  0.1953125   0.390625
  0.90277778  0.2734375   0.46875     0.32226562 -0.8         0.5       ]",0.7506889826591554,0,0
24,24,2024-09-28 16:42:18.239360000,TASK_BEGIN,23,0.4426559264601378,0.3907422189002197,-4.546444881313098,0.2846789588093933,1.403386935260036,-0.0801662398707514,-9.055179992965188,1.7388911875837227,1,2024-09-28 16:42:16.854692871,1727541736.8546932,2024-09-28 16:42:16.854693120,0,1.0,0.1,6.2683196238139125,[0.11105597 0.88894403],[0.11105597 0.88894403],"[-0.11111111  0.2734375   0.46875     0.38888889  0.1953125   0.390625
  0.88888889  0.2734375   0.46875     0.30664062 -0.8         0.5       ]",0.5870432515866822,0,0
25,25,2024-09-28 16:42:18.300916992,TASK_BEGIN,23,0.540775591238844,0.3088534296055306,-4.575482419368185,0.3335275675401493,1.4693970516234656,-0.0908384500168557,-8.944150913016697,1.691176287938949,1,2024-09-28 16:42:17.058693848,1727541737.0586948,2024-09-28 16:42:17.058694912,0,0.0,0.1,6.415362720040344,[9.99831768e-01 1.68231951e-04],[9.99831768e-01 1.68231951e-04],"[-0.16666667  0.2734375   0.46875     0.33333333  0.1953125   0.390625
  0.83333333  0.2734375   0.46875     0.25585938 -0.5         0.4       ]",0.33553412661379395,0,0
26,26,2024-09-28 16:42:18.374903808,TASK_BEGIN,23,0.6350323295926823,0.2297995143872468,-4.589552086073237,0.3833363019540285,1.5327067451006644,-0.1005585711488651,-8.783703668576115,1.6425103226215148,1,2024-09-28 16:42:17.058693848,1727541737.0586948,2024-09-28 16:42:17.058694912,0,0.0,0.1,6.415362720040344,[9.99831768e-01 1.68231951e-04],[9.99831768e-01 1.68231951e-04],"[-0.16666667  0.2734375   0.46875     0.33333333  0.1953125   0.390625
  0.83333333  0.2734375   0.46875     0.25585938 -0.5         0.4       ]",0.33553412661379395,0,0
27,27,2024-09-28 16:42:18.440082944,TASK_BEGIN,23,0.7245843329382364,0.1552960853728185,-4.588266212168146,0.4318114433202039,1.5918403902133458,-0.1095084878668499,-8.577122790484552,1.5954792550971564,1,2024-09-28 16:42:17.619690918,1727541737.619691,2024-09-28 16:42:17.619691008,0,0.0,0.1,6.790537115610203,[9.99979355e-01 2.06453437e-05],[9.99979355e-01 2.06453437e-05],"[0.18055556 0.1953125  0.390625   0.68055556 0.2734375  0.46875
 1.         0.         1.         0.27734375 0.6        0.03333333]",0.41166845349737896,0,0
28,28,2024-09-28 16:42:19.382019072,TASK_BEGIN,23,0.8087454137561039,0.0867680367317256,-4.571286483276839,0.4767944712756179,1.645645166530835,-0.1178982189409591,-8.329815903945397,1.5521365059279335,1,2024-09-28 16:42:18.536812012,1727541738.5368125,2024-09-28 16:42:18.536812544,0,0.0,0.1,8.087971050098806,[9.99999979e-01 2.13759513e-08],[9.99999979e-01 2.13759513e-08],"[-0.06944444  0.1953125   0.390625    0.43055556  0.2734375   0.46875
  1.          0.          1.          0.29101562  0.7         0.        ]",0.41383687348685483,0,0
29,29,2024-09-28 16:42:19.444593920,TASK_BEGIN,23,0.8869283230528774,0.0252586741942414,-4.538452472244531,0.5164249331931963,1.6933247141039605,-0.125950399106922,-8.050374288540244,1.5141624365577542,1,2024-09-28 16:42:18.536812012,1727541738.5368125,2024-09-28 16:42:18.536812544,0,0.0,0.1,8.087971050098806,[9.99999979e-01 2.13759513e-08],[9.99999979e-01 2.13759513e-08],"[-0.06944444  0.1953125   0.390625    0.43055556  0.2734375   0.46875
  1.          0.          1.          0.29101562  0.7         0.        ]",0.41383687348685483,0,0
30,30,2024-09-28 16:42:19.521689088,TASK_BEGIN,23,0.9585823989248354,-0.0286520006498767,-4.489947612770004,0.5493440014750143,1.7343749899063334,-0.1338679025550633,-7.751214814963152,1.4831288777116842,1,2024-09-28 16:42:18.689815918,1727541738.689816,2024-09-28 16:42:18.689816064,0,0.0,0.1,8.144760221939821,[9.99999955e-01 4.50271832e-08],[9.99999955e-01 4.50271832e-08],"[-0.11111111  0.1953125   0.390625    0.38888889  0.2734375   0.46875
  0.96388889  0.25390625  0.44921875  0.34375     1.         -0.1       ]",0.4509166843116587,0,0
31,31,2024-09-28 16:42:19.585592064,TASK_BEGIN,23,1.023154100920787,-0.0749022012885273,-4.426550054121273,0.574921939285555,1.7684663946488657,-0.1417943051454787,-7.448518585928652,1.460719078729576,1,2024-09-28 16:42:18.740813965,1727541738.740814,2024-09-28 16:42:18.740814080,0,0.0,0.1,8.163312619720422,[9.99997983e-01 2.01679218e-06],[9.99997983e-01 2.01679218e-06],"[-0.125       0.1953125   0.390625    0.375       0.2734375   0.46875
  0.95        0.25390625  0.44921875  0.36328125  1.         -0.13333333]",0.5812980561903994,0,0
32,32,2024-09-28 16:42:19.657246976,TASK_BEGIN,23,1.080091655373549,-0.1139466232138326,-4.350006906697695,0.5934685768521256,1.7953451386296948,-0.1497820889646774,-7.161283894490264,1.4487584612841298,1,2024-09-28 16:42:18.791356201,1727541738.791357,2024-09-28 16:42:18.791356928,0,0.0,0.1,8.181679493523218,[9.99638902e-01 3.61098476e-04],[9.99638902e-01 3.61098476e-04],"[-0.13888889  0.1953125   0.390625    0.36111111  0.2734375   0.46875
  0.93611111  0.25390625  0.44921875  0.3828125   1.         -0.16666667]",0.7523358647512309,0,0
33,33,2024-09-28 16:42:19.724984832,TASK_BEGIN,23,1.1289075196660234,-0.1466851473966514,-4.263446773404439,0.6063433197217168,1.8148041886074733,-0.1577825864217683,-6.909550484594481,1.4490389517538913,1,2024-09-28 16:42:18.791356201,1727541738.791357,2024-09-28 16:42:18.791356928,0,0.0,0.1,8.181679493523218,[9.99638902e-01 3.61098476e-04],[9.99638902e-01 3.61098476e-04],"[-0.13888889  0.1953125   0.390625    0.36111111  0.2734375   0.46875
  0.93611111  0.25390625  0.44921875  0.3828125   1.         -0.16666667]",0.7523358647512309,0,0
34,34,2024-09-28 16:42:19.785847808,TASK_BEGIN,23,1.1692731854587963,-0.1743379511847841,-4.171564876791858,0.6158745038401449,1.826726227141853,-0.1656617956609891,-6.712251609102951,1.4630446039365053,1,2024-09-28 16:42:18.791356201,1727541738.791357,2024-09-28 16:42:18.791356928,0,0.0,0.1,8.181679493523218,[9.99638902e-01 3.61098476e-04],[9.99638902e-01 3.61098476e-04],"[-0.13888889  0.1953125   0.390625    0.36111111  0.2734375   0.46875
  0.93611111  0.25390625  0.44921875  0.3828125   1.         -0.16666667]",0.7523358647512309,0,0
35,35,2024-09-28 16:42:20.736753920,TASK_BEGIN,23,1.2010956593130198,-0.1982955741096128,-4.080266608203071,0.6250487103543636,1.831161868748544,-0.1732335068522859,-6.585282619987878,1.4916828293759974,1,2024-09-28 16:42:19.603868896,1727541739.6038694,2024-09-28 16:42:19.603869440,0,0.0,0.1,9.342776874419167,[0.98713124 0.01286876],[0.98713124 0.01286876],"[0.13888889 0.2734375  0.46875    0.71388889 0.25390625 0.44921875
 1.         0.         1.         0.37304688 0.6        0.03333333]",0.5939061391004975,0,0
36,36,2024-09-28 16:42:20.804534016,TASK_BEGIN,23,1.224555412325358,-0.2199667484017292,-3.9957482642224105,0.6370160964957612,1.828399583439641,-0.1802975697980438,-6.540017288164932,1.5350564661529424,1,2024-09-28 16:42:19.603868896,1727541739.6038694,2024-09-28 16:42:19.603869440,0,0.0,0.1,9.342776874419167,[0.98713124 0.01286876],[0.98713124 0.01286876],"[0.13888889 0.2734375  0.46875    0.71388889 0.25390625 0.44921875
 1.         0.         1.         0.37304688 0.6        0.03333333]",0.5939061391004975,0,0
37,37,2024-09-28 16:42:20.872339200,TASK_BEGIN,23,1.2401143776053254,-0.2406389373468329,-3.923432410064545,0.6545485129801984,1.818994929273183,-0.1866722282607905,-6.582146636055274,1.5922802361317356,1,2024-09-28 16:42:19.603868896,1727541739.6038694,2024-09-28 16:42:19.603869440,0,0.0,0.1,9.342776874419167,[0.98713124 0.01286876],[0.98713124 0.01286876],"[0.13888889 0.2734375  0.46875    0.71388889 0.25390625 0.44921875
 1.         0.         1.         0.37304688 0.6        0.03333333]",0.5939061391004975,0,0
38,38,2024-09-28 16:42:20.934788096,TASK_BEGIN,23,1.2484877790473046,-0.2613631844402224,-3.86721396452636,0.6796078913391699,1.8037451169033552,-0.1922106922265977,-6.710733717270951,1.6613430829735274,1,2024-09-28 16:42:19.603868896,1727541739.6038694,2024-09-28 16:42:19.603869440,0,0.0,0.1,9.342776874419167,[0.98713124 0.01286876],[0.98713124 0.01286876],"[0.13888889 0.2734375  0.46875    0.71388889 0.25390625 0.44921875
 1.         0.         1.         0.37304688 0.6        0.03333333]",0.5939061391004975,0,0
39,39,2024-09-28 16:42:20.996438016,TASK_BEGIN,23,1.2505687962508116,-0.2828743872637749,-3.829105387454175,0.7130950436522541,1.783633525822842,-0.1968030373401245,-6.917527032115502,1.739024251676649,1,2024-09-28 16:42:19.603868896,1727541739.6038694,2024-09-28 16:42:19.603869440,0,0.0,0.1,9.342776874419167,[0.98713124 0.01286876],[0.98713124 0.01286876],"[0.13888889 0.2734375  0.46875    0.71388889 0.25390625 0.44921875
 1.         0.         1.         0.37304688 0.6        0.03333333]",0.5939061391004975,0,0
40,40,2024-09-28 16:42:21.075422976,TASK_BEGIN,23,1.2473228146083692,-0.3055574748192243,-3.8091657057301886,0.7547558418053739,1.759789372396605,-0.2003778052711071,-7.186703535853944,1.820901585011147,1,2024-09-28 16:42:19.856077881,1727541739.8560781,2024-09-28 16:42:19.856078080,0,0.0,0.1,9.374987347008448,[9.99873482e-01 1.26517881e-04],[9.99873482e-01 1.26517881e-04],"[ 0.06944444  0.2734375   0.46875     0.64444444  0.25390625  0.44921875
  1.          0.          1.          0.3359375  -0.5         0.4       ]",0.33786781866657456,0,0
41,41,2024-09-28 16:42:21.143443968,TASK_BEGIN,23,1.2396849798036214,-0.3294662813793962,-3.805699405850431,0.8032223864425537,1.7334667301595514,-0.2029122848306095,-7.495356683016936,1.9015137318644144,1,2024-09-28 16:42:20.313565918,1727541740.3135662,2024-09-28 16:42:20.313566208,0,0.0,0.1,9.429040161596703,[9.99999695e-01 3.04681151e-07],[9.99999695e-01 3.04681151e-07],"[-0.05555556  0.2734375   0.46875     0.51944444  0.25390625  0.44921875
  1.          0.          1.          0.3359375   0.4         0.1       ]",0.34063048281834274,0,0
42,42,2024-09-28 16:42:22.062374144,TASK_BEGIN,23,1.2284941149959283,-0.3543980258669711,-3.815751811242926,0.8561983456644169,1.7060095434065534,-0.2044462868387841,-7.815064292969308,1.974709210220308,1,2024-09-28 16:42:20.721563965,1727541740.7215638,2024-09-28 16:42:20.721563904,0,1.0,0.1,9.473149838381932,[0.1125456 0.8874544],[0.1125456 0.8874544],"[-0.16666667  0.2734375   0.46875     0.40833333  0.25390625  0.44921875
  0.90833333  0.25390625  0.44921875  0.35742188 -0.8         0.5       ]",0.6117429630844388,0,0
43,43,2024-09-28 16:42:22.130193920,TASK_BEGIN,23,1.214480611944309,-0.3800180475527102,-3.835784079187566,0.9107649619398532,1.678790733758707,-0.2050932726167255,-8.114655790666378,2.034163595869328,1,2024-09-28 16:42:20.721563965,1727541740.7215638,2024-09-28 16:42:20.721563904,0,1.0,0.1,9.473149838381932,[0.1125456 0.8874544],[0.1125456 0.8874544],"[-0.16666667  0.2734375   0.46875     0.40833333  0.25390625  0.44921875
  0.90833333  0.25390625  0.44921875  0.35742188 -0.8         0.5       ]",0.6117429630844388,0,0
44,44,2024-09-28 16:42:22.185030912,TASK_BEGIN,23,1.1982823437694097,-0.4060057523028277,-3.8622680554318936,0.9637278150707624,1.653137151310993,-0.205045067734422,-8.363883665748208,2.0740005836207143,1,2024-09-28 16:42:20.874160156,1727541740.87416,2024-09-28 16:42:20.874160128,0,0.0,0.1,9.488797815032148,[9.99989951e-01 1.00492810e-05],[9.99989951e-01 1.00492810e-05],"[ 0.36666667  0.25390625  0.44921875  0.86666667  0.25390625  0.44921875
  1.          0.          1.          0.31640625 -0.6         0.43333333]",0.3236827527278573,0,0
45,45,2024-09-28 16:42:22.263215104,TASK_BEGIN,23,1.1804415041725596,-0.4321702849532841,-3.8919384488152446,1.0119229016895894,1.6302538403933828,-0.2045619772071617,-8.537292763007,2.08940684193103,1,2024-09-28 16:42:21.429402100,1727541741.4294026,2024-09-28 16:42:21.429402624,0,0.0,0.1,9.542301128137636,[9.99999989e-01 1.05409202e-08],[9.99999989e-01 1.05409202e-08],"[0.21388889 0.25390625 0.44921875 0.71388889 0.25390625 0.44921875
 1.         0.         1.         0.31640625 0.5        0.06666667]",0.3305322830312728,0,0
46,46,2024-09-28 16:42:22.333457920,TASK_BEGIN,23,1.1613816060680031,-0.4584950848967827,-3.921636508157847,1.052454321646259,1.6111752623611206,-0.2039451568767384,-8.617498288434774,2.0771249123527054,1,2024-09-28 16:42:21.480402100,1727541741.4804027,2024-09-28 16:42:21.480402688,0,0.0,0.1,9.54687811685626,[9.99998904e-01 1.09582717e-06],[9.99998904e-01 1.09582717e-06],"[0.2        0.25390625 0.44921875 0.7        0.25390625 0.44921875
 1.         0.         1.         0.328125   0.6        0.03333333]",0.37255709986628915,0,0
47,47,2024-09-28 16:42:22.387301120,TASK_BEGIN,23,1.1414067557655654,-0.4851074037117002,-3.94799145228665,1.0828999825845422,1.5967681888417242,-0.2035022236282197,-8.597283905347902,2.0357611639699886,1,2024-09-28 16:42:21.530401855,1727541741.5304027,2024-09-28 16:42:21.530402560,0,0.0,0.1,9.551409335687696,[9.99730588e-01 2.69411849e-04],[9.99730588e-01 2.69411849e-04],"[0.18611111 0.25390625 0.44921875 0.68611111 0.25390625 0.44921875
 1.         0.         1.         0.34179688 0.7        0.        ]",0.5121904503296688,0,0
48,48,2024-09-28 16:42:22.463976960,TASK_BEGIN,23,1.1207392210584803,-0.5121973746881444,-3.967341373206473,1.101538915686077,1.587758091182207,-0.2035149902581167,-8.480090324909616,1.9658903881750516,1,2024-09-28 16:42:21.580437988,1727541741.5804389,2024-09-28 16:42:21.580438784,0,0.0,0.1,9.555895242330818,[0.97141854 0.02858146],[0.97141854 0.02858146],"[ 0.17222222  0.25390625  0.44921875  0.67222222  0.25390625  0.44921875
  1.          0.          1.          0.35742188  0.8        -0.03333333]",0.6970055122583254,0,0
49,49,2024-09-28 16:42:23.400847872,TASK_BEGIN,23,1.0995686536669962,-0.539919092704272,-3.9761451853046617,1.1075958631870593,1.5847203908759668,-0.2042041499041647,-8.278694302547155,1.8699651496769345,1,2024-09-28 16:42:22.490339111,1727541742.4903395,2024-09-28 16:42:22.490339584,0,0.0,0.1,10.395700462184992,[0.96761069 0.03238931],[0.96761069 0.03238931],"[-0.07777778  0.25390625  0.44921875  0.42222222  0.25390625  0.44921875
  0.92222222  0.234375    0.4296875   0.375       0.9        -0.06666667]",0.5146977603372153,0,0
50,50,2024-09-28 16:42:23.479131904,TASK_BEGIN,23,1.078087385032659,-0.568304363589897,-3.9717871670934337,1.101412944046119,1.588031324400188,-0.2056902281242736,-8.012464753663773,1.7520856665065527,1,2024-09-28 16:42:22.490339111,1727541742.4903395,2024-09-28 16:42:22.490339584,0,0.0,0.1,10.395700462184992,[0.96761069 0.03238931],[0.96761069 0.03238931],"[-0.07777778  0.25390625  0.44921875  0.42222222  0.25390625  0.44921875
  0.92222222  0.234375    0.4296875   0.375       0.9        -0.06666667]",0.5146977603372153,0,0
51,51,2024-09-28 16:42:23.540803840,TASK_BEGIN,23,1.0565147765049554,-0.5972151743655931,-3.953328507256337,1.0844358273076575,1.5978248896454823,-0.2079657190097197,-7.704166613277806,1.6177056046347216,1,2024-09-28 16:42:22.490339111,1727541742.4903395,2024-09-28 16:42:22.490339584,0,0.0,0.1,10.395700462184992,[0.96761069 0.03238931],[0.96761069 0.03238931],"[-0.07777778  0.25390625  0.44921875  0.42222222  0.25390625  0.44921875
  0.92222222  0.234375    0.4296875   0.375       0.9        -0.06666667]",0.5146977603372153,0,0
52,52,2024-09-28 16:42:23.615168256,TASK_BEGIN,23,1.0351351781483256,-0.6263513810524798,-3.921713038854964,1.0589838619014866,1.6139692698300858,-0.2108900835413006,-7.377291046588288,1.473308355664312,1,2024-09-28 16:42:22.490339111,1727541742.4903395,2024-09-28 16:42:22.490339584,0,0.0,0.1,10.395700462184992,[0.96761069 0.03238931],[0.96761069 0.03238931],"[-0.07777778  0.25390625  0.44921875  0.42222222  0.25390625  0.44921875
  0.92222222  0.234375    0.4296875   0.375       0.9        -0.06666667]",0.5146977603372153,0,0
53,53,2024-09-28 16:42:23.682907904,TASK_BEGIN,23,1.0143624373561468,-0.6553115242916221,-3.879331439183844,1.0278806489638808,1.6360324088373512,-0.2142053842220142,-7.054446806377685,1.3260631050410343,1,2024-09-28 16:42:22.490339111,1727541742.4903395,2024-09-28 16:42:22.490339584,0,0.0,0.1,10.395700462184992,[0.96761069 0.03238931],[0.96761069 0.03238931],"[-0.07777778  0.25390625  0.44921875  0.42222222  0.25390625  0.44921875
  0.92222222  0.234375    0.4296875   0.375       0.9        -0.06666667]",0.5146977603372153,0,0
54,54,2024-09-28 16:42:23.742097920,TASK_BEGIN,23,0.9947969504634834,-0.6836804116978987,-3.829288004152176,0.9940565301146416,1.6632314006266566,-0.2175672405624369,-6.756786913231363,1.1834704051127547,1,2024-09-28 16:42:22.490339111,1727541742.4903395,2024-09-28 16:42:22.490339584,0,0.0,0.1,10.395700462184992,[0.96761069 0.03238931],[0.96761069 0.03238931],"[-0.07777778  0.25390625  0.44921875  0.42222222  0.25390625  0.44921875
  0.92222222  0.234375    0.4296875   0.375       0.9        -0.06666667]",0.5146977603372153,0,0
55,55,2024-09-28 16:42:23.804582912,TASK_BEGIN,23,0.9772187402126732,-0.7111045020494461,-3.774761977747968,0.9602164206461984,1.6944124336816246,-0.2205900966485482,-6.503855579204268,1.052970477663845,1,2024-09-28 16:42:22.490339111,1727541742.4903395,2024-09-28 16:42:22.490339584,0,0.0,0.1,10.395700462184992,[0.96761069 0.03238931],[0.96761069 0.03238931],"[-0.07777778  0.25390625  0.44921875  0.42222222  0.25390625  0.44921875
  0.92222222  0.234375    0.4296875   0.375       0.9        -0.06666667]",0.5146977603372153,0,0
56,56,2024-09-28 16:42:24.761936128,TASK_BEGIN,23,0.9625003101703256,-0.7373283780836071,-3.718676502084562,0.928640424347664,1.7281120058913608,-0.2229065296730966,-6.313035759151719,0.9414712286228047,1,2024-09-28 16:42:23.442125000,1727541743.442125,2024-09-28 16:42:23.442125056,0,0.0,0.1,10.32691530629447,[0.99508238 0.00491762],[0.99508238 0.00491762],"[0.15833333 0.25390625 0.44921875 0.65833333 0.234375   0.4296875
 1.         0.         1.         0.34765625 0.7        0.        ]",0.594558150891608,0,0
57,57,2024-09-28 16:42:24.829721856,TASK_BEGIN,23,0.9514673029519436,-0.7621894361961484,-3.663738945373468,0.9011396740882068,1.762686550233324,-0.2242315212662525,-6.198243342399667,0.8548188776366099,1,2024-09-28 16:42:23.442125000,1727541743.442125,2024-09-28 16:42:23.442125056,0,0.0,0.1,10.32691530629447,[0.99508238 0.00491762],[0.99508238 0.00491762],"[0.15833333 0.25390625 0.44921875 0.65833333 0.234375   0.4296875
 1.         0.         1.         0.34765625 0.7        0.        ]",0.594558150891608,0,0
58,58,2024-09-28 16:42:24.887303936,TASK_BEGIN,23,0.9447417318516,-0.7855813586002325,-3.6127648467211873,0.8791404242788651,1.7964387701078943,-0.2244112831825798,-6.168206622820725,0.7973006213747458,1,2024-09-28 16:42:23.643138916,1727541743.6431396,2024-09-28 16:42:23.643139584,0,0.0,0.1,11.187302638834394,[0.99568357 0.00431643],[0.99568357 0.00431643],"[ 0.10277778  0.25390625  0.44921875  0.60277778  0.234375    0.4296875
  1.          0.          1.          0.32226562 -0.6         0.43333333]",0.3425578826822088,0,0
59,59,2024-09-28 16:42:24.965274112,TASK_BEGIN,23,0.9426121834650144,-0.8074003768669316,-3.56905658307436,0.8638296354811604,1.82769549901258,-0.2234410554335052,-6.225135563398251,0.771281799322777,1,2024-09-28 16:42:23.643138916,1727541743.6431396,2024-09-28 16:42:23.643139584,0,0.0,0.1,11.187302638834394,[0.99568357 0.00431643],[0.99568357 0.00431643],"[ 0.10277778  0.25390625  0.44921875  0.60277778  0.234375    0.4296875
  1.          0.          1.          0.32226562 -0.6         0.43333333]",0.3425578826822088,0,0
60,60,2024-09-28 16:42:25.027965184,TASK_BEGIN,23,0.9449875477866768,-0.8274916117458224,-3.536530878552058,0.8562447351024771,1.8548571894490824,-0.2214535966691672,-6.364545379857939,0.7770611799501999,1,2024-09-28 16:42:24.203582031,1727541744.2035823,2024-09-28 16:42:24.203582208,0,0.0,0.1,11.063037471930748,[9.99999522e-01 4.77834987e-07],[9.99999522e-01 4.77834987e-07],"[-0.05        0.25390625  0.44921875  0.45        0.234375    0.4296875
  1.          0.          1.          0.32226562  0.5         0.06666667]",0.35826913007269356,0,0
61,61,2024-09-28 16:42:25.088407040,TASK_BEGIN,23,0.9514578185529752,-0.8456128926979519,-3.519343644083824,0.8571935123714043,1.876456686666324,-0.2186883667911688,-6.576364226527363,0.8129753760466615,1,2024-09-28 16:42:24.254169922,1727541744.2541707,2024-09-28 16:42:24.254170624,0,0.0,0.1,11.052407097211441,[9.99997965e-01 2.03502678e-06],[9.99997965e-01 2.03502678e-06],"[-0.06388889  0.25390625  0.44921875  0.43611111  0.234375    0.4296875
  1.          0.          1.          0.33398438  0.6         0.03333333]",0.3986509265748044,0,0
62,62,2024-09-28 16:42:25.165622016,TASK_BEGIN,23,0.9614314796025863,-0.8614278022176275,-3.521046583789178,0.8670153641090153,1.8912422922966317,-0.2154511200779578,-6.846798089214035,0.8757129513562051,1,2024-09-28 16:42:24.303838135,1727541744.3038385,2024-09-28 16:42:24.303838464,0,0.0,0.1,11.041883026239326,[9.99986476e-01 1.35244153e-05],[9.99986476e-01 1.35244153e-05],"[-0.07777778  0.25390625  0.44921875  0.42222222  0.234375    0.4296875
  0.99166667  0.234375    0.4296875   0.34765625  0.7         0.        ]",0.5161162149549631,0,0
63,63,2024-09-28 16:42:26.102533120,TASK_BEGIN,23,0.974295158627416,-0.8745310099171809,-3.5436487361986155,0.8853329334185891,1.8982724794428072,-0.2120744892503888,-7.160256910737187,0.9607542043590308,1,2024-09-28 16:42:25.270062012,1727541745.2700624,2024-09-28 16:42:25.270062336,0,0.0,0.1,10.86077106598579,[9.99887562e-01 1.12437736e-04],[9.99887562e-01 1.12437736e-04],"[0.15833333 0.234375   0.4296875  0.72777778 0.234375   0.4296875
 1.         0.         1.         0.3203125  0.6        0.03333333]",0.44739170712947207,0,0
64,64,2024-09-28 16:42:26.165517056,TASK_BEGIN,23,0.9895497961060772,-0.884498033728764,-3.5870206002807223,0.9109465610388272,1.896993338791128,-0.2088873955373839,-7.50085627437512,1.062864793827812,1,2024-09-28 16:42:25.320062012,1727541745.3200626,2024-09-28 16:42:25.320062720,0,0.0,1.0,11.752163355325933,[0.99454634 0.00545366],[0.99454634 0.00545366],"[0.14444444 0.234375   0.4296875  0.71388889 0.234375   0.4296875
 1.         0.         1.         0.33398438 0.7        0.        ]",0.6228719413603201,0,0
65,65,2024-09-28 16:42:26.247680000,TASK_BEGIN,23,1.0069008986330938,-0.8909438296245451,-3.6488334227796897,0.9419098000148292,1.8872829321895856,-0.2061926469357021,-7.853450347522521,1.176629255139499,1,2024-09-28 16:42:25.320062012,1727541745.3200626,2024-09-28 16:42:25.320062720,0,0.0,1.0,11.752163355325933,[0.99454634 0.00545366],[0.99454634 0.00545366],"[0.14444444 0.234375   0.4296875  0.71388889 0.234375   0.4296875
 1.         0.         1.         0.33398438 0.7        0.        ]",0.6228719413603201,0,0
66,66,2024-09-28 16:42:26.315370240,TASK_BEGIN,23,1.0262932937440736,-0.8935750456964721,-3.724919585541232,0.9757272241227286,1.8694638479667869,-0.204245239115571,-8.204478507468243,1.2970080865092275,1,2024-09-28 16:42:25.320062012,1727541745.3200626,2024-09-28 16:42:25.320062720,0,0.0,1.0,11.752163355325933,[0.99454634 0.00545366],[0.99454634 0.00545366],"[0.14444444 0.234375   0.4296875  0.71388889 0.234375   0.4296875
 1.         0.         1.         0.33398438 0.7        0.        ]",0.6228719413603201,0,0
67,67,2024-09-28 16:42:26.383090944,TASK_BEGIN,23,1.047880622172792,-0.892225347597575,-3.809834616946069,1.009608255011639,1.8442660782637368,-0.2032242936267448,-8.542692033479456,1.4197890884767237,1,2024-09-28 16:42:25.320062012,1727541745.3200626,2024-09-28 16:42:25.320062720,0,0.0,1.0,11.752163355325933,[0.99454634 0.00545366],[0.99454634 0.00545366],"[0.14444444 0.234375   0.4296875  0.71388889 0.234375   0.4296875
 1.         0.         1.         0.33398438 0.7        0.        ]",0.6228719413603201,0,0
68,68,2024-09-28 16:42:26.443926016,TASK_BEGIN,23,1.0719316039348388,-0.8868672219704733,-3.8974927504970185,1.040729159432655,1.8127103364503847,-0.2032014143798242,-8.859463976400463,1.541755048013861,1,2024-09-28 16:42:25.320062012,1727541745.3200626,2024-09-28 16:42:25.320062720,0,0.0,1.0,11.752163355325933,[0.99454634 0.00545366],[0.99454634 0.00545366],"[0.14444444 0.234375   0.4296875  0.71388889 0.234375   0.4296875
 1.         0.         1.         0.33398438 0.7        0.        ]",0.6228719413603201,0,0
69,69,2024-09-28 16:42:26.505074944,TASK_BEGIN,23,1.0986949541499311,-0.8775975639859286,-3.981816319675569,1.0664546671801176,1.775938940941584,-0.2041213170599837,-9.148493338577303,1.6605349198976649,1,2024-09-28 16:42:25.320062012,1727541745.3200626,2024-09-28 16:42:25.320062720,0,0.0,1.0,11.752163355325933,[0.99454634 0.00545366],[0.99454634 0.00545366],"[0.14444444 0.234375   0.4296875  0.71388889 0.234375   0.4296875
 1.         0.         1.         0.33398438 0.7        0.        ]",0.6228719413603201,0,0
70,70,2024-09-28 16:42:27.437118208,TASK_BEGIN,23,1.1282614658141614,-0.8646023054428023,-4.05733867408136,1.0845062668232668,1.735090409457547,-0.2058113344053072,-9.405074493871505,1.7742781087266104,1,2024-09-28 16:42:26.284558105,1727541746.284558,2024-09-28 16:42:26.284558080,0,0.0,0.1,11.447582388004761,[0.95469612 0.04530388],[0.95469612 0.04530388],"[-0.11944444  0.234375    0.4296875   0.45        0.234375    0.4296875
  0.95        0.1953125   0.390625    0.3671875   0.9        -0.06666667]",0.5302883144795201,0,0
71,71,2024-09-28 16:42:27.493618944,TASK_BEGIN,23,1.1604760328450108,-0.848115392666469,-4.119704711148766,1.0931202790489756,1.6912975099894616,-0.2080215655027213,-9.625233453959035,1.8813075168584028,1,2024-09-28 16:42:26.284558105,1727541746.284558,2024-09-28 16:42:26.284558080,0,0.0,0.1,11.447582388004761,[0.95469612 0.04530388],[0.95469612 0.04530388],"[-0.11944444  0.234375    0.4296875   0.45        0.234375    0.4296875
  0.95        0.1953125   0.390625    0.3671875   0.9        -0.06666667]",0.5302883144795201,0,0
72,72,2024-09-28 16:42:27.570808064,TASK_BEGIN,23,1.1949383170964951,-0.8283865296814916,-4.165985555866018,1.091210224548037,1.6458064618455497,-0.2104825140590402,-9.804964559936437,1.9798344996986688,1,2024-09-28 16:42:26.284558105,1727541746.284558,2024-09-28 16:42:26.284558080,0,0.0,0.1,11.447582388004761,[0.95469612 0.04530388],[0.95469612 0.04530388],"[-0.11944444  0.234375    0.4296875   0.45        0.234375    0.4296875
  0.95        0.1953125   0.390625    0.3671875   0.9        -0.06666667]",0.5302883144795201,0,0
73,73,2024-09-28 16:42:27.640487168,TASK_BEGIN,23,1.231073859167467,-0.805657536376053,-4.194745927473697,1.078472577426919,1.600145673790567,-0.2129605787823804,-9.939755952724571,2.0677938553171464,1,2024-09-28 16:42:26.284558105,1727541746.284558,2024-09-28 16:42:26.284558080,0,0.0,0.1,11.447582388004761,[0.95469612 0.04530388],[0.95469612 0.04530388],"[-0.11944444  0.234375    0.4296875   0.45        0.234375    0.4296875
  0.95        0.1953125   0.390625    0.3671875   0.9        -0.06666667]",0.5302883144795201,0,0
74,74,2024-09-28 16:42:27.708239872,TASK_BEGIN,23,1.268208999669727,-0.7801374039915699,-4.205980707659787,1.0553895833382596,1.5562399067953852,-0.2152916756681519,-10.024533839548733,2.142852717339172,1,2024-09-28 16:42:26.386557129,1727541746.386557,2024-09-28 16:42:26.386557184,0,1.0,0.1,11.418775498483466,[0.15551308 0.84448692],[0.15551308 0.84448692],"[-0.14722222  0.234375    0.4296875   0.42222222  0.234375    0.4296875
  0.92222222  0.1953125   0.390625    0.37109375 -0.8         0.5       ]",0.4316641841040236,0,0
75,75,2024-09-28 16:42:27.771461888,TASK_BEGIN,23,1.3055981366070932,-0.7519728361779654,-4.201113612952513,1.0231516021109237,1.5163822613661826,-0.2173838363311144,-10.05399118474174,2.202585917117158,1,2024-09-28 16:42:26.946587158,1727541746.9465876,2024-09-28 16:42:26.946587648,0,0.0,0.1,11.270283977997222,[9.99064974e-01 9.35025839e-04],[9.99064974e-01 9.35025839e-04],"[0.26944444 0.234375   0.4296875  0.76944444 0.1953125  0.390625
 1.         0.         1.         0.328125   0.3        0.13333333]",0.5203300578319486,0,0
76,76,2024-09-28 16:42:27.843800064,TASK_BEGIN,23,1.3423994205059488,-0.7212200766825605,-4.183039631973706,0.9835234513832788,1.4830574109890535,-0.2191994550360279,-10.023132321282093,2.2447443221474077,1,2024-09-28 16:42:26.997592041,1727541746.997593,2024-09-28 16:42:26.997592832,0,0.0,0.1,11.25758113821725,[0.97820419 0.02179581],[0.97820419 0.02179581],"[0.25555556 0.234375   0.4296875  0.75555556 0.1953125  0.390625
 1.         0.         1.         0.3359375  0.4        0.1       ]",0.6069255678637928,0,0
77,77,2024-09-28 16:42:28.780888064,TASK_BEGIN,23,1.377614197862573,-0.6878215526789964,-4.156053627589627,0.938653597453914,1.4586934443257698,-0.220737964601305,-9.927928841727118,2.2675549864767177,1,2024-09-28 16:42:27.914555908,1727541747.914557,2024-09-28 16:42:27.914556928,0,0.0,0.1,11.863412633490274,[0.98918557 0.01081443],[0.98918557 0.01081443],"[ 0.00555556  0.234375    0.4296875   0.50555556  0.1953125   0.390625
  1.          0.          1.          0.34570312  0.8        -0.03333333]",0.6515100838848363,0,0
78,78,2024-09-28 16:42:28.842489088,TASK_BEGIN,23,1.4100096349085869,-0.6515881764210005,-4.125665794991365,0.8908579085120809,1.4454199233449103,-0.2220299673322925,-9.766125488715332,2.2700311369602475,1,2024-09-28 16:42:27.914555908,1727541747.914557,2024-09-28 16:42:27.914556928,0,0.0,0.1,11.863412633490274,[0.98918557 0.01081443],[0.98918557 0.01081443],"[ 0.00555556  0.234375    0.4296875   0.50555556  0.1953125   0.390625
  1.          0.          1.          0.34570312  0.8        -0.03333333]",0.6515100838848363,0,0
79,79,2024-09-28 16:42:28.921403904,TASK_BEGIN,23,1.4380598742820407,-0.612193352992516,-4.098344850566268,0.8424345800420621,1.4448529806524284,-0.2231390941039955,-9.538157845857834,2.2522421292270027,1,2024-09-28 16:42:27.914555908,1727541747.914557,2024-09-28 16:42:27.914556928,0,0.0,0.1,11.863412633490274,[0.98918557 0.01081443],[0.98918557 0.01081443],"[ 0.00555556  0.234375    0.4296875   0.50555556  0.1953125   0.390625
  1.          0.          1.          0.34570312  0.8        -0.03333333]",0.6515100838848363,0,0
80,80,2024-09-28 16:42:28.989504256,TASK_BEGIN,23,1.4599422758867184,-0.5691864932138653,-4.080968984779252,0.795502914453619,1.4579061769838495,-0.2241625116286512,-9.247882900661176,2.2154498896364387,1,2024-09-28 16:42:27.914555908,1727541747.914557,2024-09-28 16:42:27.914556928,0,0.0,0.1,11.863412633490274,[0.98918557 0.01081443],[0.98918557 0.01081443],"[ 0.00555556  0.234375    0.4296875   0.50555556  0.1953125   0.390625
  1.          0.          1.          0.34570312  0.8        -0.03333333]",0.6515100838848363,0,0
81,81,2024-09-28 16:42:29.044616960,TASK_BEGIN,23,1.4736034316028075,-0.5220311406673993,-4.07974726814223,0.7518038862052823,1.4846461156951198,-0.2252236198968193,-8.902785437101226,2.1620648804233364,1,2024-09-28 16:42:27.914555908,1727541747.914557,2024-09-28 16:42:27.914556928,0,0.0,0.1,11.863412633490274,[0.98918557 0.01081443],[0.98918557 0.01081443],"[ 0.00555556  0.234375    0.4296875   0.50555556  0.1953125   0.390625
  1.          0.          1.          0.34570312  0.8        -0.03333333]",0.6515100838848363,0,0
82,82,2024-09-28 16:42:29.121868032,TASK_BEGIN,23,1.4768928195205089,-0.4701729643881374,-4.098853458333447,0.7124617667163318,1.5242155532058823,-0.2264549819345314,-8.513577415697604,2.0954516566682937,1,2024-09-28 16:42:28.270848145,1727541748.2708485,2024-09-28 16:42:28.270848512,0,1.0,0.1,11.73682234452839,[0.05059412 0.94940588],[0.05059412 0.94940588],"[-0.09166667  0.234375    0.4296875   0.40833333  0.1953125   0.390625
  0.90833333  0.2734375   0.46875     0.3046875  -0.8         0.5       ]",0.7049430408601703,0,0
83,83,2024-09-28 16:42:29.193139200,TASK_BEGIN,23,1.4677507433340309,-0.4131356207171545,-4.139416170693017,0.6777988822618295,1.5748302772599163,-0.2279725580520051,-8.093324489686788,2.019616838499689,1,2024-09-28 16:42:28.320723145,1727541748.3207233,2024-09-28 16:42:28.320723200,0,1.0,0.1,11.719454121083105,[0.0697198 0.9302802],[0.0697198 0.9302802],"[-0.10555556  0.234375    0.4296875   0.39444444  0.1953125   0.390625
  0.89444444  0.2734375   0.46875     0.2890625  -0.8         0.5       ]",0.7263748805206903,0,0
84,84,2024-09-28 16:42:30.136635136,TASK_BEGIN,23,1.4444214668075006,-0.3506260682130189,-4.1993219644851205,0.6472974812134724,1.6338598517726708,-0.2298462719907154,-7.656302626825982,1.9388044319871856,1,2024-09-28 16:42:29.132914062,1727541749.1329148,2024-09-28 16:42:29.132914688,0,0.0,0.1,11.464042573437315,[0.97704506 0.02295494],[0.97704506 0.02295494],"[ 0.17222222  0.1953125   0.390625    0.67222222  0.2734375   0.46875
  1.          0.          1.          0.3046875   0.8        -0.03333333]",0.703976723151644,0,0
85,85,2024-09-28 16:42:30.197588992,TASK_BEGIN,23,1.405663743755474,-0.2826274663636711,-4.273760995693263,0.6197329320465232,1.698007661254754,-0.2320777454169801,-7.216784920956133,1.8570663334103368,1,2024-09-28 16:42:29.132914062,1727541749.1329148,2024-09-28 16:42:29.132914688,0,0.0,0.1,11.464042573437315,[0.97704506 0.02295494],[0.97704506 0.02295494],"[ 0.17222222  0.1953125   0.390625    0.67222222  0.2734375   0.46875
  1.          0.          1.          0.3046875   0.8        -0.03333333]",0.703976723151644,0,0
86,86,2024-09-28 16:42:30.259110144,TASK_BEGIN,23,1.3509530781907593,-0.209469934556964,-4.356152156741777,0.5934509562441612,1.7635702436050964,-0.2345941697591522,-6.78788940795637,1.7778849977208573,1,2024-09-28 16:42:29.132914062,1727541749.1329148,2024-09-28 16:42:29.132914688,0,0.0,0.1,11.464042573437315,[0.97704506 0.02295494],[0.97704506 0.02295494],"[ 0.17222222  0.1953125   0.390625    0.67222222  0.2734375   0.46875
  1.          0.          1.          0.3046875   0.8        -0.03333333]",0.703976723151644,0,0
87,87,2024-09-28 16:42:30.335964160,TASK_BEGIN,23,1.2806674108274982,-0.1318737440738071,-4.43915601075497,0.5667401751628234,1.826722693319151,-0.237257133224026,-6.380601254900647,1.7038808590000112,1,2024-09-28 16:42:29.132914062,1727541749.1329148,2024-09-28 16:42:29.132914688,0,0.0,0.1,11.464042573437315,[0.97704506 0.02295494],[0.97704506 0.02295494],"[ 0.17222222  0.1953125   0.390625    0.67222222  0.2734375   0.46875
  1.          0.          1.          0.3046875   0.8        -0.03333333]",0.703976723151644,0,0
88,88,2024-09-28 16:42:30.407614976,TASK_BEGIN,23,1.196204003431117,-0.0509533518274463,-4.515620163090875,0.5382071347001243,1.883801558444364,-0.2398821024113576,-6.003188531769955,1.6366250944880127,1,2024-09-28 16:42:29.132914062,1727541749.1329148,2024-09-28 16:42:29.132914688,0,0.0,0.1,11.464042573437315,[0.97704506 0.02295494],[0.97704506 0.02295494],"[ 0.17222222  0.1953125   0.390625    0.67222222  0.2734375   0.46875
  1.          0.          1.          0.3046875   0.8        -0.03333333]",0.703976723151644,0,0
89,89,2024-09-28 16:42:30.459742976,TASK_BEGIN,23,1.0999531340585764,0.03182750870991,-4.57932078937202,0.5070257117298969,1.931583752835563,-0.2422672080771306,-5.661183219822883,1.576593909584603,1,2024-09-28 16:42:29.132914062,1727541749.1329148,2024-09-28 16:42:29.132914688,0,0.0,0.1,11.464042573437315,[0.97704506 0.02295494],[0.97704506 0.02295494],"[ 0.17222222  0.1953125   0.390625    0.67222222  0.2734375   0.46875
  1.          0.          1.          0.3046875   0.8        -0.03333333]",0.703976723151644,0,0
90,90,2024-09-28 16:42:30.537852160,TASK_BEGIN,23,0.9951071575826786,0.1147472725847873,-4.625377696049579,0.4729892266576047,1.967526654922888,-0.2442230989887743,-5.357839793660427,1.5232961235146392,1,2024-09-28 16:42:29.132914062,1727541749.1329148,2024-09-28 16:42:29.132914688,0,0.0,0.1,11.464042573437315,[0.97704506 0.02295494],[0.97704506 0.02295494],"[ 0.17222222  0.1953125   0.390625    0.67222222  0.2734375   0.46875
  1.          0.          1.          0.3046875   0.8        -0.03333333]",0.703976723151644,0,0
91,91,2024-09-28 16:42:31.487319040,TASK_BEGIN,23,0.8853649765910503,0.195950014321022,-4.650349649732799,0.4364005549990616,1.989902495466915,-0.2455861854499069,-5.094907818407044,1.4755855663865238,1,2024-09-28 16:42:30.247445068,1727541750.247446,2024-09-28 16:42:30.247446016,0,0.0,0.1,11.909737555092319,[0.97335117 0.02664883],[0.97335117 0.02664883],"[-0.13333333  0.1953125   0.390625    0.36666667  0.2734375   0.46875
  0.93611111  0.3125      0.5078125   0.40039062  1.         -0.2       ]",0.7308006197742022,0,0
92,92,2024-09-28 16:42:31.555140864,TASK_BEGIN,23,0.7746204866270674,0.2735800164799735,-4.652115850661342,0.3978800655883511,1.997808290716777,-0.2462079030218007,-4.873609416251046,1.4321061098820722,1,2024-09-28 16:42:30.247445068,1727541750.247446,2024-09-28 16:42:30.247446016,0,0.0,0.1,11.909737555092319,[0.97335117 0.02664883],[0.97335117 0.02664883],"[-0.13333333  0.1953125   0.390625    0.36666667  0.2734375   0.46875
  0.93611111  0.3125      0.5078125   0.40039062  1.         -0.2       ]",0.7308006197742022,0,0
93,93,2024-09-28 16:42:31.612107008,TASK_BEGIN,23,0.6666833844288298,0.3459110177660004,-4.629586559699292,0.3581504845715536,1.9911138714695973,-0.245937559943299,-4.695531579972875,1.3917218126966473,1,2024-09-28 16:42:30.247445068,1727541750.247446,2024-09-28 16:42:30.247446016,0,0.0,0.1,11.909737555092319,[0.97335117 0.02664883],[0.97335117 0.02664883],"[-0.13333333  0.1953125   0.390625    0.36666667  0.2734375   0.46875
  0.93611111  0.3125      0.5078125   0.40039062  1.         -0.2       ]",0.7308006197742022,0,0
94,94,2024-09-28 16:42:31.689431808,TASK_BEGIN,23,0.5650235745856266,0.4114660642801965,-4.582277103902414,0.3178504808819971,1.970416341909196,-0.2446237423782865,-4.56304535598886,1.353779182026403,1,2024-09-28 16:42:30.400544922,1727541750.4005458,2024-09-28 16:42:30.400545792,0,0.0,0.1,11.85301643996852,[0.97990529 0.02009471],[0.97990529 0.02009471],"[-0.175       0.1953125   0.390625    0.325       0.2734375   0.46875
  0.89444444  0.3125      0.5078125   0.359375   -0.6         0.43333333]",0.34766138815992165,0,0
95,95,2024-09-28 16:42:31.758301952,TASK_BEGIN,23,0.4725234037407995,0.4691247161129318,-4.509973451549489,0.2774447352039511,1.936996219078894,-0.2421380340828342,-4.479165445314741,1.3181570999613632,1,2024-09-28 16:42:30.903328857,1727541750.9033294,2024-09-28 16:42:30.903329280,0,0.0,0.1,11.675834853004156,[9.99998747e-01 1.25296050e-06],[9.99998747e-01 1.25296050e-06],"[0.18611111 0.2734375  0.46875    0.75555556 0.3125     0.5078125
 1.         0.         1.         0.34960938 0.4        0.1       ]",0.35524746683160113,0,0
96,96,2024-09-28 16:42:31.813925120,TASK_BEGIN,23,0.3912677020053925,0.5182004681776542,-4.4128443259434285,0.2372811635606312,1.89272696687274,-0.2384029450113633,-4.446999863949282,1.285154082073778,1,2024-09-28 16:42:31.003923828,1727541751.0039244,2024-09-28 16:42:31.003924480,0,0.0,0.1,11.642485739429373,[9.99090768e-01 9.09231833e-04],[9.99090768e-01 9.09231833e-04],"[0.15833333 0.2734375  0.46875    0.72777778 0.3125     0.5078125
 1.         0.         1.         0.37109375 0.6        0.03333333]",0.5684506468164598,0,0
97,97,2024-09-28 16:42:31.893806848,TASK_BEGIN,23,0.3224243412912005,0.5584672908940885,-4.292116957835066,0.1977781423230249,1.839922464406567,-0.2334059841884806,-4.468901816249679,1.2552883400004344,1,2024-09-28 16:42:31.054605957,1727541751.054606,2024-09-28 16:42:31.054606080,0,0.0,1.0,12.526060882035079,[0.96911166 0.03088834],[0.96911166 0.03088834],"[0.14444444 0.2734375  0.46875    0.71388889 0.3125     0.5078125
 1.         0.         1.         0.38476562 0.7        0.        ]",0.6826139801592267,0,0
98,98,2024-09-28 16:42:32.821387008,TASK_BEGIN,23,0.2662321486560737,0.5901312591482858,-4.150991079354775,0.1596577778263298,1.781153042792868,-0.2271953858381133,-4.545509342443675,1.229093690769621,1,2024-09-28 16:42:31.972526123,1727541751.9725266,2024-09-28 16:42:31.972526592,0,0.0,0.1,12.108032568319011,[9.99832607e-01 1.67392533e-04],[9.99832607e-01 1.67392533e-04],"[-0.10555556  0.2734375   0.46875     0.46388889  0.3125      0.5078125
  0.96388889  0.234375    0.4296875   0.40234375  0.9        -0.06666667]",0.5041492706955628,0,0
99,99,2024-09-28 16:42:32.898168064,TASK_BEGIN,23,0.2220708188450126,0.6137640933644991,-3.995272175797224,0.1241353729751783,1.7190704429264212,-0.2198649100849433,-4.675002002411903,1.2069806538800485,1,2024-09-28 16:42:32.023564209,1727541752.0235648,2024-09-28 16:42:32.023564800,0,0.0,0.1,12.086952242635821,[0.9958106 0.0041894],[0.9958106 0.0041894],"[-0.11944444  0.2734375   0.46875     0.45        0.3125      0.5078125
  0.95        0.234375    0.4296875   0.421875    1.         -0.1       ]",0.6375557474706169,0,0
100,100,2024-09-28 16:42:32.960176896,TASK_BEGIN,23,0.1885791090571429,0.6302210385819801,-3.833418816977621,0.0930207389508768,1.656257436274975,-0.2115379193832242,-4.852784900900437,1.1891757826383065,1,2024-09-28 16:42:32.023564209,1727541752.0235648,2024-09-28 16:42:32.023564800,0,0.0,0.1,12.086952242635821,[0.9958106 0.0041894],[0.9958106 0.0041894],"[-0.11944444  0.2734375   0.46875     0.45        0.3125      0.5078125
  0.95        0.234375    0.4296875   0.421875    1.         -0.1       ]",0.6375557474706169,0,0
101,101,2024-09-28 16:42:33.038284288,TASK_BEGIN,23,0.1637996695473572,0.64055366295869,-3.676062102479285,0.0687216210350498,1.5950881704709516,-0.2023553461737264,-5.071617997425199,1.1757106819915786,1,2024-09-28 16:42:32.023564209,1727541752.0235648,2024-09-28 16:42:32.023564800,0,0.0,0.1,12.086952242635821,[0.9958106 0.0041894],[0.9958106 0.0041894],"[-0.11944444  0.2734375   0.46875     0.45        0.3125      0.5078125
  0.95        0.234375    0.4296875   0.421875    1.         -0.1       ]",0.6375557474706169,0,0
102,102,2024-09-28 16:42:33.100769024,TASK_BEGIN,23,0.1453498630672348,0.6459147720927049,-3.5352017631600456,0.0541316274780459,1.5375958688288371,-0.192467266057945,-5.322244105954859,1.1664540265187149,1,2024-09-28 16:42:32.023564209,1727541752.0235648,2024-09-28 16:42:32.023564800,0,0.0,0.1,12.086952242635821,[0.9958106 0.0041894],[0.9958106 0.0041894],"[-0.11944444  0.2734375   0.46875     0.45        0.3125      0.5078125
  0.95        0.234375    0.4296875   0.421875    1.         -0.1       ]",0.6375557474706169,0,0
103,103,2024-09-28 16:42:33.162395136,TASK_BEGIN,23,0.1306429180782441,0.6474506491311756,-3.423143014656141,0.0523657876553314,1.4853867132659972,-0.1820291699072772,-5.594560117601506,1.1612025060147184,1,2024-09-28 16:42:32.023564209,1727541752.0235648,2024-09-28 16:42:32.023564800,0,0.0,0.1,12.086952242635821,[0.9958106 0.0041894],[0.9958106 0.0041894],"[-0.11944444  0.2734375   0.46875     0.45        0.3125      0.5078125
  0.95        0.234375    0.4296875   0.421875    1.         -0.1       ]",0.6375557474706169,0,0
104,104,2024-09-28 16:42:33.243048704,TASK_BEGIN,23,0.1171854670319352,0.646179068895081,-3.351136733855348,0.0663251726122813,1.4396435337772866,-0.171206478742042,-5.879004996063663,1.1597945123601652,1,2024-09-28 16:42:32.023564209,1727541752.0235648,2024-09-28 16:42:32.023564800,0,0.0,0.1,12.086952242635821,[0.9958106 0.0041894],[0.9958106 0.0041894],"[-0.11944444  0.2734375   0.46875     0.45        0.3125      0.5078125
  0.95        0.234375    0.4296875   0.421875    1.         -0.1       ]",0.6375557474706169,0,0
105,105,2024-09-28 16:42:34.161478144,TASK_BEGIN,23,0.1029340415273283,0.6428579796277893,-3.327789851784793,0.0981312538747512,1.4012058462355228,-0.1601877353334702,-6.167535645807365,1.162164737067052,1,2024-09-28 16:42:32.789570068,1727541752.7895708,2024-09-28 16:42:32.789570816,0,0.0,0.1,11.794900712016307,[0.99338646 0.00661354],[0.99338646 0.00661354],"[0.24166667 0.3125     0.5078125  0.74166667 0.234375   0.4296875
 1.         0.         1.         0.41015625 0.4        0.1       ]",0.5978746622857137,0,0
106,106,2024-09-28 16:42:34.217345024,TASK_BEGIN,23,0.0866296977996093,0.6378667309459888,-3.3575218847652133,0.1485542422164078,1.3706543291561777,-0.1491998864868489,-6.453899102722713,1.1683260258205543,1,2024-09-28 16:42:32.839597900,1727541752.8395982,2024-09-28 16:42:32.839598080,0,0.0,0.1,11.776951704896144,[0.84799997 0.15200003],[0.84799997 0.15200003],"[0.22777778 0.3125     0.5078125  0.72777778 0.234375   0.4296875
 1.         0.         1.         0.41992188 0.5        0.06666667]",0.4171124883407921,0,0
107,107,2024-09-28 16:42:34.294484992,TASK_BEGIN,23,0.0680102740892378,0.6311338553679464,-3.439557202836653,0.2166335897718951,1.3483472021014398,-0.1385163878034232,-6.733542942971563,1.1783506635197147,1,2024-09-28 16:42:32.990974854,1727541752.990975,2024-09-28 16:42:32.990974976,0,0.0,0.1,11.724174462309023,[9.99767642e-01 2.32357607e-04],[9.99767642e-01 2.32357607e-04],"[ 0.18611111  0.3125      0.5078125   0.68611111  0.234375    0.4296875
  1.          0.          1.          0.37890625 -0.6         0.43333333]",0.3354860862053715,0,0
108,108,2024-09-28 16:42:34.356006144,TASK_BEGIN,23,0.0478517459442074,0.6221319817418044,-3.5678682604789143,0.2996450589844274,1.3344366992404957,-0.1284540661008953,-7.003668606641448,1.192402089260549,1,2024-09-28 16:42:33.499000977,1727541753.4990013,2024-09-28 16:42:33.499001344,0,0.0,0.1,12.398171291016512,[9.99999390e-01 6.09880999e-07],[9.99999390e-01 6.09880999e-07],"[0.04722222 0.3125     0.5078125  0.54722222 0.234375   0.4296875
 1.         0.         1.         0.36914062 0.4        0.1       ]",0.3424739285588806,0,0
109,109,2024-09-28 16:42:34.432610048,TASK_BEGIN,23,0.0278604543626101,0.6099359292357179,-3.7320203827219416,0.3933884634858654,1.328919279918424,-0.1193602248267469,-7.263509546256902,1.210785460708862,1,2024-09-28 16:42:33.601001953,1727541753.6010025,2024-09-28 16:42:33.601002496,0,0.0,0.1,12.350447682325282,[9.99937232e-01 6.27681132e-05],[9.99937232e-01 6.27681132e-05],"[0.01944444 0.3125     0.5078125  0.51944444 0.234375   0.4296875
 1.         0.         1.         0.390625   0.6        0.03333333]",0.4269417479431187,0,0
110,110,2024-09-28 16:42:34.499043072,TASK_BEGIN,23,0.0104663027900783,0.5933284596823111,-3.9185003877501834,0.4926399059336003,1.3317111892618396,-0.1115907751845972,-7.514424341028527,1.2339347681639203,1,2024-09-28 16:42:33.652031006,1727541753.652031,2024-09-28 16:42:33.652030976,0,0.0,0.1,12.326943205502028,[0.99881165 0.00118835],[0.99881165 0.00118835],"[0.00555556 0.3125     0.5078125  0.50555556 0.234375   0.4296875
 1.         0.         1.         0.40429688 0.7        0.        ]",0.5330018116989224,0,0
111,111,2024-09-28 16:42:34.560347904,TASK_BEGIN,23,-0.0014457035674166,0.5709396501214015,-4.112149656895137,0.5916496812631579,1.342692683103181,-0.1054784784361365,-7.759382763110461,1.2622854005295367,1,2024-09-28 16:42:33.703000977,1727541753.7030017,2024-09-28 16:42:33.703001856,0,0.0,0.1,12.303673773447008,[0.97539758 0.02460242],[0.97539758 0.02460242],"[-0.00833333  0.3125      0.5078125   0.49166667  0.234375    0.4296875
  0.99166667  0.21484375  0.41015625  0.41992188  0.8        -0.03333333]",0.6139449511883195,0,0
112,112,2024-09-28 16:42:35.499242240,TASK_BEGIN,23,-0.0048430039626478,0.5414077521095643,-4.297544536929923,0.6846668848254215,1.3616833596361535,-0.1012948757718507,-8.001904347700249,1.29606381700406,1,2024-09-28 16:42:34.667819092,1727541754.6678197,2024-09-28 16:42:34.667819776,0,0.0,0.1,11.903222991174838,[9.99997083e-01 2.91686296e-06],[9.99997083e-01 2.91686296e-06],"[0.22777778 0.234375   0.4296875  0.72777778 0.21484375 0.41015625
 1.         0.         1.         0.30859375 0.4        0.1       ]",0.35869484916152455,0,0
113,113,2024-09-28 16:42:35.576929280,TASK_BEGIN,23,0.0031455900817872,0.5035434132936527,-4.460314065190439,0.7664955613541479,1.3883597495527282,-0.0992167868001703,-8.244874529118118,1.3350538152083016,1,2024-09-28 16:42:34.718180908,1727541754.7181818,2024-09-28 16:42:34.718181888,0,0.0,0.1,11.884190761263088,[9.99859196e-01 1.40804121e-04],[9.99859196e-01 1.40804121e-04],"[0.21388889 0.234375   0.4296875  0.71388889 0.21484375 0.41015625
 1.         0.         1.         0.31835938 0.5        0.06666667]",0.43720724522290977,0,0
114,114,2024-09-28 16:42:35.639787776,TASK_BEGIN,23,0.0249827243057626,0.4564726639278697,-4.5883557408942846,0.8330149134542302,1.4221662459295126,-0.0993087619840824,-8.489555605942678,1.3783753996269532,1,2024-09-28 16:42:34.768183838,1727541754.7681844,2024-09-28 16:42:34.768184320,0,0.0,0.1,11.865348853650458,[0.990156 0.009844],[0.990156 0.009844],"[0.2        0.234375   0.4296875  0.7        0.21484375 0.41015625
 1.         0.         1.         0.33007812 0.6        0.03333333]",0.5829202134521683,0,0
115,115,2024-09-28 16:42:35.714835968,TASK_BEGIN,23,0.0625765955999244,0.3997424955565255,-4.672817149839571,0.8815371913737847,1.4622723602680088,-0.1015258551984277,-8.734901919611126,1.424345341902113,1,2024-09-28 16:42:34.768183838,1727541754.7681844,2024-09-28 16:42:34.768184320,0,0.0,0.1,11.865348853650458,[0.990156 0.009844],[0.990156 0.009844],"[0.2        0.234375   0.4296875  0.7        0.21484375 0.41015625
 1.         0.         1.         0.33007812 0.6        0.03333333]",0.5829202134521683,0,0
116,116,2024-09-28 16:42:35.778674944,TASK_BEGIN,23,0.1172045650680738,0.3333900693161226,-4.70872460461104,0.9109225122138268,1.507593468319806,-0.1057341134289677,-8.977289238637592,1.4705269949051882,1,2024-09-28 16:42:34.768183838,1727541754.7681844,2024-09-28 16:42:34.768184320,0,0.0,0.1,11.865348853650458,[0.990156 0.009844],[0.990156 0.009844],"[0.2        0.234375   0.4296875  0.7        0.21484375 0.41015625
 1.         0.         1.         0.33007812 0.6        0.03333333]",0.5829202134521683,0,0
117,117,2024-09-28 16:42:35.850353152,TASK_BEGIN,23,0.1894413472235418,0.2579809899648134,-4.695190624070403,0.9214562754486668,1.5568615979399836,-0.1117399693140433,-9.210730099874883,1.513981864569106,1,2024-09-28 16:42:34.768183838,1727541754.7681844,2024-09-28 16:42:34.768184320,0,0.0,0.1,11.865348853650458,[0.990156 0.009844],[0.990156 0.009844],"[0.2        0.234375   0.4296875  0.7        0.21484375 0.41015625
 1.         0.         1.         0.33007812 0.6        0.03333333]",0.5829202134521683,0,0
118,118,2024-09-28 16:42:35.918105088,TASK_BEGIN,23,0.2790729336711375,0.1746134437451467,-4.63521524890544,0.9145559492691928,1.6087251356118553,-0.119316526130162,-9.427405322178736,1.5515954029497867,1,2024-09-28 16:42:34.768183838,1727541754.7681844,2024-09-28 16:42:34.768184320,0,0.0,0.1,11.865348853650458,[0.990156 0.009844],[0.990156 0.009844],"[0.2        0.234375   0.4296875  0.7        0.21484375 0.41015625
 1.         0.         1.         0.33007812 0.6        0.03333333]",0.5829202134521683,0,0
119,119,2024-09-28 16:42:36.854108160,TASK_BEGIN,23,0.3850349849379821,0.084879116760388,-4.535250386229417,0.8924225374828577,1.661858830884182,-0.1282224599775009,-9.618232255284758,1.5803564912251435,1,2024-09-28 16:42:35.777880859,1727541755.7778811,2024-09-28 16:42:35.777881088,0,0.0,0.1,12.291993762425134,[0.98940793 0.01059207],[0.98940793 0.01059207],"[-0.07777778  0.234375    0.4296875   0.42222222  0.21484375  0.41015625
  0.99166667  0.2734375   0.46875     0.38085938  1.         -0.1       ]",0.8356466383853839,0,0
120,120,2024-09-28 16:42:36.923343104,TASK_BEGIN,23,0.5054178496227653,-0.009229762858532,-4.404632657565459,0.8577465094782585,1.7150709740954573,-0.1382178933453423,-9.773361187686191,1.5975689106561175,1,2024-09-28 16:42:35.777880859,1727541755.7778811,2024-09-28 16:42:35.777881088,0,0.0,0.1,12.291993762425134,[0.98940793 0.01059207],[0.98940793 0.01059207],"[-0.07777778  0.234375    0.4296875   0.42222222  0.21484375  0.41015625
  0.99166667  0.2734375   0.46875     0.38085938  1.         -0.1       ]",0.8356466383853839,0,0
121,121,2024-09-28 16:42:36.997148928,TASK_BEGIN,23,0.637548941380338,-0.1054785696035241,-4.254752849313785,0.8135064390444792,1.7673904378979155,-0.1490762720431622,-9.882680556792293,1.6010053641434514,1,2024-09-28 16:42:35.777880859,1727541755.7778811,2024-09-28 16:42:35.777881088,0,0.0,0.1,12.291993762425134,[0.98940793 0.01059207],[0.98940793 0.01059207],"[-0.07777778  0.234375    0.4296875   0.42222222  0.21484375  0.41015625
  0.99166667  0.2734375   0.46875     0.38085938  1.         -0.1       ]",0.8356466383853839,0,0
122,122,2024-09-28 16:42:37.064862976,TASK_BEGIN,23,0.7781418573181197,-0.2016150636665214,-4.097931789691301,0.7628467118038854,1.818096112993311,-0.1605823517374808,-9.936503877180586,1.589009440915503,1,2024-09-28 16:42:35.777880859,1727541755.7778811,2024-09-28 16:42:35.777881088,0,0.0,0.1,12.291993762425134,[0.98940793 0.01059207],[0.98940793 0.01059207],"[-0.07777778  0.234375    0.4296875   0.42222222  0.21484375  0.41015625
  0.99166667  0.2734375   0.46875     0.38085938  1.         -0.1       ]",0.8356466383853839,0,0
123,123,2024-09-28 16:42:37.117040896,TASK_BEGIN,23,0.9235012565207276,-0.295638599524604,-3.946276842783682,0.7089970443490013,1.8666454819456892,-0.1725112485098106,-9.926502001802778,1.5605695333437264,1,2024-09-28 16:42:35.777880859,1727541755.7778811,2024-09-28 16:42:35.777881088,0,0.0,0.1,12.291993762425134,[0.98940793 0.01059207],[0.98940793 0.01059207],"[-0.07777778  0.234375    0.4296875   0.42222222  0.21484375  0.41015625
  0.99166667  0.2734375   0.46875     0.38085938  1.         -0.1       ]",0.8356466383853839,0,0
124,124,2024-09-28 16:42:37.194212864,TASK_BEGIN,23,1.0697823221533018,-0.3860698871359387,-3.8107814139230696,0.6551746390457327,1.9125023027235648,-0.1846000566878253,-9.84664524528224,1.5153864692026544,1,2024-09-28 16:42:35.981843994,1727541755.981845,2024-09-28 16:42:35.981844992,0,1.0,0.1,12.20168006313047,[0.05245091 0.94754909],[0.05245091 0.94754909],"[-0.13333333  0.234375    0.4296875   0.36666667  0.21484375  0.41015625
  0.93611111  0.2734375   0.46875     0.31835938 -0.8         0.5       ]",0.7560003668359542,0,0
125,125,2024-09-28 16:42:37.256284928,TASK_BEGIN,23,1.2133051846768752,-0.4721691512317908,-3.700723588169857,0.6044363618772071,1.9549323877239704,-0.1965348302945052,-9.693883778904206,1.4539246730631894,1,2024-09-28 16:42:35.981843994,1727541755.981845,2024-09-28 16:42:35.981844992,0,1.0,0.1,12.20168006313047,[0.05245091 0.94754909],[0.05245091 0.94754909],"[-0.13333333  0.234375    0.4296875   0.36666667  0.21484375  0.41015625
  0.93611111  0.2734375   0.46875     0.31835938 -0.8         0.5       ]",0.7560003668359542,0,0
126,126,2024-09-28 16:42:38.181438976,TASK_BEGIN,23,1.3508976762780704,-0.5540546898129248,-3.623285846818377,0.5595016755002123,1.9928767091329191,-0.207969836436466,-9.468612267923112,1.3774301118317596,1,2024-09-28 16:42:36.842066162,1727541756.8420663,2024-09-28 16:42:36.842066176,0,0.0,0.1,12.746891223224917,[0.99528837 0.00471163],[0.99528837 0.00471163],"[ 0.13055556  0.21484375  0.41015625  0.7         0.2734375   0.46875
  1.          0.          1.          0.31835938  0.8        -0.03333333]",0.635063316886465,0,0
127,127,2024-09-28 16:42:38.253263872,TASK_BEGIN,23,1.480193589830196,-0.6326928334585632,-3.5832265095274747,0.5225742878780277,2.0249898978812717,-0.2185763309889269,-9.17510128335864,1.2879282356799897,1,2024-09-28 16:42:36.944097900,1727541756.944098,2024-09-28 16:42:36.944098048,0,1.0,0.1,12.692228087882741,[0.17828652 0.82171348],[0.17828652 0.82171348],"[ 0.10277778  0.21484375  0.41015625  0.67222222  0.2734375   0.46875
  1.          0.          1.          0.3203125  -0.8         0.5       ]",0.42084531715431145,0,0
128,128,2024-09-28 16:42:38.305604864,TASK_BEGIN,23,1.599794537806276,-0.7097609186530311,-3.582490913280384,0.495178588481874,2.049841287789528,-0.2280978047737164,-8.821857878722263,1.188228328904986,1,2024-09-28 16:42:36.944097900,1727541756.944098,2024-09-28 16:42:36.944098048,0,1.0,0.1,12.692228087882741,[0.17828652 0.82171348],[0.17828652 0.82171348],"[ 0.10277778  0.21484375  0.41015625  0.67222222  0.2734375   0.46875
  1.          0.          1.          0.3203125  -0.8         0.5       ]",0.42084531715431145,0,0
129,129,2024-09-28 16:42:38.383220992,TASK_BEGIN,23,1.709246444192574,-0.7874095759405645,-3.619863397076001,0.4780317230658795,2.066178615826115,-0.2363832946625715,-8.42168029759955,1.0819286334116252,1,2024-09-28 16:42:37.094101074,1727541757.0941012,2024-09-28 16:42:37.094101248,0,0.0,0.1,12.612266221444534,[9.99842669e-01 1.57331217e-04],[9.99842669e-01 1.57331217e-04],"[ 0.06111111  0.21484375  0.41015625  0.63055556  0.2734375   0.46875
  1.          0.          1.          0.28515625 -0.5         0.4       ]",0.3432186351857838,0,0
130,130,2024-09-28 16:42:38.445285120,TASK_BEGIN,23,1.8088651195376957,-0.8679595933982198,-3.6908143177854735,0.4709678201696716,2.073148063490553,-0.2433854892866905,-7.991178216642629,0.9733751818909808,1,2024-09-28 16:42:37.094101074,1727541757.0941012,2024-09-28 16:42:37.094101248,0,0.0,0.1,12.612266221444534,[9.99842669e-01 1.57331217e-04],[9.99842669e-01 1.57331217e-04],"[ 0.06111111  0.21484375  0.41015625  0.63055556  0.2734375   0.46875
  1.          0.          1.          0.28515625 -0.5         0.4       ]",0.3432186351857838,0,0
131,131,2024-09-28 16:42:38.522016000,TASK_BEGIN,23,1.8994972688991527,-0.9535704076883248,-3.787589516681291,0.4729283582418497,2.070418347183442,-0.2491308960433032,-7.549647888100079,0.867511846026483,1,2024-09-28 16:42:37.701108887,1727541757.7011094,2024-09-28 16:42:37.701109504,0,0.0,0.1,12.315473259583486,[9.99999990e-01 9.82829183e-09],[9.99999990e-01 9.82829183e-09],"[-0.10555556  0.21484375  0.41015625  0.46388889  0.2734375   0.46875
  0.96388889  0.1953125   0.390625    0.3203125   0.7         0.        ]",0.37038082221185115,0,0
132,132,2024-09-28 16:42:38.583537152,TASK_BEGIN,23,1.9822814574567629,-1.0459255441088842,-3.8996177907031937,0.482049300376367,2.0581856861781067,-0.2536779488149038,-7.117443409964943,0.7695838088664937,1,2024-09-28 16:42:37.752108154,1727541757.7521088,2024-09-28 16:42:37.752108800,0,0.0,0.1,12.292318526987652,[9.9999989e-01 1.1019668e-07],[9.9999989e-01 1.1019668e-07],"[-0.11944444  0.21484375  0.41015625  0.45        0.2734375   0.46875
  0.95        0.1953125   0.390625    0.3359375   0.8        -0.03333333]",0.40076097753951423,0,0
133,133,2024-09-28 16:42:39.535168000,TASK_BEGIN,23,2.0584272127508627,-1.1459921905798582,-4.014371259286831,0.4958713365754845,2.037066160841261,-0.2570788463164875,-6.714251280503453,0.6847204665400801,1,2024-09-28 16:42:38.668667969,1727541758.6686687,2024-09-28 16:42:38.668668672,0,0.0,0.1,11.912971356398181,[0.97779538 0.02220462],[0.97779538 0.02220462],"[0.2        0.2734375  0.46875    0.7        0.1953125  0.390625
 1.         0.         1.         0.37109375 0.5        0.06666667]",0.5885690098895292,0,0
134,134,2024-09-28 16:42:39.602663936,TASK_BEGIN,23,2.129017041787,-1.2538961272401166,-4.118645636923466,0.5116572325164565,2.007937037617842,-0.2593600606365177,-6.357604970823979,0.6174773334740369,1,2024-09-28 16:42:38.668667969,1727541758.6686687,2024-09-28 16:42:38.668668672,0,0.0,0.1,11.912971356398181,[0.97779538 0.02220462],[0.97779538 0.02220462],"[0.2        0.2734375  0.46875    0.7        0.1953125  0.390625
 1.         0.         1.         0.37109375 0.5        0.06666667]",0.5885690098895292,0,0
135,135,2024-09-28 16:42:39.663096832,TASK_BEGIN,23,2.194846949921182,-1.3689017400197148,-4.199966891834195,0.5267420359019815,1.97180953074986,-0.2605288079170459,-6.061651602717361,0.5714145870754778,1,2024-09-28 16:42:38.668667969,1727541758.6686687,2024-09-28 16:42:38.668668672,0,0.0,0.1,11.912971356398181,[0.97779538 0.02220462],[0.97779538 0.02220462],"[0.2        0.2734375  0.46875    0.7        0.1953125  0.390625
 1.         0.         1.         0.37109375 0.5        0.06666667]",0.5885690098895292,0,0
136,136,2024-09-28 16:42:39.738447872,TASK_BEGIN,23,2.256337067516572,-1.4894613404466397,-4.247745480032364,0.5388046412350086,1.9297881700500847,-0.2605994599612099,-5.836085422805667,0.5487623657292787,1,2024-09-28 16:42:38.668667969,1727541758.6686687,2024-09-28 16:42:38.668668672,0,0.0,0.1,11.912971356398181,[0.97779538 0.02220462],[0.97779538 0.02220462],"[0.2        0.2734375  0.46875    0.7        0.1953125  0.390625
 1.         0.         1.         0.37109375 0.5        0.06666667]",0.5885690098895292,0,0
137,137,2024-09-28 16:42:39.801457152,TASK_BEGIN,23,2.3135461086644944,-1.6133312061219445,-4.253953593737936,0.5459938237929909,1.883128749781284,-0.2596271435113007,-5.685342978556289,0.550210900267996,1,2024-09-28 16:42:38.668667969,1727541758.6686687,2024-09-28 16:42:38.668668672,0,0.0,0.1,11.912971356398181,[0.97779538 0.02220462],[0.97779538 0.02220462],"[0.2        0.2734375  0.46875    0.7        0.1953125  0.390625
 1.         0.         1.         0.37109375 0.5        0.06666667]",0.5885690098895292,0,0
138,138,2024-09-28 16:42:39.869704192,TASK_BEGIN,23,2.36627661953456,-1.73777025159758,-4.213366973617951,0.5469442344069021,1.8333444435806312,-0.2577326980899965,-5.608304193682574,0.5748687948170492,1,2024-09-28 16:42:38.668667969,1727541758.6686687,2024-09-28 16:42:38.668668672,0,0.0,0.1,11.912971356398181,[0.97779538 0.02220462],[0.97779538 0.02220462],"[0.2        0.2734375  0.46875    0.7        0.1953125  0.390625
 1.         0.         1.         0.37109375 0.5        0.06666667]",0.5885690098895292,0,0
139,139,2024-09-28 16:42:39.940752896,TASK_BEGIN,23,2.414200802996542,-1.85979276650546,-4.123590758660731,0.5407641230518664,1.782258710060188,-0.2551016835568565,-5.59874877018274,0.6204377230823144,1,2024-09-28 16:42:38.668667969,1727541758.6686687,2024-09-28 16:42:38.668668672,0,0.0,0.1,11.912971356398181,[0.97779538 0.02220462],[0.97779538 0.02220462],"[0.2        0.2734375  0.46875    0.7        0.1953125  0.390625
 1.         0.         1.         0.37109375 0.5        0.06666667]",0.5885690098895292,0,0
140,147,2024-09-28 16:42:42.235666944,TASK_BEGIN,23,2.587962398562706,-2.455903985889534,-2.2305724479405376,0.2991873048739372,1.5151298217728244,-0.2197162958762518,-6.494716390228978,1.3037596539178142,1,2024-09-28 16:42:41.385268066,1727541761.3852682,2024-09-28 16:42:41.385268224,1,1.0,0.1,1.312541872310217,[0.28251929 0.71748071],[0.28251929 0.71748071],"[ 0.80555556  0.21484375  0.41015625  1.          0.          1.
  1.          0.          1.          0.2578125  -0.8         0.5       ]",0.089198842176095,0,0
141,148,2024-09-28 16:42:42.303454976,TASK_BEGIN,23,2.580268651460901,-2.462936459968137,-1.9863574951116605,0.2702185454997654,1.501832623434494,-0.2113521476137906,-6.542152524441954,1.3794580869494084,1,2024-09-28 16:42:41.435267090,1727541761.4352677,2024-09-28 16:42:41.435267584,1,1.0,0.1,1.3994164535871148,[0.2428714 0.7571286],[0.2428714 0.7571286],"[ 0.79166667  0.21484375  0.41015625  1.          0.          1.
  1.          0.          1.          0.2421875  -0.8         0.5       ]",0.13303685049242214,0,0
142,149,2024-09-28 16:42:42.371218944,TASK_BEGIN,23,2.565253426825352,-2.4544497349805665,-1.7682968691346848,0.2473924080797007,1.4888356463725685,-0.2012388788541241,-6.5445793194869,1.4457523766823768,1,2024-09-28 16:42:41.435267090,1727541761.4352677,2024-09-28 16:42:41.435267584,1,1.0,0.1,1.3994164535871148,[0.2428714 0.7571286],[0.2428714 0.7571286],"[ 0.79166667  0.21484375  0.41015625  1.          0.          1.
  1.          0.          1.          0.2421875  -0.8         0.5       ]",0.13303685049242214,0,0
143,150,2024-09-28 16:42:42.438972928,TASK_BEGIN,23,2.542655299865093,-2.431316445965336,-1.5795330400871983,0.2313246329632244,1.474489191887459,-0.1893090222877322,-6.498610184176498,1.502244329795749,1,2024-09-28 16:42:41.435267090,1727541761.4352677,2024-09-28 16:42:41.435267584,1,1.0,0.1,1.3994164535871148,[0.2428714 0.7571286],[0.2428714 0.7571286],"[ 0.79166667  0.21484375  0.41015625  1.          0.          1.
  1.          0.          1.          0.2421875  -0.8         0.5       ]",0.13303685049242214,0,0
144,151,2024-09-28 16:42:42.506729984,TASK_BEGIN,23,2.512343972319393,-2.3947532621056262,-1.421082271561846,0.2220969221294703,1.4574902604272235,-0.1756777093813958,-6.403436108030707,1.5491132188258745,1,2024-09-28 16:42:41.435267090,1727541761.4352677,2024-09-28 16:42:41.435267584,1,1.0,0.1,1.3994164535871148,[0.2428714 0.7571286],[0.2428714 0.7571286],"[ 0.79166667  0.21484375  0.41015625  1.          0.          1.
  1.          0.          1.          0.2421875  -0.8         0.5       ]",0.13303685049242214,0,0
145,152,2024-09-28 16:42:42.570358784,TASK_BEGIN,23,2.474371907048735,-2.3463027746323446,-1.292289684885524,0.2193584055173587,1.436992906420058,-0.1606531027173806,-6.260884033807441,1.586829163482712,1,2024-09-28 16:42:41.435267090,1727541761.4352677,2024-09-28 16:42:41.435267584,1,1.0,0.1,1.3994164535871148,[0.2428714 0.7571286],[0.2428714 0.7571286],"[ 0.79166667  0.21484375  0.41015625  1.          0.          1.
  1.          0.          1.          0.2421875  -0.8         0.5       ]",0.13303685049242214,0,0
146,153,2024-09-28 16:42:42.631598848,TASK_BEGIN,23,2.429004349899323,-2.28779857876314,-1.1912639645995358,0.2224320501301109,1.4125838905377657,-0.1447090274324013,-6.075644247357683,1.615869614451559,1,2024-09-28 16:42:41.435267090,1727541761.4352677,2024-09-28 16:42:41.435267584,1,1.0,0.1,1.3994164535871148,[0.2428714 0.7571286],[0.2428714 0.7571286],"[ 0.79166667  0.21484375  0.41015625  1.          0.          1.
  1.          0.          1.          0.2421875  -0.8         0.5       ]",0.13303685049242214,0,0
147,154,2024-09-28 16:42:43.579417088,TASK_BEGIN,23,2.376741934111722,-2.221308656604108,-1.115276107997804,0.2304052660615038,1.3841968500677604,-0.128432486289749,-5.85549495293077,1.636566482015768,1,2024-09-28 16:42:42.441665039,1727541762.4416652,2024-09-28 16:42:42.441665280,1,0.0,0.1,2.965523050004307,[0.99745481 0.00254519],[0.99745481 0.00254519],"[ 0.51388889  0.21484375  0.41015625  1.          0.          1.
  1.          0.          1.          0.29882812  1.         -0.13333333]",0.4366772004443981,0,0
148,155,2024-09-28 16:42:43.641902080,TASK_BEGIN,23,2.318334142860789,-2.149056055319104,-1.0612278557344377,0.2422174657612018,1.3520712829552997,-0.1124679896551246,-5.61117655648919,1.649142890425625,1,2024-09-28 16:42:42.441665039,1727541762.4416652,2024-09-28 16:42:42.441665280,1,0.0,0.1,2.965523050004307,[0.99745481 0.00254519],[0.99745481 0.00254519],"[ 0.51388889  0.21484375  0.41015625  1.          0.          1.
  1.          0.          1.          0.29882812  1.         -0.13333333]",0.4366772004443981,0,0
149,156,2024-09-28 16:42:43.719708928,TASK_BEGIN,23,2.254782693201446,-2.0733268924079304,-1.0262108412911697,0.2567903226057197,1.3167701616880796,-0.0974674877077428,-5.355836942428098,1.6538802716127512,1,2024-09-28 16:42:42.441665039,1727541762.4416652,2024-09-28 16:42:42.441665280,1,0.0,0.1,2.965523050004307,[0.99745481 0.00254519],[0.99745481 0.00254519],"[ 0.51388889  0.21484375  0.41015625  1.          0.          1.
  1.          0.          1.          0.29882812  1.         -0.13333333]",0.4366772004443981,0,0
150,157,2024-09-28 16:42:43.789055232,TASK_BEGIN,23,2.187328289190215,-1.9963799561178264,-1.008055719162526,0.2732144336848053,1.2791841003046105,-0.0840389109601569,-5.104204958227487,1.6512793115009192,1,2024-09-28 16:42:42.441665039,1727541762.4416652,2024-09-28 16:42:42.441665280,1,0.0,0.1,2.965523050004307,[0.99745481 0.00254519],[0.99745481 0.00254519],"[ 0.51388889  0.21484375  0.41015625  1.          0.          1.
  1.          0.          1.          0.29882812  1.         -0.13333333]",0.4366772004443981,0,0
151,158,2024-09-28 16:42:43.856780032,TASK_BEGIN,23,2.1173871646600126,-1.9203619397406757,-1.0057273612374422,0.2909311906029033,1.240475086623361,-0.0726888326679802,-4.871549842763028,1.6421175629490017,1,2024-09-28 16:42:42.491867920,1727541762.491868,2024-09-28 16:42:42.491867904,1,0.0,0.1,3.035867819504264,[0.97826807 0.02173193],[0.97826807 0.02173193],"[ 0.5         0.21484375  0.41015625  1.          0.2734375   0.46875
  1.          0.          1.          0.31835938  1.         -0.16666667]",0.3702948236197748,0,0
152,159,2024-09-28 16:42:43.919941888,TASK_BEGIN,23,2.0464114016713624,-1.8472226061216697,-1.0194583634935352,0.3098397165539378,1.2019690651391148,-0.0637681341990933,-4.672391475583326,1.6274006053393202,1,2024-09-28 16:42:42.848866943,1727541762.848868,2024-09-28 16:42:42.848867840,1,0.0,0.1,3.5089737163159778,[9.99241190e-01 7.58809605e-04],[9.99241190e-01 7.58809605e-04],"[ 0.40277778  0.21484375  0.41015625  0.90277778  0.2734375   0.46875
  1.          0.          1.          0.28515625 -0.6         0.43333333]",0.33653618425466647,0,0
153,160,2024-09-28 16:42:43.981974016,TASK_BEGIN,23,1.975711969184068,-1.778634735208165,-1.0506215200890223,0.3303203230523739,1.1650136233516146,-0.057437403743454,-4.519057105022302,1.6082522617286137,1,2024-09-28 16:42:42.848866943,1727541762.848868,2024-09-28 16:42:42.848867840,1,0.0,0.1,3.5089737163159778,[9.99241190e-01 7.58809605e-04],[9.99241190e-01 7.58809605e-04],"[ 0.40277778  0.21484375  0.41015625  0.90277778  0.2734375   0.46875
  1.          0.          1.          0.28515625 -0.6         0.43333333]",0.33653618425466647,0,0
154,161,2024-09-28 16:42:44.908655872,TASK_BEGIN,23,1.9063278382415216,-1.7159414998471891,-1.1014311431688428,0.3531980108035956,1.1308103013354958,-0.0536643854207054,-4.420401522204536,1.585803580908608,1,2024-09-28 16:42:43.561866943,1727541763.5618675,2024-09-28 16:42:43.561867520,1,0.0,0.1,4.360948095476123,[0.9582336 0.0417664],[0.9582336 0.0417664],"[ 0.20833333  0.21484375  0.41015625  0.70833333  0.2734375   0.46875
  1.          0.          1.          0.32617188  0.8        -0.03333333]",0.7294240530338544,1,1
155,162,2024-09-28 16:42:44.970247936,TASK_BEGIN,23,1.838988448752524,-1.660146615131563,-1.1746030570679116,0.3796597869081425,1.1002437682787742,-0.0522495886271065,-4.381130224127584,1.5611459323651398,1,2024-09-28 16:42:43.561866943,1727541763.5618675,2024-09-28 16:42:43.561867520,1,0.0,0.1,4.360948095476123,[0.9582336 0.0417664],[0.9582336 0.0417664],"[ 0.20833333  0.21484375  0.41015625  0.70833333  0.2734375   0.46875
  1.          0.          1.          0.32617188  0.8        -0.03333333]",0.7294240530338544,1,1
156,163,2024-09-28 16:42:45.032735232,TASK_BEGIN,23,1.7741508571105655,-1.6119370183823554,-1.2730704258841212,0.4111283962939855,1.073743029876184,-0.0528612488145781,-4.401955756239918,1.535365911086311,1,2024-09-28 16:42:43.714865967,1727541763.7148669,2024-09-28 16:42:43.714866944,1,0.0,0.1,4.528433576092385,[9.99333631e-01 6.66369446e-04],[9.99333631e-01 6.66369446e-04],"[ 0.16666667  0.21484375  0.41015625  0.66666667  0.2734375   0.46875
  1.          0.          1.          0.28515625 -0.6         0.43333333]",0.34016603633517833,1,1
157,164,2024-09-28 16:42:45.110452992,TASK_BEGIN,23,1.71206694984909,-1.571718155371846,-1.3996636617886045,0.4490762761520405,1.0512062442210846,-0.0550635439796823,-4.480365992507306,1.5096000243686278,1,2024-09-28 16:42:44.275866943,1727541764.2758675,2024-09-28 16:42:44.275867392,1,0.0,0.1,5.9150411374658685,[9.99999912e-01 8.81697876e-08],[9.99999912e-01 8.81697876e-08],"[0.01388889 0.21484375 0.41015625 0.51388889 0.2734375  0.46875
 1.         0.         1.         0.28515625 0.5        0.06666667]",0.3477681830105917,1,1
158,165,2024-09-28 16:42:45.172476928,TASK_BEGIN,23,1.6528526029434216,-1.5396496373760822,-1.5565458226216762,0.4947602553199017,1.032012237726187,-0.0583382250947189,-4.611568483901908,1.485038216112386,1,2024-09-28 16:42:44.326868164,1727541764.3268683,2024-09-28 16:42:44.326868224,1,0.0,0.1,5.9558907260912095,[9.99999823e-01 1.76843529e-07],[9.99999823e-01 1.76843529e-07],"[0.         0.21484375 0.41015625 0.5        0.2734375  0.46875
 1.         0.25390625 0.44921875 0.296875   0.6        0.03333333]",0.35018124854973226,1,1
159,166,2024-09-28 16:42:45.249978112,TASK_BEGIN,23,1.596548948115441,-1.5156727196222806,-1.744470487855284,0.5489142370067852,1.0151287051881484,-0.0621096866318016,-4.789298170365772,1.46287261690569,1,2024-09-28 16:42:44.428899902,1727541764.4289002,2024-09-28 16:42:44.428900352,1,0.0,0.1,6.036368500641994,[9.99999866e-01 1.34191287e-07],[9.99999866e-01 1.34191287e-07],"[-0.02777778  0.21484375  0.41015625  0.47222222  0.2734375   0.46875
  0.97222222  0.25390625  0.44921875  0.32617188  0.8        -0.03333333]",0.39290010106245293,1,1
160,167,2024-09-28 16:42:45.311596032,TASK_BEGIN,23,1.5431594189926083,-1.499521773830517,-1.96227184125622,0.6115107468118259,0.9992927568638555,-0.0657791001271671,-5.006339670792651,1.4442356203819078,1,2024-09-28 16:42:44.479868896,1727541764.4798691,2024-09-28 16:42:44.479869184,1,0.0,0.1,6.0760048156355735,[9.99998813e-01 1.18709634e-06],[9.99998813e-01 1.18709634e-06],"[-0.04166667  0.21484375  0.41015625  0.45833333  0.2734375   0.46875
  0.95833333  0.25390625  0.44921875  0.34375     0.9        -0.06666667]",0.44794925940743296,1,1
161,168,2024-09-28 16:42:46.260397824,TASK_BEGIN,23,1.492647286832704,-1.490723164677973,-2.2068256508843778,0.6816869324445587,0.9832100701824606,-0.0687661743531538,-5.254750436078642,1.4301593462183038,1,2024-09-28 16:42:45.339083008,1727541765.3390832,2024-09-28 16:42:45.339083264,1,0.0,0.1,6.692294968468693,[0.98690057 0.01309943],[0.98690057 0.01309943],"[0.22222222 0.2734375  0.46875    0.72222222 0.25390625 0.44921875
 1.         0.         1.         0.37109375 0.4        0.1       ]",0.5471386064130385,1,1
162,169,2024-09-28 16:42:46.322884096,TASK_BEGIN,23,1.4449183865988209,-1.4885995274738415,-2.4732729191454963,0.7578267788379718,0.9657288190266068,-0.0705552261202892,-5.525916167795206,1.421545506124133,1,2024-09-28 16:42:45.339083008,1727541765.3390832,2024-09-28 16:42:45.339083264,1,0.0,0.1,6.692294968468693,[0.98690057 0.01309943],[0.98690057 0.01309943],"[0.22222222 0.2734375  0.46875    0.72222222 0.25390625 0.44921875
 1.         0.         1.         0.37109375 0.4        0.1       ]",0.5471386064130385,1,1
163,170,2024-09-28 16:42:46.397683968,TASK_BEGIN,23,1.3998423206318154,-1.4922967207994715,-2.7552555161959584,0.8377323327587074,0.945976230891438,-0.0707418969352819,-5.810589947562804,1.419092596183143,1,2024-09-28 16:42:45.339083008,1727541765.3390832,2024-09-28 16:42:45.339083264,1,0.0,0.1,6.692294968468693,[0.98690057 0.01309943],[0.98690057 0.01309943],"[0.22222222 0.2734375  0.46875    0.72222222 0.25390625 0.44921875
 1.         0.         1.         0.37109375 0.4        0.1       ]",0.5471386064130385,1,1
164,171,2024-09-28 16:42:46.461710848,TASK_BEGIN,23,1.357333650696044,-1.5008350545970028,-3.045200400790582,0.9188448979735788,0.9234693927559116,-0.0690779200831458,-6.098980702691383,1.423140641824301,1,2024-09-28 16:42:45.339083008,1727541765.3390832,2024-09-28 16:42:45.339083264,1,0.0,0.1,6.692294968468693,[0.98690057 0.01309943],[0.98690057 0.01309943],"[0.22222222 0.2734375  0.46875    0.72222222 0.25390625 0.44921875
 1.         0.         1.         0.37109375 0.4        0.1       ]",0.5471386064130385,1,1
165,172,2024-09-28 16:42:46.522938880,TASK_BEGIN,23,1.317456534631384,-1.5131723631444265,-3.334776012750523,0.9984999863642328,0.8982082183140548,-0.0655116850808139,-6.381009177025184,1.433497097346292,1,2024-09-28 16:42:45.339083008,1727541765.3390832,2024-09-28 16:42:45.339083264,1,0.0,0.1,6.692294968468693,[0.98690057 0.01309943],[0.98690057 0.01309943],"[0.22222222 0.2734375  0.46875    0.72222222 0.25390625 0.44921875
 1.         0.         1.         0.37109375 0.4        0.1       ]",0.5471386064130385,1,1
166,173,2024-09-28 16:42:46.599670784,TASK_BEGIN,23,1.2804869750632757,-1.528261671337488,-3.615489326383808,1.074182051198095,0.8707256685796517,-0.0602150537550863,-6.646916583743485,1.4493945424057373,1,2024-09-28 16:42:45.339083008,1727541765.3390832,2024-09-28 16:42:45.339083264,1,0.0,0.1,6.692294968468693,[0.98690057 0.01309943],[0.98690057 0.01309943],"[0.22222222 0.2734375  0.46875    0.72222222 0.25390625 0.44921875
 1.         0.         1.         0.37109375 0.4        0.1       ]",0.5471386064130385,1,1
167,174,2024-09-28 16:42:46.661711872,TASK_BEGIN,23,1.2468874763823794,-1.5450890726185518,-3.8792509013466177,1.1437179431104976,0.8420462202754395,-0.053579214890442,-6.888120177362366,1.4696494497667163,1,2024-09-28 16:42:45.339083008,1727541765.3390832,2024-09-28 16:42:45.339083264,1,0.0,0.1,6.692294968468693,[0.98690057 0.01309943],[0.98690057 0.01309943],"[0.22222222 0.2734375  0.46875    0.72222222 0.25390625 0.44921875
 1.         0.         1.         0.37109375 0.4        0.1       ]",0.5471386064130385,1,1
168,182,2024-09-28 16:42:48.962930944,TASK_BEGIN,23,1.1481612073269098,-1.644444840054653,-4.6994572853651935,1.3178530526365106,0.7197069803210648,-0.0273600363875594,-7.489207081100385,1.6399201782013002,1,2024-09-28 16:42:47.755433105,1727541767.7554336,2024-09-28 16:42:47.755433472,2,1.0,0.1,0.8648275251635908,[0.28638632 0.71361368],[0.28638632 0.71361368],"[ 0.875      0.3125     0.5078125  1.         0.         1.
  1.         0.         1.         0.3359375 -0.8        0.5      ]",0.08004712469209994,0,0
169,183,2024-09-28 16:42:49.029974784,TASK_BEGIN,23,1.1578179345842814,-1.6455949054784076,-4.603815391701172,1.2825426221095777,0.729736525639974,-0.0351132941643431,-7.415019552672848,1.6520628043409449,1,2024-09-28 16:42:47.755433105,1727541767.7554336,2024-09-28 16:42:47.755433472,2,1.0,0.1,0.8648275251635908,[0.28638632 0.71361368],[0.28638632 0.71361368],"[ 0.875      0.3125     0.5078125  1.         0.         1.
  1.         0.         1.         0.3359375 -0.8        0.5      ]",0.08004712469209994,0,0
170,184,2024-09-28 16:42:49.098505984,TASK_BEGIN,23,1.1707908353535514,-1.6443038369084404,-4.4699150317238905,1.236251557048696,0.7461219775483626,-0.045800073326688,-7.3271720614048785,1.663223259465686,1,2024-09-28 16:42:48.265433105,1727541768.2654335,2024-09-28 16:42:48.265433600,2,0.0,0.1,1.7383137616441329,[0.85643631 0.14356369],[0.85643631 0.14356369],"[ 0.73611111  0.3125      0.5078125   1.          0.          1.
  1.          0.          1.          0.19921875 -0.4         0.36666667]",0.08892103901205281,0,0
171,185,2024-09-28 16:42:49.160176896,TASK_BEGIN,23,1.1860860769494743,-1.6409764840266496,-4.304628588385233,1.1809284293967846,0.7686680120284242,-0.0590946422919697,-7.235436141692229,1.6743920111929838,1,2024-09-28 16:42:48.316468018,1727541768.316469,2024-09-28 16:42:48.316468992,2,0.0,0.1,1.8209306240276917,[0.94401186 0.05598814],[0.94401186 0.05598814],"[ 0.72222222  0.3125      0.5078125   1.          0.          1.
  1.          0.          1.          0.19335938 -0.3         0.33333333]",0.19853627465370277,0,0
172,186,2024-09-28 16:42:49.233021952,TASK_BEGIN,23,1.2027014928746,-1.636073009546005,-4.116478223252282,1.11895411039373,0.797066092686328,-0.0745405954329185,-7.150031403823383,1.6864175420446537,1,2024-09-28 16:42:48.418463867,1727541768.418464,2024-09-28 16:42:48.418464000,2,0.0,0.1,1.9836941046095409,[0.99801866 0.00198134],[0.99801866 0.00198134],"[ 0.69444444  0.3125      0.5078125   1.          0.          1.
  1.          0.          1.          0.1875     -0.1         0.26666667]",0.32695000679866404,0,0
173,187,2024-09-28 16:42:49.300896000,TASK_BEGIN,23,1.2197700372458522,-1.6300820665757665,-3.914818018688572,1.052975349285222,0.8308104085439331,-0.0915950330655102,-7.0808584050240695,1.6998743741317688,1,2024-09-28 16:42:48.469434082,1727541768.469434,2024-09-28 16:42:48.469434112,2,0.0,0.1,2.0638571635634455,[9.99668980e-01 3.31020066e-04],[9.99668980e-01 3.31020066e-04],"[0.68055556 0.3125     0.5078125  1.         0.         1.
 1.         0.         1.         0.1875     0.         0.23333333]",0.3292200073887919,0,0
174,188,2024-09-28 16:42:49.368855040,TASK_BEGIN,23,1.2366721256860198,-1.6234915393670386,-3.708934356704462,0.9856946610539716,0.8690811986086219,-0.1096697508679597,-7.036345740715879,1.714983277024224,1,2024-09-28 16:42:48.469434082,1727541768.469434,2024-09-28 16:42:48.469434112,2,0.0,0.1,2.0638571635634455,[9.99668980e-01 3.31020066e-04],[9.99668980e-01 3.31020066e-04],"[0.68055556 0.3125     0.5078125  1.         0.         1.
 1.         0.         1.         0.1875     0.         0.23333333]",0.3292200073887919,0,0
175,189,2024-09-28 16:42:50.284882176,TASK_BEGIN,23,1.2530856828871644,-1.6167555460847582,-3.507398417137278,0.9196360432359116,0.9106571194748654,-0.128165650943402,-7.02197143697718,1.731550524643974,1,2024-09-28 16:42:49.335604004,1727541769.3356044,2024-09-28 16:42:49.335604480,2,0.0,0.1,3.310282414303197,[0.98309339 0.01690661],[0.98309339 0.01690661],"[ 0.44444444  0.3125      0.5078125   0.94444444  0.33203125  0.52734375
  1.          0.          1.          0.43164062  1.         -0.33333333]",0.5518053601844074,0,0
176,190,2024-09-28 16:42:50.344152064,TASK_BEGIN,23,1.2689579535052604,-1.610267554355551,-3.3177279595099813,0.8569144575791451,0.9539336722812436,-0.1465115624940336,-7.039057822724963,1.7489260237808633,1,2024-09-28 16:42:49.335604004,1727541769.3356044,2024-09-28 16:42:49.335604480,2,0.0,0.1,3.310282414303197,[0.98309339 0.01690661],[0.98309339 0.01690661],"[ 0.44444444  0.3125      0.5078125   0.94444444  0.33203125  0.52734375
  1.          0.          1.          0.43164062  1.         -0.33333333]",0.5518053601844074,0,0
177,191,2024-09-28 16:42:50.421917952,TASK_BEGIN,23,1.2843927556075736,-1.60434314406112,-3.146257575746957,0.7990648568757007,0.997079026554416,-0.1642135280427288,-7.084461109019773,1.7660162877260617,1,2024-09-28 16:42:49.335604004,1727541769.3356044,2024-09-28 16:42:49.335604480,2,0.0,0.1,3.310282414303197,[0.98309339 0.01690661],[0.98309339 0.01690661],"[ 0.44444444  0.3125      0.5078125   0.94444444  0.33203125  0.52734375
  1.          0.          1.          0.43164062  1.         -0.33333333]",0.5518053601844074,0,0
178,192,2024-09-28 16:42:50.489656064,TASK_BEGIN,23,1.299474617960923,-1.5992051484983607,-2.998125798406654,0.7469831287807118,1.0382837252250037,-0.180903469710056,-7.151244651433955,1.781388331130091,1,2024-09-28 16:42:49.335604004,1727541769.3356044,2024-09-28 16:42:49.335604480,2,0.0,0.1,3.310282414303197,[0.98309339 0.01690661],[0.98309339 0.01690661],"[ 0.44444444  0.3125      0.5078125   0.94444444  0.33203125  0.52734375
  1.          0.          1.          0.43164062  1.         -0.33333333]",0.5518053601844074,0,0
179,193,2024-09-28 16:42:50.557435136,TASK_BEGIN,23,1.3140992600664811,-1.5949700075408555,-2.8773560123117465,0.7009903969351728,1.0760295883839672,-0.1963707829534756,-7.23003756178092,1.7934785186232556,1,2024-09-28 16:42:49.335604004,1727541769.3356044,2024-09-28 16:42:49.335604480,2,0.0,0.1,3.310282414303197,[0.98309339 0.01690661],[0.98309339 0.01690661],"[ 0.44444444  0.3125      0.5078125   0.94444444  0.33203125  0.52734375
  1.          0.          1.          0.43164062  1.         -0.33333333]",0.5518053601844074,0,0
180,194,2024-09-28 16:42:50.625221888,TASK_BEGIN,23,1.3278865744842134,-1.591645810319136,-2.7870636137233897,0.6609965368469799,1.1093157089199028,-0.210565903183217,-7.310718963958911,1.8008618446097775,1,2024-09-28 16:42:49.335604004,1727541769.3356044,2024-09-28 16:42:49.335604480,2,0.0,0.1,3.310282414303197,[0.98309339 0.01690661],[0.98309339 0.01690661],"[ 0.44444444  0.3125      0.5078125   0.94444444  0.33203125  0.52734375
  1.          0.          1.          0.43164062  1.         -0.33333333]",0.5518053601844074,0,0
181,195,2024-09-28 16:42:50.692995072,TASK_BEGIN,23,1.3401968935011517,-1.5891491952815946,-2.729736101375722,0.6267225204207328,1.1378022046754503,-0.2235750965459748,-7.3840824606710145,1.8025026429626327,1,2024-09-28 16:42:49.335604004,1727541769.3356044,2024-09-28 16:42:49.335604480,2,0.0,0.1,3.310282414303197,[0.98309339 0.01690661],[0.98309339 0.01690661],"[ 0.44444444  0.3125      0.5078125   0.94444444  0.33203125  0.52734375
  1.          0.          1.          0.43164062  1.         -0.33333333]",0.5518053601844074,0,0
182,196,2024-09-28 16:42:51.628889856,TASK_BEGIN,23,1.3502145272401236,-1.5873351954762498,-2.707357182319369,0.5979262021222677,1.1618558636391485,-0.2355788300929512,-7.443150426801954,1.7979474259817376,1,2024-09-28 16:42:50.245630127,1727541770.2456303,2024-09-28 16:42:50.245630208,2,0.0,0.1,4.417338614521361,[0.95525501 0.04474499],[0.95525501 0.04474499],"[0.19444444 0.3125     0.5078125  0.69444444 0.33203125 0.52734375
 1.         0.         1.         0.41992188 0.7        0.        ]",0.6907100913601791,1,2
183,197,2024-09-28 16:42:51.690892032,TASK_BEGIN,23,1.357046068024245,-1.5860290683739786,-2.721211760201199,0.5745689540526933,1.182488520152402,-0.2468085015999238,-7.483896148111348,1.7874512780544185,1,2024-09-28 16:42:50.398593018,1727541770.398593,2024-09-28 16:42:50.398593024,2,0.0,1.0,5.4831492403314614,[9.99693198e-01 3.06802128e-04],[9.99693198e-01 3.06802128e-04],"[ 0.15277778  0.3125      0.5078125   0.65277778  0.33203125  0.52734375
  1.          0.          1.          0.37890625 -0.6         0.43333333]",0.3379601324206542,1,2
184,198,2024-09-28 16:42:51.769082112,TASK_BEGIN,23,1.3597990986172646,-1.5850572253151258,-2.7715199664103456,0.5568824312099856,1.2011787922178585,-0.2575041677861,-7.505366469143055,1.7720194642888725,1,2024-09-28 16:42:50.959628174,1727541770.959628,2024-09-28 16:42:50.959628032,2,0.0,0.1,5.9558907260912095,[9.99999901e-01 9.88166017e-08],[9.99999901e-01 9.88166017e-08],"[0.         0.3125     0.5078125  0.5        0.33203125 0.52734375
 1.         0.21484375 0.41015625 0.37890625 0.5        0.06666667]",0.356761817259667,1,2
185,199,2024-09-28 16:42:51.838663168,TASK_BEGIN,23,1.3576439826179552,-1.584280971219732,-2.8571536927026155,0.5453332468316211,1.2196035838707326,-0.2678677752917444,-7.509481044059195,1.7533598226257168,1,2024-09-28 16:42:51.010600098,1727541771.0106,2024-09-28 16:42:51.010600192,2,0.0,0.1,5.996331818830297,[9.99994863e-01 5.13718142e-06],[9.99994863e-01 5.13718142e-06],"[-0.01388889  0.3125      0.5078125   0.48611111  0.33203125  0.52734375
  0.98611111  0.21484375  0.41015625  0.390625    0.6         0.03333333]",0.3804424377557137,1,2
186,200,2024-09-28 16:42:51.907343872,TASK_BEGIN,23,1.3498870698313268,-1.583629176308818,-2.975468338296916,0.5405018141520053,1.239352793936849,-0.2780136861809979,-7.500857987879008,1.7337714301532048,1,2024-09-28 16:42:51.061506104,1727541771.0615065,2024-09-28 16:42:51.061506560,2,0.0,0.1,6.036368500641994,[9.99952844e-01 4.71561062e-05],[9.99952844e-01 4.71561062e-05],"[-0.02777778  0.3125      0.5078125   0.47222222  0.33203125  0.52734375
  0.97222222  0.21484375  0.41015625  0.40429688  0.7         0.        ]",0.4280530140393513,1,2
187,201,2024-09-28 16:42:51.975106048,TASK_BEGIN,23,1.336066966881133,-1.5831175203426004,-3.1221284665319704,0.5428959979826646,1.261698961068115,-0.2879311092196834,-7.486788002273174,1.7159863531997437,1,2024-09-28 16:42:51.163129149,1727541771.1631296,2024-09-28 16:42:51.163129600,2,0.0,0.1,6.115244767479218,[0.99761935 0.00238065],[0.99761935 0.00238065],"[-0.05555556  0.3125      0.5078125   0.44444444  0.33203125  0.52734375
  0.94444444  0.21484375  0.41015625  0.4375      0.9        -0.06666667]",0.6081467985585086,1,2
188,202,2024-09-28 16:42:52.031486976,TASK_BEGIN,23,1.31604485645165,-1.5828486702005258,-3.290941256300516,0.552754518724616,1.2874516471910948,-0.297474594854773,-7.477144743073634,1.7029460643392642,1,2024-09-28 16:42:51.214127929,1727541771.214128,2024-09-28 16:42:51.214128128,2,0.0,0.1,6.154092319804425,[0.98606063 0.01393937],[0.98606063 0.01393937],"[-0.06944444  0.3125      0.5078125   0.43055556  0.33203125  0.52734375
  0.93055556  0.21484375  0.41015625  0.45703125  1.         -0.1       ]",0.6858684364295581,1,2
189,203,2024-09-28 16:42:52.986004224,TASK_BEGIN,23,1.2900498011711052,-1.58299907546122,-3.4738977220943257,0.5699241594359322,1.316892102851525,-0.3063851013660343,-7.483817969522163,1.69748656375103,1,2024-09-28 16:42:51.616888916,1727541771.6168897,2024-09-28 16:42:51.616889600,2,0.0,0.1,6.45120909283994,[0.99808859 0.00191141],[0.99808859 0.00191141],"[-0.18055556  0.3125      0.5078125   0.31944444  0.33203125  0.52734375
  0.81944444  0.21484375  0.41015625  0.37890625 -0.5         0.4       ]",0.3538765748842871,1,2
190,204,2024-09-28 16:42:53.050652160,TASK_BEGIN,23,1.2586776273004705,-1.5837991978318862,-3.661587380458783,0.5938470920040667,1.349779613621577,-0.3143302648001802,-7.519300283079982,1.7019418217882745,1,2024-09-28 16:42:51.970774902,1727541771.9707754,2024-09-28 16:42:51.970775296,2,0.0,0.1,6.692294968468693,[1.00000000e+00 1.86082632e-12],[1.00000000e+00 1.86082632e-12],"[0.22222222 0.33203125 0.52734375 0.72222222 0.21484375 0.41015625
 1.         0.         1.         0.36523438 0.2        0.16666667]",0.31473532132331483,1,2
191,205,2024-09-28 16:42:53.121584896,TASK_BEGIN,23,1.2228762984770414,-1.5855092684859338,-3.8439614785366447,0.6236272652055741,1.385426036366117,-0.3209509316393542,-7.594398529464096,1.717714754696485,1,2024-09-28 16:42:51.970774902,1727541771.9707754,2024-09-28 16:42:51.970775296,2,0.0,0.1,6.692294968468693,[1.00000000e+00 1.86082632e-12],[1.00000000e+00 1.86082632e-12],"[0.22222222 0.33203125 0.52734375 0.72222222 0.21484375 0.41015625
 1.         0.         1.         0.36523438 0.2        0.16666667]",0.31473532132331483,1,2
192,206,2024-09-28 16:42:53.174242048,TASK_BEGIN,23,1.183929456548392,-1.5883899779895718,-4.011282583661306,0.6581369927687855,1.422815859936567,-0.3259050565556556,-7.715607233262614,1.744891719956004,1,2024-09-28 16:42:51.970774902,1727541771.9707754,2024-09-28 16:42:51.970775296,2,0.0,0.1,6.692294968468693,[1.00000000e+00 1.86082632e-12],[1.00000000e+00 1.86082632e-12],"[0.22222222 0.33203125 0.52734375 0.72222222 0.21484375 0.41015625
 1.         0.         1.         0.36523438 0.2        0.16666667]",0.31473532132331483,1,2
193,207,2024-09-28 16:42:53.257114880,TASK_BEGIN,23,1.143408722593937,-1.5926675728410922,-4.1550940789520645,0.6961363619668661,1.460718747090817,-0.3288999850904996,-7.883065437821827,1.7820184705904063,1,2024-09-28 16:42:51.970774902,1727541771.9707754,2024-09-28 16:42:51.970775296,2,0.0,0.1,6.692294968468693,[1.00000000e+00 1.86082632e-12],[1.00000000e+00 1.86082632e-12],"[0.22222222 0.33203125 0.52734375 0.72222222 0.21484375 0.41015625
 1.         0.         1.         0.36523438 0.2        0.16666667]",0.31473532132331483,1,2
194,208,2024-09-28 16:42:53.324887040,TASK_BEGIN,23,1.1030723655575794,-1.5984944662303493,-4.269116835381167,0.7363809618986854,1.497755483138394,-0.3297063859706282,-8.089770793414992,1.8261675490132228,1,2024-09-28 16:42:51.970774902,1727541771.9707754,2024-09-28 16:42:51.970775296,2,0.0,0.1,6.692294968468693,[1.00000000e+00 1.86082632e-12],[1.00000000e+00 1.86082632e-12],"[0.22222222 0.33203125 0.52734375 0.72222222 0.21484375 0.41015625
 1.         0.         1.         0.36523438 0.2        0.16666667]",0.31473532132331483,1,2
195,209,2024-09-28 16:42:53.391439872,TASK_BEGIN,23,1.0647257774479368,-1.6059068120738826,-4.349981080834289,0.7777079397770367,1.5324436182875572,-0.3281595444130606,-8.322064663062884,1.8733177452145444,1,2024-09-28 16:42:52.072424805,1727541772.0724254,2024-09-28 16:42:52.072425472,2,0.0,0.1,6.758118298596165,[0.50249989 0.49750011],[0.50499983 0.49500017],"[ 0.19444444  0.33203125  0.52734375  0.69444444  0.21484375  0.41015625
  1.          0.          1.          0.3359375  -0.7         0.46666667]",0.0502541467791532,1,2
196,213,2024-09-28 16:42:54.533462272,TASK_BEGIN,23,0.9614502290546216,-1.645720101877031,-4.375860046576136,0.9344243748491952,1.620148771317667,-0.2976947334245446,-9.095052484513843,2.0034660709152554,1,2024-09-28 16:42:53.676662842,1727541773.6766639,2024-09-28 16:42:53.676663808,3,1.0,0.1,0.1,[0.39891216 0.60108784],[0.39891216 0.60108784],"[ 0.98611111  0.2734375   0.46875     1.          0.          1.
  1.          0.          1.          0.4609375  -0.8         0.5       ]",0.02002946236009554,0,0
197,214,2024-09-28 16:42:54.607642880,TASK_BEGIN,23,0.9529226837210112,-1.65491913095627,-4.330460986892134,0.9666647851514004,1.6245090694201216,-0.2845350420000323,-9.143445257826366,2.0034125674844736,1,2024-09-28 16:42:53.775651855,1727541773.7756526,2024-09-28 16:42:53.775652608,3,1.0,0.1,0.29701,[0.36888558 0.63111442],[0.36888558 0.63111442],"[ 0.95833333  0.2734375   0.46875     1.          0.          1.
  1.          0.          1.          0.4296875  -0.8         0.5       ]",0.03345271148051176,0,0
198,215,2024-09-28 16:42:54.673583104,TASK_BEGIN,23,0.9518520871825242,-1.6619512162543408,-4.274020780326715,0.9939773935311148,1.6210098445361163,-0.2696325223023018,-9.102602168292378,1.986086149472538,1,2024-09-28 16:42:53.826677979,1727541773.8266785,2024-09-28 16:42:53.826678528,3,1.0,0.1,0.3940399,[0.36192904 0.63807096],[0.36192904 0.63807096],"[ 0.94444444  0.2734375   0.46875     1.          0.          1.
  1.          0.          1.          0.4140625  -0.8         0.5       ]",0.03645359290749813,0,0
199,216,2024-09-28 16:42:54.743053056,TASK_BEGIN,23,0.957864394313641,-1.665882787355944,-4.2109255482926775,1.0153828091553414,1.609711265088822,-0.253327183482372,-8.96643893225431,1.9509405261876729,1,2024-09-28 16:42:53.826677979,1727541773.8266785,2024-09-28 16:42:53.826678528,3,1.0,0.1,0.3940399,[0.36192904 0.63807096],[0.36192904 0.63807096],"[ 0.94444444  0.2734375   0.46875     1.          0.          1.
  1.          0.          1.          0.4140625  -0.8         0.5       ]",0.03645359290749813,0,0
200,217,2024-09-28 16:42:55.661708032,TASK_BEGIN,23,0.9703416716251468,-1.6659623820146927,-4.145566610027463,1.030199840913809,1.590881362567503,-0.2359958110972352,-8.735227666225928,1.8982576198385144,1,2024-09-28 16:42:54.836812988,1727541774.836813,2024-09-28 16:42:54.836813056,3,0.0,0.1,2.1432185919278113,[9.99733801e-01 2.66199314e-04],[9.99733801e-01 2.66199314e-04],"[ 0.66666667  0.2734375   0.46875     1.          0.          1.
  1.          0.          1.          0.15625    -0.1         0.26666667]",0.32856424714199334,0,0
201,218,2024-09-28 16:42:55.729583104,TASK_BEGIN,23,0.9885428496245698,-1.661697793713246,-4.082409702493327,1.0381431252670863,1.5650038957346195,-0.2180454638356822,-8.415299737035173,1.8290942708864404,1,2024-09-28 16:42:54.836812988,1727541774.836813,2024-09-28 16:42:54.836813056,3,0.0,0.1,2.1432185919278113,[9.99733801e-01 2.66199314e-04],[9.99733801e-01 2.66199314e-04],"[ 0.66666667  0.2734375   0.46875     1.          0.          1.
  1.          0.          1.          0.15625    -0.1         0.26666667]",0.32856424714199334,0,0
202,219,2024-09-28 16:42:55.797216768,TASK_BEGIN,23,1.0117327849830524,-1.6529003414717554,-4.025861297262433,1.039373379832561,1.5328075716715412,-0.1999155314545648,-8.01823013181261,1.7451934318804625,1,2024-09-28 16:42:54.836812988,1727541774.836813,2024-09-28 16:42:54.836813056,3,0.0,0.1,2.1432185919278113,[9.99733801e-01 2.66199314e-04],[9.99733801e-01 2.66199314e-04],"[ 0.66666667  0.2734375   0.46875     1.          0.          1.
  1.          0.          1.          0.15625    -0.1         0.26666667]",0.32856424714199334,0,0
203,220,2024-09-28 16:42:55.853539072,TASK_BEGIN,23,1.0392914419766703,-1.6396969523307183,-3.979971761026192,1.0344973845964571,1.495236420580303,-0.1820708953582054,-7.559632705999633,1.6488885065423038,1,2024-09-28 16:42:54.836812988,1727541774.836813,2024-09-28 16:42:54.836813056,3,0.0,0.1,2.1432185919278113,[9.99733801e-01 2.66199314e-04],[9.99733801e-01 2.66199314e-04],"[ 0.66666667  0.2734375   0.46875     1.          0.          1.
  1.          0.          1.          0.15625    -0.1         0.26666667]",0.32856424714199334,0,0
204,221,2024-09-28 16:42:55.932645888,TASK_BEGIN,23,1.0707645529087657,-1.6225086705819058,-3.9479800122984416,1.0244872240564902,1.453317943851551,-0.1649724840186379,-7.05779876422599,1.5430442255624874,1,2024-09-28 16:42:54.836812988,1727541774.836813,2024-09-28 16:42:54.836813056,3,0.0,0.1,2.1432185919278113,[9.99733801e-01 2.66199314e-04],[9.99733801e-01 2.66199314e-04],"[ 0.66666667  0.2734375   0.46875     1.          0.          1.
  1.          0.          1.          0.15625    -0.1         0.26666667]",0.32856424714199334,0,0
205,222,2024-09-28 16:42:55.992825856,TASK_BEGIN,23,1.1058437808185988,-1.602002892529953,-3.931843170171103,1.0105372578017129,1.407996541268529,-0.1490322910817024,-6.532472177243208,1.4310241397778012,1,2024-09-28 16:42:54.836812988,1727541774.836813,2024-09-28 16:42:54.836813056,3,0.0,0.1,2.1432185919278113,[9.99733801e-01 2.66199314e-04],[9.99733801e-01 2.66199314e-04],"[ 0.66666667  0.2734375   0.46875     1.          0.          1.
  1.          0.          1.          0.15625    -0.1         0.26666667]",0.32856424714199334,0,0
206,223,2024-09-28 16:42:56.054894080,TASK_BEGIN,23,1.1443019950603526,-1.5790331636555168,-3.9320252105367857,0.9939259949132416,1.3600509220073866,-0.1345715123069692,-6.004002115076857,1.316638881519899,1,2024-09-28 16:42:54.836812988,1727541774.836813,2024-09-28 16:42:54.836813056,3,0.0,0.1,2.1432185919278113,[9.99733801e-01 2.66199314e-04],[9.99733801e-01 2.66199314e-04],"[ 0.66666667  0.2734375   0.46875     1.          0.          1.
  1.          0.          1.          0.15625    -0.1         0.26666667]",0.32856424714199334,0,0
207,224,2024-09-28 16:42:57.011763200,TASK_BEGIN,23,1.1859197415435518,-1.554576010367674,-3.947679388807963,0.9759141187503958,1.3101595860805142,-0.1217999876886297,-5.49288035404377,1.2040223359161104,1,2024-09-28 16:42:55.750099854,1727541775.7501009,2024-09-28 16:42:55.750100736,3,0.0,0.1,3.4434077942585635,[0.94892327 0.05107673],[0.94892327 0.05107673],"[ 0.41666667  0.2734375   0.46875     0.91666667  0.3125      0.5078125
  1.          0.          1.          0.40039062  1.         -0.33333333]",0.5645343616530407,0,0
208,225,2024-09-28 16:42:57.079416064,TASK_BEGIN,23,1.2304359583070372,-1.5296687457029206,-3.977094579035555,0.957651596453446,1.259090991750792,-0.1108282603905086,-5.0193074704975125,1.0973872765760966,1,2024-09-28 16:42:55.750099854,1727541775.7501009,2024-09-28 16:42:55.750100736,3,0.0,0.1,3.4434077942585635,[0.94892327 0.05107673],[0.94892327 0.05107673],"[ 0.41666667  0.2734375   0.46875     0.91666667  0.3125      0.5078125
  1.          0.          1.          0.40039062  1.         -0.33333333]",0.5645343616530407,0,0
209,226,2024-09-28 16:42:57.147325952,TASK_BEGIN,23,1.2775511942941746,-1.505351907275782,-4.018139942065496,0.9400701079240904,1.2079365170568988,-0.1017089546547632,-4.602290976285656,1.0006639167278588,1,2024-09-28 16:42:55.750099854,1727541775.7501009,2024-09-28 16:42:55.750100736,3,0.0,0.1,3.4434077942585635,[0.94892327 0.05107673],[0.94892327 0.05107673],"[ 0.41666667  0.2734375   0.46875     0.91666667  0.3125      0.5078125
  1.          0.          1.          0.40039062  1.         -0.33333333]",0.5645343616530407,0,0
210,227,2024-09-28 16:42:57.215046912,TASK_BEGIN,23,1.3269797935956382,-1.482619244037925,-4.068513666853278,0.9237903412418476,1.1582928159575565,-0.0944886720160663,-4.258191502551121,0.9171174455157484,1,2024-09-28 16:42:56.358083984,1727541776.3580842,2024-09-28 16:42:56.358084096,3,0.0,0.1,4.1883358588189035,[9.99999949e-01 5.12782398e-08],[9.99999949e-01 5.12782398e-08],"[0.25       0.2734375  0.46875    0.75       0.3125     0.5078125
 1.         0.         1.         0.34179688 0.3        0.13333333]",0.3329551811492526,0,0
211,228,2024-09-28 16:42:57.278834944,TASK_BEGIN,23,1.378504751389377,-1.4623768138161342,-4.125794718363395,0.9091036720602657,1.1123346658207292,-0.0892488229666825,-3.999206805157901,0.8490737690663938,1,2024-09-28 16:42:56.458079102,1727541776.4580796,2024-09-28 16:42:56.458079488,3,0.0,0.1,4.303987975228407,[9.99951939e-01 4.80605514e-05],[9.99951939e-01 4.80605514e-05],"[0.22222222 0.2734375  0.46875    0.72222222 0.3125     0.5078125
 1.         0.         1.         0.359375   0.5        0.06666667]",0.43684121264634407,0,0
212,229,2024-09-28 16:42:57.348731904,TASK_BEGIN,23,1.4319906317520927,-1.4454153525867983,-4.187396051906781,0.8960435578191929,1.0727635547802044,-0.0861255689544269,-3.832276650905728,0.7977964777762898,1,2024-09-28 16:42:56.508896973,1727541776.508897,2024-09-28 16:42:56.508897024,3,0.0,0.1,4.360948095476123,[0.99790896 0.00209104],[0.99790896 0.00209104],"[0.20833333 0.2734375  0.46875    0.70833333 0.3125     0.5078125
 1.         0.         1.         0.37109375 0.6        0.03333333]",0.6115144214591857,0,0
213,230,2024-09-28 16:42:57.411712000,TASK_BEGIN,23,1.4873442039696154,-1.4324010000547849,-4.250466528299367,0.8844929560115047,1.042632900987437,-0.0853109065128776,-3.758401723835168,0.7634455555348076,1,2024-09-28 16:42:56.558825928,1727541776.558827,2024-09-28 16:42:56.558827008,3,0.0,0.1,4.417338614521361,[0.9467985 0.0532015],[0.9467985 0.0532015],"[0.19444444 0.2734375  0.46875    0.69444444 0.3125     0.5078125
 1.         0.         1.         0.38476562 0.7        0.        ]",0.6912772578281512,0,0
214,231,2024-09-28 16:42:58.352705024,TASK_BEGIN,23,1.5444347296052927,-1.4238840083384623,-4.311812372023104,0.8742682035804126,1.0250566805812007,-0.0870374233876288,-3.772144818099921,0.7450385240246371,1,2024-09-28 16:42:57.521958984,1727541777.5219598,2024-09-28 16:42:57.521959680,3,0.0,0.1,6.154092319804425,[0.99659127 0.00340873],[0.99659127 0.00340873],"[-0.06944444  0.2734375   0.46875     0.43055556  0.3125      0.5078125
  0.93055556  0.1953125   0.390625    0.421875    1.         -0.1       ]",0.6939436895742385,0,0
215,232,2024-09-28 16:42:58.415691008,TASK_BEGIN,23,1.6029999589028163,-1.4203180232745674,-4.368008061414363,0.8651599828508816,1.022842113852967,-0.0915465718244882,-3.861413241978664,0.7404314767995133,1,2024-09-28 16:42:57.521958984,1727541777.5219598,2024-09-28 16:42:57.521959680,3,0.0,0.1,6.154092319804425,[0.99659127 0.00340873],[0.99659127 0.00340873],"[-0.06944444  0.2734375   0.46875     0.43055556  0.3125      0.5078125
  0.93055556  0.1953125   0.390625    0.421875    1.         -0.1       ]",0.6939436895742385,0,0
216,233,2024-09-28 16:42:58.497577984,TASK_BEGIN,23,1.6625691653544823,-1.4220780886813986,-4.415749161267029,0.8569342240871347,1.038124670324737,-0.0990450137931756,-4.008027100060876,0.7464287846891559,1,2024-09-28 16:42:57.521958984,1727541777.5219598,2024-09-28 16:42:57.521959680,3,0.0,0.1,6.154092319804425,[0.99659127 0.00340873],[0.99659127 0.00340873],"[-0.06944444  0.2734375   0.46875     0.43055556  0.3125      0.5078125
  0.93055556  0.1953125   0.390625    0.421875    1.         -0.1       ]",0.6939436895742385,0,0
217,234,2024-09-28 16:42:58.565271040,TASK_BEGIN,23,1.7224170271292267,-1.4294662867669885,-4.452247906189792,0.8493088728994096,1.072068809001402,-0.1096600429802095,-4.189436367488324,0.7591082432142594,1,2024-09-28 16:42:57.521958984,1727541777.5219598,2024-09-28 16:42:57.521959680,3,0.0,0.1,6.154092319804425,[0.99659127 0.00340873],[0.99659127 0.00340873],"[-0.06944444  0.2734375   0.46875     0.43055556  0.3125      0.5078125
  0.93055556  0.1953125   0.390625    0.421875    1.         -0.1       ]",0.6939436895742385,0,0
218,235,2024-09-28 16:42:58.632577792,TASK_BEGIN,23,1.781548120770493,-1.4427003085729446,-4.475468108442987,0.8419377133000115,1.1246479146810415,-0.1234027637228817,-4.381376284287583,0.7743327858170946,1,2024-09-28 16:42:57.521958984,1727541777.5219598,2024-09-28 16:42:57.521959680,3,0.0,0.1,6.154092319804425,[0.99659127 0.00340873],[0.99659127 0.00340873],"[-0.06944444  0.2734375   0.46875     0.43055556  0.3125      0.5078125
  0.93055556  0.1953125   0.390625    0.421875    1.         -0.1       ]",0.6939436895742385,0,0
219,236,2024-09-28 16:42:58.700802048,TASK_BEGIN,23,1.838722454661104,-1.4618882333006298,-4.484219086192599,0.8344291437790324,1.194502671934881,-0.1401375268706089,-4.560900642737644,0.7883311506015154,1,2024-09-28 16:42:57.521958984,1727541777.5219598,2024-09-28 16:42:57.521959680,3,0.0,0.1,6.154092319804425,[0.99659127 0.00340873],[0.99659127 0.00340873],"[-0.06944444  0.2734375   0.46875     0.43055556  0.3125      0.5078125
  0.93055556  0.1953125   0.390625    0.421875    1.         -0.1       ]",0.6939436895742385,0,0
220,237,2024-09-28 16:42:58.767683072,TASK_BEGIN,23,1.8925347523637488,-1.4869972269095315,-4.478231083363141,0.8264146403040697,1.2789023967656068,-0.1595514826641022,-4.709248293241045,0.7982249865415456,1,2024-09-28 16:42:57.521958984,1727541777.5219598,2024-09-28 16:42:57.521959680,3,0.0,0.1,6.154092319804425,[0.99659127 0.00340873],[0.99659127 0.00340873],"[-0.06944444  0.2734375   0.46875     0.43055556  0.3125      0.5078125
  0.93055556  0.1953125   0.390625    0.421875    1.         -0.1       ]",0.6939436895742385,0,0
221,238,2024-09-28 16:42:59.712008960,TASK_BEGIN,23,1.94152996697199,-1.517820263700843,-4.458224424462218,0.8176585001127519,1.3738388710963665,-0.181126070067966,-4.814072605612028,0.8024182105564356,1,2024-09-28 16:42:58.490072021,1727541778.4900723,2024-09-28 16:42:58.490072320,3,0.0,0.1,6.8226317444541005,[9.99465689e-01 5.34310759e-04],[9.99465689e-01 5.34310759e-04],"[ 0.16666667  0.3125      0.5078125   0.66666667  0.1953125   0.390625
  1.          0.          1.          0.37890625 -0.6         0.43333333]",0.3398689041190212,0,0
222,239,2024-09-28 16:42:59.779823872,TASK_BEGIN,23,1.9843156486699247,-1.5539399932853648,-4.425872346853026,0.8081452705907586,1.4742539842813662,-0.2041224689634825,-4.870651077304291,0.8008036797783972,1,2024-09-28 16:42:58.490072021,1727541778.4900723,2024-09-28 16:42:58.490072320,3,0.0,0.1,6.8226317444541005,[9.99465689e-01 5.34310759e-04],[9.99465689e-01 5.34310759e-04],"[ 0.16666667  0.3125      0.5078125   0.66666667  0.1953125   0.390625
  1.          0.          1.          0.37890625 -0.6         0.43333333]",0.3398689041190212,0,0
223,240,2024-09-28 16:42:59.839952896,TASK_BEGIN,23,2.0196576502936128,-1.5946973910629003,-4.383549523879142,0.798041918542389,1.574383664354963,-0.2275962465045065,-4.881884778164776,0.7947630567855182,1,2024-09-28 16:42:58.994865967,1727541778.9948664,2024-09-28 16:42:58.994866432,3,0.0,0.1,7.948610626717566,[9.99995507e-01 4.49293579e-06],[9.99995507e-01 4.49293579e-06],"[0.02777778 0.3125     0.5078125  0.52777778 0.1953125  0.390625
 1.         0.         1.         0.36914062 0.4        0.1       ]",0.35057743069620045,0,0
224,241,2024-09-28 16:42:59.915270912,TASK_BEGIN,23,2.0465844350460065,-1.6391868328840145,-4.333817729535719,0.7875021172898308,1.6681985999295643,-0.250451530672563,-4.857141881539556,0.786936549748882,1,2024-09-28 16:42:59.095702881,1727541779.0957038,2024-09-28 16:42:59.095703808,3,0.0,0.1,7.989433275245886,[9.99663643e-01 3.36356798e-04],[9.99663643e-01 3.36356798e-04],"[0.         0.3125     0.5078125  0.5        0.1953125  0.390625
 1.         0.         1.         0.390625   0.6        0.03333333]",0.45156521583764553,0,0
225,242,2024-09-28 16:42:59.983005184,TASK_BEGIN,23,2.064521415519909,-1.6862951176636127,-4.278744678214779,0.7764195840929512,1.7499040451474002,-0.2715313181520273,-4.810192950425638,0.7807547405568692,1,2024-09-28 16:42:59.146699951,1727541779.1467009,2024-09-28 16:42:59.146700800,3,0.0,0.1,8.009538942493426,[0.99455177 0.00544823],[0.99455177 0.00544823],"[-0.01388889  0.3125      0.5078125   0.48611111  0.1953125   0.390625
  1.          0.          1.          0.40429688  0.7         0.        ]",0.5769284340796724,0,0
