,Unnamed: 0,time,MARKER,pid,L_O_DSI,L_D_DSI,L_O_DSphi,L_D_DSphi,R_O_DSI,R_D_DSI,R_O_DSphi,R_D_DSphi,trial_id,dateTimestamps,floatTimestamps,timestamps,episode,actions,rewards,discounted_rewards,chosen_actions,optimal_actions,states,continuous_optimal,binary_optimal,discrete_optimal
1,1,2024-09-28 16:59:54.414540032,TASK_BEGIN,23,0.3695565927862694,0.2470798280713711,2.713999566048288,-1.503753070131044,0.3427157454408127,-0.0839443800638946,-1.5328137248200682,0.5372362379765572,3,2024-09-28 16:59:54.447109863,1727542794.447111,2024-09-28 16:59:54.447110912,0,0,-2.9610717881575113,-103.080176792514,[1. 0. 0. 0.],[0.17373509 0.00485719 0.10467215 0.71673557],"[-0.06039317  0.5359614  -0.17881125 -1.2273911   0.16896409  0.06736324
  0.          0.          0.4        -0.46039316 -7.9021444 ]",1.5538040738600256,0,0
2,2,2024-09-28 16:59:54.471164928,TASK_BEGIN,23,0.487456099888416,0.2716455639741997,2.0026701945473318,-1.2616014431225435,0.5709689789976109,-0.0888724123544611,-1.247431036776254,0.6261719877915478,3,2024-09-28 16:59:54.447109863,1727542794.447111,2024-09-28 16:59:54.447110912,0,0,-2.9610717881575113,-103.080176792514,[1. 0. 0. 0.],[0.17373509 0.00485719 0.10467215 0.71673557],"[-0.06039317  0.5359614  -0.17881125 -1.2273911   0.16896409  0.06736324
  0.          0.          0.4        -0.46039316 -7.9021444 ]",1.5538040738600256,0,0
3,3,2024-09-28 16:59:54.550030080,TASK_BEGIN,23,0.5999571496730862,0.2933816546214572,1.328119948123759,-1.0286683926831046,0.7881756203056814,-0.0948708280590374,-0.9755956856787344,0.713249043120139,3,2024-09-28 16:59:54.447109863,1727542794.447111,2024-09-28 16:59:54.447110912,0,0,-2.9610717881575113,-103.080176792514,[1. 0. 0. 0.],[0.17373509 0.00485719 0.10467215 0.71673557],"[-0.06039317  0.5359614  -0.17881125 -1.2273911   0.16896409  0.06736324
  0.          0.          0.4        -0.46039316 -7.9021444 ]",1.5538040738600256,0,0
4,4,2024-09-28 16:59:54.617626880,TASK_BEGIN,23,0.7047509808944599,0.3114113761586511,0.704391609500033,-0.8082705711672276,0.989115155474012,-0.1020405041335082,-0.7223359511049096,0.7985373375116533,3,2024-09-28 16:59:54.679526123,1727542794.6795268,2024-09-28 16:59:54.679526912,0,0,-2.9690939729641173,-118.02991082210443,[1. 0. 0. 0.],[0.09035769 0.00147155 0.43084229 0.47732847],"[-0.07005835  0.368209   -0.17880198 -1.4322249   0.19590908  0.0673622
  0.          0.          0.4        -0.47005835 -6.5601254 ]",1.5542079583318245,0,0
5,5,2024-09-28 16:59:54.685499136,TASK_BEGIN,23,0.8002214744393098,0.3249704126150011,0.1424161514057738,-0.603136147166611,1.1691478513180278,-0.1102864474447858,-0.4919054934886627,0.8819237478737598,3,2024-09-28 16:59:54.768302979,1727542794.7683039,2024-09-28 16:59:54.768303872,0,0,-2.971395686001216,-123.34745331853104,[1. 0. 0. 0.],[4.59432044e-02 5.87985185e-04 7.69413081e-01 1.84055729e-01],"[-0.07368311  0.29870367 -0.17879818 -1.5090375   0.2060134   0.06736154
  0.          0.          0.4        -0.4736831  -6.0040827 ]",1.5567768223059324,0,0
6,6,2024-09-28 16:59:54.753249024,TASK_BEGIN,23,0.8854919014241772,0.3334766469165419,-0.3500416559552145,-0.4154759847669071,1.3243157035087598,-0.1193052141381048,-0.2878806310604663,0.9630169306466106,3,2024-09-28 16:59:54.826426025,1727542794.826427,2024-09-28 16:59:54.826426880,0,0,-2.9727485852680786,-126.80795963005224,[1. 0. 0. 0.],[2.27425170e-02 2.48452717e-04 8.95919594e-01 8.10894362e-02],"[-0.07609963  0.25036716 -0.17879555 -1.560246    0.21274951  0.0673611
  0.          0.          0.4        -0.47609964 -5.6173906 ]",1.5579787221018635,0,0
7,7,2024-09-28 16:59:54.820930816,TASK_BEGIN,23,0.9603849211746596,0.3365968737745635,-0.7682471992821611,-0.2470636532956192,1.4514453856530611,-0.1286044892819086,-0.1134811305432517,1.0411496593463232,3,2024-09-28 16:59:54.885427979,1727542794.8854282,2024-09-28 16:59:54.885428224,0,0,-2.9739863732788194,-130.20212851562243,[1. 0. 0. 0.],[1.15922430e-02 1.12322331e-04 9.47960282e-01 4.03351530e-02],"[-0.07851616  0.20043111 -0.17879285 -1.6114544   0.21948561  0.06736082
  0.          0.          0.4        -0.47851616 -5.217902  ]",1.5592941297760845,0,0
8,8,2024-09-28 16:59:55.762693888,TASK_BEGIN,23,1.0253294942540212,0.3342906646912797,-1.1103838967521806,-0.0992389218447617,1.5482454785284587,-0.1375448560234203,0.028206164090253,1.115445440782137,3,2024-09-28 16:59:55.558039062,1727542795.55804,2024-09-28 16:59:55.558039808,0,0,11.397722740477604,-107.51532601641752,[1. 0. 0. 0.],[3.08668474e-06 3.21909939e-09 9.99994956e-01 1.95393466e-06],"[-0.10138226 -0.47777182  0.22775434 -1.7961342   0.21943739 -1.041009
  0.          1.          0.4        -0.50138223  0.20772141]",1.5687725493757534,1,2
9,9,2024-09-28 16:59:55.829971968,TASK_BEGIN,23,1.0812331419152077,0.3268247584210346,-1.3774812605313238,0.0271549587063501,1.6133612063748874,-0.1453852779238155,0.1343238038132813,1.18490518086256,3,2024-09-28 16:59:55.558039062,1727542795.55804,2024-09-28 16:59:55.558039808,0,0,11.397722740477604,-107.51532601641752,[1. 0. 0. 0.],[3.08668474e-06 3.21909939e-09 9.99994956e-01 1.95393466e-06],"[-0.10138226 -0.47777182  0.22775434 -1.7961342   0.21943739 -1.041009
  0.          1.          0.4        -0.50138223  0.20772141]",1.5687725493757534,1,2
10,10,2024-09-28 16:59:55.898056192,TASK_BEGIN,23,1.1293274190485592,0.3147600740097801,-1.5732721066029152,0.1318622660032788,1.6463764257715845,-0.1513213245876085,0.2026105207343295,1.24849761568575,3,2024-09-28 16:59:55.558039062,1727542795.55804,2024-09-28 16:59:55.558039808,0,0,11.397722740477604,-107.51532601641752,[1. 0. 0. 0.],[3.08668474e-06 3.21909939e-09 9.99994956e-01 1.95393466e-06],"[-0.10138226 -0.47777182  0.22775434 -1.7961342   0.21943739 -1.041009
  0.          1.          0.4        -0.50138223  0.20772141]",1.5687725493757534,1,2
11,11,2024-09-28 16:59:55.953578752,TASK_BEGIN,23,1.1710081007784665,0.2989122388383423,-1.703891335564358,0.2153303607571027,1.6477835563215228,-0.1545179720764595,0.2318134431141093,1.305249765463768,3,2024-09-28 16:59:55.558039062,1727542795.55804,2024-09-28 16:59:55.558039808,0,0,11.397722740477604,-107.51532601641752,[1. 0. 0. 0.],[3.08668474e-06 3.21909939e-09 9.99994956e-01 1.95393466e-06],"[-0.10138226 -0.47777182  0.22775434 -1.7961342   0.21943739 -1.041009
  0.          1.          0.4        -0.50138223  0.20772141]",1.5687725493757534,1,2
12,12,2024-09-28 16:59:56.034032128,TASK_BEGIN,23,1.2076934160435668,0.2802915727868865,-1.7773477232133896,0.2788171237226217,1.618930603059801,-0.1541429271867417,0.2219384612136341,1.3543291178739687,3,2024-09-28 16:59:55.558039062,1727542795.55804,2024-09-28 16:59:55.558039808,0,0,11.397722740477604,-107.51532601641752,[1. 0. 0. 0.],[3.08668474e-06 3.21909939e-09 9.99994956e-01 1.95393466e-06],"[-0.10138226 -0.47777182  0.22775434 -1.7961342   0.21943739 -1.041009
  0.          1.          0.4        -0.50138223  0.20772141]",1.5687725493757534,1,2
13,13,2024-09-28 16:59:56.097572096,TASK_BEGIN,23,1.2407033421462283,0.2600376628338378,-1.802725027797889,0.3244059779872017,1.5619451538267268,-0.1494067742408441,0.1743282059528012,1.395106005109733,3,2024-09-28 16:59:55.558039062,1727542795.55804,2024-09-28 16:59:55.558039808,0,0,11.397722740477604,-107.51532601641752,[1. 0. 0. 0.],[3.08668474e-06 3.21909939e-09 9.99994956e-01 1.95393466e-06],"[-0.10138226 -0.47777182  0.22775434 -1.7961342   0.21943739 -1.041009
  0.          1.          0.4        -0.50138223  0.20772141]",1.5687725493757534,1,2
14,14,2024-09-28 16:59:56.169594880,TASK_BEGIN,23,1.2711509115667057,0.2393589817664905,-1.7892430679120974,0.3548755852751181,1.4796489432519102,-0.1396149731665791,0.0916960504627668,1.427197148527432,3,2024-09-28 16:59:55.558039062,1727542795.55804,2024-09-28 16:59:55.558039808,0,0,11.397722740477604,-107.51532601641752,[1. 0. 0. 0.],[3.08668474e-06 3.21909939e-09 9.99994956e-01 1.95393466e-06],"[-0.10138226 -0.47777182  0.22775434 -1.7961342   0.21943739 -1.041009
  0.          1.          0.4        -0.50138223  0.20772141]",1.5687725493757534,1,2
15,16,2024-09-28 16:59:57.155378176,TASK_BEGIN,23,1.3272050558126711,0.2015600790243408,-1.6787409661745585,0.3834546317835388,1.253286137527397,-0.1029268396916795,-0.1610062740053762,1.4653296321927158,3,2024-09-28 16:59:57.233666992,1727542797.2336676,2024-09-28 16:59:57.233667584,1,0,-0.005339684051023141,0.38840408856402037,[1. 0. 0. 0.],[0.45968751 0.20935127 0.05884112 0.2721201 ],"[-2.9525757e-03  1.0044522e+00 -1.4584833e-01  7.1573574e-03
  8.5648773e-03  5.5417866e-02  0.0000000e+00  0.0000000e+00
  4.0000001e-01 -4.0295258e-01 -1.1530108e+01]",1.4987470432096501,0,0
16,17,2024-09-28 16:59:57.223087104,TASK_BEGIN,23,1.35322247548542,0.1866868494234182,-1.5950918145885726,0.3880241247032222,1.1172781232046012,-0.0756443356077394,-0.3193326314673652,1.472295419558444,3,2024-09-28 16:59:57.294681152,1727542797.294681,2024-09-28 16:59:57.294681088,1,0,-0.8852444535783235,-0.9494511623435549,[1. 0. 0. 0.],[0.46418133 0.20881787 0.05775924 0.26924157],"[-4.9232640e-03  1.0034761e+00 -1.4592151e-01 -4.4072643e-02
  1.4102717e-02  5.5385105e-02  0.0000000e+00  0.0000000e+00
  4.0000001e-01 -4.0492326e-01 -1.1522300e+01]",1.500602891640593,0,0
17,18,2024-09-28 16:59:57.278168832,TASK_BEGIN,23,1.3774488791042436,0.1757861974063963,-1.4991233696627204,0.3897542430704963,0.971658481711511,-0.0426011702010141,-0.4897049174648556,1.472395988568554,3,2024-09-28 16:59:57.352650879,1727542797.3526511,2024-09-28 16:59:57.352651008,1,0,-1.607261181386292,-3.8026618040924642,[1. 0. 0. 0.],[0.47558371 0.20237979 0.05603764 0.26599886],"[-6.8949857e-03  1.0008998e+00 -1.4599454e-01 -9.5292784e-02
  1.9637063e-02  5.5351328e-02  0.0000000e+00  0.0000000e+00
  4.0000001e-01 -4.0689498e-01 -1.1501689e+01]",1.50344339963174,0,0
18,19,2024-09-28 16:59:57.358679808,TASK_BEGIN,23,1.3990783817988186,0.1696042179142379,-1.3942761458970934,0.3904939666405394,0.8205216488241631,-0.0043080909633325,-0.6645150263092945,1.4668172043434575,3,2024-09-28 16:59:57.439667969,1727542797.439668,2024-09-28 16:59:57.439667968,1,0,-2.235604879618961,-9.81569902136112,[1. 0. 0. 0.],[0.49034253 0.16078993 0.05032877 0.29853877],"[-9.8545551e-03  9.9403501e-01 -1.4610308e-01 -1.7212486e-01
  2.7932445e-02  5.5301417e-02  0.0000000e+00  0.0000000e+00
  4.0000001e-01 -4.0985456e-01 -1.1446771e+01]",1.5090636622368083,0,0
19,20,2024-09-28 16:59:57.426437888,TASK_BEGIN,23,1.4171073598446553,0.1686539412214434,-1.2830817269106052,0.391221832017419,0.6677488159798702,0.0384361975482387,-0.8360373330038859,1.4567890720661434,3,2024-09-28 16:59:57.497679932,1727542797.4976807,2024-09-28 16:59:57.497680640,1,0,-2.4521259504993793,-14.4065560303037,[1. 0. 0. 0.],[0.49480112 0.12984155 0.04634166 0.32901567],"[ -0.0118289    0.9874581   -0.14617483  -0.2233474    0.03345859
   0.05526879   0.           0.           0.4         -0.4118289
 -11.3941555 ]",1.5123486324465347,0,0
20,21,2024-09-28 16:59:57.491246080,TASK_BEGIN,23,1.430541974966335,0.1731622155132641,-1.167400302642185,0.3920631293835702,0.5169691461844308,0.0845663350401323,-0.996940812227781,1.4434295999647142,3,2024-09-28 16:59:57.555651855,1727542797.5556529,2024-09-28 16:59:57.555652864,1,0,-2.584296328448346,-19.204868372895497,[1. 0. 0. 0.],[0.47760865 0.10670639 0.04532008 0.37036488],"[ -0.0138042    0.9792807   -0.14624602  -0.27457094   0.03898153
   0.05523673   0.           0.           0.4         -0.4138042
 -11.328736  ]",1.514394950006191,0,0
21,22,2024-09-28 16:59:58.434039040,TASK_BEGIN,23,1.4385972479940157,0.1830306209973612,-1.0486220325918292,0.3924642750646177,0.3715234531887106,0.1327971968307536,-1.1409014474190349,1.4276055868648228,3,2024-09-28 16:59:58.489764893,1727542798.4897656,2024-09-28 16:59:58.489765632,1,0,-2.886164244559552,-92.0995171470475,[1. 0. 0. 0.],[0.21561547 0.01250082 0.17132231 0.6005614 ],"[-0.04542049  0.6293633  -0.14618856 -1.0982536   0.12713102  0.05507253
  0.          0.          0.4        -0.44542047 -8.529397  ]",1.5486969031802582,0,0
22,23,2024-09-28 16:59:58.498491904,TASK_BEGIN,23,1.440851190505423,0.1978347864623371,-0.9279056787637612,0.3915121330180461,0.2344180126841209,0.1816961139362899,-1.2630595188165703,1.4098305648308365,3,2024-09-28 16:59:58.576767822,1727542798.576768,2024-09-28 16:59:58.576768000,1,0,-2.8892635989338658,-97.94256679167354,[1. 0. 0. 0.],[0.22589618 0.00945177 0.15328577 0.61136628],"[-0.04838308  0.5754988  -0.14618689 -1.175062    0.13539188  0.05507233
  0.          0.          0.4        -0.44838306 -8.098481  ]",1.5514352347311346,0,0
23,24,2024-09-28 16:59:58.572491008,TASK_BEGIN,23,1.4373372882112565,0.2168735812103222,-0.8065096107729496,0.3883033380293028,0.1082843557963172,0.2297728587226709,-1.36018207471154,1.390237454543377,3,2024-09-28 16:59:58.634764893,1727542798.6347659,2024-09-28 16:59:58.634765824,1,0,-2.8910600178401467,-101.74586268733754,[1. 0. 0. 0.],[0.2106061  0.00726972 0.15671946 0.62540472],"[-0.05035814  0.53758943 -0.14618571 -1.2262677   0.14089909  0.0550722
  0.          0.          0.4        -0.45035812 -7.7952056 ]",1.5525446945864931,0,0
24,25,2024-09-28 16:59:58.635147008,TASK_BEGIN,23,1.428569357473089,0.2392530043803176,-0.6861534466306806,0.3822303621691579,-0.0046470128602088,0.2755765010739202,-1.430637543216953,1.3686350242530494,3,2024-09-28 16:59:58.663765869,1727542798.6637664,2024-09-28 16:59:58.663766272,1,0,-2.891874327711207,-103.62027838817536,[1. 0. 0. 0.],[0.19207404 0.0062957  0.19016682 0.61146344],"[-0.05134575  0.51803493 -0.14618513 -1.2518705   0.1436527   0.05507213
  0.          0.          0.4        -0.45134574 -7.6387696 ]",1.5527612851408397,0,0
25,26,2024-09-28 16:59:58.708243968,TASK_BEGIN,23,1.415507097325602,0.2639744177797076,-0.5692581052693477,0.3731120276821029,-0.102568803808162,0.3177848265552804,-1.4743053841515996,1.344606103779702,3,2024-09-28 16:59:58.663765869,1727542798.6637664,2024-09-28 16:59:58.663766272,1,0,-2.891874327711207,-103.62027838817536,[1. 0. 0. 0.],[0.19207404 0.0062957  0.19016682 0.61146344],"[-0.05134575  0.51803493 -0.14618513 -1.2518705   0.1436527   0.05507213
  0.          0.          0.4        -0.45134574 -7.6387696 ]",1.5527612851408397,0,0
26,27,2024-09-28 16:59:58.775949056,TASK_BEGIN,23,1.3994828864683246,0.290005920483548,-0.4589313467404265,0.3611680574122865,-0.184129994435063,0.3552714147220201,-1.4923976340642284,1.3176007707379815,3,2024-09-28 16:59:58.663765869,1727542798.6637664,2024-09-28 16:59:58.663766272,1,0,-2.891874327711207,-103.62027838817536,[1. 0. 0. 0.],[0.19207404 0.0062957  0.19016682 0.61146344],"[-0.05134575  0.51803493 -0.14618513 -1.2518705   0.1436527   0.05507213
  0.          0.          0.4        -0.45134574 -7.6387696 ]",1.5527612851408397,0,0
27,28,2024-09-28 16:59:58.836424960,TASK_BEGIN,23,1.3821039940095077,0.3163344000392663,-0.3586724723092698,0.3468703835439877,-0.2484854402227568,0.3871449991008816,-1.4871682141504818,1.287012089530452,3,2024-09-28 16:59:58.663765869,1727542798.6637664,2024-09-28 16:59:58.663766272,1,0,-2.891874327711207,-103.62027838817536,[1. 0. 0. 0.],[0.19207404 0.0062957  0.19016682 0.61146344],"[-0.05134575  0.51803493 -0.14618513 -1.2518705   0.1436527   0.05507213
  0.          0.          0.4        -0.45134574 -7.6387696 ]",1.5527612851408397,0,0
28,29,2024-09-28 16:59:59.774895104,TASK_BEGIN,23,1.3651252744785762,0.3420078297449197,-0.2719332912485533,0.3307280413908597,-0.2953495436847473,0.4127697568395946,-1.4616548187212322,1.2522590926814503,3,2024-09-28 16:59:59.570792969,1727542799.5707934,2024-09-28 16:59:59.570793472,1,2,-5.472270622686824,-90.96549029137208,[0. 0. 1. 0.],[0.20011762 0.05792559 0.00980057 0.73215622],"[-0.15632455  0.3430519  -0.91114974  0.5826479   0.22491752  0.0417514
  0.          0.          0.4        -0.55632454 -6.2389054 ]",1.5639334902768192,0,0
29,30,2024-09-28 16:59:59.852526848,TASK_BEGIN,23,1.3502838268632804,0.3661777173138218,-0.2017904290581113,0.3130762065062022,-0.325032846551794,0.4317797928127137,-1.4196572784615122,1.212917936779241,3,2024-09-28 16:59:59.570792969,1727542799.5707934,2024-09-28 16:59:59.570793472,1,2,-5.472270622686824,-90.96549029137208,[0. 0. 1. 0.],[0.20011762 0.05792559 0.00980057 0.73215622],"[-0.15632455  0.3430519  -0.91114974  0.5826479   0.22491752  0.0417514
  0.          0.          0.4        -0.55632454 -6.2389054 ]",1.5639334902768192,0,0
30,31,2024-09-28 16:59:59.923528704,TASK_BEGIN,23,1.339110399626674,0.3881425601359853,-0.150876268009052,0.2939306349598552,-0.3384512398091652,0.4440932160082542,-1.3659341117512855,1.1689030818431958,3,2024-09-28 16:59:59.570792969,1727542799.5707934,2024-09-28 16:59:59.570793472,1,2,-5.472270622686824,-90.96549029137208,[0. 0. 1. 0.],[0.20011762 0.05792559 0.00980057 0.73215622],"[-0.15632455  0.3430519  -0.91114974  0.5826479   0.22491752  0.0417514
  0.          0.          0.4        -0.55632454 -6.2389054 ]",1.5639334902768192,0,0
31,32,2024-09-28 16:59:59.975877888,TASK_BEGIN,23,1.3327582141251064,0.4073835886402447,-0.1214413085857106,0.2729450563143509,-0.337102011114737,0.4499181817845287,-1.3062582014309558,1.120617501636323,3,2024-09-28 16:59:59.570792969,1727542799.5707934,2024-09-28 16:59:59.570793472,1,2,-5.472270622686824,-90.96549029137208,[0. 0. 1. 0.],[0.20011762 0.05792559 0.00980057 0.73215622],"[-0.15632455  0.3430519  -0.91114974  0.5826479   0.22491752  0.0417514
  0.          0.          0.4        -0.55632454 -6.2389054 ]",1.5639334902768192,0,0
32,33,2024-09-28 17:00:00.053986048,TASK_BEGIN,23,1.3318925994580644,0.4235816806361366,-0.115315187976483,0.2494767134425044,-0.3229841019053433,0.4497328888195562,-1.246926336149072,1.068966461433384,3,2024-09-28 16:59:59.570792969,1727542799.5707934,2024-09-28 16:59:59.570793472,1,2,-5.472270622686824,-90.96549029137208,[0. 0. 1. 0.],[0.20011762 0.05792559 0.00980057 0.73215622],"[-0.15632455  0.3430519  -0.91114974  0.5826479   0.22491752  0.0417514
  0.          0.          0.4        -0.55632454 -6.2389054 ]",1.5639334902768192,0,0
33,34,2024-09-28 17:00:00.116579072,TASK_BEGIN,23,1.3366636898114148,0.436608870811236,-0.1336894517347314,0.2227291620263545,-0.2984362396890249,0.4442244811889212,-1.193760499140011,1.0152236841873346,3,2024-09-28 16:59:59.570792969,1727542799.5707934,2024-09-28 16:59:59.570793472,1,2,-5.472270622686824,-90.96549029137208,[0. 0. 1. 0.],[0.20011762 0.05792559 0.00980057 0.73215622],"[-0.15632455  0.3430519  -0.91114974  0.5826479   0.22491752  0.0417514
  0.          0.          0.4        -0.55632454 -6.2389054 ]",1.5639334902768192,0,0
34,35,2024-09-28 17:00:00.193768192,TASK_BEGIN,23,1.346752425375048,0.4464969971445529,-0.1768152865209094,0.1919224925036272,-0.2659029566016242,0.4341935937927579,-1.1511073504614888,0.9608390210728246,3,2024-09-28 16:59:59.570792969,1727542799.5707934,2024-09-28 16:59:59.570793472,1,2,-5.472270622686824,-90.96549029137208,[0. 0. 1. 0.],[0.20011762 0.05792559 0.00980057 0.73215622],"[-0.15632455  0.3430519  -0.91114974  0.5826479   0.22491752  0.0417514
  0.          0.          0.4        -0.55632454 -6.2389054 ]",1.5639334902768192,0,0
35,36,2024-09-28 17:00:01.112308224,TASK_BEGIN,23,1.3614588885915808,0.4533956832168703,-0.2437654579235591,0.1564609727938354,-0.2276821424656857,0.4204536767069892,-1.121298486857624,0.907269827765647,3,2024-09-28 17:00:01.175232910,1727542801.1752338,2024-09-28 17:00:01.175233792,1,0,-1.6240804304312064,-96.58036411692179,[1. 0. 0. 0.],[0.06992077 0.00409967 0.13160603 0.79437353],"[ -0.5801356    0.8684044   -1.1658465    0.09077884  -0.33648565
  -0.21802215   0.           0.           0.4         -0.98013556
 -10.441726  ]",1.558715085985687,0,0
36,37,2024-09-28 17:00:01.169856000,TASK_BEGIN,23,1.3798064372982717,0.4575339732273655,-0.3323651580111758,0.1160912293510148,-0.1857117501408562,0.4037546106591771,-1.1046588904877788,0.8558747113170044,3,2024-09-28 17:00:01.235207031,1727542801.2352073,2024-09-28 17:00:01.235207424,1,0,-1.7379667132389045,-98.06048699112654,[1. 0. 0. 0.],[0.08732093 0.00482484 0.1758543  0.73199992],"[ -0.59653616   0.87015164  -1.1658913    0.03949372  -0.3582872
  -0.21801332   0.           0.           0.4         -0.99653614
 -10.455704  ]",1.5614918261979038,0,0
37,38,2024-09-28 17:00:01.247836160,TASK_BEGIN,23,1.4006475599278712,0.4591924126728385,-0.439280722328949,0.0710176688203501,-0.1414250970783809,0.3847423717166621,-1.0999000571481692,0.8078863076666867,3,2024-09-28 17:00:01.324248047,1727542801.3242483,2024-09-28 17:00:01.324248320,1,0,-1.9096209630782255,-100.65092196230849,[1. 0. 0. 0.],[0.11559889 0.00592974 0.25878173 0.61968964],"[ -0.62113506   0.8697802   -1.1659636   -0.03743267  -0.39098778
  -0.21800013   0.           0.           0.4         -1.0211351
 -10.452732  ]",1.5621777076304646,0,0
38,39,2024-09-28 17:00:01.312602112,TASK_BEGIN,23,1.4227558715287605,0.4586846355820585,-0.5602262105583465,0.0219168889703596,-0.0956872082277204,0.3639486520768116,-1.1046467444747468,0.7644226871910519,3,2024-09-28 17:00:01.382239014,1727542801.3822398,2024-09-28 17:00:01.382239744,1,0,-2.023724324954742,-102.61878797207989,[1. 0. 0. 0.],[0.13416215 0.00680689 0.33876778 0.52026318],"[ -0.63753295   0.8675376   -1.1660155   -0.08871603  -0.4127871
  -0.21799114   0.           0.           0.4         -1.0375329
 -10.434792  ]",1.5626579207700275,0,0
39,40,2024-09-28 17:00:01.383305216,TASK_BEGIN,23,1.4448881916234555,0.456346842905125,-0.6903317817083521,-0.0301579170902918,-0.0488234899469721,0.3417969183528028,-1.115826987950034,0.7264543630318483,3,2024-09-28 17:00:01.382239014,1727542801.3822398,2024-09-28 17:00:01.382239744,1,0,-2.023724324954742,-102.61878797207989,[1. 0. 0. 0.],[0.13416215 0.00680689 0.33876778 0.52026318],"[ -0.63753295   0.8675376   -1.1660155   -0.08871603  -0.4127871
  -0.21799114   0.           0.           0.4         -1.0375329
 -10.434792  ]",1.5626579207700275,0,0
40,41,2024-09-28 17:00:01.448457984,TASK_BEGIN,23,1.4658251553904398,0.4525326123556056,-0.8246811462536402,-0.0839225895409331,-0.0007317768412897,0.3186139456382869,-1.1297915246159569,0.6947134025807348,3,2024-09-28 17:00:01.382239014,1727542801.3822398,2024-09-28 17:00:01.382239744,1,0,-2.023724324954742,-102.61878797207989,[1. 0. 0. 0.],[0.13416215 0.00680689 0.33876778 0.52026318],"[ -0.63753295   0.8675376   -1.1660155   -0.08871603  -0.4127871
  -0.21799114   0.           0.           0.4         -1.0375329
 -10.434792  ]",1.5626579207700275,0,0
41,42,2024-09-28 17:00:01.518803968,TASK_BEGIN,23,1.484423645051147,0.4476045656404212,-0.9588466978194172,-0.1379968551392342,0.0489749882132962,0.2946397980965219,-1.142289380051516,0.6696218744601196,3,2024-09-28 17:00:01.382239014,1727542801.3822398,2024-09-28 17:00:01.382239744,1,0,-2.023724324954742,-102.61878797207989,[1. 0. 0. 0.],[0.13416215 0.00680689 0.33876778 0.52026318],"[ -0.63753295   0.8675376   -1.1660155   -0.08871603  -0.4127871
  -0.21799114   0.           0.           0.4         -1.0375329
 -10.434792  ]",1.5626579207700275,0,0
42,43,2024-09-28 17:00:02.462132736,TASK_BEGIN,23,1.4996983104189383,0.4419155644420967,-1.089182187505629,-0.191019480877828,0.1008666374932005,0.2700323486797538,-1.1485638206726432,0.6512904077898327,3,2024-09-28 17:00:01.936233154,1727542801.936234,2024-09-28 17:00:01.936233984,1,3,-4.683038786652171,-132.65557172550226,[0. 0. 0. 1.],[2.08481448e-03 5.34888008e-03 9.92563648e-01 2.65750698e-06],"[-0.788621    0.762323   -1.0395898  -0.6351695  -0.7369235  -0.60163534
  0.          0.          0.4        -1.188621   -9.593075  ]",1.5683612160928466,1,2
43,44,2024-09-28 17:00:02.530054144,TASK_BEGIN,23,1.5109125760608793,0.4357838090066,-1.212758921932885,-0.2417636105586549,0.1556574160808281,0.2448712600147214,-1.1437082967455914,0.6395412625154698,3,2024-09-28 17:00:01.936233154,1727542801.936234,2024-09-28 17:00:01.936233984,1,3,-4.683038786652171,-132.65557172550226,[0. 0. 0. 1.],[2.08481448e-03 5.34888008e-03 9.92563648e-01 2.65750698e-06],"[-0.788621    0.762323   -1.0395898  -0.6351695  -0.7369235  -0.60163534
  0.          0.          0.4        -1.188621   -9.593075  ]",1.5683612160928466,1,2
44,45,2024-09-28 17:00:02.597837824,TASK_BEGIN,23,1.5176452749772251,0.4294726617110562,-1.3270204942581705,-0.2892485189777127,0.2141790412618091,0.2191737293089306,-1.123163509789671,0.6338907687232478,3,2024-09-28 17:00:01.936233154,1727542801.936234,2024-09-28 17:00:01.936233984,1,3,-4.683038786652171,-132.65557172550226,[0. 0. 0. 1.],[2.08481448e-03 5.34888008e-03 9.92563648e-01 2.65750698e-06],"[-0.788621    0.762323   -1.0395898  -0.6351695  -0.7369235  -0.60163534
  0.          0.          0.4        -1.188621   -9.593075  ]",1.5683612160928466,1,2
45,46,2024-09-28 17:00:02.664881152,TASK_BEGIN,23,1.5198089625922524,0.4231796272777937,-1.4293765764893869,-0.3328120606198639,0.2772986811242708,0.1929254348957476,-1.08308955793117,0.6335021537247206,3,2024-09-28 17:00:01.936233154,1727542801.936234,2024-09-28 17:00:01.936233984,1,3,-4.683038786652171,-132.65557172550226,[0. 0. 0. 1.],[2.08481448e-03 5.34888008e-03 9.92563648e-01 2.65750698e-06],"[-0.788621    0.762323   -1.0395898  -0.6351695  -0.7369235  -0.60163534
  0.          0.          0.4        -1.188621   -9.593075  ]",1.5683612160928466,1,2
46,47,2024-09-28 17:00:02.733239040,TASK_BEGIN,23,1.517618163333541,0.4170305594029128,-1.516990330769412,-0.3721168513105503,0.3457786608861358,0.1661148695219313,-1.0204336707622297,0.6371593120171228,3,2024-09-28 17:00:01.936233154,1727542801.936234,2024-09-28 17:00:01.936233984,1,3,-4.683038786652171,-132.65557172550226,[0. 0. 0. 1.],[2.08481448e-03 5.34888008e-03 9.92563648e-01 2.65750698e-06],"[-0.788621    0.762323   -1.0395898  -0.6351695  -0.7369235  -0.60163534
  0.          0.          0.4        -1.188621   -9.593075  ]",1.5683612160928466,1,2
47,48,2024-09-28 17:00:02.800954112,TASK_BEGIN,23,1.5115266557644782,0.411076100164558,-1.586888713202969,-0.40710007793817,0.4201274804310324,0.1387611987078305,-0.9327760877026292,0.643276362836511,3,2024-09-28 17:00:01.936233154,1727542801.936234,2024-09-28 17:00:01.936233984,1,3,-4.683038786652171,-132.65557172550226,[0. 0. 0. 1.],[2.08481448e-03 5.34888008e-03 9.92563648e-01 2.65750698e-06],"[-0.788621    0.762323   -1.0395898  -0.6351695  -0.7369235  -0.60163534
  0.          0.          0.4        -1.188621   -9.593075  ]",1.5683612160928466,1,2
48,49,2024-09-28 17:00:02.855787008,TASK_BEGIN,23,1.5021492093816842,0.4052953988205151,-1.6363294591057311,-0.4378965934349184,0.5004723582203395,0.1109393940114499,-0.8182740889732482,0.649960655426076,3,2024-09-28 17:00:01.965233154,1727542801.9652336,2024-09-28 17:00:01.965233664,1,3,-4.712912399646379,-136.0419284078936,[0. 0. 0. 1.],[1.28165384e-03 5.51209599e-03 9.93205473e-01 7.77589533e-07],"[-0.79599744  0.75220835 -1.0277576  -0.6686214  -0.7691237  -0.6440052
  0.          0.          0.4        -1.1959975  -9.512157  ]",1.5681989657079956,1,2
49,57,2024-09-28 17:00:05.163796992,TASK_BEGIN,23,1.361544079898824,0.3624205275612368,-1.2484957725529024,-0.552420093111624,1.2054437687036732,-0.0946954751454396,0.784708945198429,0.5823522047528308,3,2024-09-28 17:00:05.143394043,1727542805.143394,2024-09-28 17:00:05.143394048,2,0,-2.936936295057208,-52.76155433639985,[1. 0. 0. 0.],[0.28992321 0.18003939 0.37031702 0.15972038],"[ 4.7737756e-03  8.8886976e-01  2.8848274e-02 -6.0068631e-01
 -1.4365573e-02 -3.1193266e-02  0.0000000e+00  0.0000000e+00
 -2.0000000e-01  2.0477377e-01 -9.5132074e+00]",1.5091723011316014,0,0
50,58,2024-09-28 17:00:05.231529984,TASK_BEGIN,23,1.3364418339781228,0.3589859562884436,-1.1311946353663405,-0.548734904898061,1.2682528541751503,-0.1125934700782258,0.9579435742057872,0.5703486577965777,3,2024-09-28 17:00:05.288992920,1727542805.2889931,2024-09-28 17:00:05.288993024,2,0,-2.627812618828628,-63.26263643584665,[1. 0. 0. 0.],[0.18035693 0.11918228 0.58625544 0.11420535],"[ 5.7711601e-03  8.3577359e-01  2.9537980e-02 -7.3084074e-01
 -1.7148862e-02 -1.1132905e-02  0.0000000e+00  0.0000000e+00
 -2.0000000e-01  2.0577116e-01 -9.0884380e+00]",1.5101993089235182,0,0
51,59,2024-09-28 17:00:05.300102912,TASK_BEGIN,23,1.3098658040758535,0.3563338343762501,-1.010328817377936,-0.5407747796687337,1.3185983617010884,-0.1276413066504242,1.09161881793993,0.5655633615711466,3,2024-09-28 17:00:05.375991211,1727542805.3759918,2024-09-28 17:00:05.375991808,2,0,-2.6282303142387207,-69.18939749078373,[1. 0. 0. 0.],[0.14167144 0.09575736 0.67330328 0.08926793],"[ 6.3695908e-03  7.9911590e-01  2.9537972e-02 -8.0764115e-01
 -1.8818766e-02 -1.1132909e-02  0.0000000e+00  0.0000000e+00
 -2.0000000e-01  2.0636959e-01 -8.7951765e+00]",1.5121676727777311,0,0
52,60,2024-09-28 17:00:05.367830016,TASK_BEGIN,23,1.28246637316479,0.3543455131096454,-0.8898925529796967,-0.5290330346973138,1.3556966745681192,-0.1396644241397361,1.1786361277102535,0.5701758015531936,3,2024-09-28 17:00:05.434997070,1727542805.434997,2024-09-28 17:00:05.434996992,2,0,-2.6284548070412086,-73.0430482356968,[1. 0. 0. 0.],[0.16176862 0.09479607 0.65384155 0.08959376],"[ 6.7685447e-03  7.7267730e-01  2.9537968e-02 -8.5884142e-01
 -1.9932089e-02 -1.1132917e-02  0.0000000e+00  0.0000000e+00
 -2.0000000e-01  2.0676854e-01 -8.5836678e+00]",1.5130154342885,0,0
53,61,2024-09-28 17:00:05.425261056,TASK_BEGIN,23,1.2551814955861915,0.3527924884148442,-0.7737367783491789,-0.5141679509556206,1.3794883868889578,-0.1485753612892618,1.2142705799360352,0.5855153647736316,3,2024-09-28 17:00:05.493993896,1727542805.4939945,2024-09-28 17:00:05.493994496,2,0,-2.628639442049007,-76.82039625485774,[1. 0. 0. 0.],[0.14236082 0.07264869 0.70797903 0.07701147],"[ 7.1674981e-03  7.4463880e-01  2.9537965e-02 -9.1004163e-01
 -2.1045398e-02 -1.1132920e-02  0.0000000e+00  0.0000000e+00
 -2.0000000e-01  2.0716749e-01 -8.3593597e+00]",1.5153038646907961,0,0
54,62,2024-09-28 17:00:05.487799808,TASK_BEGIN,23,1.229174598708331,0.3513712179228375,-0.6656964286590373,-0.4968567456392275,1.3906789588110222,-0.1543766771157824,1.195788759078684,0.6119887171914751,3,2024-09-28 17:00:05.552992188,1727542805.5529926,2024-09-28 17:00:05.552992512,2,0,-2.6287882440005603,-80.5228918248916,[1. 0. 0. 0.],[0.10171066 0.04959857 0.79058726 0.05810351],"[ 7.5665317e-03  7.1500039e-01  2.9537957e-02 -9.6124178e-01
 -2.2158680e-02 -1.1132899e-02  0.0000000e+00  0.0000000e+00
 -2.0000000e-01  2.0756653e-01 -8.1222525e+00]",1.5182061515832919,0,0
55,63,2024-09-28 17:00:05.570092032,TASK_BEGIN,23,1.205732795077877,0.3497456159731221,-0.5697460664350037,-0.4776915880529414,1.3907405562124373,-0.1571671799596181,1.1219040277150845,0.6492265513832394,3,2024-09-28 17:00:05.552992188,1727542805.5529926,2024-09-28 17:00:05.552992512,2,0,-2.6287882440005603,-80.5228918248916,[1. 0. 0. 0.],[0.10171066 0.04959857 0.79058726 0.05810351],"[ 7.5665317e-03  7.1500039e-01  2.9537957e-02 -9.6124178e-01
 -2.2158680e-02 -1.1132899e-02  0.0000000e+00  0.0000000e+00
 -2.0000000e-01  2.0756653e-01 -8.1222525e+00]",1.5182061515832919,0,0
56,64,2024-09-28 17:00:06.512482048,TASK_BEGIN,23,1.1861531582317877,0.3475835851221407,-0.4899847298912479,-0.4571529148337573,1.3818432818571222,-0.1571543237181934,0.9924553462023056,0.6963292931990431,3,2024-09-28 17:00:06.523502197,1727542806.5235023,2024-09-28 17:00:06.523502336,2,2,-4.794611450930108,-40.764787647404816,[0. 0. 1. 0.],[0.2142724  0.44695357 0.021275   0.31749902],"[ 0.01976514  0.7309263   0.02597918  0.52332664 -0.06295318 -0.05674435
  0.          0.         -0.2         0.21976514 -8.24966   ]",1.5503175454948959,0,0
57,65,2024-09-28 17:00:06.580365056,TASK_BEGIN,23,1.1716352599479714,0.3445887399990642,-0.4303775213690018,-0.4356461808128067,1.3666926863961169,-0.1546650680104594,0.8086770385709781,0.7520166238043893,3,2024-09-28 17:00:06.523502197,1727542806.5235023,2024-09-28 17:00:06.523502336,2,2,-4.794611450930108,-40.764787647404816,[0. 0. 1. 0.],[0.2142724  0.44695357 0.021275   0.31749902],"[ 0.01976514  0.7309263   0.02597918  0.52332664 -0.06295318 -0.05674435
  0.          0.         -0.2         0.21976514 -8.24966   ]",1.5503175454948959,0,0
58,66,2024-09-28 17:00:06.636703232,TASK_BEGIN,23,1.163179640639221,0.3405354213241308,-0.3943784069493457,-0.4135381995578104,1.348279177791906,-0.150139878748882,0.5740827871453899,0.8146053207441368,3,2024-09-28 17:00:06.523502197,1727542806.5235023,2024-09-28 17:00:06.523502336,2,2,-4.794611450930108,-40.764787647404816,[0. 0. 1. 0.],[0.2142724  0.44695357 0.021275   0.31749902],"[ 0.01976514  0.7309263   0.02597918  0.52332664 -0.06295318 -0.05674435
  0.          0.         -0.2         0.21976514 -8.24966   ]",1.5503175454948959,0,0
59,67,2024-09-28 17:00:06.715828736,TASK_BEGIN,23,1.161494522492024,0.335306198137308,-0.3846021313515915,-0.391139218965873,1.329583603529667,-0.1441036588194438,0.2954675992547689,0.8819287481007773,3,2024-09-28 17:00:06.523502197,1727542806.5235023,2024-09-28 17:00:06.523502336,2,2,-4.794611450930108,-40.764787647404816,[0. 0. 1. 0.],[0.2142724  0.44695357 0.021275   0.31749902],"[ 0.01976514  0.7309263   0.02597918  0.52332664 -0.06295318 -0.05674435
  0.          0.         -0.2         0.21976514 -8.24966   ]",1.5503175454948959,0,0
60,68,2024-09-28 17:00:06.783610112,TASK_BEGIN,23,1.1669295707426235,0.3289196765791903,-0.402556164699148,-0.3686610016968367,1.313300274042372,-0.1371229838147675,-0.0166700548957692,0.9513582930147564,3,2024-09-28 17:00:06.523502197,1727542806.5235023,2024-09-28 17:00:06.523502336,2,2,-4.794611450930108,-40.764787647404816,[0. 0. 1. 0.],[0.2142724  0.44695357 0.021275   0.31749902],"[ 0.01976514  0.7309263   0.02597918  0.52332664 -0.06295318 -0.05674435
  0.          0.         -0.2         0.21976514 -8.24966   ]",1.5503175454948959,0,0
61,69,2024-09-28 17:00:06.851360000,TASK_BEGIN,23,1.179458989653078,0.3215339195889015,-0.4483665261727332,-0.3462163387830719,1.3016188424293822,-0.1297624586054945,-0.3486710808856404,1.0199639156838067,3,2024-09-28 17:00:06.523502197,1727542806.5235023,2024-09-28 17:00:06.523502336,2,2,-4.794611450930108,-40.764787647404816,[0. 0. 1. 0.],[0.2142724  0.44695357 0.021275   0.31749902],"[ 0.01976514  0.7309263   0.02597918  0.52332664 -0.06295318 -0.05674435
  0.          0.         -0.2         0.21976514 -8.24966   ]",1.5503175454948959,0,0
62,70,2024-09-28 17:00:06.918289152,TASK_BEGIN,23,1.1987162423035702,0.3134196583657332,-0.5205619699713436,-0.3238473173705948,1.2960764531918505,-0.1225494390220503,-0.6851110898772188,1.08474048373032,3,2024-09-28 17:00:06.523502197,1727542806.5235023,2024-09-28 17:00:06.523502336,2,2,-4.794611450930108,-40.764787647404816,[0. 0. 1. 0.],[0.2142724  0.44695357 0.021275   0.31749902],"[ 0.01976514  0.7309263   0.02597918  0.52332664 -0.06295318 -0.05674435
  0.          0.         -0.2         0.21976514 -8.24966   ]",1.5503175454948959,0,0
63,71,2024-09-28 17:00:07.837325312,TASK_BEGIN,23,1.2240550976017794,0.3049122455045217,-0.6160715571473264,-0.3015111368191445,1.297476782745725,-0.115953386765672,-1.010553967525802,1.1428214635510396,3,2024-09-28 17:00:07.752822998,1727542807.752823,2024-09-28 17:00:07.752823040,2,0,-3.469400855154717,-62.06127656761364,[1. 0. 0. 0.],[0.09864444 0.85228143 0.04588547 0.00318865],"[ 0.03302884  0.7119696   0.07837034 -0.5576217  -0.32109502 -0.17962077
  0.          0.         -0.2         0.23302884 -8.098006  ]",1.55089900715222,0,0
64,72,2024-09-28 17:00:07.899860992,TASK_BEGIN,23,1.2546077590307885,0.2963599386184657,-0.7304858522306129,-0.2790075373645891,1.305874693691561,-0.1103809164258354,-1.3110299488830237,1.1916316603838326,3,2024-09-28 17:00:07.752822998,1727542807.752823,2024-09-28 17:00:07.752823040,2,0,-3.469400855154717,-62.06127656761364,[1. 0. 0. 0.],[0.09864444 0.85228143 0.04588547 0.00318865],"[ 0.03302884  0.7119696   0.07837034 -0.5576217  -0.32109502 -0.17962077
  0.          0.         -0.2         0.23302884 -8.098006  ]",1.55089900715222,0,0
65,73,2024-09-28 17:00:07.972856832,TASK_BEGIN,23,1.289333276545183,0.2880839468743553,-0.8584926725544995,-0.2559152092448226,1.3206346974064642,-0.1061829309085293,-1.5748524849665826,1.2289745346470713,3,2024-09-28 17:00:07.752822998,1727542807.752823,2024-09-28 17:00:07.752823040,2,0,-3.469400855154717,-62.06127656761364,[1. 0. 0. 0.],[0.09864444 0.85228143 0.04588547 0.00318865],"[ 0.03302884  0.7119696   0.07837034 -0.5576217  -0.32109502 -0.17962077
  0.          0.         -0.2         0.23302884 -8.098006  ]",1.55089900715222,0,0
66,74,2024-09-28 17:00:08.040604928,TASK_BEGIN,23,1.3270635590409474,0.2803568653776624,-0.994350031358972,-0.2316249648002423,1.3405730735085477,-0.103668020959853,-1.7928772239393858,1.2531082882145852,3,2024-09-28 17:00:07.752822998,1727542807.752823,2024-09-28 17:00:07.752823040,2,0,-3.469400855154717,-62.06127656761364,[1. 0. 0. 0.],[0.09864444 0.85228143 0.04588547 0.00318865],"[ 0.03302884  0.7119696   0.07837034 -0.5576217  -0.32109502 -0.17962077
  0.          0.         -0.2         0.23302884 -8.098006  ]",1.55089900715222,0,0
67,75,2024-09-28 17:00:08.108357888,TASK_BEGIN,23,1.3665493581662127,0.273395375870949,-1.1322528089318085,-0.2055098424490634,1.364172387846901,-0.1031134220235265,-1.9585220100422116,1.2628590912551465,3,2024-09-28 17:00:07.752822998,1727542807.752823,2024-09-28 17:00:07.752823040,2,0,-3.469400855154717,-62.06127656761364,[1. 0. 0. 0.],[0.09864444 0.85228143 0.04588547 0.00318865],"[ 0.03302884  0.7119696   0.07837034 -0.5576217  -0.32109502 -0.17962077
  0.          0.         -0.2         0.23302884 -8.098006  ]",1.55089900715222,0,0
68,76,2024-09-28 17:00:08.168739072,TASK_BEGIN,23,1.4065021303026293,0.2673592776430284,-1.2664990431349832,-0.17719126850365,1.389821233008066,-0.1047662713680147,-2.067653540402016,1.257738144444576,3,2024-09-28 17:00:07.752822998,1727542807.752823,2024-09-28 17:00:07.752823040,2,0,-3.469400855154717,-62.06127656761364,[1. 0. 0. 0.],[0.09864444 0.85228143 0.04588547 0.00318865],"[ 0.03302884  0.7119696   0.07837034 -0.5576217  -0.32109502 -0.17962077
  0.          0.         -0.2         0.23302884 -8.098006  ]",1.55089900715222,0,0
69,77,2024-09-28 17:00:08.243847936,TASK_BEGIN,23,1.4456223096058702,0.2623568598705278,-1.3915142576071422,-0.1467894412990072,1.4160208181549074,-0.1088364936522464,-2.1182972125767985,1.2379888561986976,3,2024-09-28 17:00:07.752822998,1727542807.752823,2024-09-28 17:00:07.752823040,2,0,-3.469400855154717,-62.06127656761364,[1. 0. 0. 0.],[0.09864444 0.85228143 0.04588547 0.00318865],"[ 0.03302884  0.7119696   0.07837034 -0.5576217  -0.32109502 -0.17962077
  0.          0.         -0.2         0.23302884 -8.098006  ]",1.55089900715222,0,0
70,78,2024-09-28 17:00:09.187290112,TASK_BEGIN,23,1.4826108657670534,0.2584613152998335,-1.501932142285198,-0.1150252828247222,1.4415268304654545,-0.1154853199084826,-2.11032009764303,1.204544175005518,3,2024-09-28 17:00:09.242916016,1727542809.2429166,2024-09-28 17:00:09.242916608,2,2,-10.319021172361321,-14.619328576220695,[0. 0. 1. 0.],[0.24441681 0.08526003 0.39413914 0.27618402],"[ 0.02183096  0.3094151  -0.21601644  0.08373577  0.32168695  0.31261295
  0.          0.         -0.2         0.22183095 -4.87757   ]",1.5580093082233861,0,0
71,79,2024-09-28 17:00:09.254935040,TASK_BEGIN,23,1.5161915350885733,0.2557296634283276,-1.592886719139084,-0.0831162372218237,1.465417180255277,-0.12480629076023,-2.045356934161724,1.158928038056272,3,2024-09-28 17:00:09.329943848,1727542809.3299444,2024-09-28 17:00:09.329944320,2,2,-11.435166195457317,-43.601682633102186,[0. 0. 1. 0.],[0.28424227 0.04047593 0.03788607 0.63739574],"[ 0.01564312  0.3203107  -0.376834    0.29325274  0.36845434  0.3086403
  0.          0.         -0.2         0.21564312 -4.964735  ]",1.5611918090457668,0,0
72,80,2024-09-28 17:00:09.320998912,TASK_BEGIN,23,1.5451888143094614,0.2542027296612655,-1.6604548454155812,-0.0525488463493215,1.4870790849640978,-0.136796195568314,-1.9270055483630395,1.1031128831103516,3,2024-09-28 17:00:09.387802002,1727542809.3878024,2024-09-28 17:00:09.387802368,2,2,-15.485365706335276,-64.27769786370828,[0. 0. 1. 0.],[0.20548846 0.0163341  0.00633175 0.77184569],"[ 0.0098532   0.3328694  -0.48918086  0.44323993  0.40009528  0.31121644
  0.          0.         -0.2         0.2098532  -5.0652046 ]",1.5614438739621161,0,0
73,81,2024-09-28 17:00:09.390608128,TASK_BEGIN,23,1.5686771000379387,0.2538767793610041,-1.702023446084462,-0.0248691177061957,1.5061312994192124,-0.1513253354216482,-1.7610594699941988,1.039324854444091,3,2024-09-28 17:00:09.387802002,1727542809.3878024,2024-09-28 17:00:09.387802368,2,2,-15.485365706335276,-64.27769786370828,[0. 0. 1. 0.],[0.20548846 0.0163341  0.00633175 0.77184569],"[ 0.0098532   0.3328694  -0.48918086  0.44323993  0.40009528  0.31121644
  0.          0.         -0.2         0.2098532  -5.0652046 ]",1.5614438739621161,0,0
74,82,2024-09-28 17:00:09.458355968,TASK_BEGIN,23,1.586164753430557,0.2546606159464653,-1.7164252690307886,-0.0015552669597748,1.522335774674146,-0.168121278962594,-1.5555933370551076,0.9698537379871194,3,2024-09-28 17:00:09.387802002,1727542809.3878024,2024-09-28 17:00:09.387802368,2,2,-15.485365706335276,-64.27769786370828,[0. 0. 1. 0.],[0.20548846 0.0163341  0.00633175 0.77184569],"[ 0.0098532   0.3328694  -0.48918086  0.44323993  0.40009528  0.31121644
  0.          0.         -0.2         0.2098532  -5.0652046 ]",1.5614438739621161,0,0
75,83,2024-09-28 17:00:09.526103040,TASK_BEGIN,23,1.5977408600906644,0.2563406483550459,-1.703867998232875,0.0160459562301674,1.5355530689389576,-0.1867726246297394,-1.3208750711131818,0.8969721073313041,3,2024-09-28 17:00:09.387802002,1727542809.3878024,2024-09-28 17:00:09.387802368,2,2,-15.485365706335276,-64.27769786370828,[0. 0. 1. 0.],[0.20548846 0.0163341  0.00633175 0.77184569],"[ 0.0098532   0.3328694  -0.48918086  0.44323993  0.40009528  0.31121644
  0.          0.         -0.2         0.2098532  -5.0652046 ]",1.5614438739621161,0,0
76,84,2024-09-28 17:00:09.593816064,TASK_BEGIN,23,1.6041136659862116,0.2585703920264591,-1.6657569215055363,0.0267592618273191,1.5457505441996484,-0.2067514238492145,-1.0690649334000124,0.8229798962407733,3,2024-09-28 17:00:09.387802002,1727542809.3878024,2024-09-28 17:00:09.387802368,2,2,-15.485365706335276,-64.27769786370828,[0. 0. 1. 0.],[0.20548846 0.0163341  0.00633175 0.77184569],"[ 0.0098532   0.3328694  -0.48918086  0.44323993  0.40009528  0.31121644
  0.          0.         -0.2         0.2098532  -5.0652046 ]",1.5614438739621161,0,0
77,85,2024-09-28 17:00:10.538013952,TASK_BEGIN,23,1.6065153664419616,0.2608890145451114,-1.6044897003377532,0.0296433123787019,1.553032762883708,-0.2274504521840088,-0.8135554267999041,0.7502674815643675,3,2024-09-28 17:00:09.986125977,1727542809.9861262,2024-09-28 17:00:09.986126080,2,1,-3.2448419174646492,-66.68191953973718,[0. 1. 0. 0.],[6.86991890e-03 1.16731426e-05 1.02219353e-04 9.93016189e-01],"[-0.05567415  0.3891182  -0.51793844 -0.08809631  0.7216814   0.41250023
  0.          0.         -0.2         0.14432584 -5.515195  ]",1.5654351570266896,0,0
78,86,2024-09-28 17:00:10.605787136,TASK_BEGIN,23,1.6065073215759575,0.2627623340913854,-1.5232685948797364,0.0241047460247554,1.5576619876683506,-0.2482301149240534,-0.5678686095484419,0.6812906108377966,3,2024-09-28 17:00:09.986125977,1727542809.9861262,2024-09-28 17:00:09.986126080,2,1,-3.2448419174646492,-66.68191953973718,[0. 1. 0. 0.],[6.86991890e-03 1.16731426e-05 1.02219353e-04 9.93016189e-01],"[-0.05567415  0.3891182  -0.51793844 -0.08809631  0.7216814   0.41250023
  0.          0.         -0.2         0.14432584 -5.515195  ]",1.5654351570266896,0,0
79,87,2024-09-28 17:00:10.673544960,TASK_BEGIN,23,1.6057466629290014,0.2636358650875735,-1.4259344187838718,0.0100298252793806,1.5600570226883783,-0.2684677263870064,-0.3443081807833794,0.6184569687132482,3,2024-09-28 17:00:09.986125977,1727542809.9861262,2024-09-28 17:00:09.986126080,2,1,-3.2448419174646492,-66.68191953973718,[0. 1. 0. 0.],[6.86991890e-03 1.16731426e-05 1.02219353e-04 9.93016189e-01],"[-0.05567415  0.3891182  -0.51793844 -0.08809631  0.7216814   0.41250023
  0.          0.         -0.2         0.14432584 -5.515195  ]",1.5654351570266896,0,0
80,88,2024-09-28 17:00:10.741297152,TASK_BEGIN,23,1.6057611737612896,0.2629915879836689,-1.316824748119857,-0.0121237191382801,1.560767335729589,-0.2876020736446462,-0.1527807992725157,0.5639938364584909,3,2024-09-28 17:00:09.986125977,1727542809.9861262,2024-09-28 17:00:09.986126080,2,1,-3.2448419174646492,-66.68191953973718,[0. 1. 0. 0.],[6.86991890e-03 1.16731426e-05 1.02219353e-04 9.93016189e-01],"[-0.05567415  0.3891182  -0.51793844 -0.08809631  0.7216814   0.41250023
  0.          0.         -0.2         0.14432584 -5.515195  ]",1.5654351570266896,0,0
81,89,2024-09-28 17:00:10.802819072,TASK_BEGIN,23,1.607753169628838,0.2604023056986222,-1.200694270020489,-0.0412871884139724,1.5604141780750056,-0.3051672766851245,-9.913166351343615e-05,0.5198369561024698,3,2024-09-28 17:00:09.986125977,1727542809.9861262,2024-09-28 17:00:09.986126080,2,1,-3.2448419174646492,-66.68191953973718,[0. 1. 0. 0.],[6.86991890e-03 1.16731426e-05 1.02219353e-04 9.93016189e-01],"[-0.05567415  0.3891182  -0.51793844 -0.08809631  0.7216814   0.41250023
  0.          0.         -0.2         0.14432584 -5.515195  ]",1.5654351570266896,0,0
82,90,2024-09-28 17:00:10.876790016,TASK_BEGIN,23,1.6124453352190202,0.2555788122996646,-1.0826655473335962,-0.0758021798420863,1.5596003408892014,-0.3208099791288726,0.1101908917754926,0.4875414874881212,3,2024-09-28 17:00:09.986125977,1727542809.9861262,2024-09-28 17:00:09.986126080,2,1,-3.2448419174646492,-66.68191953973718,[0. 1. 0. 0.],[6.86991890e-03 1.16731426e-05 1.02219353e-04 9.93016189e-01],"[-0.05567415  0.3891182  -0.51793844 -0.08809631  0.7216814   0.41250023
  0.          0.         -0.2         0.14432584 -5.515195  ]",1.5654351570266896,0,0
83,91,2024-09-28 17:00:10.944572928,TASK_BEGIN,23,1.6199927815194677,0.2484044316445722,-0.9680493282474598,-0.113547081610974,1.5588203390927768,-0.3342887109084144,0.1775908861060924,0.4682311059941169,3,2024-09-28 17:00:10.569125977,1727542810.569126,2024-09-28 17:00:10.569125888,2,0,-2.6921977189845165,-92.84633698226199,[1. 0. 0. 0.],[1.50148647e-02 4.47411322e-05 6.16083922e-04 9.84324310e-01],"[-0.12031857  0.28972924 -0.45603016 -0.5540463   0.97847027  0.17059568
  0.          0.         -0.2         0.07968143 -4.720083  ]",1.564635296402289,0,0
84,92,2024-09-28 17:00:11.862301952,TASK_BEGIN,23,1.629983539544201,0.2389494785898908,-0.8619425812000907,-0.1521738553714138,1.5584169400578958,-0.3454632099711523,0.2042103221751621,0.462611057864505,3,2024-09-28 17:00:11.800875977,1727542811.8008769,2024-09-28 17:00:11.800876800,2,3,3.465348966434325,-82.24157640210792,[0. 0. 0. 1.],[1.22982826e-02 3.28117166e-04 9.76090731e-01 1.12828697e-02],"[-0.49802196 -0.12485594 -1.1912427  -0.9898948   0.4393289  -0.9397848
  0.          0.         -0.2        -0.29802197 -1.4034016 ]",1.5122443051710823,0,0
85,93,2024-09-28 17:00:11.930718976,TASK_BEGIN,23,1.6415224021053352,0.2274615449426022,-0.7687381608653352,-0.189379254699843,1.558601485346757,-0.3542818482958617,0.1942143682060873,0.4710353854919211,3,2024-09-28 17:00:11.800875977,1727542811.8008769,2024-09-28 17:00:11.800876800,2,3,3.465348966434325,-82.24157640210792,[0. 0. 0. 1.],[1.22982826e-02 3.28117166e-04 9.76090731e-01 1.12828697e-02],"[-0.49802196 -0.12485594 -1.1912427  -0.9898948   0.4393289  -0.9397848
  0.          0.         -0.2        -0.29802197 -1.4034016 ]",1.5122443051710823,0,0
86,94,2024-09-28 17:00:11.997850880,TASK_BEGIN,23,1.6533717003883408,0.2143358964114035,-0.6917382774201738,-0.2231284180600881,1.5595092601230711,-0.3607669038681272,0.1531658193307148,0.4935825865758872,3,2024-09-28 17:00:11.800875977,1727542811.8008769,2024-09-28 17:00:11.800876800,2,3,3.465348966434325,-82.24157640210792,[0. 0. 0. 1.],[1.22982826e-02 3.28117166e-04 9.76090731e-01 1.12828697e-02],"[-0.49802196 -0.12485594 -1.1912427  -0.9898948   0.4393289  -0.9397848
  0.          0.         -0.2        -0.29802197 -1.4034016 ]",1.5122443051710823,0,0
87,95,2024-09-28 17:00:12.066226944,TASK_BEGIN,23,1.66412126373547,0.2000753267127545,-0.6329355558073556,-0.2517992071432386,1.5612410154947234,-0.3649941059076311,0.0872790180473264,0.5300840006139863,3,2024-09-28 17:00:11.800875977,1727542811.8008769,2024-09-28 17:00:11.800876800,2,3,3.465348966434325,-82.24157640210792,[0. 0. 0. 1.],[1.22982826e-02 3.28117166e-04 9.76090731e-01 1.12828697e-02],"[-0.49802196 -0.12485594 -1.1912427  -0.9898948   0.4393289  -0.9397848
  0.          0.         -0.2        -0.29802197 -1.4034016 ]",1.5122443051710823,0,0
88,96,2024-09-28 17:00:12.133395968,TASK_BEGIN,23,1.6723615291521163,0.1852492023474116,-0.5929829673524389,-0.2742332259877724,1.563860517578341,-0.3670677145100126,0.0027287974108328,0.5800618053693458,3,2024-09-28 17:00:12.190983154,1727542812.1909835,2024-09-28 17:00:12.190983424,2,3,0.9742514609315316,75.70616395017673,[0. 0. 0. 1.],[0.04650365 0.02470638 0.91455306 0.01423691],"[-0.5012612  -0.14347577  0.10209746 -0.21322453  0.0783895  -0.7665595
  0.          0.         -0.2        -0.30126116 -1.2544429 ]",1.520887043744659,0,0
89,97,2024-09-28 17:00:12.201680896,TASK_BEGIN,23,1.6768295176128512,0.1704604376759375,-0.5714290218761825,-0.2896623401677835,1.5673584181929765,-0.3670977787755223,-0.0948315937027878,0.6425892232210377,3,2024-09-28 17:00:12.278399902,1727542812.2784004,2024-09-28 17:00:12.278400512,2,3,-7.141451584766168,68.08333805189199,[0. 0. 0. 1.],[5.62434369e-03 8.09241498e-03 9.86035239e-01 2.48002228e-04],"[-0.49981737 -0.15588492  0.1435163  -0.28939378 -0.04611924 -0.8613947
  0.          0.         -0.2        -0.29981738 -1.1551697 ]",1.5485219274971458,0,0
90,98,2024-09-28 17:00:12.269405952,TASK_BEGIN,23,1.6764941402546614,0.1563263681712652,-0.5672126714946201,-0.2975108776479376,1.5716237055879547,-0.3651892885603695,-0.2005100057050638,0.7161586200030278,3,2024-09-28 17:00:12.340058105,1727542812.3400588,2024-09-28 17:00:12.340058880,2,3,-7.926628962083649,51.42013437740295,[0. 0. 0. 1.],[1.24976240e-03 4.50077330e-03 9.94238574e-01 1.08900534e-05],"[-0.49843106 -0.16609442  0.17504796 -0.34450418 -0.1375008  -0.9343627
  0.          0.         -0.2        -0.29843104 -1.0734937 ]",1.5589487637494894,0,0
91,99,2024-09-28 17:00:13.213284864,TASK_BEGIN,23,1.6705680702364956,0.1434723813189856,-0.5792280317888123,-0.2971620269177558,1.5764625074905076,-0.3614527750725881,-0.3101622796158413,0.7986448312043799,3,2024-09-28 17:00:12.455570068,1727542812.4555705,2024-09-28 17:00:12.455570432,2,3,-8.580277840833114,16.99591274052635,[0. 0. 0. 1.],[3.40719711e-04 4.06551938e-03 9.95593234e-01 5.27170945e-07],"[-0.49462333 -0.191383    0.23134452 -0.45981652 -0.3406991  -1.0705224
  0.          0.         -0.2        -0.29462335 -0.87118506]",1.5650665547859912,0,0
92,100,2024-09-28 17:00:13.280391936,TASK_BEGIN,23,1.6584846144867915,0.1325237728322433,-0.6067486612859244,-0.2878076741160127,1.581675151929159,-0.3560379567504653,-0.4200905224243591,0.887367951908125,3,2024-09-28 17:00:12.455570068,1727542812.4555705,2024-09-28 17:00:12.455570432,2,3,-8.580277840833114,16.99591274052635,[0. 0. 0. 1.],[3.40719711e-04 4.06551938e-03 9.95593234e-01 5.27170945e-07],"[-0.49462333 -0.191383    0.23134452 -0.45981652 -0.3406991  -1.0705224
  0.          0.         -0.2        -0.29462335 -0.87118506]",1.5650665547859912,0,0
93,101,2024-09-28 17:00:13.346605056,TASK_BEGIN,23,1.6399052551988411,0.1240722051754783,-0.6496463227471138,-0.2684332850476727,1.5871630445835347,-0.3491776956013474,-0.5265245231116465,0.97918810758216,3,2024-09-28 17:00:12.455570068,1727542812.4555705,2024-09-28 17:00:12.455570432,2,3,-8.580277840833114,16.99591274052635,[0. 0. 0. 1.],[3.40719711e-04 4.06551938e-03 9.95593234e-01 5.27170945e-07],"[-0.49462333 -0.191383    0.23134452 -0.45981652 -0.3406991  -1.0705224
  0.          0.         -0.2        -0.29462335 -0.87118506]",1.5650665547859912,0,0
94,102,2024-09-28 17:00:13.416532992,TASK_BEGIN,23,1.614779495983895,0.1186086951497709,-0.7084071741782676,-0.2379290836545552,1.5930050654403085,-0.3412190116711437,-0.6251143979169731,1.0705838437444548,3,2024-09-28 17:00:12.513572021,1727542812.5135725,2024-09-28 17:00:12.513572352,2,3,-8.878732893862756,-0.8941321613104183,[0. 0. 0. 1.],[2.79076660e-03 7.29201128e-02 9.24286501e-01 2.61963671e-06],"[-0.49217775 -0.2065149   0.25805354 -0.52009284 -0.45305562 -1.1400703
  0.          0.         -0.2        -0.29217777 -0.75012994]",1.5647213428481064,0,0
95,103,2024-09-28 17:00:13.484318976,TASK_BEGIN,23,1.5834097008556924,0.1164484750970641,-0.7838958210434567,-0.1953138299368094,1.5994471861425874,-0.332620059976717,-0.7107058819711519,1.1577445273289368,3,2024-09-28 17:00:12.573572998,1727542812.573573,2024-09-28 17:00:12.573573120,2,3,2.7696196129753528,2.6976122770155677,[0. 0. 0. 1.],[3.52957703e-02 8.68839549e-02 8.77818267e-01 2.00743986e-06],"[-0.4890025  -0.22183275  0.30140162 -0.47219303 -0.5400567  -0.5571248
  1.          0.         -0.2        -0.2890025  -0.6275871 ]",1.5360453063533503,0,0
96,104,2024-09-28 17:00:13.547419904,TASK_BEGIN,23,1.5464557370046843,0.1176872720954997,-0.8768451715889356,-0.1400410403344379,1.6067992070004895,-0.3239091022498355,-0.7775504952523807,1.2367363897048904,3,2024-09-28 17:00:12.951614990,1727542812.9516156,2024-09-28 17:00:12.951615488,2,0,1.4679654071596815,12.492746983693376,[1. 0. 0. 0.],[0.23905012 0.06690042 0.0228184  0.67123106],"[-0.43983305 -0.25428665  0.58515203 -0.00586551 -0.4370041   0.2437003
  0.          1.         -0.2        -0.23983304 -0.36795595]",1.5279275230349536,0,0
97,105,2024-09-28 17:00:13.619823104,TASK_BEGIN,23,1.504855968684681,0.1222071262824184,-0.9871901595068272,-0.0723229664082034,1.6152875804930324,-0.31562290372644,-0.8198640586711737,1.3037337935287985,3,2024-09-28 17:00:12.951614990,1727542812.9516156,2024-09-28 17:00:12.951615488,2,0,1.4679654071596815,12.492746983693376,[1. 0. 0. 0.],[0.23905012 0.06690042 0.0228184  0.67123106],"[-0.43983305 -0.25428665  0.58515203 -0.00586551 -0.4370041   0.2437003
  0.          1.         -0.2        -0.23983304 -0.36795595]",1.5279275230349536,0,0
98,106,2024-09-28 17:00:14.563309824,TASK_BEGIN,23,1.45969715466309,0.1297171337542566,-1.113429640623269,0.0065995036024748,1.6249252658427873,-0.3082479825545048,-0.8324551843085752,1.3552398938971482,3,2024-09-28 17:00:14.055655029,1727542814.0556552,2024-09-28 17:00:14.055655168,2,0,-9.282566559094889,41.48239235031679,[1. 0. 0. 0.],[0.20531974 0.68543314 0.02766812 0.08157901],"[-0.27900448 -0.29666495  0.577455   -0.02966743 -0.00068762  0.07210873
  0.          0.         -0.2        -0.0790045  -0.0289295 ]",1.523327298023684,0,0
99,107,2024-09-28 17:00:14.620528128,TASK_BEGIN,23,1.4120914014375971,0.1398011321240588,-1.2521735500357387,0.0943126126660473,1.6354339062170236,-0.3021765899895336,-0.8111713921893546,1.3882517698385413,3,2024-09-28 17:00:14.702661133,1727542814.7026613,2024-09-28 17:00:14.702661376,2,0,0.5470720793232999,53.83386537079263,[1. 0. 0. 0.],[0.35029904 0.51484879 0.09006313 0.04478904],"[-2.0096914e-01 -2.9666299e-01  4.5373359e-01 -2.0274560e-09
 -6.6718896e-04 -1.0551859e-09  0.0000000e+00  1.0000000e+00
 -2.0000000e-01 -9.6913974e-04 -2.8945234e-02]",1.5233526308145493,0,0
100,108,2024-09-28 17:00:14.698844928,TASK_BEGIN,23,1.3630968238134455,0.1519569021216009,-1.3980010377365644,0.1872759545837425,1.646228899086718,-0.2976784595452644,-0.7531235799978447,1.4003987077892683,3,2024-09-28 17:00:14.761678955,1727542814.7616796,2024-09-28 17:00:14.761679616,2,0,0.5374033671334502,53.836704910323135,[1. 0. 0. 0.],[0.35249621 0.51110165 0.08996461 0.04643754],"[-1.9478042e-01 -2.9666299e-01  4.4287241e-01 -3.2591458e-09
 -6.6707603e-04 -7.9882823e-10  0.0000000e+00  1.0000000e+00
 -2.0000000e-01  5.2195708e-03 -2.8945234e-02]",1.5236637668056867,0,0
101,109,2024-09-28 17:00:14.766590208,TASK_BEGIN,23,1.3136772749417192,0.1656307593278493,-1.543667236851765,0.281064300742737,1.656473864739611,-0.29488834652649,-0.6568537503040232,1.390112328216944,3,2024-09-28 17:00:14.822020996,1727542814.822021,2024-09-28 17:00:14.822021120,2,0,0.5284399135498035,53.82130154689409,[1. 0. 0. 0.],[0.35480221 0.50735514 0.08966357 0.04817909],"[-1.8874256e-01 -2.9666299e-01  4.3201125e-01 -3.4899932e-09
 -6.6700397e-04 -1.4780362e-09  0.0000000e+00  1.0000000e+00
 -2.0000000e-01  1.1257442e-02 -2.8945234e-02]",1.5239259896434518,0,0
102,110,2024-09-28 17:00:14.834348800,TASK_BEGIN,23,1.2646840146386535,0.1802550263750082,-1.6805661443360485,0.3707367797502933,1.6652097526474685,-0.2938109884418119,-0.5226264354752667,1.3568695026237951,3,2024-09-28 17:00:14.911358154,1727542814.9113588,2024-09-28 17:00:14.911358720,2,0,0.5163434286719735,53.76789042502928,[1. 0. 0. 0.],[0.35947061 0.50282099 0.08654851 0.05115989],"[-1.7996860e-01 -2.9666299e-01  4.1571957e-01 -2.9377498e-09
 -6.6693849e-04 -9.6147557e-10  0.0000000e+00  1.0000000e+00
 -2.0000000e-01  2.0031404e-02 -2.8945234e-02]",1.5243236485289025,0,0
103,111,2024-09-28 17:00:14.902121216,TASK_BEGIN,23,1.2168576586162585,0.195286184860722,-1.7993396486119575,0.4512555531545699,1.6715395481511623,-0.2943422158324192,-0.3528269326435634,1.3014726026856325,3,2024-09-28 17:00:14.970586914,1727542814.9705873,2024-09-28 17:00:14.970587136,2,0,0.5091676518507597,53.714615291535665,[1. 0. 0. 0.],[0.36269635 0.49948669 0.08453584 0.05328112],"[-1.7430782e-01 -2.9666299e-01  4.0485844e-01 -2.4889442e-09
 -6.6691521e-04 -1.0755841e-09  0.0000000e+00  1.0000000e+00
 -2.0000000e-01  2.5692176e-02 -2.8945234e-02]",1.5249272121816335,0,0
104,112,2024-09-28 17:00:14.969865984,TASK_BEGIN,23,1.1708499666427306,0.2102366561939471,-1.8905963558174776,0.5178962814889589,1.6748108668062724,-0.2962968960970554,-0.1522502451704337,1.2262167977384502,3,2024-09-28 17:00:15.028587158,1727542815.0285873,2024-09-28 17:00:15.028587264,2,0,0.5026946845702298,53.6491744751913,[1. 0. 0. 0.],[0.36599719 0.49550691 0.08312971 0.05536619],"[-1.6879790e-01 -2.9666299e-01  3.9399725e-01 -4.5752202e-09
 -6.6688831e-04 -1.1610067e-09  0.0000000e+00  1.0000000e+00
 -2.0000000e-01  3.1202110e-02 -2.8945234e-02]",1.5254073235251238,0,0
105,113,2024-09-28 17:00:15.913645056,TASK_BEGIN,23,1.1272540439709455,0.2246958722034496,-1.945698653108801,0.5665927101518304,1.6747211705374123,-0.2994273435991684,0.0719091338483432,1.1347807740565343,3,2024-09-28 17:00:15.145587891,1727542815.1455884,2024-09-28 17:00:15.145588480,2,0,0.49178095978440695,53.48816299142397,[1. 0. 0. 0.],[0.37219338 0.48737994 0.08072739 0.05969929],"[-1.5823071e-01 -2.9666299e-01  3.7227491e-01 -3.8796086e-09
 -6.6686660e-04  1.0007115e-10  0.0000000e+00  1.0000000e+00
 -2.0000000e-01  4.1769300e-02 -2.8945234e-02]",1.5258957300304052,0,0
106,114,2024-09-28 17:00:15.978691840,TASK_BEGIN,23,1.086632551178525,0.2383401164802997,-1.9575089702978812,0.5941844724978536,1.6713035056244898,-0.3034206524935262,0.3103699088588317,1.0318367035986955,3,2024-09-28 17:00:15.145587891,1727542815.1455884,2024-09-28 17:00:15.145588480,2,0,0.49178095978440695,53.48816299142397,[1. 0. 0. 0.],[0.37219338 0.48737994 0.08072739 0.05969929],"[-1.5823071e-01 -2.9666299e-01  3.7227491e-01 -3.8796086e-09
 -6.6686660e-04  1.0007115e-10  0.0000000e+00  1.0000000e+00
 -2.0000000e-01  4.1769300e-02 -2.8945234e-02]",1.5258957300304052,0,0
107,115,2024-09-28 17:00:16.049220864,TASK_BEGIN,23,1.0495310229409656,0.2509367526422598,-1.920982811499209,0.5985808897128543,1.66482608123563,-0.3078829324768432,0.5522669269742398,0.922555139390942,3,2024-09-28 17:00:15.145587891,1727542815.1455884,2024-09-28 17:00:15.145588480,2,0,0.49178095978440695,53.48816299142397,[1. 0. 0. 0.],[0.37219338 0.48737994 0.08072739 0.05969929],"[-1.5823071e-01 -2.9666299e-01  3.7227491e-01 -3.8796086e-09
 -6.6686660e-04  1.0007115e-10  0.0000000e+00  1.0000000e+00
 -2.0000000e-01  4.1769300e-02 -2.8945234e-02]",1.5258957300304052,0,0
108,116,2024-09-28 17:00:16.110318848,TASK_BEGIN,23,1.016458742628464,0.2623515774348215,-1.8335687482736287,0.5788478509647982,1.6556875200610237,-0.3123342366491955,0.7857757025290497,0.8121925031606655,3,2024-09-28 17:00:16.169409912,1727542816.16941,2024-09-28 17:00:16.169410048,2,1,-0.6249597298583451,59.57179017011737,[0. 1. 0. 0.],[0.38166104 0.36304056 0.06668654 0.18861186],"[-1.2834899e-01 -2.9666293e-01 -7.6667748e-02  9.3476098e-09
 -6.6692405e-04 -5.0614162e-09  0.0000000e+00  1.0000000e+00
 -2.0000000e-01  7.1651012e-02 -2.8945711e-02]",1.5277494488961598,0,0
109,117,2024-09-28 17:00:16.184673024,TASK_BEGIN,23,0.987843370041341,0.2725587095537418,-1.695442319071898,0.5352097680648474,1.644351604131489,-0.3162281273674334,0.9988352050208916,0.7058141413241709,3,2024-09-28 17:00:16.228955078,1727542816.2289557,2024-09-28 17:00:16.228955648,2,1,-0.5458521368726343,57.01158934234639,[0. 1. 0. 0.],[0.37956139 0.34970835 0.06989433 0.20083593],"[-1.2957017e-01 -2.9666293e-01 -9.0707436e-02 -9.5448591e-09
 -6.6692434e-04  8.7445224e-09  0.0000000e+00  1.0000000e+00
 -2.0000000e-01  7.0429832e-02 -2.8945711e-02]",1.530231077619122,0,0
110,118,2024-09-28 17:00:16.252428032,TASK_BEGIN,23,0.9639921229825404,0.2816416922423664,-1.5095374461483198,0.4689670580611338,1.6312960273770365,-0.3189867645747078,1.1798712178284847,0.6081047650488315,3,2024-09-28 17:00:16.228955078,1727542816.2289557,2024-09-28 17:00:16.228955648,2,1,-0.5458521368726343,57.01158934234639,[0. 1. 0. 0.],[0.37956139 0.34970835 0.06989433 0.20083593],"[-1.2957017e-01 -2.9666293e-01 -9.0707436e-02 -9.5448591e-09
 -6.6692434e-04  8.7445224e-09  0.0000000e+00  1.0000000e+00
 -2.0000000e-01  7.0429832e-02 -2.8945711e-02]",1.530231077619122,0,0
111,119,2024-09-28 17:00:16.319605248,TASK_BEGIN,23,0.9450772651724156,0.2897776230180743,-1.281222577241217,0.3823273308613782,1.616946747239106,-0.3200373553246962,1.318425165863323,0.523217074647935,3,2024-09-28 17:00:16.228955078,1727542816.2289557,2024-09-28 17:00:16.228955648,2,1,-0.5458521368726343,57.01158934234639,[0. 1. 0. 0.],[0.37956139 0.34970835 0.06989433 0.20083593],"[-1.2957017e-01 -2.9666293e-01 -9.0707436e-02 -9.5448591e-09
 -6.6692434e-04  8.7445224e-09  0.0000000e+00  1.0000000e+00
 -2.0000000e-01  7.0429832e-02 -2.8945711e-02]",1.530231077619122,0,0
112,120,2024-09-28 17:00:17.255259136,TASK_BEGIN,23,0.9311361998214108,0.2972054785046224,-1.017595447353958,0.2781610572149915,1.6016170388960012,-0.3188478006060963,1.405730794308284,0.4546329854089816,3,2024-09-28 17:00:16.753588867,1727542816.7535899,2024-09-28 17:00:16.753589760,2,0,-0.00660320514579027,55.99099091233987,[1. 0. 0. 0.],[0.3866339  0.41269846 0.0581636  0.14250404],"[-1.34518787e-01 -2.96662927e-01  1.09977664e-04  3.79095809e-07
 -6.68609282e-04 -2.17889010e-05  0.00000000e+00  1.00000000e+00
 -2.00000003e-01  6.54812157e-02 -2.89457105e-02]",1.3979015647169266,0,0
113,121,2024-09-28 17:00:17.330541056,TASK_BEGIN,23,0.9220813970059268,0.3041841897352894,-0.7266829596527704,0.1597403883752781,1.5854856601205052,-0.3149657002574967,1.4352518687389386,0.4050510768600705,3,2024-09-28 17:00:16.753588867,1727542816.7535899,2024-09-28 17:00:16.753589760,2,0,-0.00660320514579027,55.99099091233987,[1. 0. 0. 0.],[0.3866339  0.41269846 0.0581636  0.14250404],"[-1.34518787e-01 -2.96662927e-01  1.09977664e-04  3.79095809e-07
 -6.68609282e-04 -2.17889010e-05  0.00000000e+00  1.00000000e+00
 -2.00000003e-01  6.54812157e-02 -2.89457105e-02]",1.3979015647169266,0,0
114,122,2024-09-28 17:00:17.398235136,TASK_BEGIN,23,0.9177345331254536,0.3109468039959011,-0.4169112532485244,0.0305501938213502,1.5686185254085734,-0.3080604327232674,1.4030521166677952,0.3763578554604485,3,2024-09-28 17:00:16.753588867,1727542816.7535899,2024-09-28 17:00:16.753589760,2,0,-0.00660320514579027,55.99099091233987,[1. 0. 0. 0.],[0.3866339  0.41269846 0.0581636  0.14250404],"[-1.34518787e-01 -2.96662927e-01  1.09977664e-04  3.79095809e-07
 -6.68609282e-04 -2.17889010e-05  0.00000000e+00  1.00000000e+00
 -2.00000003e-01  6.54812157e-02 -2.89457105e-02]",1.3979015647169266,0,0
115,123,2024-09-28 17:00:17.466376960,TASK_BEGIN,23,0.9178946314866112,0.3176553828615657,-0.0969438309312794,-0.1057733170732642,1.5510108962311706,-0.2979616537201178,1.307967804272298,0.3696895415748331,3,2024-09-28 17:00:16.753588867,1727542816.7535899,2024-09-28 17:00:16.753589760,2,0,-0.00660320514579027,55.99099091233987,[1. 0. 0. 0.],[0.3866339  0.41269846 0.0581636  0.14250404],"[-1.34518787e-01 -2.96662927e-01  1.09977664e-04  3.79095809e-07
 -6.68609282e-04 -2.17889010e-05  0.00000000e+00  1.00000000e+00
 -2.00000003e-01  6.54812157e-02 -2.89457105e-02]",1.3979015647169266,0,0
116,124,2024-09-28 17:00:17.534116864,TASK_BEGIN,23,0.9224206157234882,0.3243591802796595,0.2243061671582846,-0.2454147934000889,1.53263070954224,-0.2846861879240275,1.1517333450807283,0.3854893806458704,3,2024-09-28 17:00:16.753588867,1727542816.7535899,2024-09-28 17:00:16.753589760,2,0,-0.00660320514579027,55.99099091233987,[1. 0. 0. 0.],[0.3866339  0.41269846 0.0581636  0.14250404],"[-1.34518787e-01 -2.96662927e-01  1.09977664e-04  3.79095809e-07
 -6.68609282e-04 -2.17889010e-05  0.00000000e+00  1.00000000e+00
 -2.00000003e-01  6.54812157e-02 -2.89457105e-02]",1.3979015647169266,0,0
117,125,2024-09-28 17:00:17.601872896,TASK_BEGIN,23,0.931285102105409,0.3309631091706043,0.5377183420544913,-0.3843758443217041,1.5134576799210098,-0.2684495587723089,0.9391445235236608,0.4234666204133731,3,2024-09-28 17:00:16.753588867,1727542816.7535899,2024-09-28 17:00:16.753589760,2,0,-0.00660320514579027,55.99099091233987,[1. 0. 0. 0.],[0.3866339  0.41269846 0.0581636  0.14250404],"[-1.34518787e-01 -2.96662927e-01  1.09977664e-04  3.79095809e-07
 -6.68609282e-04 -2.17889010e-05  0.00000000e+00  1.00000000e+00
 -2.00000003e-01  6.54812157e-02 -2.89457105e-02]",1.3979015647169266,0,0
118,126,2024-09-28 17:00:17.669601792,TASK_BEGIN,23,0.9445650269893572,0.3372202891511288,0.8341402720157416,-0.5185711204662545,1.4935219463049123,-0.2496635254638787,0.6782095313732702,0.4824502525793244,3,2024-09-28 17:00:16.753588867,1727542816.7535899,2024-09-28 17:00:16.753589760,2,0,-0.00660320514579027,55.99099091233987,[1. 0. 0. 0.],[0.3866339  0.41269846 0.0581636  0.14250404],"[-1.34518787e-01 -2.96662927e-01  1.09977664e-04  3.79095809e-07
 -6.68609282e-04 -2.17889010e-05  0.00000000e+00  1.00000000e+00
 -2.00000003e-01  6.54812157e-02 -2.89457105e-02]",1.3979015647169266,0,0
119,133,2024-09-28 17:00:18.993104128,TASK_BEGIN,23,1.1479967343667978,0.3393717604032348,1.782789970473289,-1.0362870439839609,1.3765268133511714,-0.1122133708383505,-1.329694741156364,1.1870074005481437,3,2024-09-28 17:00:19.066847168,1727542819.0668473,2024-09-28 17:00:19.066847232,3,0,-2.5064640595385796,-4.485995445997905,[1. 0. 0. 0.],[0.38168386 0.26042582 0.12067944 0.23721088],"[ 1.5246868e-03  9.9582946e-01  7.5206280e-02 -1.7679617e-01
 -4.3111132e-03 -2.8572917e-02  0.0000000e+00  0.0000000e+00
 -2.0000000e-01  2.0152469e-01 -1.0749804e+01]",1.5000055176026745,0,0
120,134,2024-09-28 17:00:19.930547200,TASK_BEGIN,23,1.1841357386449678,0.3312284566524313,1.6986664786811356,-1.0262090960021455,1.3753707212316468,-0.1021224576464651,-1.4792280447887565,1.2739663020430505,3,2024-09-28 17:00:19.685946045,1727542819.6859467,2024-09-28 17:00:19.685946624,3,0,-3.0278007222342325,-55.08605368267591,[1. 0. 0. 0.],[0.21481986 0.16454357 0.52620408 0.09443249],"[ 0.0122033   0.8453572   0.07475141 -0.716736   -0.03521181 -0.04846836
  0.          0.         -0.2         0.2122033  -9.546025  ]",1.519274129150166,0,0
121,135,2024-09-28 17:00:20.004449024,TASK_BEGIN,23,1.2185319711416187,0.3213388270945982,1.559875079929932,-0.9958191448541288,1.3810191442647264,-0.0961788245428643,-1.5746024625767936,1.3454080064442928,3,2024-09-28 17:00:20.072799805,1727542820.072801,2024-09-28 17:00:20.072801024,3,0,-2.630040589637744,-38.47662394568201,[1. 0. 0. 0.],[0.32644973 0.36089232 0.2358084  0.07684955],"[ 0.02151537  0.7356806   0.13967775 -0.54632425 -0.05201518 -0.01644368
  0.          0.         -0.2         0.22151537 -8.6686125 ]",1.521777542308619,0,0
122,136,2024-09-28 17:00:20.072037888,TASK_BEGIN,23,1.250025842399508,0.3101322394949928,1.374066454233073,-0.9480069437339446,1.393800675681757,-0.0944724466652089,-1.618923787201111,1.39900379092449,3,2024-09-28 17:00:20.130801025,1727542820.1308017,2024-09-28 17:00:20.130801664,3,0,-2.643738364567639,-42.96563327297889,[1. 0. 0. 0.],[0.28419551 0.31937605 0.31800716 0.07842128],"[ 0.02343869  0.7174094   0.1396777  -0.5975247  -0.05365957 -0.01644371
  0.          0.         -0.2         0.2234387  -8.522443  ]",1.523783150044067,0,0
123,137,2024-09-28 17:00:20.139998976,TASK_BEGIN,23,1.2776614972571647,0.2981162163494142,1.1517623167347482,-0.886420121093309,1.413676808997079,-0.0968851140545604,-1.6182539274621444,1.43327601613759,3,2024-09-28 17:00:20.217802002,1727542820.2178023,2024-09-28 17:00:20.217802240,3,0,-2.6589837767512563,-49.57311945870232,[1. 0. 0. 0.],[0.22211216 0.26046513 0.44558142 0.07184129],"[ 0.02632364  0.6870024   0.13967761 -0.6743254  -0.0561261  -0.01644373
  0.          0.         -0.2         0.22632363 -8.279187  ]",1.5258881446538148,0,0
124,138,2024-09-28 17:00:20.207320064,TASK_BEGIN,23,1.3007542628779891,0.2858540611652961,0.905469570188606,-0.815145430422787,1.4402286463152685,-0.1030955038347846,-1.5805822259792663,1.447636343416564,3,2024-09-28 17:00:20.275835938,1727542820.2758367,2024-09-28 17:00:20.275836672,3,0,-2.6667075021983493,-53.889730279146974,[1. 0. 0. 0.],[0.17606266 0.22166084 0.5421581  0.0601184 ],"[ 0.02824696  0.66473114  0.13967757 -0.7255259  -0.05777047 -0.01644375
  0.          0.         -0.2         0.22824696 -8.101017  ]",1.5270952422100743,0,0
125,139,2024-09-28 17:00:20.275531008,TASK_BEGIN,23,1.3189477457436325,0.2739347250921686,0.6486495148585062,-0.7384622337689792,1.47264918857657,-0.1125893923640402,-1.5148824730551178,1.4424377778071855,3,2024-09-28 17:00:20.275835938,1727542820.2758367,2024-09-28 17:00:20.275836672,3,0,-2.6667075021983493,-53.889730279146974,[1. 0. 0. 0.],[0.17606266 0.22166084 0.5421581  0.0601184 ],"[ 0.02824696  0.66473114  0.13967757 -0.7255259  -0.05777047 -0.01644375
  0.          0.         -0.2         0.22824696 -8.101017  ]",1.5270952422100743,0,0
126,140,2024-09-28 17:00:20.332622080,TASK_BEGIN,23,1.3322532224274604,0.2629317915263523,0.3944950371469152,-0.6606535006737339,1.5097391681235544,-0.1246786502406993,-1.430409990135375,1.418986848139922,3,2024-09-28 17:00:20.275835938,1727542820.2758367,2024-09-28 17:00:20.275836672,3,0,-2.6667075021983493,-53.889730279146974,[1. 0. 0. 0.],[0.17606266 0.22166084 0.5421581  0.0601184 ],"[ 0.02824696  0.66473114  0.13967757 -0.7255259  -0.05777047 -0.01644375
  0.          0.         -0.2         0.22824696 -8.101017  ]",1.5270952422100743,0,0
127,141,2024-09-28 17:00:21.282279168,TASK_BEGIN,23,1.3410437747054624,0.2533586116732417,0.1546117811293057,-0.585813295576419,1.5499213576634088,-0.138530198408405,-1.3363009407489916,1.3794639643122648,3,2024-09-28 17:00:21.156822021,1727542821.1568224,2024-09-28 17:00:21.156822528,3,2,-5.77705694535648,-63.42836681658934,[0. 0. 1. 0.],[0.24266259 0.68795096 0.02051945 0.048867  ],"[ 0.09413568  0.69823146  0.49423698  0.6502683  -0.04217007  0.04884287
  0.          0.         -0.2         0.2941357  -8.3690195 ]",1.5506729620548811,0,0
128,142,2024-09-28 17:00:21.355256064,TASK_BEGIN,23,1.345975998153464,0.2456320107304371,-0.0619805480741781,-0.5176460701796021,1.5913014223328728,-0.1532084642034055,-1.241398010192143,1.3267601111521674,3,2024-09-28 17:00:21.156822021,1727542821.1568224,2024-09-28 17:00:21.156822528,3,2,-5.77705694535648,-63.42836681658934,[0. 0. 1. 0.],[0.24266259 0.68795096 0.02051945 0.048867  ],"[ 0.09413568  0.69823146  0.49423698  0.6502683  -0.04217007  0.04884287
  0.          0.         -0.2         0.2941357  -8.3690195 ]",1.5506729620548811,0,0
129,143,2024-09-28 17:00:21.421976064,TASK_BEGIN,23,1.3478515863596394,0.2400508293217701,-0.2491932322963125,-0.4592857576105181,1.6317815488169518,-0.1677302887185326,-1.1540426898561325,1.2642815676499282,3,2024-09-28 17:00:21.156822021,1727542821.1568224,2024-09-28 17:00:21.156822528,3,2,-5.77705694535648,-63.42836681658934,[0. 0. 1. 0.],[0.24266259 0.68795096 0.02051945 0.048867  ],"[ 0.09413568  0.69823146  0.49423698  0.6502683  -0.04217007  0.04884287
  0.          0.         -0.2         0.2941357  -8.3690195 ]",1.5506729620548811,0,0
130,144,2024-09-28 17:00:21.490770944,TASK_BEGIN,23,1.3474629247774712,0.2367873965226206,-0.4036286197533995,-0.4131284083369466,1.6691977225523138,-0.1811224345632049,-1.081574562854789,1.195740699062116,3,2024-09-28 17:00:21.156822021,1727542821.1568224,2024-09-28 17:00:21.156822528,3,2,-5.77705694535648,-63.42836681658934,[0. 0. 1. 0.],[0.24266259 0.68795096 0.02051945 0.048867  ],"[ 0.09413568  0.69823146  0.49423698  0.6502683  -0.04217007  0.04884287
  0.          0.         -0.2         0.2941357  -8.3690195 ]",1.5506729620548811,0,0
131,145,2024-09-28 17:00:21.546100992,TASK_BEGIN,23,1.3454572586727689,0.2358895314508137,-0.5240811285147917,-0.3806579250300343,1.7014480202104034,-0.1924770320453085,-1.029533973013629,1.1248971401234953,3,2024-09-28 17:00:21.156822021,1727542821.1568224,2024-09-28 17:00:21.156822528,3,2,-5.77705694535648,-63.42836681658934,[0. 0. 1. 0.],[0.24266259 0.68795096 0.02051945 0.048867  ],"[ 0.09413568  0.69823146  0.49423698  0.6502683  -0.04217007  0.04884287
  0.          0.         -0.2         0.2941357  -8.3690195 ]",1.5506729620548811,0,0
132,146,2024-09-28 17:00:21.626323968,TASK_BEGIN,23,1.3422394705495817,0.2372916642139913,-0.6110881122451839,-0.3622868504098152,1.7266116296951135,-0.2010123065204353,-1.000837337548913,1.0552416358175944,3,2024-09-28 17:00:21.156822021,1727542821.1568224,2024-09-28 17:00:21.156822528,3,2,-5.77705694535648,-63.42836681658934,[0. 0. 1. 0.],[0.24266259 0.68795096 0.02051945 0.048867  ],"[ 0.09413568  0.69823146  0.49423698  0.6502683  -0.04217007  0.04884287
  0.          0.         -0.2         0.2941357  -8.3690195 ]",1.5506729620548811,0,0
133,147,2024-09-28 17:00:21.685750016,TASK_BEGIN,23,1.3379293635270433,0.2408327763799706,-0.6666400205174463,-0.3572809012354326,1.7430809367962528,-0.2061410891272625,-0.9952768447449548,0.9896928582151496,3,2024-09-28 17:00:21.156822021,1727542821.1568224,2024-09-28 17:00:21.156822528,3,2,-5.77705694535648,-63.42836681658934,[0. 0. 1. 0.],[0.24266259 0.68795096 0.02051945 0.048867  ],"[ 0.09413568  0.69823146  0.49423698  0.6502683  -0.04217007  0.04884287
  0.          0.         -0.2         0.2941357  -8.3690195 ]",1.5506729620548811,0,0
134,148,2024-09-28 17:00:22.613009920,TASK_BEGIN,23,1.332369863399517,0.2462795772124849,-0.6939548709324662,-0.3638271414266522,1.749701289569762,-0.2075311272184186,-1.009583538951013,0.93039570633713,3,2024-09-28 17:00:22.681180908,1727542822.681181,2024-09-28 17:00:22.681180928,3,3,-5.3652420438871875,-95.55918503110834,[0. 0. 0. 1.],[3.98773644e-02 9.37008256e-01 2.27987095e-02 3.15669868e-04],"[ 0.29176775  0.6755552   0.68957007 -0.6898708  -0.27161154 -0.4058197
  0.          0.         -0.2         0.49176776 -8.18761   ]",1.5621719333887714,0,0
135,149,2024-09-28 17:00:22.670757120,TASK_BEGIN,23,1.3251625612821756,0.2533508943752541,-0.6972086534642691,-0.3792403045789229,1.745871217236993,-0.2051339604243447,-1.038050062118057,0.8786610016391463,3,2024-09-28 17:00:22.710180908,1727542822.7101812,2024-09-28 17:00:22.710181120,3,3,-5.376641700721118,-99.98023488151838,[0. 0. 0. 1.],[3.24132917e-02 9.48658308e-01 1.87482138e-02 1.80186864e-04],"[ 0.29641938  0.66442144  0.70016885 -0.7183644  -0.29324117 -0.43259436
  0.          0.         -0.2         0.49641937 -8.098539  ]",1.5628798750871444,0,0
136,150,2024-09-28 17:00:22.748571904,TASK_BEGIN,23,1.3157172295129045,0.2617349174546319,-0.681216195845687,-0.4002563395867841,1.7315678185685957,-0.1991718313976115,-1.07346189287364,0.8350372235620445,3,2024-09-28 17:00:22.710180908,1727542822.7101812,2024-09-28 17:00:22.710181120,3,3,-5.376641700721118,-99.98023488151838,[0. 0. 0. 1.],[3.24132917e-02 9.48658308e-01 1.87482138e-02 1.80186864e-04],"[ 0.29641938  0.66442144  0.70016885 -0.7183644  -0.29324117 -0.43259436
  0.          0.         -0.2         0.49641937 -8.098539  ]",1.5628798750871444,0,0
137,151,2024-09-28 17:00:22.805841152,TASK_BEGIN,23,1.3033259879929446,0.2710948493937337,-0.6510889908604031,-0.4233705197516668,1.7073143074604995,-0.19009136642851,-1.108055247150355,0.799483549007324,3,2024-09-28 17:00:22.710180908,1727542822.7101812,2024-09-28 17:00:22.710181120,3,3,-5.376641700721118,-99.98023488151838,[0. 0. 0. 1.],[3.24132917e-02 9.48658308e-01 1.87482138e-02 1.80186864e-04],"[ 0.29641938  0.66442144  0.70016885 -0.7183644  -0.29324117 -0.43259436
  0.          0.         -0.2         0.49641937 -8.098539  ]",1.5628798750871444,0,0
138,152,2024-09-28 17:00:22.883950848,TASK_BEGIN,23,1.2872755156389122,0.281066762350223,-0.6118875124345279,-0.4451823512222299,1.6741297493529057,-0.1785046575475118,-1.13443122637255,0.771609555940574,3,2024-09-28 17:00:22.710180908,1727542822.7101812,2024-09-28 17:00:22.710181120,3,3,-5.376641700721118,-99.98023488151838,[0. 0. 0. 1.],[3.24132917e-02 9.48658308e-01 1.87482138e-02 1.80186864e-04],"[ 0.29641938  0.66442144  0.70016885 -0.7183644  -0.29324117 -0.43259436
  0.          0.         -0.2         0.49641937 -8.098539  ]",1.5628798750871444,0,0
139,153,2024-09-28 17:00:22.951586816,TASK_BEGIN,23,1.2669886660008844,0.2912561029643649,-0.5683192441744201,-0.4626948422125506,1.6334770569232695,-0.1651364761110372,-1.1465034483478953,0.7509411257793381,3,2024-09-28 17:00:22.710180908,1727542822.7101812,2024-09-28 17:00:22.710181120,3,3,-5.376641700721118,-99.98023488151838,[0. 0. 0. 1.],[3.24132917e-02 9.48658308e-01 1.87482138e-02 1.80186864e-04],"[ 0.29641938  0.66442144  0.70016885 -0.7183644  -0.29324117 -0.43259436
  0.          0.         -0.2         0.49641937 -8.098539  ]",1.5628798750871444,0,0
140,154,2024-09-28 17:00:23.019591168,TASK_BEGIN,23,1.2421703889559716,0.301236084951943,-0.5245631014444437,-0.4735111990342942,1.5871946111076032,-0.1507819696118733,-1.1404285454044842,0.7371596111519999,3,2024-09-28 17:00:22.710180908,1727542822.7101812,2024-09-28 17:00:22.710181120,3,3,-5.376641700721118,-99.98023488151838,[0. 0. 0. 1.],[3.24132917e-02 9.48658308e-01 1.87482138e-02 1.80186864e-04],"[ 0.29641938  0.66442144  0.70016885 -0.7183644  -0.29324117 -0.43259436
  0.          0.         -0.2         0.49641937 -8.098539  ]",1.5628798750871444,0,0
141,155,2024-09-28 17:00:23.962522880,TASK_BEGIN,23,1.2129349287154942,0.3105473335830668,-0.4842492746436836,-0.4758899710215962,1.537386660806059,-0.136265798209402,-1.1152366283728694,0.7302614991437044,3,2024-09-28 17:00:23.793145020,1727542823.793146,2024-09-28 17:00:23.793145856,3,1,1.0411684521850384,-107.58449953964175,[0. 1. 0. 0.],[2.58184512e-03 1.15110526e-04 9.84519393e-01 1.27836510e-02],"[ 4.2755285e-01  2.6611090e-03  2.6825321e-01 -1.5435953e+00
 -1.2799379e-01  6.9455093e-01  0.0000000e+00  0.0000000e+00
 -2.0000000e-01  6.2755287e-01 -2.8044567e+00]",1.5588331403806959,0,0
142,156,2024-09-28 17:00:24.024866816,TASK_BEGIN,23,1.1798883128875544,0.3187006614442504,-0.4505143227978865,-0.4686720907470397,1.4862642640379822,-0.1223948160553726,-1.0728695169318785,0.7306083382323532,3,2024-09-28 17:00:23.793145020,1727542823.793146,2024-09-28 17:00:23.793145856,3,1,1.0411684521850384,-107.58449953964175,[0. 1. 0. 0.],[2.58184512e-03 1.15110526e-04 9.84519393e-01 1.27836510e-02],"[ 4.2755285e-01  2.6611090e-03  2.6825321e-01 -1.5435953e+00
 -1.2799379e-01  6.9455093e-01  0.0000000e+00  0.0000000e+00
 -2.0000000e-01  6.2755287e-01 -2.8044567e+00]",1.5588331403806959,0,0
143,157,2024-09-28 17:00:24.097455104,TASK_BEGIN,23,1.1441353013372824,0.325191298914682,-0.4260279741676755,-0.4511516384149999,1.4359648997860963,-0.1099059299149421,-1.017642402660053,0.7388652890187397,3,2024-09-28 17:00:23.793145020,1727542823.793146,2024-09-28 17:00:23.793145856,3,1,1.0411684521850384,-107.58449953964175,[0. 1. 0. 0.],[2.58184512e-03 1.15110526e-04 9.84519393e-01 1.27836510e-02],"[ 4.2755285e-01  2.6611090e-03  2.6825321e-01 -1.5435953e+00
 -1.2799379e-01  6.9455093e-01  0.0000000e+00  0.0000000e+00
 -2.0000000e-01  6.2755287e-01 -2.8044567e+00]",1.5588331403806959,0,0
144,158,2024-09-28 17:00:24.165703168,TASK_BEGIN,23,1.107203817935188,0.3295312841360537,-0.412986106335612,-0.4229695651039755,1.3883914008434233,-0.0994137962440514,-0.95544455672511,0.7558461668125133,3,2024-09-28 17:00:23.793145020,1727542823.793146,2024-09-28 17:00:23.793145856,3,1,1.0411684521850384,-107.58449953964175,[0. 1. 0. 0.],[2.58184512e-03 1.15110526e-04 9.84519393e-01 1.27836510e-02],"[ 4.2755285e-01  2.6611090e-03  2.6825321e-01 -1.5435953e+00
 -1.2799379e-01  6.9455093e-01  0.0000000e+00  0.0000000e+00
 -2.0000000e-01  6.2755287e-01 -2.8044567e+00]",1.5588331403806959,0,0
145,159,2024-09-28 17:00:24.233428992,TASK_BEGIN,23,1.0709115303905514,0.3312976753306713,-0.4130947998059028,-0.3840723702278455,1.345088020067952,-0.091362367129787,-0.8929421602262243,0.7822917115601881,3,2024-09-28 17:00:23.793145020,1727542823.793146,2024-09-28 17:00:23.793145856,3,1,1.0411684521850384,-107.58449953964175,[0. 1. 0. 0.],[2.58184512e-03 1.15110526e-04 9.84519393e-01 1.27836510e-02],"[ 4.2755285e-01  2.6611090e-03  2.6825321e-01 -1.5435953e+00
 -1.2799379e-01  6.9455093e-01  0.0000000e+00  0.0000000e+00
 -2.0000000e-01  6.2755287e-01 -2.8044567e+00]",1.5588331403806959,0,0
146,160,2024-09-28 17:00:24.301209856,TASK_BEGIN,23,1.0371954187556816,0.3301887361303707,-0.42748043411368,-0.3347437093675705,1.3071594651013567,-0.0859881669212289,-0.8368180127412481,0.8186121248604147,3,2024-09-28 17:00:23.793145020,1727542823.793146,2024-09-28 17:00:23.793145856,3,1,1.0411684521850384,-107.58449953964175,[0. 1. 0. 0.],[2.58184512e-03 1.15110526e-04 9.84519393e-01 1.27836510e-02],"[ 4.2755285e-01  2.6611090e-03  2.6825321e-01 -1.5435953e+00
 -1.2799379e-01  6.9455093e-01  0.0000000e+00  0.0000000e+00
 -2.0000000e-01  6.2755287e-01 -2.8044567e+00]",1.5588331403806959,0,0
147,161,2024-09-28 17:00:24.359878912,TASK_BEGIN,23,1.0079075453329347,0.3260791440755393,-0.456446666963801,-0.2757047557861489,1.2752326107368703,-0.0833007223188636,-0.7930496914934013,0.8646351537148145,3,2024-09-28 17:00:23.793145020,1727542823.793146,2024-09-28 17:00:23.793145856,3,1,1.0411684521850384,-107.58449953964175,[0. 1. 0. 0.],[2.58184512e-03 1.15110526e-04 9.84519393e-01 1.27836510e-02],"[ 4.2755285e-01  2.6611090e-03  2.6825321e-01 -1.5435953e+00
 -1.2799379e-01  6.9455093e-01  0.0000000e+00  0.0000000e+00
 -2.0000000e-01  6.2755287e-01 -2.8044567e+00]",1.5588331403806959,0,0
148,162,2024-09-28 17:00:25.312612096,TASK_BEGIN,23,0.9845930564626032,0.3190627361544636,-0.4991180802658936,-0.2082566638379455,1.2494364172277477,-0.0830749344756116,-0.7663098862283553,0.919413419217098,3,2024-09-28 17:00:24.984656006,1727542824.9846568,2024-09-28 17:00:24.984656896,3,2,-7.473271279688379,-113.05848666770642,[0. 0. 1. 0.],[6.82092915e-02 1.71083496e-01 1.51549954e-04 7.60555663e-01],"[ 0.4554906   0.09001124  0.05351287  1.518255   -0.24831007 -0.47812825
  0.          0.         -0.2         0.6554906  -3.5032578 ]",1.56236022125648,0,0
149,163,2024-09-28 17:00:25.380409856,TASK_BEGIN,23,0.9682933657358372,0.3094699016985097,-0.553120116953359,-0.1343861626241361,1.2293839554039814,-0.0848557398324105,-0.7595211723461739,0.9811439488055942,3,2024-09-28 17:00:24.984656006,1727542824.9846568,2024-09-28 17:00:24.984656896,3,2,-7.473271279688379,-113.05848666770642,[0. 0. 1. 0.],[6.82092915e-02 1.71083496e-01 1.51549954e-04 7.60555663e-01],"[ 0.4554906   0.09001124  0.05351287  1.518255   -0.24831007 -0.47812825
  0.          0.         -0.2         0.6554906  -3.5032578 ]",1.56236022125648,0,0
150,164,2024-09-28 17:00:25.440561152,TASK_BEGIN,23,0.9594169902361434,0.2978534647826517,-0.6144780480346367,-0.0567433275829226,1.2141936453675786,-0.087993235293447,-0.773546447352249,1.0472434527015115,3,2024-09-28 17:00:24.984656006,1727542824.9846568,2024-09-28 17:00:24.984656896,3,2,-7.473271279688379,-113.05848666770642,[0. 0. 1. 0.],[6.82092915e-02 1.71083496e-01 1.51549954e-04 7.60555663e-01],"[ 0.4554906   0.09001124  0.05351287  1.518255   -0.24831007 -0.47812825
  0.          0.         -0.2         0.6554906  -3.5032578 ]",1.56236022125648,0,0
151,165,2024-09-28 17:00:25.503074048,TASK_BEGIN,23,0.957695646352544,0.2849462628517994,-0.6778912599963932,0.021521223989179,1.2025999291371514,-0.0917189749924231,-0.8071252361643899,1.1146013939577446,3,2024-09-28 17:00:24.984656006,1727542824.9846568,2024-09-28 17:00:24.984656896,3,2,-7.473271279688379,-113.05848666770642,[0. 0. 1. 0.],[6.82092915e-02 1.71083496e-01 1.51549954e-04 7.60555663e-01],"[ 0.4554906   0.09001124  0.05351287  1.518255   -0.24831007 -0.47812825
  0.          0.         -0.2         0.6554906  -3.5032578 ]",1.56236022125648,0,0
152,166,2024-09-28 17:00:25.583581952,TASK_BEGIN,23,0.9622248873330724,0.2715956836050653,-0.7374299344057018,0.0969977212337434,1.1931521250972783,-0.0952443285738777,-0.8572203930362434,1.179963985506255,3,2024-09-28 17:00:24.984656006,1727542824.9846568,2024-09-28 17:00:24.984656896,3,2,-7.473271279688379,-113.05848666770642,[0. 0. 1. 0.],[6.82092915e-02 1.71083496e-01 1.51549954e-04 7.60555663e-01],"[ 0.4554906   0.09001124  0.05351287  1.518255   -0.24831007 -0.47812825
  0.          0.         -0.2         0.6554906  -3.5032578 ]",1.56236022125648,0,0
153,167,2024-09-28 17:00:25.642781952,TASK_BEGIN,23,0.9715820463965992,0.2586823383610031,-0.787540964773977,0.1663007360742681,1.184453991549041,-0.0978491514455513,-0.919668299845518,1.2403144380208824,3,2024-09-28 17:00:24.984656006,1727542824.9846568,2024-09-28 17:00:24.984656896,3,2,-7.473271279688379,-113.05848666770642,[0. 0. 1. 0.],[6.82092915e-02 1.71083496e-01 1.51549954e-04 7.60555663e-01],"[ 0.4554906   0.09001124  0.05351287  1.518255   -0.24831007 -0.47812825
  0.          0.         -0.2         0.6554906  -3.5032578 ]",1.56236022125648,0,0
154,168,2024-09-28 17:00:25.718643712,TASK_BEGIN,23,0.9840013530504826,0.2470373779939358,-0.8241373508835454,0.2264073366494425,1.1753852323411038,-0.0989418927616877,-0.9897612268994485,1.2931246884189245,3,2024-09-28 17:00:24.984656006,1727542824.9846568,2024-09-28 17:00:24.984656896,3,2,-7.473271279688379,-113.05848666770642,[0. 0. 1. 0.],[6.82092915e-02 1.71083496e-01 1.51549954e-04 7.60555663e-01],"[ 0.4554906   0.09001124  0.05351287  1.518255   -0.24831007 -0.47812825
  0.          0.         -0.2         0.6554906  -3.5032578 ]",1.56236022125648,0,0
155,169,2024-09-28 17:00:26.662002944,TASK_BEGIN,23,0.9975738958230804,0.2373713500965774,-0.8454752608402321,0.275017439073374,1.1652504748391928,-0.0980902353495696,-1.0625613299742596,1.3364817601264678,3,2024-09-28 17:00:26.340572998,1727542826.340573,2024-09-28 17:00:26.340573184,3,0,4.296476437142388,-32.499713546030435,[1. 0. 0. 0.],[2.56274474e-01 7.10962380e-01 5.56668556e-04 3.22064780e-02],"[ 0.44959784  0.7827916  -0.14442225  0.50060695 -0.82899684  0.34874478
  0.          0.         -0.2         0.6495978  -9.045501  ]",1.5146552247989764,0,0
156,170,2024-09-28 17:00:26.730526976,TASK_BEGIN,23,1.010451882023892,0.2302170320454324,-0.8525277681291556,0.3108300039367234,1.153820946804094,-0.0950306844394064,-1.1330888064746247,1.3691807380347247,3,2024-09-28 17:00:26.340572998,1727542826.340573,2024-09-28 17:00:26.340573184,3,0,4.296476437142388,-32.499713546030435,[1. 0. 0. 0.],[2.56274474e-01 7.10962380e-01 5.56668556e-04 3.22064780e-02],"[ 0.44959784  0.7827916  -0.14442225  0.50060695 -0.82899684  0.34874478
  0.          0.         -0.2         0.6495978  -9.045501  ]",1.5146552247989764,0,0
157,171,2024-09-28 17:00:26.791970048,TASK_BEGIN,23,1.0210507778259337,0.2258896254787375,-0.8487493648619846,0.3336446132874806,1.1412749205030197,-0.0896647142553845,-1.1965533153981456,1.3908134925663895,3,2024-09-28 17:00:26.340572998,1727542826.340573,2024-09-28 17:00:26.340573184,3,0,4.296476437142388,-32.499713546030435,[1. 0. 0. 0.],[2.56274474e-01 7.10962380e-01 5.56668556e-04 3.22064780e-02],"[ 0.44959784  0.7827916  -0.14442225  0.50060695 -0.82899684  0.34874478
  0.          0.         -0.2         0.6495978  -9.045501  ]",1.5146552247989764,0,0
158,172,2024-09-28 17:00:26.865992192,TASK_BEGIN,23,1.0282231142022076,0.2244746829670161,-0.8393529317399786,0.3442683722397376,1.1280857949226877,-0.0820466457761743,-1.2486441280987866,1.4017835098863063,3,2024-09-28 17:00:26.340572998,1727542826.340573,2024-09-28 17:00:26.340573184,3,0,4.296476437142388,-32.499713546030435,[1. 0. 0. 0.],[2.56274474e-01 7.10962380e-01 5.56668556e-04 3.22064780e-02],"[ 0.44959784  0.7827916  -0.14442225  0.50060695 -0.82899684  0.34874478
  0.          0.         -0.2         0.6495978  -9.045501  ]",1.5146552247989764,0,0
159,173,2024-09-28 17:00:26.933736960,TASK_BEGIN,23,1.0313532850829663,0.2258455312549196,-0.8303130968253221,0.344261803472688,1.114914124208558,-0.0723708439353179,-1.2858751527981287,1.4031936740504285,3,2024-09-28 17:00:26.340572998,1727542826.340573,2024-09-28 17:00:26.340573184,3,0,4.296476437142388,-32.499713546030435,[1. 0. 0. 0.],[2.56274474e-01 7.10962380e-01 5.56668556e-04 3.22064780e-02],"[ 0.44959784  0.7827916  -0.14442225  0.50060695 -0.82899684  0.34874478
  0.          0.         -0.2         0.6495978  -9.045501  ]",1.5146552247989764,0,0
160,174,2024-09-28 17:00:26.994663168,TASK_BEGIN,23,1.0303457105527285,0.2296983669990925,-0.8273495223639906,0.3356027811082707,1.1025255090920325,-0.0609645691456692,-1.305985467318839,1.396639573346642,3,2024-09-28 17:00:26.340572998,1727542826.340573,2024-09-28 17:00:26.340573184,3,0,4.296476437142388,-32.499713546030435,[1. 0. 0. 0.],[2.56274474e-01 7.10962380e-01 5.56668556e-04 3.22064780e-02],"[ 0.44959784  0.7827916  -0.14442225  0.50060695 -0.82899684  0.34874478
  0.          0.         -0.2         0.6495978  -9.045501  ]",1.5146552247989764,0,0
161,175,2024-09-28 17:00:27.059006208,TASK_BEGIN,23,1.025528513715409,0.2355965932436626,-0.8351540991476067,0.3203735917418337,1.0917204455861436,-0.0482806165929565,-1.3083168232033229,1.3839831321889238,3,2024-09-28 17:00:26.340572998,1727542826.340573,2024-09-28 17:00:26.340573184,3,0,4.296476437142388,-32.499713546030435,[1. 0. 0. 0.],[2.56274474e-01 7.10962380e-01 5.56668556e-04 3.22064780e-02],"[ 0.44959784  0.7827916  -0.14442225  0.50060695 -0.82899684  0.34874478
  0.          0.         -0.2         0.6495978  -9.045501  ]",1.5146552247989764,0,0
162,176,2024-09-28 17:00:28.012614912,TASK_BEGIN,23,1.017513752692599,0.2430255861418548,-0.8569873418355106,0.300535611557785,1.0832504845170874,-0.0348741605116648,-1.2940265427811637,1.3671600012786342,3,2024-09-28 17:00:28.084044922,1727542828.0840452,2024-09-28 17:00:28.084045056,3,0,-5.563206506403446,-39.11370928186377,[1. 0. 0. 0.],[2.85671237e-02 7.28315340e-05 2.67721911e-04 9.71092323e-01],"[ 0.37907076  0.89429045 -0.25401628 -0.27822152  0.9520712   0.77623117
  0.          0.         -0.2         0.57907075 -9.937491  ]",1.560816371792456,0,0
163,177,2024-09-28 17:00:28.075315968,TASK_BEGIN,23,1.0070446189588391,0.2514555212843435,-0.8945646073436627,0.2777848777317453,1.0777071212372955,-0.0213570783084672,-1.265983642533287,1.3480236163039172,3,2024-09-28 17:00:28.143041992,1727542828.1430423,2024-09-28 17:00:28.143042304,3,0,-5.715019910820587,-49.63895111113391,[1. 0. 0. 0.],[1.22738336e-02 1.45564570e-05 7.98499128e-05 9.87631760e-01],"[ 0.37599245  0.8853625  -0.25261843 -0.33007935  1.0296643   0.7758323
  0.          0.         -0.2         0.57599247 -9.866068  ]",1.5624072135081803,0,0
164,178,2024-09-28 17:00:28.148272896,TASK_BEGIN,23,0.9948555049295472,0.2603996496786366,-0.9481113073828992,0.2534701828780812,1.075401172744736,-0.0083404610540472,-1.2282861872792572,1.328203650520131,3,2024-09-28 17:00:28.173041992,1727542828.1730425,2024-09-28 17:00:28.173042432,3,1,-7.310326655368053,-56.452888255390626,[0. 1. 0. 0.],[1.00499300e-02 1.07226743e-05 5.06312281e-05 9.89888716e-01],"[ 0.37439218  0.88018703 -0.2606075  -0.36574435  1.0707395   0.8215057
  0.          0.         -0.2         0.5743922  -9.824664  ]",1.5668402764922331,0,0
165,179,2024-09-28 17:00:28.215176960,TASK_BEGIN,23,0.9815719336898664,0.2694536500355692,-1.0165587588084393,0.2285832859226684,1.0762683305467875,0.0036196131555927,-1.1855587664949798,1.3089738092024903,3,2024-09-28 17:00:28.290081055,1727542828.290081,2024-09-28 17:00:28.290081024,3,1,-8.013690134879491,-84.7528186157607,[0. 1. 0. 0.],[7.21089863e-03 6.21636191e-06 2.13107647e-06 9.92780754e-01],"[ 0.3674817   0.8543885  -0.2827229  -0.50567603  1.2564223   0.9852813
  0.          0.         -0.2         0.5674817  -9.618276  ]",1.5668696910011333,0,0
166,180,2024-09-28 17:00:28.277268736,TASK_BEGIN,23,0.967664773234098,0.2783099550939343,-1.0978515982103745,0.2038191412934234,1.0798201481731469,0.0140656924452322,-1.1423256068043564,1.2911394609822011,3,2024-09-28 17:00:28.290081055,1727542828.290081,2024-09-28 17:00:28.290081024,3,1,-8.013690134879491,-84.7528186157607,[0. 1. 0. 0.],[7.21089863e-03 6.21636191e-06 2.13107647e-06 9.92780754e-01],"[ 0.3674817   0.8543885  -0.2827229  -0.50567603  1.2564223   0.9852813
  0.          0.         -0.2         0.5674817  -9.618276  ]",1.5668696910011333,0,0
167,181,2024-09-28 17:00:28.351516160,TASK_BEGIN,23,0.953446740950768,0.2867530185850548,-1.18926603827064,0.1796765756289383,1.085146895048145,0.0226683052121234,-1.1026266321945486,1.2749664684658242,3,2024-09-28 17:00:28.407071045,1727542828.4070718,2024-09-28 17:00:28.407071744,3,0,-7.021950305009796,-108.98033927665419,[1. 0. 0. 0.],[3.22724379e-03 1.98255067e-06 6.29416384e-07 9.96770144e-01],"[ 0.36016306  0.82165563 -0.27740365 -0.6090202   1.4532741   0.98365337
  0.          0.         -0.2         0.5601631  -9.356413  ]",1.5671968656564446,0,0
168,182,2024-09-28 17:00:28.419271936,TASK_BEGIN,23,0.939085609169253,0.2946478603833831,-1.2876673235530285,0.1565703640338549,1.0909888452631415,0.0292354218628839,-1.0698221477195662,1.2601971049754923,3,2024-09-28 17:00:28.436041992,1727542828.4360425,2024-09-28 17:00:28.436042496,3,0,-7.0353300363671,-114.92586592025475,[1. 0. 0. 0.],[2.68746565e-03 1.43701641e-06 5.28944312e-07 9.97310568e-01],"[ 0.35829654  0.81248116 -0.2760407  -0.63474566  1.5024363   0.98324764
  0.          0.         -0.2         0.55829656 -9.283017  ]",1.5672287540540686,1,1
169,183,2024-09-28 17:00:29.330609152,TASK_BEGIN,23,0.924628568145918,0.3019269074805571,-1.3897182200035376,0.1349254567197044,1.095886586562841,0.033698354354879,-1.0464258902525527,1.246180310548537,3,2024-09-28 17:00:28.436041992,1727542828.4360425,2024-09-28 17:00:28.436042496,3,0,-7.0353300363671,-114.92586592025475,[1. 0. 0. 0.],[2.68746565e-03 1.43701641e-06 5.28944312e-07 9.97310568e-01],"[ 0.35829654  0.81248116 -0.2760407  -0.63474566  1.5024363   0.98324764
  0.          0.         -0.2         0.55829656 -9.283017  ]",1.5672287540540686,1,1
170,184,2024-09-28 17:00:29.404039936,TASK_BEGIN,23,0.910042605601221,0.3085733823838086,-1.492080681511901,0.1152250984443274,1.098387078094659,0.0360776393877636,-1.0338520977942571,1.2320672636516488,3,2024-09-28 17:00:28.494070068,1727542828.4940703,2024-09-28 17:00:28.494070272,3,0,-7.056381485261454,-126.67147130394405,[1. 0. 0. 0.],[2.00677835e-03 8.25888159e-07 3.45578787e-07 9.97992050e-01],"[ 0.3545184   0.79293454 -0.27329814 -0.6860619   1.6006999   0.9824376
  0.          0.         -0.2         0.5545184  -9.126644  ]",1.5670493959251004,1,1
171,185,2024-09-28 17:00:29.471823104,TASK_BEGIN,23,0.8952431141749384,0.3146091160984933,-1.5916246384981505,0.0980157016194407,1.0972542410683377,0.0364396688363402,-1.0321496950599964,1.2169900685407198,3,2024-09-28 17:00:29.235862061,1727542829.2358625,2024-09-28 17:00:29.235862528,3,2,-19.29181361166143,-472.18303097771803,[0. 0. 1. 0.],[9.39631371e-01 2.58307587e-02 4.71942829e-06 3.45331507e-02],"[ 0.04786921  0.2093836  -2.8941681  -2.671492    2.7918248   0.9538091
  0.          0.         -0.2         0.24786921 -4.4582367 ]",1.5374158403759628,1,1
172,186,2024-09-28 17:00:29.531075072,TASK_BEGIN,23,0.8800794897253885,0.3200979529557398,-1.685588130555641,0.0838950218744265,1.0916299314142834,0.034856796100116,-1.039938940780759,1.2001920287557286,3,2024-09-28 17:00:29.235862061,1727542829.2358625,2024-09-28 17:00:29.235862528,3,2,-19.29181361166143,-472.18303097771803,[0. 0. 1. 0.],[9.39631371e-01 2.58307587e-02 4.71942829e-06 3.45331507e-02],"[ 0.04786921  0.2093836  -2.8941681  -2.671492    2.7918248   0.9538091
  0.          0.         -0.2         0.24786921 -4.4582367 ]",1.5374158403759628,1,1
173,187,2024-09-28 17:00:29.607264768,TASK_BEGIN,23,0.8643075852762695,0.3251569097360796,-1.7716274235243823,0.0734912984162174,1.0811193200599132,0.0313761938687559,-1.0546675296990928,1.1811412440582163,3,2024-09-28 17:00:29.235862061,1727542829.2358625,2024-09-28 17:00:29.235862528,3,2,-19.29181361166143,-472.18303097771803,[0. 0. 1. 0.],[9.39631371e-01 2.58307587e-02 4.71942829e-06 3.45331507e-02],"[ 0.04786921  0.2093836  -2.8941681  -2.671492    2.7918248   0.9538091
  0.          0.         -0.2         0.24786921 -4.4582367 ]",1.5374158403759628,1,1
174,188,2024-09-28 17:00:29.674954752,TASK_BEGIN,23,0.8476076575825637,0.3299562231155502,-1.84781808531848,0.0674230315901764,1.0658194201409594,0.0259943824055548,-1.0731303390702027,1.1596660215478347,3,2024-09-28 17:00:29.235862061,1727542829.2358625,2024-09-28 17:00:29.235862528,3,2,-19.29181361166143,-472.18303097771803,[0. 0. 1. 0.],[9.39631371e-01 2.58307587e-02 4.71942829e-06 3.45331507e-02],"[ 0.04786921  0.2093836  -2.8941681  -2.671492    2.7918248   0.9538091
  0.          0.         -0.2         0.24786921 -4.4582367 ]",1.5374158403759628,1,1
175,189,2024-09-28 17:00:29.742701056,TASK_BEGIN,23,0.8296564061753171,0.3347017754137354,-1.9127200245209688,0.0662496870344519,1.046317261893004,0.0186406281215347,-1.092109690909196,1.1360862270029524,3,2024-09-28 17:00:29.235862061,1727542829.2358625,2024-09-28 17:00:29.235862528,3,2,-19.29181361166143,-472.18303097771803,[0. 0. 1. 0.],[9.39631371e-01 2.58307587e-02 4.71942829e-06 3.45331507e-02],"[ 0.04786921  0.2093836  -2.8941681  -2.671492    2.7918248   0.9538091
  0.          0.         -0.2         0.24786921 -4.4582367 ]",1.5374158403759628,1,1
176,197,2024-09-28 17:00:32.036791040,TASK_BEGIN,23,0.6444234661623117,0.3831615110367661,-1.9822400818468584,0.2398044692763657,0.8932577811388986,-0.1167227056450268,-1.1206369941617862,1.0189482616987855,3,2024-09-28 17:00:31.953302979,1727542831.9533036,2024-09-28 17:00:31.953303552,4,2,3.6436978798911186,-9.94389179978553,[0. 0. 1. 0.],[0.4261115  0.34689168 0.11597629 0.11102053],"[ 0.01876918  0.9253409   0.09983466 -0.20050594 -0.05634592 -0.05122193
  0.          0.          0.2        -0.18123081 -9.929142  ]",1.5081174650018638,0,0
177,198,2024-09-28 17:00:32.104588800,TASK_BEGIN,23,0.6211044928495935,0.3889859951141158,-1.933527050862004,0.2693370367449069,0.8903377212240263,-0.1393610049802266,-1.1208693455412764,1.031516304953075,3,2024-09-28 17:00:31.953302979,1727542831.9533036,2024-09-28 17:00:31.953303552,4,2,3.6436978798911186,-9.94389179978553,[0. 0. 1. 0.],[0.4261115  0.34689168 0.11597629 0.11102053],"[ 0.01876918  0.9253409   0.09983466 -0.20050594 -0.05634592 -0.05122193
  0.          0.          0.2        -0.18123081 -9.929142  ]",1.5081174650018638,0,0
178,199,2024-09-28 17:00:32.172331008,TASK_BEGIN,23,0.5988431255878585,0.3940384439808199,-1.8723924719531588,0.2940627361548322,0.8915740081415752,-0.1611170294855728,-1.1249484828403378,1.052203942059156,3,2024-09-28 17:00:32.247329102,1727542832.247329,2024-09-28 17:00:32.247329024,4,2,6.074062911021838,-10.238895616526388,[0. 0. 1. 0.],[0.39252204 0.42942042 0.10231584 0.07574171],"[ 0.02592889  0.8806069   0.13779594 -0.16620766 -0.08184244 -0.04974532
  0.          0.          0.2        -0.1740711  -9.57127   ]",1.5205800093108122,0,0
179,200,2024-09-28 17:00:32.240087808,TASK_BEGIN,23,0.5776397517431127,0.3981924303618841,-1.7993104823456385,0.3122463182111663,0.8959987869238818,-0.1811334749540728,-1.132351412662415,1.0807045179456265,3,2024-09-28 17:00:32.306301025,1727542832.3063016,2024-09-28 17:00:32.306301696,4,2,-1.2337518326259727,-10.838193355356406,[0. 0. 1. 0.],[0.34117433 0.50235683 0.08001953 0.07644931],"[ 2.8633436e-02  8.7889266e-01  2.1619052e-01 -3.9123185e-03
 -8.5270979e-02 -3.0163279e-02  0.0000000e+00  0.0000000e+00
  2.0000000e-01 -1.7136656e-01 -9.5575562e+00]",1.5378353154624047,0,0
180,201,2024-09-28 17:00:32.302476800,TASK_BEGIN,23,0.5573775075562097,0.4014073818909618,-1.714888360261397,0.3227814206618284,0.902256987632198,-0.1985881212374168,-1.1413196261090837,1.1162000284560167,3,2024-09-28 17:00:32.364312988,1727542832.3643136,2024-09-28 17:00:32.364313600,4,2,-0.9909815266271835,-14.339795291445547,[0. 0. 1. 0.],[0.26286467 0.62750806 0.04074977 0.0688775 ],"[ 0.03185566  0.88094306  0.2325071   0.08303598 -0.0881405  -0.03081498
  0.          0.          0.2        -0.16814433 -9.573959  ]",1.544556358791431,0,0
181,202,2024-09-28 17:00:32.364506112,TASK_BEGIN,23,0.5379047550506345,0.4037146398237898,-1.619835595190914,0.3253294143339488,0.9086951425536316,-0.2127271476849512,-1.1489444190397806,1.157221669908478,3,2024-09-28 17:00:32.393300049,1727542832.3933008,2024-09-28 17:00:32.393300736,4,2,-5.865824852697048,-20.06222219122814,[0. 0. 1. 0.],[0.25515417 0.64236353 0.03528329 0.06719901],"[ 0.03357856  0.88359106  0.250255    0.16934021 -0.08962884 -0.02976657
  0.          0.          0.2        -0.16642144 -9.595143  ]",1.5479729857317541,0,0
182,203,2024-09-28 17:00:32.443309056,TASK_BEGIN,23,0.5191195757164614,0.4051856144175713,-1.5150044549605488,0.3203667847782182,0.9135315432704348,-0.2228976801766674,-1.1511388746606233,1.2015217173902184,3,2024-09-28 17:00:32.393300049,1727542832.3933008,2024-09-28 17:00:32.393300736,4,2,-5.865824852697048,-20.06222219122814,[0. 0. 1. 0.],[0.25515417 0.64236353 0.03528329 0.06719901],"[ 0.03357856  0.88359106  0.250255    0.16934021 -0.08962884 -0.02976657
  0.          0.          0.2        -0.16642144 -9.595143  ]",1.5479729857317541,0,0
183,204,2024-09-28 17:00:33.386823936,TASK_BEGIN,23,0.5010291142872765,0.405904215394089,-1.4015600660510374,0.3091363982273593,0.915102893405077,-0.2285920956435601,-1.1425480147505152,1.246022243847697,3,2024-09-28 17:00:32.890300049,1727542832.8903005,2024-09-28 17:00:32.890300416,4,2,-7.700552777278676,-37.187389784942,[0. 0. 1. 0.],[0.23392972 0.66978315 0.03101322 0.06527391],"[ 0.0635012   0.9244784   0.2512056   0.39617443 -0.12389298 -0.07134588
  0.          0.          0.2        -0.1364988  -9.922242  ]",1.5499212902744777,0,0
184,205,2024-09-28 17:00:33.454600960,TASK_BEGIN,23,0.4837751193286214,0.4059575464484966,-1.2812254948238584,0.2935062474278995,0.912138351367422,-0.2295052572324145,-1.116732043881076,1.2869320752467437,3,2024-09-28 17:00:32.890300049,1727542832.8903005,2024-09-28 17:00:32.890300416,4,2,-7.700552777278676,-37.187389784942,[0. 0. 1. 0.],[0.23392972 0.66978315 0.03101322 0.06527391],"[ 0.0635012   0.9244784   0.2512056   0.39617443 -0.12389298 -0.07134588
  0.          0.          0.2        -0.1364988  -9.922242  ]",1.5499212902744777,0,0
185,206,2024-09-28 17:00:33.514199040,TASK_BEGIN,23,0.4676218056824126,0.4054403707995681,-1.15644911464937,0.2757228422954167,0.9039736768484292,-0.2255865115263721,-1.0668451219108133,1.3200797829281727,3,2024-09-28 17:00:32.890300049,1727542832.8903005,2024-09-28 17:00:32.890300416,4,2,-7.700552777278676,-37.187389784942,[0. 0. 1. 0.],[0.23392972 0.66978315 0.03101322 0.06527391],"[ 0.0635012   0.9244784   0.2512056   0.39617443 -0.12389298 -0.07134588
  0.          0.          0.2        -0.1364988  -9.922242  ]",1.5499212902744777,0,0
186,207,2024-09-28 17:00:33.590199040,TASK_BEGIN,23,0.4529016475700523,0.4044619803355792,-1.0303788415245252,0.2580745455165566,0.890633014369411,-0.2170594056643108,-0.9867114394563296,1.3414074600976698,3,2024-09-28 17:00:32.890300049,1727542832.8903005,2024-09-28 17:00:32.890300416,4,2,-7.700552777278676,-37.187389784942,[0. 0. 1. 0.],[0.23392972 0.66978315 0.03101322 0.06527391],"[ 0.0635012   0.9244784   0.2512056   0.39617443 -0.12389298 -0.07134588
  0.          0.          0.2        -0.1364988  -9.922242  ]",1.5499212902744777,0,0
187,208,2024-09-28 17:00:33.654337024,TASK_BEGIN,23,0.4399342289531787,0.4031494952227785,-0.9066202508203196,0.2425319840585707,0.8727845003586583,-0.2043973559794255,-0.8719902777967158,1.3474868854019764,3,2024-09-28 17:00:32.890300049,1727542832.8903005,2024-09-28 17:00:32.890300416,4,2,-7.700552777278676,-37.187389784942,[0. 0. 1. 0.],[0.23392972 0.66978315 0.03101322 0.06527391],"[ 0.0635012   0.9244784   0.2512056   0.39617443 -0.12389298 -0.07134588
  0.          0.          0.2        -0.1364988  -9.922242  ]",1.5499212902744777,0,0
188,209,2024-09-28 17:00:33.716389888,TASK_BEGIN,23,0.428957220823488,0.4016496533114403,-0.7888293552690673,0.2304371220019174,0.8516394413902112,-0.1882705899967359,-0.7210761821084024,1.3359107674367836,3,2024-09-28 17:00:32.890300049,1727542832.8903005,2024-09-28 17:00:32.890300416,4,2,-7.700552777278676,-37.187389784942,[0. 0. 1. 0.],[0.23392972 0.66978315 0.03101322 0.06527391],"[ 0.0635012   0.9244784   0.2512056   0.39617443 -0.12389298 -0.07134588
  0.          0.          0.2        -0.1364988  -9.922242  ]",1.5499212902744777,0,0
189,210,2024-09-28 17:00:33.793356032,TASK_BEGIN,23,0.4200969195799031,0.4001349436467416,-0.6802876249451983,0.2222860125366831,0.8288488767709348,-0.16948941124846,-0.5355131374191809,1.3054889520237294,3,2024-09-28 17:00:32.890300049,1727542832.8903005,2024-09-28 17:00:32.890300416,4,2,-7.700552777278676,-37.187389784942,[0. 0. 1. 0.],[0.23392972 0.66978315 0.03101322 0.06527391],"[ 0.0635012   0.9244784   0.2512056   0.39617443 -0.12389298 -0.07134588
  0.          0.          0.2        -0.1364988  -9.922242  ]",1.5499212902744777,0,0
190,211,2024-09-28 17:00:34.700325888,TASK_BEGIN,23,0.4133685950146439,0.3988139681689881,-0.5836394480047506,0.217639727512503,0.8063891743642877,-0.14895302147102,-0.319947418237696,1.2562919381106483,3,2024-09-28 17:00:34.731327148,1727542834.7313275,2024-09-28 17:00:34.731327488,4,2,4.0202400286465805,-44.47352150543055,[0. 0. 1. 0.],[0.19967655 0.44760865 0.33152986 0.02118494],"[ 0.16806221  0.5572673   0.386515   -0.6588894  -0.15335324  0.0104348
  0.          0.          0.2        -0.03193779 -6.9845533 ]",1.5415279169992788,0,0
191,212,2024-09-28 17:00:34.781197056,TASK_BEGIN,23,0.4086861494012241,0.3979338309354419,-0.5008291437901139,0.2151945699975097,0.7863957097779292,-0.12759786269999,-0.0817401116965254,1.1896235910358857,3,2024-09-28 17:00:34.854137939,1727542834.8541384,2024-09-28 17:00:34.854138368,4,2,5.881905312351702,-34.36078854286317,[0. 0. 1. 0.],[0.17507975 0.57835501 0.23146569 0.01509955],"[ 0.17937899  0.51784515  0.44212452 -0.5142083  -0.15135476  0.00985057
  0.          0.          0.2        -0.02062101 -6.669176  ]",1.5494569298854528,0,0
192,213,2024-09-28 17:00:34.838540032,TASK_BEGIN,23,0.4058788983323215,0.3977615185634557,-0.4331246312000843,0.2130266935920883,0.7709344273369392,-0.1063423358077704,0.1697352091455009,1.107935936850262,3,2024-09-28 17:00:34.916366943,1727542834.9163675,2024-09-28 17:00:34.916367616,4,2,4.214822152981026,-24.88023403611768,[0. 0. 1. 0.],[0.19556592 0.71943346 0.07276331 0.01223731],"[ 1.8553884e-01  5.0497544e-01  4.5367450e-01 -3.6786124e-01
 -1.5153597e-01 -2.9589746e-03  0.0000000e+00  0.0000000e+00
  2.0000000e-01 -1.4461151e-02 -6.5662184e+00]",1.552008576336894,0,0
193,214,2024-09-28 17:00:34.915212032,TASK_BEGIN,23,0.4047166979267915,0.3985476971611595,-0.3811433000594442,0.2089913705932972,0.7617536118872312,-0.0860305251665755,0.424089737963735,1.014633083602354,3,2024-09-28 17:00:34.978516113,1727542834.9785166,2024-09-28 17:00:34.978516480,4,2,0.5779459783740293,-25.61242752492843,[0. 0. 1. 0.],[0.18816792 0.75426762 0.04612801 0.01143645],"[ 0.19274108  0.49590373  0.54060006 -0.24136423 -0.15042114  0.0144205
  0.          0.          0.2        -0.00725892 -6.4936447 ]",1.5542228599941739,0,0
194,215,2024-09-28 17:00:34.977795840,TASK_BEGIN,23,0.4049349080419526,0.4004900306420424,-0.3448916332101187,0.2011916118451467,0.7600748868845978,-0.0673757159770363,0.6710216989616856,0.9137481246296352,3,2024-09-28 17:00:34.978516113,1727542834.9785166,2024-09-28 17:00:34.978516480,4,2,0.5779459783740293,-25.61242752492843,[0. 0. 1. 0.],[0.18816792 0.75426762 0.04612801 0.01143645],"[ 0.19274108  0.49590373  0.54060006 -0.24136423 -0.15042114  0.0144205
  0.          0.          0.2        -0.00725892 -6.4936447 ]",1.5542228599941739,0,0
195,216,2024-09-28 17:00:35.051981056,TASK_BEGIN,23,0.406258108100109,0.4037061949456359,-0.323843249675161,0.188367517959842,0.7664649483382476,-0.050908336584487,0.901203227732575,0.8095592847870668,3,2024-09-28 17:00:34.978516113,1727542834.9785166,2024-09-28 17:00:34.978516480,4,2,0.5779459783740293,-25.61242752492843,[0. 0. 1. 0.],[0.18816792 0.75426762 0.04612801 0.01143645],"[ 0.19274108  0.49590373  0.54060006 -0.24136423 -0.15042114  0.0144205
  0.          0.          0.2        -0.00725892 -6.4936447 ]",1.5542228599941739,0,0
196,217,2024-09-28 17:00:35.119710976,TASK_BEGIN,23,0.4084289340885383,0.408211083437136,-0.3170400002916913,0.1700728740174963,0.7808072125653097,-0.0369451911182305,1.1067220633103316,0.7062390370244075,3,2024-09-28 17:00:34.978516113,1727542834.9785166,2024-09-28 17:00:34.978516480,4,2,0.5779459783740293,-25.61242752492843,[0. 0. 1. 0.],[0.18816792 0.75426762 0.04612801 0.01143645],"[ 0.19274108  0.49590373  0.54060006 -0.24136423 -0.15042114  0.0144205
  0.          0.          0.2        -0.00725892 -6.4936447 ]",1.5542228599941739,0,0
197,218,2024-09-28 17:00:36.062262016,TASK_BEGIN,23,0.4112344588623713,0.4138929142612481,-0.3231996867868763,0.1466204842427065,0.8023719773388897,-0.0255976584171686,1.2811270897738103,0.6075950934137354,3,2024-09-28 17:00:36.099679932,1727542836.0996802,2024-09-28 17:00:36.099680256,4,0,-3.9946039465716012,-103.16557575806226,[1. 0. 0. 0.],[1.53105908e-02 7.63466653e-01 2.21170096e-01 5.26610326e-05],"[ 0.3440973   0.11744988  0.66515124 -1.1235102  -0.35525075 -0.30692694
  0.          0.          0.2         0.1440973  -3.4660141 ]",1.5660352953107433,0,0
198,219,2024-09-28 17:00:36.129419264,TASK_BEGIN,23,0.4145153255891524,0.4204971294862333,-0.3408548984166422,0.1189080514845242,0.8299690489835341,-0.0168181492057177,1.419330098529434,0.5169167714276475,3,2024-09-28 17:00:36.099679932,1727542836.0996802,2024-09-28 17:00:36.099680256,4,0,-3.9946039465716012,-103.16557575806226,[1. 0. 0. 0.],[1.53105908e-02 7.63466653e-01 2.21170096e-01 5.26610326e-05],"[ 0.3440973   0.11744988  0.66515124 -1.1235102  -0.35525075 -0.30692694
  0.          0.          0.2         0.1440973  -3.4660141 ]",1.5660352953107433,0,0
199,220,2024-09-28 17:00:36.197748736,TASK_BEGIN,23,0.4181602883412263,0.4276297435864903,-0.3685394595158781,0.0882571865246945,0.8621563868032934,-0.010463443725772,1.5175428928328445,0.4369160161409168,3,2024-09-28 17:00:36.099679932,1727542836.0996802,2024-09-28 17:00:36.099680256,4,0,-3.9946039465716012,-103.16557575806226,[1. 0. 0. 0.],[1.53105908e-02 7.63466653e-01 2.21170096e-01 5.26610326e-05],"[ 0.3440973   0.11744988  0.66515124 -1.1235102  -0.35525075 -0.30692694
  0.          0.          0.2         0.1440973  -3.4660141 ]",1.5660352953107433,0,0
200,221,2024-09-28 17:00:36.256978944,TASK_BEGIN,23,0.4220972709410759,0.4347809967729774,-0.4049626756369454,0.0563001418929712,0.8974556691556771,-0.0063477656209656,1.5732586103867263,0.3697404759457093,3,2024-09-28 17:00:36.099679932,1727542836.0996802,2024-09-28 17:00:36.099680256,4,0,-3.9946039465716012,-103.16557575806226,[1. 0. 0. 0.],[1.53105908e-02 7.63466653e-01 2.21170096e-01 5.26610326e-05],"[ 0.3440973   0.11744988  0.66515124 -1.1235102  -0.35525075 -0.30692694
  0.          0.          0.2         0.1440973  -3.4660141 ]",1.5660352953107433,0,0
201,222,2024-09-28 17:00:36.326226176,TASK_BEGIN,23,0.4262740056220748,0.441365542444696,-0.4490669779215874,0.0248604985082996,0.93451481493246,-0.0042706726603638,1.5852812225896709,0.3170178683581649,3,2024-09-28 17:00:36.099679932,1727542836.0996802,2024-09-28 17:00:36.099680256,4,0,-3.9946039465716012,-103.16557575806226,[1. 0. 0. 0.],[1.53105908e-02 7.63466653e-01 2.21170096e-01 5.26610326e-05],"[ 0.3440973   0.11744988  0.66515124 -1.1235102  -0.35525075 -0.30692694
  0.          0.          0.2         0.1440973  -3.4660141 ]",1.5660352953107433,0,0
202,223,2024-09-28 17:00:36.397235968,TASK_BEGIN,23,0.4306170260237955,0.4467746668099345,-0.4999196020380018,-0.0042234132660719,0.972194394875946,-0.0040243474746621,1.5538519023584922,0.279888920933093,3,2024-09-28 17:00:36.099679932,1727542836.0996802,2024-09-28 17:00:36.099680256,4,0,-3.9946039465716012,-103.16557575806226,[1. 0. 0. 0.],[1.53105908e-02 7.63466653e-01 2.21170096e-01 5.26610326e-05],"[ 0.3440973   0.11744988  0.66515124 -1.1235102  -0.35525075 -0.30692694
  0.          0.          0.2         0.1440973  -3.4660141 ]",1.5660352953107433,0,0
203,224,2024-09-28 17:00:36.468627968,TASK_BEGIN,23,0.4349857897861492,0.4504290407451492,-0.5564768710986713,-0.02932841913127,1.009595350582532,-0.0053952148117529,1.4807731576176697,0.2590338509106816,3,2024-09-28 17:00:36.099679932,1727542836.0996802,2024-09-28 17:00:36.099680256,4,0,-3.9946039465716012,-103.16557575806226,[1. 0. 0. 0.],[1.53105908e-02 7.63466653e-01 2.21170096e-01 5.26610326e-05],"[ 0.3440973   0.11744988  0.66515124 -1.1235102  -0.35525075 -0.30692694
  0.          0.          0.2         0.1440973  -3.4660141 ]",1.5660352953107433,0,0
204,225,2024-09-28 17:00:37.412319744,TASK_BEGIN,23,0.4391525890173319,0.4518211329471624,-0.6172953879577466,-0.0492747041124997,1.0460447627467442,-0.0081722247960101,1.3692947189746107,0.2547306228619254,3,2024-09-28 17:00:37.473180176,1727542837.473181,2024-09-28 17:00:37.473180928,4,0,1.7377017910424968,-110.78142813068841,[1. 0. 0. 0.],[5.82493314e-03 9.94009107e-01 5.71171274e-05 1.08843065e-04],"[ 0.7503705  -0.24149841  1.6741688   0.00606124 -0.18432711  0.56319624
  0.          0.          0.2         0.5503705  -0.5944277 ]",1.546457264028734,0,0
205,226,2024-09-28 17:00:37.480065280,TASK_BEGIN,23,0.4428150352779541,0.4505516595485457,-0.680305742778285,-0.0634713907779419,1.081055166656503,-0.0121663259362426,1.2237344013882472,0.2669300861705838,3,2024-09-28 17:00:37.561180176,1727542837.5611804,2024-09-28 17:00:37.561180416,4,0,1.6045340445131728,-102.59489424731156,[1. 0. 0. 0.],[4.07628496e-03 9.95056910e-01 7.92070137e-04 7.47344016e-05],"[ 0.7860921  -0.24382967  1.6739467  -0.07162338 -0.09987079  0.56296766
  0.          0.          0.2         0.5860921  -0.57577765]",1.5520282204668736,0,0
206,227,2024-09-28 17:00:37.547791104,TASK_BEGIN,23,0.4456257749374357,0.446371093770724,-0.7428245764302445,-0.0719055049002213,1.1142851929258548,-0.0172352178574507,1.0490957944572072,0.2952854561435968,3,2024-09-28 17:00:37.620223145,1727542837.6202235,2024-09-28 17:00:37.620223488,4,0,1.516693115735137,-97.49167817955623,[1. 0. 0. 0.],[3.02806306e-03 9.91687694e-01 5.23332625e-03 5.09165084e-05],"[ 0.80990887 -0.24734718  1.6738614  -0.12341839 -0.04358552  0.5628153
  0.          0.          0.2         0.6099089  -0.5476376 ]",1.5551700941023217,0,0
207,228,2024-09-28 17:00:37.615499008,TASK_BEGIN,23,0.4472263927400816,0.4392223626656119,-0.8018850150874088,-0.0749623751689025,1.1455126440673529,-0.0232983788883219,0.8508595148659441,0.3391224599497693,3,2024-09-28 17:00:37.678208984,1727542837.6782093,2024-09-28 17:00:37.678209280,4,0,-1.1070435970413257,-95.20023736438559,[1. 0. 0. 0.],[2.31582677e-03 9.59519889e-01 3.81291178e-02 3.51661142e-05],"[ 0.8337264  -0.2524352   1.6738263  -0.17521542  0.01268449  0.562663
  0.          0.          0.2         0.6337264  -0.50693333]",1.5577303553212838,0,0
208,229,2024-09-28 17:00:37.681765120,TASK_BEGIN,23,0.4472763725776624,0.4292660807664293,-0.8546954720164894,-0.073180184212988,1.1745961475000852,-0.0303303260767475,0.6348666549134863,0.3973980262403328,3,2024-09-28 17:00:37.736183838,1727542837.7361848,2024-09-28 17:00:37.736184832,4,0,-4.2808916929232055,-101.78327373332579,[1. 0. 0. 0.],[1.38815944e-03 8.13334275e-01 1.85260954e-01 1.66115413e-05],"[ 0.85754377 -0.25909388  1.6738418  -0.22701252  0.06893942  0.562511
  0.          0.          0.2         0.6575438  -0.45366398]",1.561334636574648,0,0
209,230,2024-09-28 17:00:37.742589184,TASK_BEGIN,23,0.4454692849754182,0.4168736830517744,-0.8989075310614959,-0.0671087009547743,1.201399192397833,-0.0383351941164847,0.4072235253837042,0.4686830517071417,3,2024-09-28 17:00:37.823179932,1727542837.823181,2024-09-28 17:00:37.823180800,4,0,5.598435622143228,-86.06777164776643,[1. 0. 0. 0.],[1.97975338e-02 9.29352153e-01 5.03142835e-02 5.36029622e-04],"[ 0.8918951  -0.26883423  1.6382421  -0.16191801  0.05073806 -0.8073492
  0.          1.          0.2         0.6918951  -0.37574115]",1.5687607249786844,1,2
210,231,2024-09-28 17:00:37.818721024,TASK_BEGIN,23,0.4415417162158719,0.402589673680712,-0.9326002771664342,-0.0573511464254379,1.2256925562549452,-0.047318137107113,0.1742814998272571,0.551160721223253,3,2024-09-28 17:00:37.823179932,1727542837.823181,2024-09-28 17:00:37.823180800,4,0,5.598435622143228,-86.06777164776643,[1. 0. 0. 0.],[1.97975338e-02 9.29352153e-01 5.03142835e-02 5.36029622e-04],"[ 0.8918951  -0.26883423  1.6382421  -0.16191801  0.05073806 -0.8073492
  0.          1.          0.2         0.6918951  -0.37574115]",1.5687607249786844,1,2
211,232,2024-09-28 17:00:38.762449920,TASK_BEGIN,23,0.4352884268150297,0.3870791677689854,-0.95420268687403,-0.0446855734736097,1.2470951551489653,-0.0572674081934252,-0.0573684280797918,0.6426268726328113,3,2024-09-28 17:00:37.852180908,1727542837.8521817,2024-09-28 17:00:37.852181760,4,0,-7.0937559383700375,-92.3008498696588,[1. 0. 0. 0.],[1.93119319e-02 9.77376262e-01 9.76230825e-04 2.33557528e-03],"[ 0.9028487  -0.27176124  1.637494   -0.18588762  0.00935969 -0.82767755
  0.          0.          0.2         0.70284873 -0.3523251 ]",1.5682969535885054,1,2
212,233,2024-09-28 17:00:38.830450944,TASK_BEGIN,23,0.4265829120720976,0.3710798673908063,-0.9625694510254028,-0.0301007401278158,1.2651013011499466,-0.068150510269565,-0.2810916408433962,0.7405064459244872,3,2024-09-28 17:00:38.025914062,1727542838.025915,2024-09-28 17:00:38.025914880,4,0,-5.712514110937377,-118.02334270476418,[1. 0. 0. 0.],[8.34120337e-03 9.90951592e-01 2.21855198e-04 4.85349597e-04],"[ 0.968623   -0.29737264  1.638537   -0.34296918 -0.23843795 -0.82536155
  0.          0.          0.2         0.768623   -0.1474339 ]",1.5677726242390804,1,2
213,234,2024-09-28 17:00:38.898251008,TASK_BEGIN,23,0.4153882931769019,0.3553645367839251,-0.9571594916071798,-0.0147088145776634,1.2791820154755509,-0.0799200594184959,-0.4906428656117466,0.841901843076616,3,2024-09-28 17:00:38.025914062,1727542838.025915,2024-09-28 17:00:38.025914880,4,0,-5.712514110937377,-118.02334270476418,[1. 0. 0. 0.],[8.34120337e-03 9.90951592e-01 2.21855198e-04 4.85349597e-04],"[ 0.968623   -0.29737264  1.638537   -0.34296918 -0.23843795 -0.82536155
  0.          0.          0.2         0.768623   -0.1474339 ]",1.5677726242390804,1,2
