,Unnamed: 0,time,MARKER,pid,L_O_DSI,L_D_DSI,L_O_DSphi,L_D_DSphi,R_O_DSI,R_D_DSI,R_O_DSphi,R_D_DSphi,trial_id,dateTimestamps,floatTimestamps,timestamps,episode,actions,rewards,discounted_rewards,chosen_actions,optimal_actions,states,continuous_optimal,binary_optimal,discrete_optimal
1,1,2024-09-28 16:37:39.898115072,TASK_BEGIN,23,0.1630478822169244,-0.1208977683337,-0.1167302656744189,-0.9289001904286532,0.3514931777237954,-0.253471234826997,-6.5523088047393765,2.062037994611806,0,2024-09-28 16:37:39.247239990,1727541459.2472398,2024-09-28 16:37:39.247239936,0,0.0,-1.8045330744625119,2.1243407870321183,[0.42639232 0.22060184 0.0832925  0.26971334],[0.42639232 0.22060184 0.0832925  0.26971334],"[-2.2908847e-03  1.0049386e+00 -4.8538953e-02 -5.8331188e-02
  6.5755001e-03  1.8404897e-02  0.0000000e+00  0.0000000e+00
 -2.0000000e-01  1.9770911e-01 -1.0591876e+01]",0.12676334646041792,0,0
2,2,2024-09-28 16:37:39.970629888,TASK_BEGIN,23,0.3878787359425,-0.1840205388443156,-0.8367459970106833,-0.6912274702644868,0.2339143209686987,-0.2680636712279646,-7.831296946644507,2.3713543342682417,0,2024-09-28 16:37:39.247239990,1727541459.2472398,2024-09-28 16:37:39.247239936,0,0.0,-1.8045330744625119,2.1243407870321183,[0.42639232 0.22060184 0.0832925  0.26971334],[0.42639232 0.22060184 0.0832925  0.26971334],"[-2.2908847e-03  1.0049386e+00 -4.8538953e-02 -5.8331188e-02
  6.5755001e-03  1.8404897e-02  0.0000000e+00  0.0000000e+00
 -2.0000000e-01  1.9770911e-01 -1.0591876e+01]",0.12676334646041792,0,0
3,3,2024-09-28 16:37:40.038362112,TASK_BEGIN,23,0.6004442842130507,-0.2448371803791977,-1.5104064270301505,-0.4694043841509273,0.1273306526253643,-0.2836476762683106,-9.050020975176796,2.666542127163939,0,2024-09-28 16:37:39.247239990,1727541459.2472398,2024-09-28 16:37:39.247239936,0,0.0,-1.8045330744625119,2.1243407870321183,[0.42639232 0.22060184 0.0832925  0.26971334],[0.42639232 0.22060184 0.0832925  0.26971334],"[-2.2908847e-03  1.0049386e+00 -4.8538953e-02 -5.8331188e-02
  6.5755001e-03  1.8404897e-02  0.0000000e+00  0.0000000e+00
 -2.0000000e-01  1.9770911e-01 -1.0591876e+01]",0.12676334646041792,0,0
4,4,2024-09-28 16:37:40.106084864,TASK_BEGIN,23,0.7962988573750959,-0.3025315403912632,-2.1227466054079174,-0.2681624343849108,0.0361994002108347,-0.3004750935733505,-10.185809491810216,2.941282161855255,0,2024-09-28 16:37:39.247239990,1727541459.2472398,2024-09-28 16:37:39.247239936,0,0.0,-1.8045330744625119,2.1243407870321183,[0.42639232 0.22060184 0.0832925  0.26971334],[0.42639232 0.22060184 0.0832925  0.26971334],"[-2.2908847e-03  1.0049386e+00 -4.8538953e-02 -5.8331188e-02
  6.5755001e-03  1.8404897e-02  0.0000000e+00  0.0000000e+00
 -2.0000000e-01  1.9770911e-01 -1.0591876e+01]",0.12676334646041792,0,0
5,5,2024-09-28 16:37:40.173818112,TASK_BEGIN,23,0.972220348625584,-0.356502091407341,-2.663321736812155,-0.0906200907066288,-0.0361164448242144,-0.3186207552560474,-11.220776136392294,3.1900163923973768,0,2024-09-28 16:37:39.353239014,1727541459.3532393,2024-09-28 16:37:39.353239296,0,0.0,-2.534787728408155,-9.766796117566585,[0.3917773  0.17358969 0.11451365 0.32011936],[0.3917773  0.17358969 0.11451365 0.32011936],"[-3.9310455e-03  9.9438024e-01 -4.8599035e-02 -1.8637276e-01
  1.1171248e-02  1.8377621e-02  0.0000000e+00  0.0000000e+00
 -2.0000000e-01  1.9606896e-01 -1.0507409e+01]",0.11212838735911457,0,0
6,6,2024-09-28 16:37:40.241552128,TASK_BEGIN,23,1.1262730588569103,-0.4063619395012692,-3.1261077685020413,0.0616430907469908,-0.0875819272266646,-0.3379422951335501,-12.14212795602813,3.40810140395731,0,2024-09-28 16:37:39.374236084,1727541459.3742363,2024-09-28 16:37:39.374236416,0,0.0,-2.5567575898429027,-12.225885746233821,[0.38937149 0.16509746 0.1235363  0.32199475],[0.38937149 0.16509746 0.1235363  0.32199475],"[-4.2593479e-03  9.9106824e-01 -4.8610933e-02 -2.1198164e-01
  1.2089634e-02  1.8372480e-02  0.0000000e+00  0.0000000e+00
 -2.0000000e-01  1.9574066e-01 -1.0480913e+01]",0.10984922393546763,0,0
7,7,2024-09-28 16:37:41.184310016,TASK_BEGIN,23,1.2577622828959938,-0.4519193757557838,-3.509000893331765,0.1883539216676759,-0.1176082187085332,-0.3580640190099425,-12.94225253302109,3.592003607009749,0,2024-09-28 16:37:40.329104004,1727541460.329105,2024-09-28 16:37:40.329104896,0,2.0,2.8594143064581887,-30.585560421434966,[0.27217815 0.16524947 0.32261595 0.23995643],[0.27217815 0.16524947 0.32261595 0.23995643],"[-0.0274756   0.6523962  -0.13359137 -0.5128303   0.01776877 -0.03501433
  0.          0.         -0.2         0.17252441 -7.771537  ]",0.0587692227083768,0,0
8,8,2024-09-28 16:37:41.252985088,TASK_BEGIN,23,1.367127586645594,-0.4931489867849703,-3.81317273910948,0.2902765403552902,-0.1270420059652651,-0.3783962521953186,-13.618682772459673,3.739572784940838,0,2024-09-28 16:37:40.392104004,1727541460.3921046,2024-09-28 16:37:40.392104704,0,2.0,2.5754368229556777,-31.53050170815708,[0.26735543 0.17391709 0.32884276 0.22988473],[0.26735543 0.17391709 0.32884276 0.22988473],"[-0.0305299   0.62690234 -0.1641704  -0.5290578   0.01195978 -0.04615044
  0.          0.         -0.2         0.1694701  -7.567586  ]",0.05764850452267799,0,0
9,9,2024-09-28 16:37:41.320772864,TASK_BEGIN,23,1.4557812035794586,-0.5301527714170549,-4.042318251144115,0.3689596047187499,-0.1180520550218234,-0.3981907606842684,-14.173873939684093,3.850331093311118,0,2024-09-28 16:37:40.707151855,1727541460.7071528,2024-09-28 16:37:40.707152896,0,0.0,-2.582645022791766,-22.578180980708545,[0.35384135 0.33356927 0.12619779 0.18639159],[0.35384135 0.33356927 0.12619779 0.18639159],"[-0.04878942  0.5055218  -0.14816792 -0.47152883 -0.02485163 -0.04199337
  0.          0.         -0.2         0.15121058 -6.5965414 ]",0.04569602466040099,0,0
10,10,2024-09-28 16:37:41.381616128,TASK_BEGIN,23,1.5258846027309385,-0.5631109519513323,-4.201833387561085,0.4265166210923951,-0.0939322946852946,-0.416622795515445,-14.61456874593305,3.9256174185073016,0,2024-09-28 16:37:40.896117920,1727541460.8961182,2024-09-28 16:37:40.896118272,0,0.0,-2.6520410095427565,-43.35192927977175,[0.38350703 0.21408334 0.23518197 0.16722766],[0.38350703 0.21408334 0.23518197 0.16722766],"[-0.05824113  0.4212216  -0.14816865 -0.701944   -0.04374862 -0.04199308
  0.          0.         -0.2         0.14175887 -5.92214   ]",0.06013082001975698,0,0
11,11,2024-09-28 16:37:41.443617280,TASK_BEGIN,23,1.5800636295452646,-0.5922304005886728,-4.29810603207971,0.4654529221590719,-0.0588168466044615,-0.4328833763252875,-14.95057275975535,3.968453444028209,0,2024-09-28 16:37:40.959194824,1727541460.9591956,2024-09-28 16:37:40.959195648,0,0.0,-2.6635530273386934,-49.9647265397671,[0.34396229 0.16361823 0.33986165 0.15255783],[0.34396229 0.16361823 0.33986165 0.15255783],"[-0.06139167  0.3859223  -0.14816903 -0.7787489  -0.0500476  -0.04199301
  0.          0.         -0.2         0.13860832 -5.6397457 ]",0.09915093916521109,0,0
12,12,2024-09-28 16:37:41.521052928,TASK_BEGIN,23,1.6210773794427835,-0.6176992705751149,-4.338026049023435,0.4885061168781092,-0.0173257164312401,-0.4462574819065423,-15.193107468517498,3.983153176252409,0,2024-09-28 16:37:40.978545898,1727541460.9785464,2024-09-28 16:37:40.978546432,0,2.0,8.716081051036962,-40.748998223332464,[0.30669837 0.14633149 0.41482914 0.132141  ],[0.30669837 0.14633149 0.41482914 0.132141  ],"[-0.0624059   0.37520134 -0.14289294 -0.6862483  -0.05221513 -0.0433512
  0.          0.         -0.2         0.13759409 -5.553978  ]",0.15626240409726272,0,0
13,13,2024-09-28 16:37:41.591881216,TASK_BEGIN,23,1.6514850140695176,-0.6396537915335817,-4.328644763697692,0.4984479017939545,0.0258091584375544,-0.4561686935422308,-15.353327384827576,3.97484007501984,0,2024-09-28 16:37:41.060666992,1727541461.0606678,2024-09-28 16:37:41.060667648,0,2.0,8.599532952835585,-38.39881386848417,[0.30846885 0.16777303 0.42014981 0.1036083 ],[0.30846885 0.16777303 0.42014981 0.1036083 ],"[-0.06662878  0.33025396 -0.16585839 -0.6647909  -0.06152849 -0.05621365
  0.          0.         -0.2         0.13337122 -5.194399  ]",0.16275880751142427,0,0
14,14,2024-09-28 16:37:42.535154944,TASK_BEGIN,23,1.6733762608526683,-0.6581639780891748,-4.276949437156642,0.4978804804669036,0.0660950902791947,-0.4621932211851588,-15.441672319706663,3.949043413336744,0,2024-09-28 16:37:42.021218994,1727541462.021219,2024-09-28 16:37:42.021219072,0,0.0,-2.572705469896107,-20.710372796944686,[0.4588517  0.39771247 0.07207658 0.07135925],[0.4588517  0.39771247 0.07207658 0.07135925],"[-0.08480915 -0.09981734  0.18462557 -0.4523571  -0.18999825 -0.02990542
  0.          0.         -0.2         0.11519086 -1.7538286 ]",0.24701276593908356,0,0
15,15,2024-09-28 16:37:42.595215104,TASK_BEGIN,23,1.688214385303166,-0.6732396658555594,-4.189819411605718,0.4891217080379504,0.0995650440423789,-0.4640577506744172,-15.468245237653925,3.911426689182501,0,2024-09-28 16:37:42.021218994,1727541462.021219,2024-09-28 16:37:42.021219072,0,0.0,-2.572705469896107,-20.710372796944686,[0.4588517  0.39771247 0.07207658 0.07135925],[0.4588517  0.39771247 0.07207658 0.07135925],"[-0.08480915 -0.09981734  0.18462557 -0.4523571  -0.18999825 -0.02990542
  0.          0.         -0.2         0.11519086 -1.7538286 ]",0.24701276593908356,0,0
16,16,2024-09-28 16:37:42.656269056,TASK_BEGIN,23,1.696804887788964,-0.684850264656246,-4.074162070581813,0.4742146705558875,0.122945932577622,-0.4616254630097006,-15.44377357471351,3.867581626487088,0,2024-09-28 16:37:42.021218994,1727541462.021219,2024-09-28 16:37:42.021219072,0,0.0,-2.572705469896107,-20.710372796944686,[0.4588517  0.39771247 0.07207658 0.07135925],[0.4588517  0.39771247 0.07207658 0.07135925],"[-0.08480915 -0.09981734  0.18462557 -0.4523571  -0.18999825 -0.02990542
  0.          0.         -0.2         0.11519086 -1.7538286 ]",0.24701276593908356,0,0
17,17,2024-09-28 16:37:42.733926912,TASK_BEGIN,23,1.6993788274543664,-0.6929542517997276,-3.9370858190640674,0.4550158646597256,0.1336952380660082,-0.4548685805378968,-15.38048306253465,3.822801092901514,0,2024-09-28 16:37:42.021218994,1727541462.021219,2024-09-28 16:37:42.021219072,0,0.0,-2.572705469896107,-20.710372796944686,[0.4588517  0.39771247 0.07207658 0.07135925],[0.4588517  0.39771247 0.07207658 0.07135925],"[-0.08480915 -0.09981734  0.18462557 -0.4523571  -0.18999825 -0.02990542
  0.          0.         -0.2         0.11519086 -1.7538286 ]",0.24701276593908356,0,0
18,18,2024-09-28 16:37:42.795521024,TASK_BEGIN,23,1.6957610956882343,-0.6975382172507736,-3.785969385768864,0.4332945507930518,0.1299677290876928,-0.4438356292640781,-15.29232186076727,3.7817863018263833,0,2024-09-28 16:37:42.021218994,1727541462.021219,2024-09-28 16:37:42.021219072,0,0.0,-2.572705469896107,-20.710372796944686,[0.4588517  0.39771247 0.07207658 0.07135925],[0.4588517  0.39771247 0.07207658 0.07135925],"[-0.08480915 -0.09981734  0.18462557 -0.4523571  -0.18999825 -0.02990542
  0.          0.         -0.2         0.11519086 -1.7538286 ]",0.24701276593908356,0,0
19,19,2024-09-28 16:37:42.874237952,TASK_BEGIN,23,1.6855785906425935,-0.698657975388742,-3.628370705722759,0.4107831953852495,0.1105990095873108,-0.4286317665798204,-15.19422800792776,3.748301211013066,0,2024-09-28 16:37:42.315218018,1727541462.3152187,2024-09-28 16:37:42.315218688,0,2.0,6.596795047837216,-22.728695023836366,[0.32340949 0.23227584 0.40908375 0.03523092],[0.32340949 0.23227584 0.40908375 0.03523092],"[-0.06102474 -0.20525014  0.31662938 -0.38773477 -0.20760165 -0.02905003
  0.          0.         -0.2         0.13897525 -0.9103661 ]",0.24827976307887378,0,0
20,20,2024-09-28 16:37:42.934790912,TASK_BEGIN,23,1.668460704038255,-0.6964663567252845,-3.471674577073381,0.3891205728496589,0.075140411944719,-0.4094265988367465,-15.100592882095064,3.72487029707234,0,2024-09-28 16:37:42.399216797,1727541462.3992174,2024-09-28 16:37:42.399217408,0,2.0,2.7701509460810856,-25.89979900550324,[0.31281196 0.20247262 0.44791155 0.03680386],[0.31281196 0.20247262 0.44791155 0.03680386],"[-0.05197517 -0.2318402   0.36126804 -0.3860949  -0.21320555 -0.02492994
  0.          0.         -0.2         0.14802483 -0.6976457 ]",0.28494877158520826,0,0
21,21,2024-09-28 16:37:43.861673984,TASK_BEGIN,23,1.6441918849238202,-0.6912155048368299,-3.3223650345985103,0.3696615334795515,0.023915227570888,-0.3864871043784846,-15.023513610435543,3.712656370173751,0,2024-09-28 16:37:43.029217041,1727541463.0292177,2024-09-28 16:37:43.029217792,0,1.0,1.17713924188026,26.758066626693882,[0.23477765 0.66890093 0.01333824 0.08298318],[0.23477765 0.66890093 0.01333824 0.08298318],"[ 4.8688252e-02 -3.1508362e-01  3.5655439e-01  6.4219086e-04
  2.6854656e-03  1.5585299e-03  1.0000000e+00  1.0000000e+00
 -2.0000000e-01  2.4868825e-01 -3.1698313e-02]",0.32093896320437565,1,1
22,22,2024-09-28 16:37:43.929509120,TASK_BEGIN,23,1.6127931374216418,-0.6832338529720425,-3.1850834196624365,0.3532264489669084,-0.0419383194171732,-0.3602196009619308,-14.971449239224064,3.7115657894424032,0,2024-09-28 16:37:43.050216064,1727541463.0502167,2024-09-28 16:37:43.050216704,0,1.0,1.6545260925894831,28.145012053016426,[0.28644591 0.60097121 0.01637163 0.09621125],[0.28644591 0.60097121 0.01637163 0.09621125],"[ 5.1035643e-02 -3.1507379e-01  3.3800590e-01  6.0863607e-04
  2.7561011e-03  1.4772491e-03  1.0000000e+00  1.0000000e+00
 -2.0000000e-01  2.5103563e-01 -3.1776991e-02]",0.28233631183536767,1,1
23,23,2024-09-28 16:37:43.997308160,TASK_BEGIN,23,1.5745390799703824,-0.6728903217430071,-3.061896514143001,0.3399479631661441,-0.1204472550251106,-0.3312042912367257,-14.948555259944037,3.720498142723983,0,2024-09-28 16:37:43.134218018,1727541463.1342187,2024-09-28 16:37:43.134218752,0,1.0,2.0233786410876373,33.51799860627007,[0.322443   0.53696263 0.01933527 0.1212591 ],[0.322443   0.53696263 0.01933527 0.1212591 ],"[ 5.9216578e-02 -3.1503981e-01  2.6520261e-01  4.7726405e-04
  3.0051467e-03  1.1586216e-03  1.0000000e+00  1.0000000e+00
 -2.0000000e-01  2.5921658e-01 -3.2048788e-02]",0.2539249848209347,1,1
24,24,2024-09-28 16:37:44.065054976,TASK_BEGIN,23,1.5299353628404264,-0.660561214616145,-2.952089246445137,0.3293291393546114,-0.2088408423112659,-0.3002085759225343,-14.954662857604603,3.737635076041449,0,2024-09-28 16:37:43.575217041,1727541463.575217,2024-09-28 16:37:43.575216896,0,0.0,0.5139926733831217,42.87229999103251,[0.46032266 0.30457753 0.02345122 0.21164858],[0.46032266 0.30457753 0.02345122 0.21164858],"[ 7.8792177e-02 -3.1495994e-01  6.9159560e-02  1.2434259e-04
  3.6135032e-03  3.0202835e-04  1.0000000e+00  1.0000000e+00
 -2.0000000e-01  2.7879217e-01 -3.2687750e-02]",0.24281211038891484,1,1
25,25,2024-09-28 16:37:44.132181760,TASK_BEGIN,23,1.4796689669034566,-0.6466078929929245,-2.852559540663568,0.320496802911814,-0.3037081123078124,-0.2681663399262715,-14.98574858041036,3.760724177881425,0,2024-09-28 16:37:43.639219971,1727541463.6392207,2024-09-28 16:37:43.639220736,0,0.0,0.5236952714471883,43.14483369322129,[0.46913908 0.28971481 0.02262135 0.21852476],[0.46913908 0.28971481 0.02262135 0.21852476],"[ 8.0002308e-02 -3.1495506e-01  5.2523799e-02  9.4429786e-05
  3.6514672e-03  2.2937029e-04  1.0000000e+00  1.0000000e+00
 -2.0000000e-01  2.8000230e-01 -3.2726850e-02]",0.24713422634805723,1,1
26,26,2024-09-28 16:37:44.195907328,TASK_BEGIN,23,1.4245275457386806,-0.6313621486964486,-2.758777344476776,0.312538357679414,-0.4012929568403719,-0.2361186464739052,-15.034687106082902,3.7873335800783146,0,2024-09-28 16:37:43.639219971,1727541463.6392207,2024-09-28 16:37:43.639220736,0,0.0,0.5236952714471883,43.14483369322129,[0.46913908 0.28971481 0.02262135 0.21852476],[0.46913908 0.28971481 0.02262135 0.21852476],"[ 8.0002308e-02 -3.1495506e-01  5.2523799e-02  9.4429786e-05
  3.6514672e-03  2.2937029e-04  1.0000000e+00  1.0000000e+00
 -2.0000000e-01  2.8000230e-01 -3.2726850e-02]",0.24713422634805723,1,1
27,27,2024-09-28 16:37:44.268419072,TASK_BEGIN,23,1.3652890344499848,-0.6151091401411047,-2.6660695382051127,0.3047818830292371,-0.4978721805134536,-0.2051233911426503,-15.09210778980714,3.815025611881638,0,2024-09-28 16:37:43.639219971,1727541463.6392207,2024-09-28 16:37:43.639220736,0,0.0,0.5236952714471883,43.14483369322129,[0.46913908 0.28971481 0.02262135 0.21852476],[0.46913908 0.28971481 0.02262135 0.21852476],"[ 8.0002308e-02 -3.1495506e-01  5.2523799e-02  9.4429786e-05
  3.6514672e-03  2.2937029e-04  1.0000000e+00  1.0000000e+00
 -2.0000000e-01  2.8000230e-01 -3.2726850e-02]",0.24713422634805723,1,1
28,28,2024-09-28 16:37:45.211703040,TASK_BEGIN,23,1.3026001084249086,-0.5980619051090457,-2.570742776045216,0.2969117770086124,-0.5901407281306508,-0.1761486484883848,-15.14734559593185,3.8414205091768174,0,2024-09-28 16:37:44.343529053,1727541464.3435295,2024-09-28 16:37:44.343529472,0,0.0,20.000000411751046,54.49597081481369,[0.48578658 0.25032683 0.02217053 0.24171606],[0.48578658 0.25032683 0.02217053 0.24171606],"[ 0.08155155 -0.3149488   0.          0.          0.00370201  0.
  1.          1.         -0.2         0.28155154 -0.03277692]",0.25058287673160884,1,1
29,35,2024-09-28 16:37:46.528071168,TASK_BEGIN,23,0.7940571208995046,-0.4579232537791869,-1.851884222570694,0.2433101296783329,-1.0084121199819296,-0.0607790711720365,-14.77919471555231,3.830396646210626,0,2024-09-28 16:37:46.002837891,1727541466.0028384,2024-09-28 16:37:46.002838272,1,3.0,-1.8399758546124565,-12.948821131533421,[0.39032726 0.09761039 0.09510513 0.41695721],[0.39032726 0.09761039 0.09510513 0.41695721],"[-8.4329443e-03  9.7900212e-01 -1.6825889e-01 -2.9494902e-01
  2.2840476e-02  4.1172516e-02  0.0000000e+00  0.0000000e+00
  0.0000000e+00 -8.4329443e-03 -1.0950256e+01]",0.17179247813846818,0,0
30,36,2024-09-28 16:37:46.605053952,TASK_BEGIN,23,0.718905049736402,-0.4351839046491837,-1.7768083065312923,0.2369833983196255,-1.0404207433490709,-0.054634229034737,-14.589973767145192,3.795376217149601,0,2024-09-28 16:37:46.002837891,1727541466.0028384,2024-09-28 16:37:46.002838272,1,3.0,-1.8399758546124565,-12.948821131533421,[0.39032726 0.09761039 0.09510513 0.41695721],[0.39032726 0.09761039 0.09510513 0.41695721],"[-8.4329443e-03  9.7900212e-01 -1.6825889e-01 -2.9494902e-01
  2.2840476e-02  4.1172516e-02  0.0000000e+00  0.0000000e+00
  0.0000000e+00 -8.4329443e-03 -1.0950256e+01]",0.17179247813846818,0,0
31,37,2024-09-28 16:37:46.672882176,TASK_BEGIN,23,0.6465669125536954,-0.412404181872263,-1.7168933199483436,0.2317653549136193,-1.068406989451355,-0.0499032070987823,-14.377072952305406,3.7568318232010474,0,2024-09-28 16:37:46.002837891,1727541466.0028384,2024-09-28 16:37:46.002838272,1,3.0,-1.8399758546124565,-12.948821131533421,[0.39032726 0.09761039 0.09510513 0.41695721],[0.39032726 0.09761039 0.09510513 0.41695721],"[-8.4329443e-03  9.7900212e-01 -1.6825889e-01 -2.9494902e-01
  2.2840476e-02  4.1172516e-02  0.0000000e+00  0.0000000e+00
  0.0000000e+00 -8.4329443e-03 -1.0950256e+01]",0.17179247813846818,0,0
32,38,2024-09-28 16:37:46.729799168,TASK_BEGIN,23,0.5783730899354197,-0.3900223817536384,-1.67181965188118,0.2281273995870828,-1.092926639830123,-0.0462962562782491,-14.146866446851268,3.7175903830263057,0,2024-09-28 16:37:46.002837891,1727541466.0028384,2024-09-28 16:37:46.002838272,1,3.0,-1.8399758546124565,-12.948821131533421,[0.39032726 0.09761039 0.09510513 0.41695721],[0.39032726 0.09761039 0.09510513 0.41695721],"[-8.4329443e-03  9.7900212e-01 -1.6825889e-01 -2.9494902e-01
  2.2840476e-02  4.1172516e-02  0.0000000e+00  0.0000000e+00
  0.0000000e+00 -8.4329443e-03 -1.0950256e+01]",0.17179247813846818,0,0
33,39,2024-09-28 16:37:46.808422144,TASK_BEGIN,23,0.5155935153528198,-0.3685274946195669,-1.6391500048444774,0.2263605670863483,-1.1142471710346789,-0.0436152795516624,-13.905017222988656,3.680050240934525,0,2024-09-28 16:37:46.002837891,1727541466.0028384,2024-09-28 16:37:46.002838272,1,3.0,-1.8399758546124565,-12.948821131533421,[0.39032726 0.09761039 0.09510513 0.41695721],[0.39032726 0.09761039 0.09510513 0.41695721],"[-8.4329443e-03  9.7900212e-01 -1.6825889e-01 -2.9494902e-01
  2.2840476e-02  4.1172516e-02  0.0000000e+00  0.0000000e+00
  0.0000000e+00 -8.4329443e-03 -1.0950256e+01]",0.17179247813846818,0,0
34,40,2024-09-28 16:37:46.869008128,TASK_BEGIN,23,0.4593852685330233,-0.3484179405956341,-1.6144980233034554,0.2264157571095336,-1.1324884738027892,-0.0417337430226981,-13.655757716440071,3.6457716940862057,0,2024-09-28 16:37:46.002837891,1727541466.0028384,2024-09-28 16:37:46.002838272,1,3.0,-1.8399758546124565,-12.948821131533421,[0.39032726 0.09761039 0.09510513 0.41695721],[0.39032726 0.09761039 0.09510513 0.41695721],"[-8.4329443e-03  9.7900212e-01 -1.6825889e-01 -2.9494902e-01
  2.2840476e-02  4.1172516e-02  0.0000000e+00  0.0000000e+00
  0.0000000e+00 -8.4329443e-03 -1.0950256e+01]",0.17179247813846818,0,0
35,41,2024-09-28 16:37:46.943887872,TASK_BEGIN,23,0.4107617444722279,-0.3301633025785178,-1.5923234551092087,0.2278471739734531,-1.1478217106490962,-0.0405654151947506,-13.401401417911604,3.615248471307992,0,2024-09-28 16:37:46.087322021,1727541466.0873225,2024-09-28 16:37:46.087322368,1,0.0,-2.4922674147930977,-21.293034295319668,[0.39420401 0.11441922 0.12234812 0.36902866],[0.39420401 0.11441922 0.12234812 0.36902866],"[-1.2618065e-02  9.5657492e-01 -1.5072002e-01 -3.9724979e-01
  2.2985689e-02  7.2586740e-04  0.0000000e+00  0.0000000e+00
  0.0000000e+00 -1.2618065e-02 -1.0770839e+01]",0.13043636225182062,0,0
36,42,2024-09-28 16:37:47.886805248,TASK_BEGIN,23,0.3706019507257394,-0.3141780221709357,-1.5670755240919425,0.2298548273708612,-1.160594958469254,-0.040045863148673,-13.142204133770488,3.587899456658415,0,2024-09-28 16:37:47.112319092,1727541467.1123197,2024-09-28 16:37:47.112319744,1,0.0,-2.7482173987698886,-26.45436923791136,[0.37769707 0.24940836 0.14563408 0.22726049],[0.37769707 0.24940836 0.14563408 0.22726049],"[-0.06580774  0.53248155 -0.16556731 -0.5019874  -0.04055678 -0.04123854
  0.          0.          0.         -0.06580774 -7.3780923 ]",0.051923781484775576,0,0
37,43,2024-09-28 16:37:47.943686144,TASK_BEGIN,23,0.3396827624147578,-0.3008051761586839,-1.5342243534378193,0.2313944614024597,-1.1713001276440096,-0.0401378480444832,-12.87682032912014,3.5622882848556587,0,2024-09-28 16:37:47.448288818,1727541467.4482896,2024-09-28 16:37:47.448289536,1,0.0,-2.7963539488241906,-51.8346275088876,[0.41470521 0.14468499 0.26842469 0.17218511],[0.41470521 0.14468499 0.26842469 0.17218511],"[-0.08251381  0.3777963  -0.1416731  -0.77726436 -0.07027334 -0.03578184
  0.          0.          0.         -0.08251381 -6.14061   ]",0.09449385503694106,0,0
38,44,2024-09-28 16:37:48.022248960,TASK_BEGIN,23,0.3186950558893004,-0.2903047142813507,-1.4909234951232713,0.2313225466657144,-1.1804160925453528,-0.0408477894834912,-12.603317579660596,3.5364866363592924,0,2024-09-28 16:37:47.532291992,1727541467.5322924,2024-09-28 16:37:47.532292352,1,2.0,1.2965664457610415,-56.7327897887236,[0.35021263 0.09620997 0.40284016 0.15073724],[0.35021263 0.09620997 0.40284016 0.15073724],"[-0.08662089  0.3259685  -0.15545075 -0.8321236  -0.07779322 -0.04305205
  0.          0.          0.         -0.08662089 -5.725988  ]",0.1438847710292269,0,0
39,45,2024-09-28 16:37:48.090139904,TASK_BEGIN,23,0.3082121620879743,-0.282845077842712,-1.4362892861894825,0.2285481433788614,-1.1882421064970965,-0.0422302158456626,-12.3202419906214,3.508421925715882,0,2024-09-28 16:37:47.574291992,1727541467.5742922,2024-09-28 16:37:47.574292224,1,2.0,11.121248593140361,-47.29741950379109,[0.31815672 0.09582725 0.46897271 0.11704332],[0.31815672 0.09582725 0.46897271 0.11704332],"[-0.08851632  0.30090368 -0.11197687 -0.7467095  -0.08157844 -0.03265305
  0.          0.          0.         -0.08851632 -5.5254693 ]",0.19822980040385269,0,0
40,46,2024-09-28 16:37:48.145355008,TASK_BEGIN,23,0.3086025143018275,-0.2784984461912398,-1.3713330918644724,0.2221535630186618,-1.1948218121903378,-0.0443707424973889,-12.027280752605716,3.476134291091315,0,2024-09-28 16:37:47.574291992,1727541467.5742922,2024-09-28 16:37:47.574292224,1,2.0,11.121248593140361,-47.29741950379109,[0.31815672 0.09582725 0.46897271 0.11704332],[0.31815672 0.09582725 0.46897271 0.11704332],"[-0.08851632  0.30090368 -0.11197687 -0.7467095  -0.08157844 -0.03265305
  0.          0.          0.         -0.08851632 -5.5254693 ]",0.19822980040385269,0,0
41,47,2024-09-28 16:37:48.222542848,TASK_BEGIN,23,0.3199099245922258,-0.2772381312528483,-1.2985933877612226,0.2114424813249219,-1.1999995345327026,-0.0473557533635882,-11.725512416112547,3.437994788818003,0,2024-09-28 16:37:47.574291992,1727541467.5742922,2024-09-28 16:37:47.574292224,1,2.0,11.121248593140361,-47.29741950379109,[0.31815672 0.09582725 0.46897271 0.11704332],[0.31815672 0.09582725 0.46897271 0.11704332],"[-0.08851632  0.30090368 -0.11197687 -0.7467095  -0.08157844 -0.03265305
  0.          0.          0.         -0.08851632 -5.5254693 ]",0.19822980040385269,0,0
42,48,2024-09-28 16:37:48.293481216,TASK_BEGIN,23,0.34175237988723,-0.2789388476817894,-1.2215834083336292,0.1959130863743095,-1.2035873239609494,-0.0512401596357668,-11.41749007489102,3.3929478923249223,0,2024-09-28 16:37:47.784290039,1727541467.7842908,2024-09-28 16:37:47.784290816,1,2.0,8.370177577227164,-41.21018834166546,[0.33363423 0.12685568 0.45854283 0.08096726],[0.33363423 0.12685568 0.45854283 0.08096726],"[-0.09823624  0.17988014 -0.1495715  -0.68284833 -0.10546856 -0.06416626
  0.          0.          0.         -0.09823624 -4.557281  ]",0.20016235551567885,0,0
43,49,2024-09-28 16:37:49.236897024,TASK_BEGIN,23,0.3732847209055872,-0.2833816613393903,-1.144253546824767,0.1752175838665437,-1.2055630135624655,-0.0560196404376611,-11.107397338332078,3.340786577690145,0,2024-09-28 16:37:48.707870850,1727541468.707871,2024-09-28 16:37:48.707870976,1,2.0,6.947210464304615,-25.07770201168388,[0.31786771 0.1603934  0.45743449 0.0643044 ],[0.31786771 0.1603934  0.45743449 0.0643044 ],"[-0.10557977 -0.22104996  0.20983157 -0.42093587 -0.27379853 -0.08006641
  0.          0.          0.         -0.10557977 -1.34984   ]",0.27586705954218893,0,0
44,50,2024-09-28 16:37:49.291386112,TASK_BEGIN,23,0.4132374825342272,-0.2902631322655173,-1.0706675520381594,0.1491908441874097,-1.2061981557223838,-0.0616130339904249,-10.801295704596017,3.2823961754405397,0,2024-09-28 16:37:48.770870850,1727541468.7708714,2024-09-28 16:37:48.770871296,1,2.0,0.3160809248243737,-29.090557892429164,[0.34030352 0.15063135 0.43826714 0.07079799],[0.34030352 0.15063135 0.43826714 0.07079799],"[-0.1011401  -0.24238473  0.23634654 -0.44991884 -0.2857012  -0.07792028
  0.          0.          0.         -0.1011401  -1.1791619 ]",0.27845305549471283,0,0
45,51,2024-09-28 16:37:49.369023232,TASK_BEGIN,23,0.4600214250722073,-0.2992086225561752,-1.004848265193803,0.1179543011860944,-1.206046183644306,-0.0678617688540306,-10.507175054079225,3.219835770710549,0,2024-09-28 16:37:48.876655029,1727541468.8766556,2024-09-28 16:37:48.876655616,1,2.0,3.3613570332874874,-25.494139287410448,[0.35583684 0.15224229 0.41260164 0.07931922],[0.35583684 0.15224229 0.41260164 0.07931922],"[-0.09152261 -0.2720135   0.29469287 -0.3636645  -0.30683485 -0.09177153
  0.          0.          0.         -0.09152261 -0.9421319 ]",0.28555987765388235,0,0
46,52,2024-09-28 16:37:49.440200192,TASK_BEGIN,23,0.5118742212837566,-0.3097925154757536,-0.9504412745526996,0.0819961941853667,-1.20579487087634,-0.0745462319199963,-10.234603143433382,3.1561737914332157,0,2024-09-28 16:37:48.917424805,1727541468.9174254,2024-09-28 16:37:48.917425408,1,2.0,-1.7657732080007265,-29.00441782396004,[0.36036346 0.14034729 0.40186117 0.09742808],[0.36036346 0.14034729 0.40186117 0.09742808],"[-0.08724054 -0.28388566  0.33419463 -0.37316728 -0.31565818 -0.08469652
  0.          0.          0.         -0.08724054 -0.8471545 ]",0.28692352633198925,0,0
47,53,2024-09-28 16:37:49.493506048,TASK_BEGIN,23,0.5670033353249999,-0.321566150118254,-0.909998805557754,0.0421453588857432,-1.2060738919988363,-0.081408611877759,-9.994196653874916,3.095147247003843,0,2024-09-28 16:37:48.958520020,1727541468.958521,2024-09-28 16:37:48.958520832,1,2.0,0.6350618398333665,-29.901701382893,[0.31384333 0.12913952 0.47861234 0.07840481],[0.31384333 0.12913952 0.47861234 0.07840481],"[-0.0822889  -0.2951932   0.3903849  -0.3274423  -0.32397854 -0.0817116
  0.          0.          0.         -0.0822889  -0.7566942 ]",0.37046668612832434,0,0
48,54,2024-09-28 16:37:49.572055296,TASK_BEGIN,23,0.623675015076863,-0.3340864968881373,-0.8842499223438399,-0.0005180873281216,-1.2073247399653475,-0.0881725618279587,-9.797186296150285,3.0407744802755694,0,2024-09-28 16:37:49.020364990,1727541469.0203652,2024-09-28 16:37:49.020365312,1,2.0,2.053542004283355,-30.619963931273798,[0.31193656 0.12319876 0.47522568 0.089639  ],[0.31193656 0.12319876 0.47522568 0.089639  ],"[-0.07418784 -0.31165278  0.40340889 -0.3257239  -0.33673063 -0.09161865
  0.          0.          0.         -0.07418784 -0.6250175 ]",0.3747936279917723,0,0
49,55,2024-09-28 16:37:49.643361024,TASK_BEGIN,23,0.6802369954523473,-0.3469355798500164,-0.871908096745631,-0.0447074512981864,-1.209759573379081,-0.0945591674200084,-9.65491137413189,2.9969591442517403,0,2024-09-28 16:37:49.020364990,1727541469.0203652,2024-09-28 16:37:49.020365312,1,2.0,2.053542004283355,-30.619963931273798,[0.31193656 0.12319876 0.47522568 0.089639  ],[0.31193656 0.12319876 0.47522568 0.089639  ],"[-0.07418784 -0.31165278  0.40340889 -0.3257239  -0.33673063 -0.09161865
  0.          0.          0.         -0.07418784 -0.6250175 ]",0.3747936279917723,0,0
50,56,2024-09-28 16:37:50.580090112,TASK_BEGIN,23,0.7351059878577766,-0.3597300764687092,-0.8701020412414179,-0.0888975710933163,-1.213369360100878,-0.1003037756258217,-9.577858082592764,2.967058567083496,0,2024-09-28 16:37:49.772891113,1727541469.772892,2024-09-28 16:37:49.772891904,1,1.0,1.5716409966598286,40.14790463584307,[0.24215564 0.6413528  0.02469457 0.09179698],[0.24215564 0.6413528  0.02469457 0.09179698],"[ 5.88602237e-02 -3.85357141e-01  3.48446667e-01  1.35885445e-08
  7.10187806e-03 -8.69468775e-10  1.00000000e+00  1.00000000e+00
  0.00000000e+00  5.88602237e-02 -3.53826135e-02]",0.1948345521763634,0,0
51,57,2024-09-28 16:37:50.654850048,TASK_BEGIN,23,0.7867629174893276,-0.3721319411070515,-0.875073803561303,-0.1312914684802155,-1.2179557412399458,-0.1051771574744055,-9.574224208508577,2.9534622133750155,0,2024-09-28 16:37:49.772891113,1727541469.772892,2024-09-28 16:37:49.772891904,1,1.0,1.5716409966598286,40.14790463584307,[0.24215564 0.6413528  0.02469457 0.09179698],[0.24215564 0.6413528  0.02469457 0.09179698],"[ 5.88602237e-02 -3.85357141e-01  3.48446667e-01  1.35885445e-08
  7.10187806e-03 -8.69468775e-10  1.00000000e+00  1.00000000e+00
  0.00000000e+00  5.88602237e-02 -3.53826135e-02]",0.1948345521763634,0,0
52,58,2024-09-28 16:37:50.722632704,TASK_BEGIN,23,0.8337803499045846,-0.3838681076182018,-0.8828040276839892,-0.1698755595755686,-1.2231922724962956,-0.1090091163053683,-9.648515221884564,2.957314731513026,0,2024-09-28 16:37:49.857770996,1727541469.8577712,2024-09-28 16:37:49.857771264,1,1.0,1.3575509126236136,44.642150693534134,[0.27446218 0.58395175 0.02625387 0.11533221],[0.27446218 0.58395175 0.02625387 0.11533221],"[ 6.7301117e-02 -3.8535714e-01  2.7791071e-01 -1.3908301e-08
  7.1018315e-03  8.5702234e-10  1.0000000e+00  1.0000000e+00
  0.0000000e+00  6.7301117e-02 -3.5382614e-02]",0.1662064527888585,0,0
53,59,2024-09-28 16:37:50.780703232,TASK_BEGIN,23,0.874873783132325,-0.3947508433293047,-0.889406741975208,-0.2025927314703279,-1.2287142954165655,-0.1117073952259611,-9.80078876603856,2.978491383321136,0,2024-09-28 16:37:49.898770996,1727541469.898771,2024-09-28 16:37:49.898770944,1,1.0,1.999078714996594,47.7046907505698,[0.30121425 0.54284221 0.02974971 0.12619383],[0.30121425 0.54284221 0.02974971 0.12619383],"[ 7.0710182e-02 -3.8535714e-01  2.3459531e-01  9.1869596e-09
  7.1018063e-03 -4.7663908e-09  1.0000000e+00  1.0000000e+00
  0.0000000e+00  7.0710182e-02 -3.5382614e-02]",0.15145407206030426,0,0
54,60,2024-09-28 16:37:50.858117120,TASK_BEGIN,23,0.908944765685234,-0.4046792320487842,-0.891240882134538,-0.2276027417584035,-1.2342037120787996,-0.1132667771240234,-10.026837249447578,3.015818613762037,0,2024-09-28 16:37:50.360020020,1727541470.3600202,2024-09-28 16:37:50.360020224,1,0.0,0.523580649867645,54.92798398537759,[0.44963284 0.28498315 0.03088992 0.23449409],[0.44963284 0.28498315 0.03088992 0.23449409],"[ 8.5165583e-02 -3.8535714e-01  2.8045798e-02  7.5969302e-09
  7.1015782e-03 -4.0985375e-11  1.0000000e+00  1.0000000e+00
  0.0000000e+00  8.5165583e-02 -3.5382614e-02]",0.1261152740420522,0,0
55,61,2024-09-28 16:37:50.919070976,TASK_BEGIN,23,0.9350902362808522,-0.4136131804181561,-0.8847888270431071,-0.2435600156444226,-1.2394309813535571,-0.1137682614359979,-10.319189422113602,3.067438575818728,0,2024-09-28 16:37:50.423029053,1727541470.4230294,2024-09-28 16:37:50.423029504,1,0.0,0.5348975385228023,54.87413692567105,[0.4627446  0.26805008 0.03051363 0.23869169],[0.4627446  0.26805008 0.03051363 0.23869169],"[ 8.5523605e-02 -3.8535714e-01  1.1754058e-02  7.5969337e-09
  7.1015465e-03  1.3634637e-11  1.0000000e+00  1.0000000e+00
  0.0000000e+00  8.5523605e-02 -3.5382614e-02]",0.12829985851689507,0,0
56,62,2024-09-28 16:37:50.981103104,TASK_BEGIN,23,0.9525815735352312,-0.4215346080486924,-0.8665015246543587,-0.2498142525032934,-1.244265691530945,-0.1133691411472954,-10.66858274360975,3.1311999684088687,0,2024-09-28 16:37:50.486074951,1727541470.4860752,2024-09-28 16:37:50.486075136,1,0.0,0.07606181333600048,54.38534173355096,[0.47205638 0.25292623 0.03005704 0.24496035],[0.47205638 0.25292623 0.03005704 0.24496035],"[ 8.5572802e-02 -3.8535714e-01 -1.3175714e-04 -4.6949185e-07
  7.1029998e-03  2.6880418e-05  1.0000000e+00  1.0000000e+00
  0.0000000e+00  8.5572802e-02 -3.5382614e-02]",0.13105252523521976,0,0
57,70,2024-09-28 16:37:53.286134016,TASK_BEGIN,23,0.737790700662918,-0.4400865669983733,-0.094984174863347,-0.0509618774470496,-1.257621294112961,-0.1155513138323888,-14.304947881612508,3.803779565408655,0,2024-09-28 16:37:52.629977051,1727541472.629977,2024-09-28 16:37:52.629977088,2,1.0,-2.53804792041627,-13.287604406585949,[0.39463699 0.40381989 0.05938069 0.14216243],[0.39463699 0.40381989 0.05938069 0.14216243],"[ 1.7072359e-03  9.8938501e-01  2.0782012e-02 -2.0048666e-01
  3.0878966e-03  4.0208440e-02  0.0000000e+00  0.0000000e+00
 -6.0000002e-01  6.0170722e-01 -1.0068683e+01]",0.20342429020321529,0,0
58,71,2024-09-28 16:37:53.353977088,TASK_BEGIN,23,0.6660088694057018,-0.4347959592998127,0.0264594124141562,-0.0150772148002883,-1.2461922079676675,-0.1223289819605615,-14.667457982066798,3.863161104590288,0,2024-09-28 16:37:52.629977051,1727541472.629977,2024-09-28 16:37:52.629977088,2,1.0,-2.53804792041627,-13.287604406585949,[0.39463699 0.40381989 0.05938069 0.14216243],[0.39463699 0.40381989 0.05938069 0.14216243],"[ 1.7072359e-03  9.8938501e-01  2.0782012e-02 -2.0048666e-01
  3.0878966e-03  4.0208440e-02  0.0000000e+00  0.0000000e+00
 -6.0000002e-01  6.0170722e-01 -1.0068683e+01]",0.20342429020321529,0,0
59,72,2024-09-28 16:37:53.409536000,TASK_BEGIN,23,0.5860342040330967,-0.4274136209814037,0.1221493608474265,0.0198355842945634,-1.2274150592552662,-0.1313689519144479,-14.959013801999836,3.906265287995903,0,2024-09-28 16:37:52.629977051,1727541472.629977,2024-09-28 16:37:52.629977088,2,1.0,-2.53804792041627,-13.287604406585949,[0.39463699 0.40381989 0.05938069 0.14216243],[0.39463699 0.40381989 0.05938069 0.14216243],"[ 1.7072359e-03  9.8938501e-01  2.0782012e-02 -2.0048666e-01
  3.0878966e-03  4.0208440e-02  0.0000000e+00  0.0000000e+00
 -6.0000002e-01  6.0170722e-01 -1.0068683e+01]",0.20342429020321529,0,0
60,73,2024-09-28 16:37:53.486735104,TASK_BEGIN,23,0.4997780056090159,-0.4180197799244284,0.1831306956483755,0.0533342668199532,-1.2000638884122872,-0.142554301833394,-15.169088695888163,3.931386899840083,0,2024-09-28 16:37:52.629977051,1727541472.629977,2024-09-28 16:37:52.629977088,2,1.0,-2.53804792041627,-13.287604406585949,[0.39463699 0.40381989 0.05938069 0.14216243],[0.39463699 0.40381989 0.05938069 0.14216243],"[ 1.7072359e-03  9.8938501e-01  2.0782012e-02 -2.0048666e-01
  3.0878966e-03  4.0208440e-02  0.0000000e+00  0.0000000e+00
 -6.0000002e-01  6.0170722e-01 -1.0068683e+01]",0.20342429020321529,0,0
61,74,2024-09-28 16:37:53.549592064,TASK_BEGIN,23,0.4098357628990686,-0.4068192620904604,0.2036347177573574,0.0851586898007255,-1.1633103918795382,-0.1556226904062502,-15.291659100256338,3.938058763302344,0,2024-09-28 16:37:52.671976074,1727541472.6719768,2024-09-28 16:37:52.671976704,2,0.0,-2.763544979116091,-18.52019016975256,[0.41917814 0.36661085 0.06441167 0.14979934],[0.41917814 0.36661085 0.06441167 0.14979934],"[ 2.0357769e-03  9.8191965e-01  2.0728977e-02 -2.5170484e-01
  7.1053482e-03  4.0181492e-02  0.0000000e+00  0.0000000e+00
 -6.0000002e-01  6.0203576e-01 -1.0008960e+01]",0.19725773434423646,0,0
62,75,2024-09-28 16:37:53.625036800,TASK_BEGIN,23,0.3193368390841004,-0.3941291427491092,0.1810046546901967,0.1153076309511355,-1.116845845192672,-0.1701791470816067,-15.326208635364004,3.927196589669805,0,2024-09-28 16:37:52.755976807,1727541472.7559776,2024-09-28 16:37:52.755977728,2,0.0,-2.7683779634203063,-28.693425138870595,[0.39233375 0.33265701 0.13296848 0.14204076],[0.39233375 0.33265701 0.13296848 0.14204076],"[ 2.6905537e-03  9.6218753e-01  2.0624151e-02 -3.5414332e-01
  1.5133713e-02  4.0136088e-02  0.0000000e+00  0.0000000e+00
 -6.0000002e-01  6.0269058e-01 -9.8511028e+00]",0.11339123662195083,0,0
63,76,2024-09-28 16:37:53.692775936,TASK_BEGIN,23,0.2316754967627817,-0.3803567014381425,0.1154159489623368,0.1440646957062308,-1.060981070420005,-0.185707764221042,-15.278311248687166,3.901100872408195,0,2024-09-28 16:37:53.008980957,1727541473.0089817,2024-09-28 16:37:53.008981760,2,0.0,-2.8678713409127568,-32.17574371138237,[0.36794955 0.34410682 0.14130845 0.14663517],[0.36794955 0.34410682 0.14130845 0.14663517],"[ 3.1051636e-03  8.8022864e-01 -3.0685516e-02 -4.0258574e-01
  3.4807868e-02  2.4761334e-02  0.0000000e+00  0.0000000e+00
 -6.0000002e-01  6.0310519e-01 -9.1954317e+00]",0.10137317714353875,0,0
64,77,2024-09-28 16:37:54.605799168,TASK_BEGIN,23,0.15018662597896,-0.3659713704036412,0.0097349498267745,0.1718841849074086,-0.9966901080394194,-0.2015889504233306,-15.159341731044876,3.863253063214352,0,2024-09-28 16:37:53.960871094,1727541473.9608717,2024-09-28 16:37:53.960871680,2,0.0,-2.2147042658504006,-23.559234539071056,[0.33919593 0.25919501 0.14111554 0.26049352],[0.33919593 0.25919501 0.14111554 0.26049352],"[-0.01957575  0.583411   -0.14599465 -0.3776519   0.07170525 -0.0181537
  0.          0.         -0.6         0.58042425 -6.8208904 ]",0.08091499006742651,0,0
65,78,2024-09-28 16:37:54.666279936,TASK_BEGIN,23,0.0778675915349125,-0.3514769437336198,-0.1306260054253179,0.1991859030902352,-0.9255730662249312,-0.2171315780954161,-14.984995816628969,3.8178686689291226,0,2024-09-28 16:37:53.960871094,1727541473.9608717,2024-09-28 16:37:53.960871680,2,0.0,-2.2147042658504006,-23.559234539071056,[0.33919593 0.25919501 0.14111554 0.26049352],[0.33919593 0.25919501 0.14111554 0.26049352],"[-0.01957575  0.583411   -0.14599465 -0.3776519   0.07170525 -0.0181537
  0.          0.         -0.6         0.58042425 -6.8208904 ]",0.08091499006742651,0,0
66,79,2024-09-28 16:37:54.744355072,TASK_BEGIN,23,0.017220789236382,-0.3373928888294565,-0.2981032463687384,0.2261831732057351,-0.8497549587336926,-0.2316209346733423,-14.77280667976936,3.769289548227572,0,2024-09-28 16:37:53.960871094,1727541473.9608717,2024-09-28 16:37:53.960871680,2,0.0,-2.2147042658504006,-23.559234539071056,[0.33919593 0.25919501 0.14111554 0.26049352],[0.33919593 0.25919501 0.14111554 0.26049352],"[-0.01957575  0.583411   -0.14599465 -0.3776519   0.07170525 -0.0181537
  0.          0.         -0.6         0.58042425 -6.8208904 ]",0.08091499006742651,0,0
67,80,2024-09-28 16:37:54.805974784,TASK_BEGIN,23,-0.0297785790467623,-0.3242473586904573,-0.4836775213184986,0.2528081754246832,-0.7717671206780196,-0.2443703661395105,-14.539361245123224,3.721384159233439,0,2024-09-28 16:37:54.318873047,1727541474.3178713,2024-09-28 16:37:54.317871360,2,0.0,-2.2161692664784596,-36.31309308041131,[0.3586511  0.20221915 0.17739081 0.26173894],[0.3586511  0.20221915 0.17739081 0.26173894],"[-0.03712551  0.46248353 -0.14196633 -0.58745366  0.05132663 -0.04007088
  0.          0.         -0.6         0.5628745  -5.853471  ]",0.11449778284256255,0,0
68,81,2024-09-28 16:37:54.881854976,TASK_BEGIN,23,-0.0616440895360827,-0.3125717026181389,-0.6777267344098399,0.278706947675664,-0.6944386278547467,-0.2547628843736244,-14.298035301359318,3.677089365464176,0,2024-09-28 16:37:54.338866943,1727541474.3388677,2024-09-28 16:37:54.338867712,2,0.0,-2.2222239259276364,-38.17218607553484,[0.38109088 0.19677135 0.16126311 0.26087466],[0.38109088 0.19677135 0.16126311 0.26087466],"[-0.03813164  0.45290303 -0.14196621 -0.61305517  0.04932306 -0.04007079
  0.          0.         -0.6         0.56186837 -5.776827  ]",0.14395122123121218,0,0
69,82,2024-09-28 16:37:54.945771008,TASK_BEGIN,23,-0.0773453694945184,-0.3028798344263064,-0.8707813128091312,0.3032496040974334,-0.6207843706557289,-0.2622816111525445,-14.05770577151212,3.638147848463468,0,2024-09-28 16:37:54.338866943,1727541474.3388677,2024-09-28 16:37:54.338867712,2,0.0,-2.2222239259276364,-38.17218607553484,[0.38109088 0.19677135 0.16126311 0.26087466],[0.38109088 0.19677135 0.16126311 0.26087466],"[-0.03813164  0.45290303 -0.14196621 -0.61305517  0.04932306 -0.04007079
  0.          0.         -0.6         0.56186837 -5.776827  ]",0.14395122123121218,0,0
70,83,2024-09-28 16:37:55.011549184,TASK_BEGIN,23,-0.0763314992423851,-0.2956255438523186,-1.0539906976121964,0.3255385163404073,-0.5538622841649227,-0.2665401774250704,-13.822417185978017,3.6050357745731305,0,2024-09-28 16:37:54.338866943,1727541474.3388677,2024-09-28 16:37:54.338867712,2,0.0,-2.2222239259276364,-38.17218607553484,[0.38109088 0.19677135 0.16126311 0.26087466],[0.38109088 0.19677135 0.16126311 0.26087466],"[-0.03813164  0.45290303 -0.14196621 -0.61305517  0.04932306 -0.04007079
  0.          0.         -0.6         0.56186837 -5.776827  ]",0.14395122123121218,0,0
71,84,2024-09-28 16:37:55.956597248,TASK_BEGIN,23,-0.0585926432029987,-0.2911519247921848,-1.2194245910657318,0.3444588068350505,-0.4965869461342738,-0.2673211316693069,-13.591867068454556,3.5770437934670305,0,2024-09-28 16:37:55.176955078,1727541475.1769552,2024-09-28 16:37:55.176955136,2,0.0,-2.5909426507233206,-17.178329416823658,[0.56290887 0.17877532 0.12019635 0.13811946],[0.56290887 0.17877532 0.12019635 0.13811946],"[-0.09063729  0.07886815 -0.19253692 -0.49475685 -0.05447198 -0.06039343
  0.          0.         -0.6         0.5093627  -2.7845476 ]",0.36059003251907834,0,0
72,85,2024-09-28 16:37:56.018763264,TASK_BEGIN,23,-0.0246945001410009,-0.2896586368662114,-1.3605469834704569,0.3588364280078614,-0.4515171761727404,-0.2646120657823054,-13.362734954048468,3.5524940164907384,0,2024-09-28 16:37:55.176955078,1727541475.1769552,2024-09-28 16:37:55.176955136,2,0.0,-2.5909426507233206,-17.178329416823658,[0.56290887 0.17877532 0.12019635 0.13811946],[0.56290887 0.17877532 0.12019635 0.13811946],"[-0.09063729  0.07886815 -0.19253692 -0.49475685 -0.05447198 -0.06039343
  0.          0.         -0.6         0.5093627  -2.7845476 ]",0.36059003251907834,0,0
73,86,2024-09-28 16:37:56.081008896,TASK_BEGIN,23,0.0242502065985677,-0.2911989925170812,-1.4729357729853274,0.3677082645651428,-0.4206702830232173,-0.258615219780159,-13.130732364567054,3.529107957590168,0,2024-09-28 16:37:55.386907959,1727541475.3869078,2024-09-28 16:37:55.386907904,2,0.0,-2.6331992839854763,-11.593685322607433,[0.55571883 0.18740215 0.11063805 0.14624097],[0.55571883 0.18740215 0.11063805 0.14624097],"[-0.10260376  0.00277245 -0.14171351 -0.4398921  -0.08286218 -0.05357419
  0.          0.         -0.6         0.49739626 -2.175782  ]",0.3591059372943529,0,0
74,87,2024-09-28 16:37:56.163507200,TASK_BEGIN,23,0.0866479507924973,-0.2956952967477217,-1.5549115884290328,0.3706177676358204,-0.4054099665473514,-0.2497157740126749,-12.892788437575112,3.5045021563516507,0,2024-09-28 16:37:55.386907959,1727541475.3869078,2024-09-28 16:37:55.386907904,2,0.0,-2.6331992839854763,-11.593685322607433,[0.55571883 0.18740215 0.11063805 0.14624097],[0.55571883 0.18740215 0.11063805 0.14624097],"[-0.10260376  0.00277245 -0.14171351 -0.4398921  -0.08286218 -0.05357419
  0.          0.         -0.6         0.49739626 -2.175782  ]",0.3591059372943529,0,0
75,88,2024-09-28 16:37:56.220876032,TASK_BEGIN,23,0.1604854453929752,-0.3029545197693428,-1.60771913244036,0.3678079569503212,-0.4063974316769717,-0.2384195821023153,-12.64858257699844,3.4767049921230373,0,2024-09-28 16:37:55.386907959,1727541475.3869078,2024-09-28 16:37:55.386907904,2,0.0,-2.6331992839854763,-11.593685322607433,[0.55571883 0.18740215 0.11063805 0.14624097],[0.55571883 0.18740215 0.11063805 0.14624097],"[-0.10260376  0.00277245 -0.14171351 -0.4398921  -0.08286218 -0.05357419
  0.          0.         -0.6         0.49739626 -2.175782  ]",0.3591059372943529,0,0
76,89,2024-09-28 16:37:56.299365888,TASK_BEGIN,23,0.2433771823547346,-0.312678622546281,-1.6351661854986834,0.3602087540693861,-0.4235611644497144,-0.2252895303051141,-12.400950631559486,3.444558370961136,0,2024-09-28 16:37:55.745099121,1727541475.7450995,2024-09-28 16:37:55.745099520,2,0.0,-2.7740456423252766,-8.64112626063127,[0.51470875 0.2289729  0.13749797 0.11882039],[0.51470875 0.2289729  0.13749797 0.11882039],"[-0.11769851 -0.11805212 -0.08636776 -0.38842785 -0.13347217 -0.06368591
  0.          0.         -0.6         0.4823015  -1.2091854 ]",0.3008437490335013,0,0
77,90,2024-09-28 16:37:56.367063040,TASK_BEGIN,23,0.3326341866541372,-0.3244756178174674,-1.642805975271589,0.3491972909725371,-0.4560664744653172,-0.2109066277944976,-12.155336674492949,3.407917580244784,0,2024-09-28 16:37:55.745099121,1727541475.7450995,2024-09-28 16:37:55.745099520,2,0.0,-2.7740456423252766,-8.64112626063127,[0.51470875 0.2289729  0.13749797 0.11882039],[0.51470875 0.2289729  0.13749797 0.11882039],"[-0.11769851 -0.11805212 -0.08636776 -0.38842785 -0.13347217 -0.06368591
  0.          0.         -0.6         0.4823015  -1.2091854 ]",0.3008437490335013,0,0
78,91,2024-09-28 16:37:57.303591936,TASK_BEGIN,23,0.4253842676429072,-0.3378764944548494,-1.6368909626637664,0.3362428181304265,-0.5023057414208666,-0.1958613886619469,-11.918997503244208,3.3676498378264923,0,2024-09-28 16:37:56.578181885,1727541476.5781827,2024-09-28 16:37:56.578182656,2,3.0,14.970552711467809,4.990884548452064,[0.03804339 0.00341687 0.01018299 0.94835675],[0.03804339 0.00341687 0.01018299 0.94835675],"[-0.10583536 -0.26599735  0.16267417 -0.09860752  0.24609752 -0.22591206
  0.          1.         -0.6         0.49416465 -0.02562362]",1.3995582561027842,1,1
79,92,2024-09-28 16:37:57.365230848,TASK_BEGIN,23,0.5187210574679876,-0.3523545581976684,-1.6234788862400666,0.3226354414732155,-0.5599525504137561,-0.1807613861375246,-11.700551436440929,3.325496825087724,0,2024-09-28 16:37:56.578181885,1727541476.5781827,2024-09-28 16:37:56.578182656,2,3.0,14.970552711467809,4.990884548452064,[0.03804339 0.00341687 0.01018299 0.94835675],[0.03804339 0.00341687 0.01018299 0.94835675],"[-0.10583536 -0.26599735  0.16267417 -0.09860752  0.24609752 -0.22591206
  0.          1.         -0.6         0.49416465 -0.02562362]",1.3995582561027842,1,1
80,93,2024-09-28 16:37:57.442472960,TASK_BEGIN,23,0.6098344816100036,-0.3673420318254108,-1.6079537549830747,0.3094141322316014,-0.6261105184201545,-0.1662332853119755,-11.509757051620523,3.283852860056866,0,2024-09-28 16:37:56.578181885,1727541476.5781827,2024-09-28 16:37:56.578182656,2,3.0,14.970552711467809,4.990884548452064,[0.03804339 0.00341687 0.01018299 0.94835675],[0.03804339 0.00341687 0.01018299 0.94835675],"[-0.10583536 -0.26599735  0.16267417 -0.09860752  0.24609752 -0.22591206
  0.          1.         -0.6         0.49416465 -0.02562362]",1.3995582561027842,1,1
81,94,2024-09-28 16:37:57.505148928,TASK_BEGIN,23,0.6961138062658924,-0.382248180495585,-1.5948994031386934,0.2974427219906063,-0.6975384900522823,-0.1529021898199958,-11.356967622884545,3.245454812830333,0,2024-09-28 16:37:56.642184082,1727541476.6421847,2024-09-28 16:37:56.642184704,2,1.0,2.861301394720476,29.202136873157116,[0.33302955 0.40392613 0.01583517 0.24720914],[0.33302955 0.40392613 0.01583517 0.24720914],"[-0.10502768 -0.26457924  0.01266954  0.03092144  0.2541447   0.06764241
  1.          1.         -0.6         0.49497232 -0.03696853]",0.288960005429013,1,1
82,95,2024-09-28 16:37:57.582765056,TASK_BEGIN,23,0.7752480062913377,-0.3964899064654582,-1.588151221858657,0.2875229230920869,-0.7709000854160724,-0.1413491297919111,-11.25205120080782,3.213000802263094,0,2024-09-28 16:37:57.082181885,1727541477.0821824,2024-09-28 16:37:57.082182400,2,0.0,-0.385028862988392,19.505604847787524,[0.47307067 0.227521   0.04339069 0.25601765],[0.47307067 0.227521   0.04339069 0.25601765],"[-1.10110842e-01 -2.66393960e-01 -7.64145181e-02 -1.30371675e-02
  2.55175054e-01  1.45540580e-09  1.00000000e+00  1.00000000e+00
 -6.00000024e-01  4.89889175e-01 -2.24507432e-02]",0.2659222010056704,1,1
83,96,2024-09-28 16:37:57.644841728,TASK_BEGIN,23,0.8453233172977197,-0.4095378688836389,-1.590952317199075,0.2804775615476885,-0.8429914388437356,-0.1320667647635603,-11.203108351840465,3.188797904818048,0,2024-09-28 16:37:57.146184082,1727541477.1461842,2024-09-28 16:37:57.146184192,2,0.0,-0.3796702873616056,17.793348201413902,[0.47704453 0.22376887 0.04384306 0.25534354],[0.47704453 0.22376887 0.04384306 0.25534354],"[-1.1187474e-01 -2.6707107e-01 -8.8793628e-02 -1.5149193e-02
  2.5517505e-01  6.3215273e-09  1.0000000e+00  1.0000000e+00
 -6.0000002e-01  4.8812526e-01 -1.7033873e-02]",0.26939453602199365,1,1
84,97,2024-09-28 16:37:57.707329024,TASK_BEGIN,23,0.9048767726858004,-0.4209666252790291,-1.6061545709591163,0.2771782129113749,-0.9109124094092628,-0.1254311625856191,-11.215316482718643,3.1745160775369268,0,2024-09-28 16:37:57.208179932,1727541477.2081802,2024-09-28 16:37:57.208180224,2,0.0,-0.37435054667624,16.147781346388793,[0.48127476 0.21995901 0.0442315  0.25453473],[0.48127476 0.21995901 0.0442315  0.25453473],"[-1.1389653e-01 -2.6784718e-01 -1.0117275e-01 -1.7261200e-02
  2.5517505e-01 -9.1780494e-10  1.0000000e+00  1.0000000e+00
 -6.0000002e-01  4.8610348e-01 -1.0824977e-02]",0.2736005107128906,1,1
85,98,2024-09-28 16:37:58.621729024,TASK_BEGIN,23,0.9528814829511844,-0.4304941514423969,-1.6363074724166864,0.2785054534806712,-0.9721685921888292,-0.1216891259463352,-11.289940525427186,3.171013992378906,0,2024-09-28 16:37:57.754185059,1727541477.7541854,2024-09-28 16:37:57.754185472,2,0.0,0.857440851367727,5.463746009645838,[0.42528486 0.32726355 0.10259222 0.14485936],[0.42528486 0.32726355 0.10259222 0.14485936],"[-0.1395138  -0.27495748 -0.12133345 -0.00153815  0.23452948 -0.04579382
  1.          0.         -0.6         0.4604862   0.0460574 ]",0.21272581528976242,1,1
86,99,2024-09-28 16:37:58.698970880,TASK_BEGIN,23,0.98870006712589,-0.4380076261878705,-1.6834931025860158,0.2852308183331603,-1.024738429333896,-0.1209511806857243,-11.423628565111754,3.178219048108124,0,2024-09-28 16:37:57.817179932,1727541477.8171806,2024-09-28 16:37:57.817180672,2,0.0,0.8115798935365319,7.7567195102054916,[0.42286347 0.32637489 0.09919151 0.15157013],[0.42286347 0.32637489 0.09919151 0.15157013],"[-0.1418643  -0.27504808 -0.10417588 -0.00143085  0.22831298 -0.0392779
  1.          0.         -0.6         0.4581357   0.0467822 ]",0.20985166113707665,1,1
87,100,2024-09-28 16:37:58.761025024,TASK_BEGIN,23,1.0120550859168551,-0.4435794293323475,-1.7489254824903917,0.297807349577416,-1.0671611107574002,-0.1231838667791144,-11.608326819879323,3.1951415721853715,0,2024-09-28 16:37:57.880224854,1727541477.880226,2024-09-28 16:37:57.880225792,2,0.0,0.7670793122196642,9.848106365006254,[0.41970154 0.32653487 0.09640283 0.15736076],[0.41970154 0.32653487 0.09640283 0.15736076],"[-0.14385001 -0.27512825 -0.08717248 -0.00127568  0.22306591 -0.03283938
  1.          0.         -0.6         0.45615     0.04742354]",0.20590826203627657,1,1
88,101,2024-09-28 16:37:58.839716096,TASK_BEGIN,23,1.0230231546171975,-0.4474716351605429,-1.8324162935951596,0.3160880211045744,-1.098654046360536,-0.1282015505347497,-11.831894835451006,3.2200485986630447,0,2024-09-28 16:37:58.300339844,1727541478.3003404,2024-09-28 16:37:58.300340480,2,0.0,0.00011488292375361198,17.088547352109423,[0.38860073 0.36524047 0.08465214 0.16150667],[0.38860073 0.36524047 0.08465214 0.16150667],"[-1.4839029e-01 -2.7532405e-01 -8.3277783e-08 -1.2733843e-08
  2.1108143e-01  2.1209853e-08  1.0000000e+00  0.0000000e+00
 -6.0000002e-01  4.5160970e-01  4.8989952e-02]",0.20394154029459122,1,1
89,102,2024-09-28 16:37:58.899800064,TASK_BEGIN,23,1.022037256613931,-0.4501243932359985,-1.9318252256130404,0.3390661834333418,-1.119199842931474,-0.1356667204370493,-12.079063604085825,3.2506848391869507,0,2024-09-28 16:37:58.300339844,1727541478.3003404,2024-09-28 16:37:58.300340480,2,0.0,0.00011488292375361198,17.088547352109423,[0.38860073 0.36524047 0.08465214 0.16150667],[0.38860073 0.36524047 0.08465214 0.16150667],"[-1.4839029e-01 -2.7532405e-01 -8.3277783e-08 -1.2733843e-08
  2.1108143e-01  2.1209853e-08  1.0000000e+00  0.0000000e+00
 -6.0000002e-01  4.5160970e-01  4.8989952e-02]",0.20394154029459122,1,1
90,103,2024-09-28 16:37:58.961831936,TASK_BEGIN,23,1.0098817525686423,-0.4521272039635373,-2.0427144975039395,0.3647763650875295,-1.1295415731860845,-0.1451108771056278,-12.332380752151398,3.284415044282606,0,2024-09-28 16:37:58.422849854,1727541478.4228504,2024-09-28 16:37:58.422850304,2,0.0,-1.3728302405979775e-07,16.088534819794774,[0.38860073 0.36524047 0.08465214 0.16150667],[0.38860073 0.36524047 0.08465214 0.16150667],"[-1.4839029e-01 -2.7532405e-01 -1.2307607e-08 -6.1353922e-09
  2.1108143e-01  2.0606015e-08  1.0000000e+00  0.0000000e+00
 -6.0000002e-01  4.5160970e-01  4.8989952e-02]",0.20394154842843712,1,1
91,104,2024-09-28 16:37:59.043031040,TASK_BEGIN,23,0.9876542712683444,-0.4541734628359686,-2.1585147242052423,0.3904531499068058,-1.1310928303580443,-0.1559737385367453,-12.573055845155084,3.318250079439185,0,2024-09-28 16:37:58.422849854,1727541478.4228504,2024-09-28 16:37:58.422850304,2,0.0,-1.3728302405979775e-07,16.088534819794774,[0.38860073 0.36524047 0.08465214 0.16150667],[0.38860073 0.36524047 0.08465214 0.16150667],"[-1.4839029e-01 -2.7532405e-01 -1.2307607e-08 -6.1353922e-09
  2.1108143e-01  2.0606015e-08  1.0000000e+00  0.0000000e+00
 -6.0000002e-01  4.5160970e-01  4.8989952e-02]",0.20394154842843712,1,1
92,112,2024-09-28 16:38:01.336556032,TASK_BEGIN,23,0.6163393300126138,-0.5458011756146007,-2.6988118549988545,0.3807073697133697,-1.0762378461379556,-0.2242304415972054,-12.067263305605367,3.18081401595024,0,2024-09-28 16:38:00.540747803,1727541480.5407484,2024-09-28 16:38:00.540748288,3,0.0,-2.589287437316443,-32.622977705978236,[0.52585456 0.16468286 0.06865003 0.24081255],[0.52585456 0.16468286 0.06865003 0.24081255],"[ 2.4512608e-03  9.5783734e-01  2.4227850e-02 -3.7159824e-01
 -6.8304292e-03 -9.1446089e-03  0.0000000e+00  0.0000000e+00
  6.0000002e-01 -5.9754872e-01 -1.1477637e+01]",0.2946288379771074,0,0
93,113,2024-09-28 16:38:01.393793280,TASK_BEGIN,23,0.5629763149148914,-0.5700068309426031,-2.737869195635657,0.3682025501211117,-1.0834417408798256,-0.224348563043561,-11.607543938109847,3.085391356166753,0,2024-09-28 16:38:00.540747803,1727541480.5407484,2024-09-28 16:38:00.540748288,3,0.0,-2.589287437316443,-32.622977705978236,[0.52585456 0.16468286 0.06865003 0.24081255],[0.52585456 0.16468286 0.06865003 0.24081255],"[ 2.4512608e-03  9.5783734e-01  2.4227850e-02 -3.7159824e-01
 -6.8304292e-03 -9.1446089e-03  0.0000000e+00  0.0000000e+00
  6.0000002e-01 -5.9754872e-01 -1.1477637e+01]",0.2946288379771074,0,0
94,114,2024-09-28 16:38:01.472123904,TASK_BEGIN,23,0.5099128724015508,-0.5958434155270317,-2.7833659656775454,0.3621376278387863,-1.094733241757066,-0.2222736907940138,-11.093618059920818,2.9785511641697804,0,2024-09-28 16:38:00.604752930,1727541480.6047533,2024-09-28 16:38:00.604753152,3,0.0,-2.5911296181924683,-39.34837991134993,[0.51759038 0.15904447 0.07218144 0.25118371],[0.51759038 0.15904447 0.07218144 0.25118371],"[ 2.9424827e-03  9.3801796e-01  2.4245305e-02 -4.4842607e-01
 -8.2010441e-03 -9.1378195e-03  0.0000000e+00  0.0000000e+00
  6.0000002e-01 -5.9705752e-01 -1.1319082e+01]",0.2920210181503419,0,0
95,115,2024-09-28 16:38:01.532344064,TASK_BEGIN,23,0.4573761690030269,-0.6223932999216932,-2.837304928308844,0.3644082128894964,-1.1095053073228365,-0.2182010438691329,-10.551917319335647,2.8656281698761608,0,2024-09-28 16:38:00.666749023,1727541480.6667492,2024-09-28 16:38:00.666749184,3,0.0,-2.592249543150558,-45.87795251161238,[0.48184541 0.14013838 0.10957707 0.26843915],[0.48184541 0.14013838 0.10957707 0.26843915],"[ 3.4339428e-03  9.1459727e-01  2.4262566e-02 -5.2525538e-01
 -9.5706936e-03 -9.1318162e-03  0.0000000e+00  0.0000000e+00
  6.0000002e-01 -5.9656608e-01 -1.1131717e+01]",0.23026246724953872,0,0
96,116,2024-09-28 16:38:01.607604992,TASK_BEGIN,23,0.4057543886312047,-0.6486479875329405,-2.901490996167834,0.3761065691348596,-1.127250917828506,-0.2123751833934276,-10.011598833338448,2.7522541791361093,0,2024-09-28 16:38:00.730199951,1727541480.7302003,2024-09-28 16:38:00.730200320,3,0.0,-2.905250676024025,-52.52831069803612,[0.43745659 0.12211662 0.16783432 0.27259247],[0.43745659 0.12211662 0.16783432 0.27259247],"[ 3.9103031e-03  8.8754189e-01  2.3512455e-02 -6.0422683e-01
 -1.1942834e-02 -2.9186513e-02  0.0000000e+00  0.0000000e+00
  6.0000002e-01 -5.9608972e-01 -1.0915274e+01]",0.16293845051464512,0,0
97,117,2024-09-28 16:38:01.675371776,TASK_BEGIN,23,0.3557181894384978,-0.673599714286676,-2.9778283740072893,0.3974322704174831,-1.147708519419652,-0.2050664450287603,-9.50195101389336,2.6438352553332742,0,2024-09-28 16:38:00.911855957,1727541480.9118564,2024-09-28 16:38:00.911856384,3,0.0,-2.639363542185322,-55.05102079368218,[0.38203636 0.10923668 0.24165609 0.26707088],[0.38203636 0.10923668 0.24165609 0.26707088],"[ 5.0096512e-03  7.9130173e-01  8.5870530e-03 -6.7134470e-01
 -1.7245382e-02 -1.6631220e-02  0.0000000e+00  0.0000000e+00
  6.0000002e-01 -5.9499037e-01 -1.0145352e+01]",0.10112674062074381,0,0
98,118,2024-09-28 16:38:01.743127296,TASK_BEGIN,23,0.3082575521217824,-0.6963267970023189,-3.0679893182991838,0.4276436783348955,-1.1708939945328467,-0.1965520160018425,-9.0498381513146,2.545195984534504,0,2024-09-28 16:38:00.911855957,1727541480.9118564,2024-09-28 16:38:00.911856384,3,0.0,-2.639363542185322,-55.05102079368218,[0.38203636 0.10923668 0.24165609 0.26707088],[0.38203636 0.10923668 0.24165609 0.26707088],"[ 5.0096512e-03  7.9130173e-01  8.5870530e-03 -6.7134470e-01
 -1.7245382e-02 -1.6631220e-02  0.0000000e+00  0.0000000e+00
  6.0000002e-01 -5.9499037e-01 -1.0145352e+01]",0.10112674062074381,0,0
99,119,2024-09-28 16:38:02.686763008,TASK_BEGIN,23,0.2645975722514189,-0.716049054860333,-3.172648882074484,0.4650993427983467,-1.1970407356336314,-0.1870990907823765,-8.677592058943437,2.4603777295479787,0,2024-09-28 16:38:02.146947021,1727541482.1469476,2024-09-28 16:38:02.146947584,3,0.0,-2.743269938083756,-48.92164294447573,[0.51494012 0.04519727 0.23628617 0.20357644],[0.51494012 0.04519727 0.23628617 0.20357644],"[ 0.03338106  0.09951937 -0.00566772 -0.8826972  -0.0215383  -0.0358502
  0.          0.          0.6        -0.5666189  -4.611094  ]",0.31125646507893545,0,0
100,120,2024-09-28 16:38:02.754357248,TASK_BEGIN,23,0.2260061215107924,-0.732147265760282,-3.290752304134323,0.5073940938309472,-1.2264930127992193,-0.1769509697269566,-8.401673807532255,2.392550702695162,0,2024-09-28 16:38:02.146947021,1727541482.1469476,2024-09-28 16:38:02.146947584,3,0.0,-2.743269938083756,-48.92164294447573,[0.51494012 0.04519727 0.23628617 0.20357644],[0.51494012 0.04519727 0.23628617 0.20357644],"[ 0.03338106  0.09951937 -0.00566772 -0.8826972  -0.0215383  -0.0358502
  0.          0.          0.6        -0.5666189  -4.611094  ]",0.31125646507893545,0,0
101,121,2024-09-28 16:38:02.821492992,TASK_BEGIN,23,0.1935365354897885,-0.7441526634973934,-3.419311650103527,0.5515674814015675,-1.2595741948759964,-0.1663216199234135,-8.23234314952072,2.344032923720256,0,2024-09-28 16:38:02.146947021,1727541482.1469476,2024-09-28 16:38:02.146947584,3,0.0,-2.743269938083756,-48.92164294447573,[0.51494012 0.04519727 0.23628617 0.20357644],[0.51494012 0.04519727 0.23628617 0.20357644],"[ 0.03338106  0.09951937 -0.00566772 -0.8826972  -0.0215383  -0.0358502
  0.          0.          0.6        -0.5666189  -4.611094  ]",0.31125646507893545,0,0
102,122,2024-09-28 16:38:02.890074880,TASK_BEGIN,23,0.1677842418939944,-0.751721817107614,-3.553852514464773,0.5943598303276642,-1.2964354463161405,-0.1554047721444183,-8.17439195693822,2.3164117348598494,0,2024-09-28 16:38:02.146947021,1727541482.1469476,2024-09-28 16:38:02.146947584,3,0.0,-2.743269938083756,-48.92164294447573,[0.51494012 0.04519727 0.23628617 0.20357644],[0.51494012 0.04519727 0.23628617 0.20357644],"[ 0.03338106  0.09951937 -0.00566772 -0.8826972  -0.0215383  -0.0358502
  0.          0.          0.6        -0.5666189  -4.611094  ]",0.31125646507893545,0,0
103,123,2024-09-28 16:38:02.957164032,TASK_BEGIN,23,0.1487644291733711,-0.7546194691787428,-3.6891636013139295,0.6324894215960211,-1.3369129969768832,-0.1443967404516286,-8.228540463820572,2.310684739689951,0,2024-09-28 16:38:02.146947021,1727541482.1469476,2024-09-28 16:38:02.146947584,3,0.0,-2.743269938083756,-48.92164294447573,[0.51494012 0.04519727 0.23628617 0.20357644],[0.51494012 0.04519727 0.23628617 0.20357644],"[ 0.03338106  0.09951937 -0.00566772 -0.8826972  -0.0215383  -0.0358502
  0.          0.          0.6        -0.5666189  -4.611094  ]",0.31125646507893545,0,0
104,124,2024-09-28 16:38:03.025121792,TASK_BEGIN,23,0.1359681784514352,-0.7527227925375896,-3.819950967009426,0.6629247341160917,-1.3804317345830035,-0.1335238999400507,-8.39268506526097,2.3272766179178115,0,2024-09-28 16:38:02.146947021,1727541482.1469476,2024-09-28 16:38:02.146947584,3,0.0,-2.743269938083756,-48.92164294447573,[0.51494012 0.04519727 0.23628617 0.20357644],[0.51494012 0.04519727 0.23628617 0.20357644],"[ 0.03338106  0.09951937 -0.00566772 -0.8826972  -0.0215383  -0.0358502
  0.          0.          0.6        -0.5666189  -4.611094  ]",0.31125646507893545,0,0
105,125,2024-09-28 16:38:03.093314048,TASK_BEGIN,23,0.1285467122220593,-0.7460413543758697,-3.9412512230226215,0.6831247142531292,-1.4259639980723042,-0.1230632774862473,-8.662394955333811,2.3658798064636586,0,2024-09-28 16:38:02.608949951,1727541482.6089504,2024-09-28 16:38:02.608950272,3,3.0,-3.17258059144198,-23.229044424317657,[0.38933897 0.0526913  0.15797828 0.39999144],[0.38933897 0.0526913  0.15797828 0.39999144],"[ 0.03225167 -0.1600877   0.0690641  -0.6266768  -0.07296715 -0.07457571
  0.          0.          0.6        -0.5677483  -2.5342371 ]",0.32289836966746177,0,0
106,126,2024-09-28 16:38:04.022000128,TASK_BEGIN,23,0.1255158994925028,-0.734735892861007,-4.048657620952099,0.6912226985581035,-1.472038032650764,-0.113346170408897,-9.030695406948151,2.4252442572713258,0,2024-09-28 16:38:03.403402100,1727541483.4034023,2024-09-28 16:38:03.403402240,3,3.0,1.8898884736547836,3.6845666003829405,[0.25211371 0.02184301 0.01560954 0.71043374],[0.25211371 0.02184301 0.01560954 0.71043374],"[ 0.10520864 -0.36731106  0.46319363 -0.15024526  0.09877937 -0.16311547
  0.          1.          0.6        -0.49479136 -0.87645036]",0.7845100956534998,0,0
107,127,2024-09-28 16:38:04.102057984,TASK_BEGIN,23,0.1259051894161968,-0.7191180364766269,-4.138522125061916,0.6861616786754796,-1.516806894127486,-0.1047400259932088,-9.48757882184674,2.5031000687172944,0,2024-09-28 16:38:03.403402100,1727541483.4034023,2024-09-28 16:38:03.403402240,3,3.0,1.8898884736547836,3.6845666003829405,[0.25211371 0.02184301 0.01560954 0.71043374],[0.25211371 0.02184301 0.01560954 0.71043374],"[ 0.10520864 -0.36731106  0.46319363 -0.15024526  0.09877937 -0.16311547
  0.          1.          0.6        -0.49479136 -0.87645036]",0.7845100956534998,0,0
108,128,2024-09-28 16:38:04.172239872,TASK_BEGIN,23,0.1288412324757777,-0.6996221741246748,-4.208340494761351,0.6678276928939859,-1.5581885425153148,-0.0976150558111319,-10.019692121430907,2.5962914658243297,0,2024-09-28 16:38:03.403402100,1727541483.4034023,2024-09-28 16:38:03.403402240,3,3.0,1.8898884736547836,3.6845666003829405,[0.25211371 0.02184301 0.01560954 0.71043374],[0.25211371 0.02184301 0.01560954 0.71043374],"[ 0.10520864 -0.36731106  0.46319363 -0.15024526  0.09877937 -0.16311547
  0.          1.          0.6        -0.49479136 -0.87645036]",0.7845100956534998,0,0
109,129,2024-09-28 16:38:04.239963136,TASK_BEGIN,23,0.1336042819111996,-0.6767594355120627,-4.2573716694452886,0.637197363172442,-1.5940536105776872,-0.0923116136719288,-10.610482726227854,2.7010745212161926,0,2024-09-28 16:38:03.403402100,1727541483.4034023,2024-09-28 16:38:03.403402240,3,3.0,1.8898884736547836,3.6845666003829405,[0.25211371 0.02184301 0.01560954 0.71043374],[0.25211371 0.02184301 0.01560954 0.71043374],"[ 0.10520864 -0.36731106  0.46319363 -0.15024526  0.09877937 -0.16311547
  0.          1.          0.6        -0.49479136 -0.87645036]",0.7845100956534998,0,0
110,130,2024-09-28 16:38:04.307675904,TASK_BEGIN,23,0.1397054447021626,-0.6510768872891832,-4.28722670422194,0.5964290169719813,-1.6224078628100738,-0.0891211466819878,-11.240816148867996,2.81347615335894,0,2024-09-28 16:38:03.508402100,1727541483.508402,2024-09-28 16:38:03.508402176,3,0.0,10.345587969617526,15.545393014654646,[0.47620877 0.30486138 0.09209849 0.12683136],[0.47620877 0.30486138 0.09209849 0.12683136],"[ 0.11943118 -0.37338197  0.43357825 -0.09938741  0.02357465 -0.00519269
  1.          0.          0.6        -0.48056883 -0.82788306]",0.3486182471090558,0,0
111,131,2024-09-28 16:38:04.375369216,TASK_BEGIN,23,0.147002001868754,-0.6231398316651349,-4.3020267783179325,0.5487943085247263,-1.641527772369109,-0.0882784120549987,-11.88986477622877,2.929613485942667,0,2024-09-28 16:38:03.508402100,1727541483.508402,2024-09-28 16:38:03.508402176,3,0.0,10.345587969617526,15.545393014654646,[0.47620877 0.30486138 0.09209849 0.12683136],[0.47620877 0.30486138 0.09209849 0.12683136],"[ 0.11943118 -0.37338197  0.43357825 -0.09938741  0.02357465 -0.00519269
  1.          0.          0.6        -0.48056883 -0.82788306]",0.3486182471090558,0,0
112,132,2024-09-28 16:38:04.443116032,TASK_BEGIN,23,0.1558216932725278,-0.5935390071360142,-4.307918010776196,0.4983959857285172,-1.6500426713588785,-0.0899514261896971,-12.536137365497815,3.0459136183917503,0,2024-09-28 16:38:03.948398193,1727541483.9483988,2024-09-28 16:38:03.948398848,3,0.0,-0.40755075879934566,25.433307111851057,[0.3357397  0.30531455 0.04621674 0.312729  ],[0.3357397  0.30531455 0.04621674 0.312729  ],"[ 0.17231028 -0.38466847  0.35490227 -0.03442933 -0.08114513 -0.09526153
  1.          1.          0.6        -0.42768973 -0.7375911 ]",0.2711795315499172,0,0
113,133,2024-09-28 16:38:05.348339968,TASK_BEGIN,23,0.1670391989520025,-0.5629109823178474,-4.31200484699886,0.4496824008772394,-1.6469786567457203,-0.0942209024998867,-13.15861479157274,3.1592217770250444,0,2024-09-28 16:38:04.844717041,1727541484.8447173,2024-09-28 16:38:04.844717312,3,0.0,-0.5730575650885328,-0.6910381832144821,[0.57921342 0.20575113 0.00742363 0.20761181],[0.57921342 0.20575113 0.00742363 0.20761181],"[ 0.28254732 -0.41058618  0.40267783 -0.04533364 -0.29872543 -0.10927416
  1.          1.          0.6        -0.3174527  -0.5302494 ]",0.44220269172888216,0,0
114,134,2024-09-28 16:38:05.428961024,TASK_BEGIN,23,0.1820496205566537,-0.5319544219486834,-4.320987114878425,0.4068351368533043,-1.6317831400227685,-0.1010540620158094,-13.737793378759443,3.2668115209886617,0,2024-09-28 16:38:04.928718018,1727541484.928718,2024-09-28 16:38:04.928718080,3,0.0,-0.5941811301060511,-2.9737745482697506,[0.59391802 0.20887649 0.00706916 0.19013633],[0.59391802 0.20887649 0.00706916 0.19013633],"[ 0.29362845 -0.41337055  0.4090017  -0.04670669 -0.32084453 -0.11140976
  1.          1.          0.6        -0.30637154 -0.50797445]",0.4567543598161971,0,0
115,135,2024-09-28 16:38:05.485528064,TASK_BEGIN,23,0.2026143414287332,-0.5014270508547093,-4.339956687698571,0.373184528203595,-1.6043465951265812,-0.110284965422304,-14.2563785994221,3.3663403975941213,0,2024-09-28 16:38:04.991939941,1727541484.9919403,2024-09-28 16:38:04.991940352,3,0.0,-0.6108970695673293,-4.683259609419611,[0.60252374 0.2179185  0.00693182 0.17262594],[0.60252374 0.2179185  0.00693182 0.17262594],"[ 0.30205622 -0.41551083  0.41397712 -0.04778904 -0.33772668 -0.11312807
  1.          1.          0.6        -0.29794377 -0.49085215]",0.4643198429517684,0,0
116,136,2024-09-28 16:38:05.564483840,TASK_BEGIN,23,0.2306037798400493,-0.4721174668298922,-4.371698929435439,0.3508178485271175,-1.5650276597919526,-0.1216156771137788,-14.699640028513036,3.4558121735744898,0,2024-09-28 16:38:04.991939941,1727541484.9919403,2024-09-28 16:38:04.991940352,3,0.0,-0.6108970695673293,-4.683259609419611,[0.60252374 0.2179185  0.00693182 0.17262594],[0.60252374 0.2179185  0.00693182 0.17262594],"[ 0.30205622 -0.41551083  0.41397712 -0.04778904 -0.33772668 -0.11312807
  1.          1.          0.6        -0.29794377 -0.49085215]",0.4643198429517684,0,0
117,137,2024-09-28 16:38:05.632214016,TASK_BEGIN,23,0.2677008292501562,-0.4447987342004968,-4.416451072045955,0.3404352900712437,-1.5146693157226632,-0.1346480919479159,-15.055599974090322,3.533572746505678,0,2024-09-28 16:38:05.138940186,1727541485.1389399,2024-09-28 16:38:05.138939904,3,0.0,-0.612774125917241,-7.401024713708443,[0.63516436 0.20932398 0.00873974 0.14677192],[0.63516436 0.20932398 0.00873974 0.14677192],"[ 3.2276854e-01 -4.2635453e-01  4.4756070e-01 -1.0547429e-01
 -3.3873191e-01 -8.7692129e-09  1.0000000e+00  1.0000000e+00
  6.0000002e-01 -2.7723148e-01 -4.0410259e-01]",0.5121610481117931,0,0
118,138,2024-09-28 16:38:05.699960832,TASK_BEGIN,23,0.3151348271132538,-0.420176081486498,-4.471901234497272,0.3414028518942644,-1.454581117469648,-0.1489400476645687,-15.315140318406256,3.5983301540681243,0,2024-09-28 16:38:05.201451172,1727541485.2014518,2024-09-28 16:38:05.201451776,3,0.0,-0.6103050383827622,-8.996199714185407,[0.64798453 0.21015963 0.00785276 0.13400308],[0.64798453 0.21015963 0.00785276 0.13400308],"[ 3.32394361e-01 -4.31458592e-01  4.69277918e-01 -1.10592425e-01
 -3.38731915e-01  1.05360698e-09  1.00000000e+00  1.00000000e+00
  6.00000024e-01 -2.67605633e-01 -3.63270074e-01]",0.5336495277413607,0,0
119,139,2024-09-28 16:38:05.767712256,TASK_BEGIN,23,0.373488148575596,-0.3988345436520023,-4.533409242826889,0.3519480567445206,-1.3864599198448462,-0.1640663159482554,-15.472118023740432,3.649183518054353,0,2024-09-28 16:38:05.261574951,1727541485.2615752,2024-09-28 16:38:05.261575168,3,0.0,-0.6085340381938522,-10.537993951373497,[0.66031285 0.21033817 0.00701966 0.12232932],[0.66031285 0.21033817 0.00701966 0.12232932],"[ 3.4247270e-01 -4.3680257e-01  4.9099553e-01 -1.1571032e-01
 -3.3873188e-01 -1.6185671e-08  1.0000000e+00  1.0000000e+00
  6.0000002e-01 -2.5752729e-01 -3.2051829e-01]",0.555556147449755,0,0
120,140,2024-09-28 16:38:06.711614976,TASK_BEGIN,23,0.442585049455046,-0.3811888287450529,-4.594525727941129,0.3694669309225958,-1.3122405047128416,-0.1796686479203399,-15.52365472310619,3.685638615107653,0,2024-09-28 16:38:06.109077881,1727541486.1090786,2024-09-28 16:38:06.109078528,3,1.0,2.129336194784292,19.544685237090235,[0.46112454 0.47232638 0.02892398 0.0376251 ],[0.46112454 0.47232638 0.02892398 0.0376251 ],"[ 0.47781292 -0.4709239   0.45123369 -0.06048519 -0.01999062  0.15002275
  0.          1.          0.6        -0.12218707 -0.04754762]",0.37636198436425655,0,0
121,141,2024-09-28 16:38:06.778600704,TASK_BEGIN,23,0.5214550732899788,-0.367444283452649,-4.647696951886199,0.3908823772385272,-1.233920415495349,-0.195485185067225,-15.470594445073694,3.707589256179033,0,2024-09-28 16:38:06.109077881,1727541486.1090786,2024-09-28 16:38:06.109078528,3,1.0,2.129336194784292,19.544685237090235,[0.46112454 0.47232638 0.02892398 0.0376251 ],[0.46112454 0.47232638 0.02892398 0.0376251 ],"[ 0.47781292 -0.4709239   0.45123369 -0.06048519 -0.01999062  0.15002275
  0.          1.          0.6        -0.12218707 -0.04754762]",0.37636198436425655,0,0
122,142,2024-09-28 16:38:06.846980096,TASK_BEGIN,23,0.6083453826334612,-0.3575770233291215,-4.684945289038459,0.4129740562639609,-1.1534405343620378,-0.2113496558928372,-15.317811189868408,3.715273799531015,0,2024-09-28 16:38:06.109077881,1727541486.1090786,2024-09-28 16:38:06.109078528,3,1.0,2.129336194784292,19.544685237090235,[0.46112454 0.47232638 0.02892398 0.0376251 ],[0.46112454 0.47232638 0.02892398 0.0376251 ],"[ 0.47781292 -0.4709239   0.45123369 -0.06048519 -0.01999062  0.15002275
  0.          1.          0.6        -0.12218707 -0.04754762]",0.37636198436425655,0,0
123,143,2024-09-28 16:38:06.914959104,TASK_BEGIN,23,0.7007585801619913,-0.351330790217925,-4.698486659793014,0.4326460346505232,-1.072663936356181,-0.227158129363887,-15.074026556712964,3.709245967612672,0,2024-09-28 16:38:06.109077881,1727541486.1090786,2024-09-28 16:38:06.109078528,3,1.0,2.129336194784292,19.544685237090235,[0.46112454 0.47232638 0.02892398 0.0376251 ],[0.46112454 0.47232638 0.02892398 0.0376251 ],"[ 0.47781292 -0.4709239   0.45123369 -0.06048519 -0.01999062  0.15002275
  0.          1.          0.6        -0.12218707 -0.04754762]",0.37636198436425655,0,0
124,144,2024-09-28 16:38:06.972424192,TASK_BEGIN,23,0.7955416581960544,-0.348229296381757,-4.681364419249451,0.4471410768707834,-0.9934105888582188,-0.2428173514166259,-14.751161976729682,3.690400300845063,0,2024-09-28 16:38:06.109077881,1727541486.1090786,2024-09-28 16:38:06.109078528,3,1.0,2.129336194784292,19.544685237090235,[0.46112454 0.47232638 0.02892398 0.0376251 ],[0.46112454 0.47232638 0.02892398 0.0376251 ],"[ 0.47781292 -0.4709239   0.45123369 -0.06048519 -0.01999062  0.15002275
  0.          1.          0.6        -0.12218707 -0.04754762]",0.37636198436425655,0,0
125,145,2024-09-28 16:38:07.050412800,TASK_BEGIN,23,0.8890791312576998,-0.3476136496768994,-4.62810741962026,0.4541991733137923,-0.9174580085500544,-0.2581988882801725,-14.363548504509948,3.660042241259092,0,2024-09-28 16:38:06.171092041,1727541486.1710923,2024-09-28 16:38:06.171092224,3,0.0,0.45696567092076634,21.90741845900877,[0.469257   0.46180917 0.03091239 0.03802144],[0.469257   0.46180917 0.03091239 0.03802144],"[ 0.48731184 -0.47360587  0.44277442 -0.05538991  0.00100594  0.13485248
  0.          1.          0.6        -0.11268816 -0.02609186]",0.3728360814063716,0,0
126,146,2024-09-28 16:38:07.110825984,TASK_BEGIN,23,0.9775964389186128,-0.3487122975494958,-4.535377885520034,0.4521558867912054,-0.8464536571587516,-0.2731204100208489,-13.927224951190082,3.619923859181344,0,2024-09-28 16:38:06.235091064,1727541486.2350917,2024-09-28 16:38:06.235091712,3,1.0,1.890259510471713,16.763237853281442,[0.36200021 0.57630737 0.02737538 0.03431704],[0.36200021 0.57630737 0.02737538 0.03431704],"[ 4.9579111e-01 -4.7360539e-01  3.9281201e-01  1.2441542e-08
  1.0087177e-03 -1.2210167e-09  0.0000000e+00  0.0000000e+00
  6.0000002e-01 -1.0420888e-01 -2.6095673e-02]",0.34431782790730453,0,0
127,147,2024-09-28 16:38:08.060958976,TASK_BEGIN,23,1.0575206478162775,-0.3507336600582437,-4.402573467991562,0.4400070379176,-0.7817735849895615,-0.2873601322692987,-13.459310607229837,3.572186602780297,0,2024-09-28 16:38:07.473126953,1727541487.4731276,2024-09-28 16:38:07.473127680,3,0.0,-1.0022273713161667e-06,48.78096774127265,[0.38832979 0.26371103 0.06342478 0.28453439],[0.38832979 0.26371103 0.06342478 0.28453439],"[ 5.3714544e-01 -4.7338891e-01 -4.6285740e-09  4.9650741e-09
  3.2778064e-04  1.1510229e-08  1.0000000e+00  1.0000000e+00
  6.0000002e-01 -6.2854543e-02 -2.7827546e-02]",0.07399461502133378,0,0
128,148,2024-09-28 16:38:08.129270016,TASK_BEGIN,23,1.1258251933053696,-0.3529567785034715,-4.232230120670459,0.4174721517901184,-0.7244202564104468,-0.3006878993192486,-12.97728644387612,3.519234516374901,0,2024-09-28 16:38:07.473126953,1727541487.4731276,2024-09-28 16:38:07.473127680,3,0.0,-1.0022273713161667e-06,48.78096774127265,[0.38832979 0.26371103 0.06342478 0.28453439],[0.38832979 0.26371103 0.06342478 0.28453439],"[ 5.3714544e-01 -4.7338891e-01 -4.6285740e-09  4.9650741e-09
  3.2778064e-04  1.1510229e-08  1.0000000e+00  1.0000000e+00
  6.0000002e-01 -6.2854543e-02 -2.7827546e-02]",0.07399461502133378,0,0
129,149,2024-09-28 16:38:08.183958016,TASK_BEGIN,23,1.1802863175573983,-0.3547972457723293,-4.029949257151041,0.3850427299071607,-0.6750251803759847,-0.3128854444475702,-12.498032569595884,3.463567698456126,0,2024-09-28 16:38:07.473126953,1727541487.4731276,2024-09-28 16:38:07.473127680,3,0.0,-1.0022273713161667e-06,48.78096774127265,[0.38832979 0.26371103 0.06342478 0.28453439],[0.38832979 0.26371103 0.06342478 0.28453439],"[ 5.3714544e-01 -4.7338891e-01 -4.6285740e-09  4.9650741e-09
  3.2778064e-04  1.1510229e-08  1.0000000e+00  1.0000000e+00
  6.0000002e-01 -6.2854543e-02 -2.7827546e-02]",0.07399461502133378,0,0
130,150,2024-09-28 16:38:08.265282048,TASK_BEGIN,23,1.2195975912805972,-0.3558405921564955,-3.803741499235888,0.34395970558092,-0.633944161833819,-0.3237428355498094,-12.036711204471333,3.4075776845157013,0,2024-09-28 16:38:07.473126953,1727541487.4731276,2024-09-28 16:38:07.473127680,3,0.0,-1.0022273713161667e-06,48.78096774127265,[0.38832979 0.26371103 0.06342478 0.28453439],[0.38832979 0.26371103 0.06342478 0.28453439],"[ 5.3714544e-01 -4.7338891e-01 -4.6285740e-09  4.9650741e-09
  3.2778064e-04  1.1510229e-08  1.0000000e+00  1.0000000e+00
  6.0000002e-01 -6.2854543e-02 -2.7827546e-02]",0.07399461502133378,0,0
131,151,2024-09-28 16:38:08.333024000,TASK_BEGIN,23,1.243335445624601,-0.3558453542927141,-3.5630465691429216,0.2960937956364907,-0.6013848133449934,-0.3330416128857486,-11.605794144540637,3.3533332214974743,0,2024-09-28 16:38:07.473126953,1727541487.4731276,2024-09-28 16:38:07.473127680,3,0.0,-1.0022273713161667e-06,48.78096774127265,[0.38832979 0.26371103 0.06342478 0.28453439],[0.38832979 0.26371103 0.06342478 0.28453439],"[ 5.3714544e-01 -4.7338891e-01 -4.6285740e-09  4.9650741e-09
  3.2778064e-04  1.1510229e-08  1.0000000e+00  1.0000000e+00
  6.0000002e-01 -6.2854543e-02 -2.7827546e-02]",0.07399461502133378,0,0
132,152,2024-09-28 16:38:08.400815872,TASK_BEGIN,23,1.251826518733986,-0.3547212140731665,-3.317761566748158,0.243753247324052,-0.5775154536862023,-0.3405416183602146,-11.214459236344378,3.3024034819231494,0,2024-09-28 16:38:07.577721191,1727541487.5777214,2024-09-28 16:38:07.577721344,3,0.0,-1.6010194059390415e-06,46.39020864822257,[0.38832979 0.26371103 0.06342478 0.28453439],[0.38832979 0.26371103 0.06342478 0.28453439],"[ 5.3714544e-01 -4.7338891e-01 -1.5000463e-08  3.0605260e-10
  3.2783655e-04  3.1639058e-08  1.0000000e+00  1.0000000e+00
  6.0000002e-01 -6.2854543e-02 -2.7827546e-02]",0.07399460962699787,0,0
133,153,2024-09-28 16:38:08.468549120,TASK_BEGIN,23,1.2460019944362166,-0.3524935585626753,-3.077392553509787,0.1894482638641921,-0.5625326630426195,-0.3459791751254708,-10.868454443785422,3.255755736114501,0,2024-09-28 16:38:07.598751953,1727541487.5987527,2024-09-28 16:38:07.598752768,3,0.0,119.99999962607188,165.92630618781223,[0.38832979 0.26371103 0.06342478 0.28453439],[0.38832979 0.26371103 0.06342478 0.28453439],"[ 5.3714544e-01 -4.7338891e-01  0.0000000e+00  0.0000000e+00
  3.2785529e-04  0.0000000e+00  1.0000000e+00  1.0000000e+00
  6.0000002e-01 -6.2854543e-02 -2.7827546e-02]",0.07399460369407831,0,0
134,158,2024-09-28 16:38:09.656725760,TASK_BEGIN,23,1.0667616563225235,-0.3290343586581499,-2.195694109898824,-0.0317584524594816,-0.6286416122530817,-0.3338263424193294,-9.853150930705782,3.0884511801703565,0,2024-09-28 16:38:09.161791016,1727541489.1617916,2024-09-28 16:38:09.161791488,4,0.0,-1.48751876408474,-1.48751876408474,[0.44356176 0.2348238  0.07376132 0.24785312],[0.44356176 0.2348238  0.07376132 0.24785312],"[-1.0662079e-03  1.0008771e+00 -7.9074964e-02 -7.8065217e-02
  3.1741885e-03  3.0066172e-02  0.0000000e+00  0.0000000e+00
  4.0000001e-01 -4.0106621e-01 -1.0024479e+01]",0.15332033387603528,0,0
135,159,2024-09-28 16:38:09.724139008,TASK_BEGIN,23,1.0179472764287998,-0.322588639071612,-2.111850709814172,-0.0534767573058708,-0.670257773265036,-0.3227645507012886,-9.786427010149822,3.0667365557873705,0,2024-09-28 16:38:09.221781006,1727541489.2217815,2024-09-28 16:38:09.221781504,4,0.0,-2.424648955648891,-8.223623938319307,[0.46521893 0.20306086 0.06888981 0.2628304 ],[0.46521893 0.20306086 0.06888981 0.2628304 ],"[-2.6688576e-03  9.9481797e-01 -7.9134740e-02 -1.5488510e-01
  7.6796729e-03  3.0037275e-02  0.0000000e+00  0.0000000e+00
  4.0000001e-01 -4.0266886e-01 -9.9760056e+00]",0.1843674803145775,0,0
136,160,2024-09-28 16:38:09.792205056,TASK_BEGIN,23,0.9708397465797786,-0.3156710507540859,-2.060306043518976,-0.0654307642190221,-0.7200451855649049,-0.3090894385958624,-9.76188472164177,3.049102315033557,0,2024-09-28 16:38:09.305779053,1727541489.3057797,2024-09-28 16:38:09.305779712,4,0.0,-2.624565481730258,-18.030913856741307,[0.47412673 0.14848372 0.06115883 0.31623071],[0.47412673 0.14848372 0.06115883 0.31623071],"[-4.8077903e-03  9.8113739e-01 -7.9213738e-02 -2.5731850e-01
  1.3680721e-02  3.0001054e-02  0.0000000e+00  0.0000000e+00
  4.0000001e-01 -4.0480778e-01 -9.8665609e+00]",0.22866389683223937,0,0
137,161,2024-09-28 16:38:10.732969984,TASK_BEGIN,23,0.927847328796442,-0.3083566913132397,-2.0377571256192697,-0.0680052866811831,-0.7763781077833126,-0.2932001368510085,-9.776691966963732,3.0358998190420765,0,2024-09-28 16:38:09.906496094,1727541489.906496,2024-09-28 16:38:09.906496000,4,0.0,-2.5004744457715447,-38.527513924340774,[0.34718826 0.13753416 0.22382663 0.29145095],[0.34718826 0.13753416 0.22382663 0.29145095],"[-0.01383599  0.7404232  -0.01530596 -0.56546867  0.01697308 -0.01333807
  0.          0.          0.4        -0.41383597 -7.940848  ]",0.057633004049739964,0,0
138,162,2024-09-28 16:38:10.803021056,TASK_BEGIN,23,0.8911291145470274,-0.3007777363242797,-2.0390530800468776,-0.0625004974693736,-0.8370047373495874,-0.2756353582041231,-9.826205997452824,3.0273656378027325,0,2024-09-28 16:38:09.989758057,1727541489.9897585,2024-09-28 16:38:09.989758464,4,0.0,-2.486855489860801,-36.00394353380289,[0.35062587 0.15212776 0.21501791 0.28222846],[0.35062587 0.15212776 0.21501791 0.28222846],"[-0.01445587  0.7046101  -0.02713469 -0.5549241   0.01395647 -0.01682774
  0.          0.          0.4        -0.41445586 -7.654343  ]",0.05537345922836946,0,0
139,163,2024-09-28 16:38:10.870783232,TASK_BEGIN,23,0.8624107384006284,-0.293097709125971,-2.0575472359678644,-0.0510743183801691,-0.8992122131094861,-0.2570350336559786,-9.904057922668349,3.023535164677498,0,2024-09-28 16:38:10.384167969,1727541490.3841686,2024-09-28 16:38:10.384168704,4,0.0,-2.532176113163203,-42.3370003609305,[0.39496102 0.15645872 0.19849889 0.25008137],[0.39496102 0.15645872 0.19849889 0.25008137],"[-1.6163826e-02  5.3527427e-01 -3.5661450e-03 -6.7972243e-01
  4.6147332e-03 -5.9588188e-03  0.0000000e+00  0.0000000e+00
  4.0000001e-01 -4.1616383e-01 -6.2996564e+00]",0.09452321629578028,0,0
140,164,2024-09-28 16:38:10.938547968,TASK_BEGIN,23,0.8428113844811744,-0.2854597900555498,-2.0855400779442617,-0.0365005938908236,-0.9601068821518944,-0.2380893470039258,-10.002822722925172,3.02427223050164,0,2024-09-28 16:38:10.447170898,1727541490.447172,2024-09-28 16:38:10.447171840,4,0.0,-2.5321808241484405,-48.600386141827116,[0.46450144 0.12850412 0.17678976 0.23020468],[0.46450144 0.12850412 0.17678976 0.23020468],"[-1.6247272e-02  5.0101233e-01 -3.5661464e-03 -7.5652254e-01
  3.7209308e-03 -5.9587364e-03  0.0000000e+00  0.0000000e+00
  4.0000001e-01 -4.1624728e-01 -6.0255609e+00]",0.17108239650244786,0,0
141,165,2024-09-28 16:38:11.004793856,TASK_BEGIN,23,0.8327785908494366,-0.2779405697527078,-2.114757338188907,-0.0217892834060246,-1.0169190634638834,-0.2194876104624937,-10.11483152648353,3.0293082740953285,0,2024-09-28 16:38:10.510409180,1727541490.510409,2024-09-28 16:38:10.510409216,4,0.0,-2.532185759217896,-54.677746440684466,[0.47294344 0.09712349 0.19460567 0.2353274 ],[0.47294344 0.09712349 0.19460567 0.2353274 ],"[-1.6330719e-02  4.6315038e-01 -3.5661445e-03 -8.3332247e-01
  2.8271338e-03 -5.9587900e-03  0.0000000e+00  0.0000000e+00
  4.0000001e-01 -4.1633072e-01 -5.7226653e+00]",0.19561288228640503,0,0
142,166,2024-09-28 16:38:11.073816832,TASK_BEGIN,23,0.8321604090416928,-0.2705336244468683,-2.136878249896716,-0.0097489596524967,-1.0672619127220138,-0.2018691081660399,-10.232846525800214,3.038204902353156,0,2024-09-28 16:38:10.552464844,1727541490.5524652,2024-09-28 16:38:10.552465152,4,0.0,-2.5321912539262996,-58.62871579452154,[0.46808263 0.07644971 0.22989692 0.22557075],[0.46808263 0.07644971 0.22989692 0.22557075],"[-1.6386351e-02  4.3590891e-01 -3.5661443e-03 -8.8452238e-01
  2.2312908e-03 -5.9587881e-03  0.0000000e+00  0.0000000e+00
  4.0000001e-01 -4.1638634e-01 -5.5047336e+00]",0.20168426387035546,0,0
143,167,2024-09-28 16:38:11.141795840,TASK_BEGIN,23,0.8403634117447527,-0.2631650145000622,-2.144130114484312,-0.0025734660700874,-1.1093162826705885,-0.1857765004513206,-10.3506229100598,3.0502692278449755,0,2024-09-28 16:38:10.633935059,1727541490.6339352,2024-09-28 16:38:10.633935104,4,0.0,-2.5013680412394024,-55.62997945605109,[0.48667824 0.06686011 0.24879101 0.19767064],[0.48667824 0.06686011 0.24879101 0.19767064],"[-1.6911427e-02  3.8008404e-01 -3.2568473e-02 -8.7627333e-01
 -5.3334850e-05 -1.6887836e-02  0.0000000e+00  0.0000000e+00
  4.0000001e-01 -4.1691142e-01 -5.0581346e+00]",0.22859055523409247,0,0
144,168,2024-09-28 16:38:12.084944128,TASK_BEGIN,23,0.8565226096347719,-0.2557253662551261,-2.1299282344657837,-0.0015062734726229,-1.141919915685444,-0.1716213014654803,-10.463421902625056,3.0645134305598734,0,2024-09-28 16:38:11.220877930,1727541491.2208788,2024-09-28 16:38:11.220878848,4,3.0,-2.774287435419419,-17.046573128318748,[0.39535158 0.05518997 0.14852998 0.40092847],[0.39535158 0.05518997 0.14852998 0.40092847],"[-0.01813857  0.0641923   0.06917055 -0.54549336 -0.01434647 -0.01430168
  0.          0.          0.4        -0.41813856 -2.5310004 ]",0.26403582862902264,0,0
145,169,2024-09-28 16:38:12.152427008,TASK_BEGIN,23,0.879642750454637,-0.2481033997806975,-2.0895283917466143,-0.0066171000368365,-1.1645691613579532,-0.1596687108102219,-10.568346301871614,3.079696042231245,0,2024-09-28 16:38:11.578387939,1727541491.5783882,2024-09-28 16:38:11.578388224,4,3.0,-3.2059936057932905,-4.482542805060185,[0.37272225 0.10840217 0.11430175 0.40457382],[0.37272225 0.10840217 0.11430175 0.40457382],"[-0.00636951 -0.0683136   0.12766375 -0.4079216  -0.02103864 -0.0442651
  0.          0.          0.4        -0.4063695  -1.4709532 ]",0.2346724921501157,0,0
146,170,2024-09-28 16:38:12.219951872,TASK_BEGIN,23,0.908698274444962,-0.2402128293105189,-2.0205624114794536,-0.0167560518699317,-1.1773823528735363,-0.1500382005731874,-10.664271715794872,3.0943808355383147,0,2024-09-28 16:38:11.578387939,1727541491.5783882,2024-09-28 16:38:11.578388224,4,3.0,-3.2059936057932905,-4.482542805060185,[0.37272225 0.10840217 0.11430175 0.40457382],[0.37272225 0.10840217 0.11430175 0.40457382],"[-0.00636951 -0.0683136   0.12766375 -0.4079216  -0.02103864 -0.0442651
  0.          0.          0.4        -0.4063695  -1.4709532 ]",0.2346724921501157,0,0
147,171,2024-09-28 16:38:12.287298816,TASK_BEGIN,23,0.9426770887454968,-0.2320053292476964,-1.923219285007267,-0.0297581611686711,-1.181041671541733,-0.14271440132773,-10.751302656071816,3.106934852551673,0,2024-09-28 16:38:11.578387939,1727541491.5783882,2024-09-28 16:38:11.578388224,4,3.0,-3.2059936057932905,-4.482542805060185,[0.37272225 0.10840217 0.11430175 0.40457382],[0.37272225 0.10840217 0.11430175 0.40457382],"[-0.00636951 -0.0683136   0.12766375 -0.4079216  -0.02103864 -0.0442651
  0.          0.          0.4        -0.4063695  -1.4709532 ]",0.2346724921501157,0,0
148,172,2024-09-28 16:38:12.354951936,TASK_BEGIN,23,0.9805576742897586,-0.2234628435391497,-1.8000076571196597,-0.0428701851514397,-1.1766811385619207,-0.1375671304237742,-10.829842768912886,3.115476438983096,0,2024-09-28 16:38:11.829385986,1727541491.8293867,2024-09-28 16:38:11.829386752,4,2.0,-11.891299629089719,-0.7167901395889622,[6.35588072e-03 1.27353320e-02 9.80805643e-01 1.03144773e-04],[6.35588072e-03 1.27353320e-02 9.80805643e-01 1.03144773e-04],"[ 0.00290537 -0.1367724   0.1945531  -0.17309609 -0.14256246 -0.646915
  0.          0.          0.4        -0.39709464 -0.92328286]",1.3712460753125775,0,0
149,173,2024-09-28 16:38:12.419329792,TASK_BEGIN,23,1.021233877325968,-0.2145708254102579,-1.655313992801161,-0.053254159854739,-1.1657131437581063,-0.1343810971480912,-10.8994619086631,3.117864913949205,0,2024-09-28 16:38:11.829385986,1727541491.8293867,2024-09-28 16:38:11.829386752,4,2.0,-11.891299629089719,-0.7167901395889622,[6.35588072e-03 1.27353320e-02 9.80805643e-01 1.03144773e-04],[6.35588072e-03 1.27353320e-02 9.80805643e-01 1.03144773e-04],"[ 0.00290537 -0.1367724   0.1945531  -0.17309609 -0.14256246 -0.646915
  0.          0.          0.4        -0.39709464 -0.92328286]",1.3712460753125775,0,0
150,174,2024-09-28 16:38:12.490264832,TASK_BEGIN,23,1.0634216010128967,-0.2052849517466928,-1.4949822557714818,-0.0584209951487005,-1.1496359004939662,-0.1328937875358477,-10.95800790612398,3.111833782189969,0,2024-09-28 16:38:11.829385986,1727541491.8293867,2024-09-28 16:38:11.829386752,4,2.0,-11.891299629089719,-0.7167901395889622,[6.35588072e-03 1.27353320e-02 9.80805643e-01 1.03144773e-04],[6.35588072e-03 1.27353320e-02 9.80805643e-01 1.03144773e-04],"[ 0.00290537 -0.1367724   0.1945531  -0.17309609 -0.14256246 -0.646915
  0.          0.          0.4        -0.39709464 -0.92328286]",1.3712460753125775,0,0
151,175,2024-09-28 16:38:13.435384064,TASK_BEGIN,23,1.1055870783803308,-0.1955084770985435,-1.3260185707040906,-0.0565145569617374,-1.1298679740100837,-0.132835466319707,-11.00159953336759,3.0953132419347837,0,2024-09-28 16:38:12.939437012,1727541492.9394374,2024-09-28 16:38:12.939437312,4,0.0,-0.6946853013441512,-16.54061949435261,[0.60743495 0.25499626 0.01843498 0.11913381],[0.60743495 0.25499626 0.01843498 0.11913381],"[ 1.2469697e-01 -1.9629687e-01  4.6460378e-01 -1.2310487e-01
 -3.8203758e-01 -3.7079659e-09  1.0000000e+00  1.0000000e+00
  4.0000001e-01 -2.7530304e-01 -4.4708705e-01]",0.43420739543106945,0,0
152,176,2024-09-28 16:38:13.503197952,TASK_BEGIN,23,1.1459334718546264,-0.1850940667020592,-1.1564131168417582,-0.0464231837447218,-1.1076307482300003,-0.1339634221206223,-11.025689712353488,3.066872604133922,0,2024-09-28 16:38:13.003402100,1727541493.003403,2024-09-28 16:38:13.003403008,4,0.0,-0.6894356981489409,-18.101944760846223,[0.62341731 0.24993844 0.01512296 0.11152128],[0.62341731 0.24993844 0.01512296 0.11152128],"[ 1.3472994e-01 -2.0227832e-01  4.9007487e-01 -1.2985373e-01
 -3.8203758e-01 -3.1443466e-08  1.0000000e+00  1.0000000e+00
  4.0000001e-01 -2.6527005e-01 -3.9923549e-01]",0.4644922195276025,0,0
153,177,2024-09-28 16:38:13.571011072,TASK_BEGIN,23,1.1824700664444376,-0.1738763421282974,-0.9949054695986695,-0.0277614851922634,-1.0838795550125104,-0.1360864087350826,-11.026571889675036,3.02610969912592,0,2024-09-28 16:38:13.065401123,1727541493.0654018,2024-09-28 16:38:13.065401856,4,0.0,3.7153353444894606,-15.202679988218417,[0.64174301 0.24037151 0.01212399 0.1057615 ],[0.64174301 0.24037151 0.01212399 0.1057615 ],"[ 0.1452307  -0.2073474   0.4948495  -0.054876   -0.37345338  0.17168356
  1.          1.          0.4        -0.2547693  -0.35868287]",0.5210355436982802,0,0
154,178,2024-09-28 16:38:13.638756096,TASK_BEGIN,23,1.21316426374231,-0.1617282010388778,-0.8504703806177848,-0.000814399099026,-1.0592647690626542,-0.1390791756831482,-11.002427339875666,2.973832354881122,0,2024-09-28 16:38:13.065401123,1727541493.0654018,2024-09-28 16:38:13.065401856,4,0.0,3.7153353444894606,-15.202679988218417,[0.64174301 0.24037151 0.01212399 0.1057615 ],[0.64174301 0.24037151 0.01212399 0.1057615 ],"[ 0.1452307  -0.2073474   0.4948495  -0.054876   -0.37345338  0.17168356
  1.          1.          0.4        -0.2547693  -0.35868287]",0.5210355436982802,0,0
155,179,2024-09-28 16:38:13.706479104,TASK_BEGIN,23,1.2361517531014654,-0.1486180326375154,-0.7314919080393489,0.0334950888581888,-1.034091289371068,-0.142888112826501,-10.95349333660888,2.912001817756458,0,2024-09-28 16:38:13.065401123,1727541493.0654018,2024-09-28 16:38:13.065401856,4,0.0,3.7153353444894606,-15.202679988218417,[0.64174301 0.24037151 0.01212399 0.1057615 ],[0.64174301 0.24037151 0.01212399 0.1057615 ],"[ 0.1452307  -0.2073474   0.4948495  -0.054876   -0.37345338  0.17168356
  1.          1.          0.4        -0.2547693  -0.35868287]",0.5210355436982802,0,0
156,180,2024-09-28 16:38:13.768577024,TASK_BEGIN,23,1.2499667040308304,-0.1346412259384057,-0.644804760848722,0.0736201530649223,-1.0082678638514333,-0.1475308548737468,-10.881572544795864,2.84350805756789,0,2024-09-28 16:38:13.065401123,1727541493.0654018,2024-09-28 16:38:13.065401856,4,0.0,3.7153353444894606,-15.202679988218417,[0.64174301 0.24037151 0.01212399 0.1057615 ],[0.64174301 0.24037151 0.01212399 0.1057615 ],"[ 0.1452307  -0.2073474   0.4948495  -0.054876   -0.37345338  0.17168356
  1.          1.          0.4        -0.2547693  -0.35868287]",0.5210355436982802,0,0
157,181,2024-09-28 16:38:13.829446144,TASK_BEGIN,23,1.2537455389011516,-0.1200140839549063,-0.5948423922498675,0.1174190208820936,-0.9812827948085302,-0.1530925846164281,-10.78941094368155,2.7718585625340784,0,2024-09-28 16:38:13.065401123,1727541493.0654018,2024-09-28 16:38:13.065401856,4,0.0,3.7153353444894606,-15.202679988218417,[0.64174301 0.24037151 0.01212399 0.1057615 ],[0.64174301 0.24037151 0.01212399 0.1057615 ],"[ 0.1452307  -0.2073474   0.4948495  -0.054876   -0.37345338  0.17168356
  1.          1.          0.4        -0.2547693  -0.35868287]",0.5210355436982802,0,0
158,182,2024-09-28 16:38:14.784950016,TASK_BEGIN,23,1.24735962692096,-0.1050406279582333,-0.5831125582374725,0.1622332038629522,-0.9522498796537818,-0.15971580885762,-10.680342950375008,2.7008359293379782,0,2024-09-28 16:38:13.902399902,1727541493.9024005,2024-09-28 16:38:13.902400512,4,1.0,1.6624174242728083,43.97488540404132,[0.35299794 0.41549237 0.03739239 0.19411731],[0.35299794 0.41549237 0.03739239 0.19411731],"[ 0.25169668 -0.23672706  0.18029076 -0.0256902  -0.09585974  0.0681807
  1.          1.          0.4        -0.14830333 -0.12364555]",0.14973125369198112,0,0
159,183,2024-09-28 16:38:14.851144960,TASK_BEGIN,23,1.2314577144410268,-0.0900781080917515,-0.6081647471511431,0.2050535783580206,-0.9200269532776464,-0.1675794973195266,-10.558220333238644,2.63416359496116,0,2024-09-28 16:38:13.986404785,1727541493.9864056,2024-09-28 16:38:13.986405632,4,0.0,0.1700414371997283,46.46349729139372,[0.35863222 0.35755852 0.03409985 0.24970941],[0.35863222 0.35755852 0.03409985 0.24970941],"[ 0.25619054 -0.23815817  0.15067399 -0.02177794 -0.08393807  0.05708294
  1.          1.          0.4        -0.14380947 -0.11219669]",0.13954634501248914,0,0
160,184,2024-09-28 16:38:14.919964160,TASK_BEGIN,23,1.2074250485445674,-0.0755240540934537,-0.6660450302031619,0.2427911175652342,-0.8833742410390614,-0.1768741904668244,-10.42739551964574,2.5752103590512525,0,2024-09-28 16:38:14.049401123,1727541494.0494013,2024-09-28 16:38:14.049401344,4,0.0,0.14450971065882356,46.81863625605807,[0.36030353 0.35671768 0.03608742 0.24689137],[0.36030353 0.35671768 0.03608742 0.24689137],"[ 0.25919652 -0.23912519  0.14197105 -0.02071017 -0.07595169  0.05385357
  1.          1.          0.4        -0.14080349 -0.10446049]",0.1338899969352078,0,0
161,185,2024-09-28 16:38:14.988172032,TASK_BEGIN,23,1.1772654765282695,-0.0618282272523697,-0.7510375105859965,0.2726235140724478,-0.8411148878544749,-0.1877856128695712,-10.292580107539075,2.526758156041998,0,2024-09-28 16:38:14.112400146,1727541494.112401,2024-09-28 16:38:14.112400896,4,0.0,0.12286902006884759,46.95612612513685,[0.36111934 0.35895755 0.03809976 0.24182335],[0.36111934 0.35895755 0.03809976 0.24182335],"[ 0.2620499  -0.2400502   0.13489634 -0.01984973 -0.06836176  0.05123422
  1.          1.          0.4        -0.1379501  -0.09706045]",0.12848899006602282,0,0
162,186,2024-09-28 16:38:15.055964160,TASK_BEGIN,23,1.1434035516665164,-0.0495120859486218,-0.8564724422711343,0.2923604889290047,-0.7922696794435604,-0.2004893367485274,-10.158557408579217,2.4908544634337773,0,2024-09-28 16:38:14.175401855,1727541494.1754026,2024-09-28 16:38:14.175402752,4,0.0,0.10095373312362454,47.07281812981617,[0.36239204 0.35986279 0.03987406 0.23787111],[0.36239204 0.35986279 0.03987406 0.23787111],"[ 0.26474404 -0.24093002  0.12750925 -0.01891671 -0.06118688  0.04848901
  1.          1.          0.4        -0.13525596 -0.09002186]",0.12370274947871615,0,0
163,187,2024-09-28 16:38:15.123744000,TASK_BEGIN,23,1.108423689675074,-0.0391710622450483,-0.9754557271074188,0.3007578525825648,-0.7361578839191302,-0.215146584021065,-10.029856567778898,2.4687558780244867,0,2024-09-28 16:38:14.259401123,1727541494.2594016,2024-09-28 16:38:14.259401472,4,0.0,0.057416568847479255,47.83482378390298,[0.36652551 0.34621809 0.04008774 0.24716866],[0.36652551 0.34621809 0.04008774 0.24716866],"[ 0.26802936 -0.24201143  0.11062772 -0.01657856 -0.05242541  0.04213769
  1.          1.          0.4        -0.13197063 -0.0813706 ]",0.11920555231433265,0,0
164,188,2024-09-28 16:38:15.191511040,TASK_BEGIN,23,1.074802965127034,-0.031445855358184,-1.1014241313629491,0.2977031489875901,-0.6724662477600539,-0.2318928814314415,-9.91047582027258,2.460928544327506,0,2024-09-28 16:38:14.699920898,1727541494.6999214,2024-09-28 16:38:14.699921408,4,1.0,-8.588534814165849,35.97717818298883,[0.36629842 0.36923893 0.05185475 0.2126079 ],[0.36629842 0.36923893 0.05185475 0.2126079 ],"[ 0.2821842  -0.24689198  0.06659276 -0.03444852 -0.0136115   0.08474424
  1.          0.          0.4        -0.1178158  -0.04232622]",0.13435266884642058,0,0
165,189,2024-09-28 16:38:16.110853888,TASK_BEGIN,23,1.0447005611763434,-0.0269676733320872,-1.2286128207892129,0.2842320750441942,-0.6012782018870584,-0.2508225011347968,-9.803525653628023,2.4670267121322085,0,2024-09-28 16:38:15.322856934,1727541495.322858,2024-09-28 16:38:15.322857984,4,3.0,-0.8978878885041814,19.095677833854566,[0.31898705 0.22704462 0.12788725 0.32608108],[0.31898705 0.22704462 0.12788725 0.32608108],"[ 2.98217148e-01 -2.48281419e-01  1.50413781e-01 -1.03588293e-08
 -2.78402353e-03 -5.73306247e-09  1.00000000e+00  0.00000000e+00
  4.00000006e-01 -1.01782866e-01 -3.12106702e-02]",0.05581960719274006,0,0
166,190,2024-09-28 16:38:16.164228096,TASK_BEGIN,23,1.019832203294612,-0.0262939948272535,-1.352641822017391,0.2623944890216551,-0.5230602041683798,-0.2719748619397449,-9.710609159892517,2.485784585074303,0,2024-09-28 16:38:15.679857910,1727541495.6798584,2024-09-28 16:38:15.679858432,4,1.0,1.103756866496594,10.227356891873956,[0.40201383 0.48759604 0.04873931 0.06165082],[0.40201383 0.48759604 0.04873931 0.06165082],"[ 0.3157259  -0.248348    0.11083741 -0.01960718 -0.0033052  -0.04761157
  0.          0.          0.4        -0.08427412 -0.03067804]",0.2924710534215978,0,0
167,191,2024-09-28 16:38:16.246295808,TASK_BEGIN,23,1.0014150741652534,-0.0298512753311713,-1.4711340831813566,0.2349978639297416,-0.4386224952936393,-0.2953232067596184,-9.631081666975629,2.5148497086149746,0,2024-09-28 16:38:15.679857910,1727541495.6798584,2024-09-28 16:38:15.679858432,4,1.0,1.103756866496594,10.227356891873956,[0.40201383 0.48759604 0.04873931 0.06165082],[0.40201383 0.48759604 0.04873931 0.06165082],"[ 0.3157259  -0.248348    0.11083741 -0.01960718 -0.0033052  -0.04761157
  0.          0.          0.4        -0.08427412 -0.03067804]",0.2924710534215978,0,0
168,192,2024-09-28 16:38:16.311397888,TASK_BEGIN,23,0.9901459852357124,-0.0378914894468236,-1.5839813471925053,0.2052553285469425,-0.3490704459832662,-0.3207635099149815,-9.561606384236493,2.550684387423679,0,2024-09-28 16:38:15.679857910,1727541495.6798584,2024-09-28 16:38:15.679858432,4,1.0,1.103756866496594,10.227356891873956,[0.40201383 0.48759604 0.04873931 0.06165082],[0.40201383 0.48759604 0.04873931 0.06165082],"[ 0.3157259  -0.248348    0.11083741 -0.01960718 -0.0033052  -0.04761157
  0.          0.          0.4        -0.08427412 -0.03067804]",0.2924710534215978,0,0
169,193,2024-09-28 16:38:16.370373120,TASK_BEGIN,23,0.9861969242374968,-0.0504600388880046,-1.6930155258655746,0.1764026385034793,-0.2557457527566189,-0.3481037972524637,-9.496289074634,2.5886815231768066,0,2024-09-28 16:38:15.679857910,1727541495.6798584,2024-09-28 16:38:15.679858432,4,1.0,1.103756866496594,10.227356891873956,[0.40201383 0.48759604 0.04873931 0.06165082],[0.40201383 0.48759604 0.04873931 0.06165082],"[ 0.3157259  -0.248348    0.11083741 -0.01960718 -0.0033052  -0.04761157
  0.          0.          0.4        -0.08427412 -0.03067804]",0.2924710534215978,0,0
170,194,2024-09-28 16:38:16.449537024,TASK_BEGIN,23,0.9892446467996988,-0.0673731256434729,-1.8011378580851565,0.1513546189864031,-0.1601499896097558,-0.3770554930243516,-9.427411200976886,2.623576423192146,0,2024-09-28 16:38:15.679857910,1727541495.6798584,2024-09-28 16:38:15.679858432,4,1.0,1.103756866496594,10.227356891873956,[0.40201383 0.48759604 0.04873931 0.06165082],[0.40201383 0.48759604 0.04873931 0.06165082],"[ 0.3157259  -0.248348    0.11083741 -0.01960718 -0.0033052  -0.04761157
  0.          0.          0.4        -0.08427412 -0.03067804]",0.2924710534215978,0,0
171,195,2024-09-28 16:38:16.516561920,TASK_BEGIN,23,0.998539114179182,-0.0882073533443613,-1.911178430766683,0.1324388103909295,-0.0638514442311089,-0.4072279303535652,-9.346758171178733,2.6501166801674554,0,2024-09-28 16:38:15.679857910,1727541495.6798584,2024-09-28 16:38:15.679858432,4,1.0,1.103756866496594,10.227356891873956,[0.40201383 0.48759604 0.04873931 0.06165082],[0.40201383 0.48759604 0.04873931 0.06165082],"[ 0.3157259  -0.248348    0.11083741 -0.01960718 -0.0033052  -0.04761157
  0.          0.          0.4        -0.08427412 -0.03067804]",0.2924710534215978,0,0
172,196,2024-09-28 16:38:17.460510976,TASK_BEGIN,23,1.0129920507120302,-0.1123050948266535,-2.0249065789507865,0.1212340808992402,0.0316004247054289,-0.4381251518647072,-9.247542760440766,2.6638341069547207,0,2024-09-28 16:38:16.581370117,1727541496.5813704,2024-09-28 16:38:16.581370368,4,3.0,-0.9065845159212549,11.1344217609505,[0.31603843 0.22427414 0.13919337 0.32049406],[0.31603843 0.22427414 0.13919337 0.32049406],"[ 3.5896382e-01 -2.4834800e-01  1.4828326e-01 -9.7166968e-09
 -3.3054694e-03 -4.4548520e-09  1.0000000e+00  0.0000000e+00
  4.0000001e-01 -4.1036192e-02 -3.0678043e-02]",0.05595082520029213,0,0
173,197,2024-09-28 16:38:17.528322048,TASK_BEGIN,23,1.031276299874278,-0.1387994414494438,-2.142512810646564,0.1185382894488808,0.1247059915502937,-0.4691444449515006,-9.126545971157006,2.66172950254005,0,2024-09-28 16:38:16.812370117,1727541496.81237,2024-09-28 16:38:16.812370176,4,3.0,-0.6235890209337447,10.960305908413604,[0.31467291 0.21975924 0.14453676 0.3210311 ],[0.31467291 0.21975924 0.14453676 0.3210311 ],"[ 3.6964449e-01 -2.4834800e-01  1.3808981e-01 -9.3331307e-09
 -3.3056031e-03 -5.1452806e-09  1.0000000e+00  0.0000000e+00
  4.0000001e-01 -3.0355517e-02 -3.0678043e-02]",0.05436444869694394,0,0
174,198,2024-09-28 16:38:17.596107008,TASK_BEGIN,23,1.0519336781342292,-0.1666616908821903,-2.262568667553774,0.1244529128525355,0.2139616880684193,-0.4995807072503105,-8.985609653738804,2.6427207557552967,0,2024-09-28 16:38:16.812370117,1727541496.81237,2024-09-28 16:38:16.812370176,4,3.0,-0.6235890209337447,10.960305908413604,[0.31467291 0.21975924 0.14453676 0.3210311 ],[0.31467291 0.21975924 0.14453676 0.3210311 ],"[ 3.6964449e-01 -2.4834800e-01  1.3808981e-01 -9.3331307e-09
 -3.3056031e-03 -5.1452806e-09  1.0000000e+00  0.0000000e+00
  4.0000001e-01 -3.0355517e-02 -3.0678043e-02]",0.05436444869694394,0,0
175,199,2024-09-28 16:38:17.663857920,TASK_BEGIN,23,1.0734766179515862,-0.1947688635258243,-2.3822900795338597,0.1385220312660665,0.2977544460262657,-0.5286433712071834,-8.831732841865298,2.6077573912101943,0,2024-09-28 16:38:16.812370117,1727541496.81237,2024-09-28 16:38:16.812370176,4,3.0,-0.6235890209337447,10.960305908413604,[0.31467291 0.21975924 0.14453676 0.3210311 ],[0.31467291 0.21975924 0.14453676 0.3210311 ],"[ 3.6964449e-01 -2.4834800e-01  1.3808981e-01 -9.3331307e-09
 -3.3056031e-03 -5.1452806e-09  1.0000000e+00  0.0000000e+00
  4.0000001e-01 -3.0355517e-02 -3.0678043e-02]",0.05436444869694394,0,0
176,200,2024-09-28 16:38:17.731653888,TASK_BEGIN,23,1.094479130292678,-0.221985691708482,-2.4979746647870797,0.1598492157142618,0.3742818717722582,-0.5554876260510427,-8.675811902393955,2.5595994034777783,0,2024-09-28 16:38:16.980371094,1727541496.980371,2024-09-28 16:38:16.980370944,4,3.0,-0.9439364928485878,10.236384381447929,[0.31395683 0.21729408 0.148451   0.3202981 ],[0.31395683 0.21729408 0.148451   0.3202981 ],"[ 3.7714210e-01 -2.4834800e-01  1.3681561e-01 -9.9117123e-09
 -3.3057001e-03 -6.1073018e-09  1.0000000e+00  0.0000000e+00
  4.0000001e-01 -2.2857888e-02 -3.0678043e-02]",0.05361111542846525,0,0
177,201,2024-09-28 16:38:17.798470912,TASK_BEGIN,23,1.1136769479568378,-0.247255506709255,-2.60553008420565,0.187163652869962,0.441544283035452,-0.5792539856486325,-8.530739762744615,2.5023723157369147,0,2024-09-28 16:38:16.980371094,1727541496.980371,2024-09-28 16:38:16.980370944,4,3.0,-0.9439364928485878,10.236384381447929,[0.31395683 0.21729408 0.148451   0.3202981 ],[0.31395683 0.21729408 0.148451   0.3202981 ],"[ 3.7714210e-01 -2.4834800e-01  1.3681561e-01 -9.9117123e-09
 -3.3057001e-03 -6.1073018e-09  1.0000000e+00  0.0000000e+00
  4.0000001e-01 -2.2857888e-02 -3.0678043e-02]",0.05361111542846525,0,0
178,202,2024-09-28 16:38:17.867240960,TASK_BEGIN,23,1.13008371505382,-0.2696886861957682,-2.700985506668605,0.2188638245342269,0.4974013483715286,-0.5991095474472926,-8.409592798549566,2.4410385693080507,0,2024-09-28 16:38:17.043370117,1727541497.043371,2024-09-28 16:38:17.043371008,4,3.0,-1.0093244947612396,10.002569917815835,[0.31379181 0.21653132 0.14986447 0.3198124 ],[0.31379181 0.21653132 0.14986447 0.3198124 ],"[ 3.7987360e-01 -2.4834800e-01  1.3599609e-01  9.2474339e-09
 -3.3057369e-03  1.0140046e-08  1.0000000e+00  0.0000000e+00
  4.0000001e-01 -2.0126406e-02 -3.0678043e-02]",0.05318148539472839,0,0
179,203,2024-09-28 16:38:18.811609088,TASK_BEGIN,23,1.14309962558877,-0.2886331414734427,-2.78091788805779,0.2530767268647415,0.5396802522508274,-0.6142897488479426,-8.324295845079833,2.380876560754493,0,2024-09-28 16:38:18.001001953,1727541498.001002,2024-09-28 16:38:18.001001984,4,3.0,-1.1196010269587993,8.046155141744585,[0.30964305 0.20549394 0.16959662 0.31526638],[0.30964305 0.20549394 0.16959662 0.31526638],"[ 4.1769981e-01 -2.4834800e-01  1.1052519e-01 -8.7023180e-09
 -3.3061639e-03 -5.0339675e-09  1.0000000e+00  0.0000000e+00
  4.0000001e-01  1.7699813e-02 -3.0678043e-02]",0.04738457303429745,0,0
180,204,2024-09-28 16:38:18.869989888,TASK_BEGIN,23,1.1525817951066952,-0.30371746281157,-2.8428259260564843,0.287750614975701,0.5663311382047911,-0.624141903444047,-8.284890350416966,2.3270123759973065,0,2024-09-28 16:38:18.001001953,1727541498.001002,2024-09-28 16:38:18.001001984,4,3.0,-1.1196010269587993,8.046155141744585,[0.30964305 0.20549394 0.16959662 0.31526638],[0.30964305 0.20549394 0.16959662 0.31526638],"[ 4.1769981e-01 -2.4834800e-01  1.1052519e-01 -8.7023180e-09
 -3.3061639e-03 -5.0339675e-09  1.0000000e+00  0.0000000e+00
  4.0000001e-01  1.7699813e-02 -3.0678043e-02]",0.04738457303429745,0,0
181,205,2024-09-28 16:38:18.947165952,TASK_BEGIN,23,1.1588462330452376,-0.3148633913804949,-2.885466917780929,0.3207664176386194,0.5756083003398279,-0.6281693304794624,-8.299258983382142,2.28401431415489,0,2024-09-28 16:38:18.211013184,1727541498.2110136,2024-09-28 16:38:18.211013632,4,3.0,-0.9544501160160996,7.638714973532476,[0.30913206 0.20454061 0.17377555 0.31255178],[0.30913206 0.20454061 0.17377555 0.31255178],"[ 4.2482772e-01 -2.4834800e-01  1.0544595e-01 -9.6860377e-09
 -3.3063996e-03 -7.8920488e-09  1.0000000e+00  0.0000000e+00
  4.0000001e-01  2.4827735e-02 -3.0678043e-02]",0.04534659304515537,0,0
182,206,2024-09-28 16:38:19.014944000,TASK_BEGIN,23,1.1625798267255338,-0.3222650873841628,-2.909007835869704,0.3500060713414105,0.5662390667343357,-0.6260711610336203,-8.37285805566309,2.255532288487291,0,2024-09-28 16:38:18.211013184,1727541498.2110136,2024-09-28 16:38:18.211013632,4,3.0,-0.9544501160160996,7.638714973532476,[0.30913206 0.20454061 0.17377555 0.31255178],[0.30913206 0.20454061 0.17377555 0.31255178],"[ 4.2482772e-01 -2.4834800e-01  1.0544595e-01 -9.6860377e-09
 -3.3063996e-03 -7.8920488e-09  1.0000000e+00  0.0000000e+00
  4.0000001e-01  2.4827735e-02 -3.0678043e-02]",0.04534659304515537,0,0
183,207,2024-09-28 16:38:19.082544128,TASK_BEGIN,23,1.1646771562586742,-0.3263357458003404,-2.9147991147585164,0.3733165545005009,0.5375482475735109,-0.617768957392141,-8.508143992756022,2.2439874511960536,0,2024-09-28 16:38:18.211013184,1727541498.2110136,2024-09-28 16:38:18.211013632,4,3.0,-0.9544501160160996,7.638714973532476,[0.30913206 0.20454061 0.17377555 0.31255178],[0.30913206 0.20454061 0.17377555 0.31255178],"[ 4.2482772e-01 -2.4834800e-01  1.0544595e-01 -9.6860377e-09
 -3.3063996e-03 -7.8920488e-09  1.0000000e+00  0.0000000e+00
  4.0000001e-01  2.4827735e-02 -3.0678043e-02]",0.04534659304515537,0,0
184,208,2024-09-28 16:38:19.150447872,TASK_BEGIN,23,1.1660544166025817,-0.3276296294318952,-2.90481955593743,0.3884015146264115,0.4895215152037532,-0.60340987463303,-8.70400595545577,2.2503885279820626,0,2024-09-28 16:38:18.379012207,1727541498.3790123,2024-09-28 16:38:18.379012352,4,3.0,-1.0636537759081455,7.180308116341179,[0.30861038 0.20317756 0.17681082 0.31140124],[0.30861038 0.20317756 0.17681082 0.31140124],"[ 4.3028530e-01 -2.4834800e-01  1.0293706e-01  1.0423546e-08
 -3.3065767e-03  9.8950217e-09  1.0000000e+00  0.0000000e+00
  4.0000001e-01  3.0285295e-02 -3.0678043e-02]",0.04476383958808958,0,0
185,209,2024-09-28 16:38:19.218265088,TASK_BEGIN,23,1.1674933683174715,-0.3267546933684448,-2.8810900751738746,0.3927752118009179,0.4228078103803871,-0.5833441060544957,-8.95578110947854,2.274360794047112,0,2024-09-28 16:38:18.379012207,1727541498.3790123,2024-09-28 16:38:18.379012352,4,3.0,-1.0636537759081455,7.180308116341179,[0.30861038 0.20317756 0.17681082 0.31140124],[0.30861038 0.20317756 0.17681082 0.31140124],"[ 4.3028530e-01 -2.4834800e-01  1.0293706e-01  1.0423546e-08
 -3.3065767e-03  9.8950217e-09  1.0000000e+00  0.0000000e+00
  4.0000001e-01  3.0285295e-02 -3.0678043e-02]",0.04476383958808958,0,0
186,210,2024-09-28 16:38:20.132893184,TASK_BEGIN,23,1.169534521409047,-0.3242912366296127,-2.8453434037720635,0.3839152692504117,0.3386757113350677,-0.5580897123303579,-9.255924991568772,2.314370283137968,0,2024-09-28 16:38:19.366102051,1727541499.3661025,2024-09-28 16:38:19.366102528,4,3.0,-0.9091886779126261,6.004984024710342,[0.3050946  0.19279253 0.19240754 0.30970533],[0.3050946  0.19279253 0.19240754 0.30970533],"[ 4.5801196e-01 -2.4834800e-01  7.6962553e-02  9.3873220e-09
 -3.3074734e-03  7.4403324e-09  1.0000000e+00  0.0000000e+00
  4.0000001e-01  5.8011945e-02 -3.0678043e-02]",0.04277216943272279,0,0
187,211,2024-09-28 16:38:20.205082880,TASK_BEGIN,23,1.1724076904222778,-0.3207265071990292,-2.799066568328532,0.3596385142465794,0.2389430152368636,-0.5283032057362594,-9.594835217495875,2.3680186102573857,0,2024-09-28 16:38:19.366102051,1727541499.3661025,2024-09-28 16:38:19.366102528,4,3.0,-0.9091886779126261,6.004984024710342,[0.3050946  0.19279253 0.19240754 0.30970533],[0.3050946  0.19279253 0.19240754 0.30970533],"[ 4.5801196e-01 -2.4834800e-01  7.6962553e-02  9.3873220e-09
 -3.3074734e-03  7.4403324e-09  1.0000000e+00  0.0000000e+00
  4.0000001e-01  5.8011945e-02 -3.0678043e-02]",0.04277216943272279,0,0
188,212,2024-09-28 16:38:20.272837888,TASK_BEGIN,23,1.1759909455321085,-0.316413468701303,-2.7438526664398606,0.3185798075919254,0.1259009168971395,-0.4947617799543141,-9.961301998612438,2.43227948896582,0,2024-09-28 16:38:19.512713867,1727541499.5127141,2024-09-28 16:38:19.512714240,4,3.0,-1.0760370109627806,5.395445970946503,[0.30477254 0.19278307 0.1949157  0.3075287 ],[0.30477254 0.19278307 0.1949157  0.3075287 ],"[ 4.6151415e-01 -2.4834800e-01  7.7836566e-02  8.6509395e-09
 -3.3075914e-03  7.4949806e-09  1.0000000e+00  0.0000000e+00
  4.0000001e-01  6.1514154e-02 -3.0678043e-02]",0.04248446873602102,0,0
189,213,2024-09-28 16:38:20.333316096,TASK_BEGIN,23,1.179811005705916,-0.3115617426736234,-2.681845354350741,0.2605900975907013,0.0022696164170132,-0.458352221155597,-10.34250052725121,2.5036418670977936,0,2024-09-28 16:38:19.846738037,1727541499.8467386,2024-09-28 16:38:19.846738688,4,3.0,-1.08235606074574,5.013862421159905,[0.30344443 0.18965467 0.19917839 0.30772251],[0.30344443 0.18965467 0.19917839 0.30772251],"[ 4.6912923e-01 -2.4834800e-01  7.0602790e-02 -8.5783789e-09
 -3.3078287e-03 -6.2462746e-09  1.0000000e+00  0.0000000e+00
  4.0000001e-01  6.9129243e-02 -3.0678043e-02]",0.04257746416731332,0,0
190,214,2024-09-28 16:38:20.395803904,TASK_BEGIN,23,1.1831034002986072,-0.306258730008037,-2.616037531910184,0.186936921639567,-0.128778689256067,-0.4200651460034353,-10.723942287110525,2.578237448560013,0,2024-09-28 16:38:19.846738037,1727541499.8467386,2024-09-28 16:38:19.846738688,4,3.0,-1.08235606074574,5.013862421159905,[0.30344443 0.18965467 0.19917839 0.30772251],[0.30344443 0.18965467 0.19917839 0.30772251],"[ 4.6912923e-01 -2.4834800e-01  7.0602790e-02 -8.5783789e-09
 -3.3078287e-03 -6.2462746e-09  1.0000000e+00  0.0000000e+00
  4.0000001e-01  6.9129243e-02 -3.0678043e-02]",0.04257746416731332,0,0
191,215,2024-09-28 16:38:20.476076032,TASK_BEGIN,23,1.1849313434563773,-0.300505234781849,-2.550333752384115,0.100311980790654,-0.2635506730204252,-0.380994056256784,-11.089903526752876,2.6520511129403506,0,2024-09-28 16:38:19.846738037,1727541499.8467386,2024-09-28 16:38:19.846738688,4,3.0,-1.08235606074574,5.013862421159905,[0.30344443 0.18965467 0.19917839 0.30772251],[0.30344443 0.18965467 0.19917839 0.30772251],"[ 4.6912923e-01 -2.4834800e-01  7.0602790e-02 -8.5783789e-09
 -3.3078287e-03 -6.2462746e-09  1.0000000e+00  0.0000000e+00
  4.0000001e-01  6.9129243e-02 -3.0678043e-02]",0.04257746416731332,0,0
192,216,2024-09-28 16:38:20.543847936,TASK_BEGIN,23,1.184336524144043,-0.2942486675964036,-2.489390096871407,0.0047004019541687,-0.3978030847889022,-0.3423272773649083,-11.424460668150443,2.721219917059817,0,2024-09-28 16:38:19.846738037,1727541499.8467386,2024-09-28 16:38:19.846738688,4,3.0,-1.08235606074574,5.013862421159905,[0.30344443 0.18965467 0.19917839 0.30772251],[0.30344443 0.18965467 0.19917839 0.30772251],"[ 4.6912923e-01 -2.4834800e-01  7.0602790e-02 -8.5783789e-09
 -3.3078287e-03 -6.2462746e-09  1.0000000e+00  0.0000000e+00
  4.0000001e-01  6.9129243e-02 -3.0678043e-02]",0.04257746416731332,0,0
193,217,2024-09-28 16:38:21.486758144,TASK_BEGIN,23,1.1804790214079142,-0.2874068503235852,-2.438212130409355,-0.0948664974567743,-0.5268338744064139,-0.30531612065793,-11.71289695369557,2.782351122364401,0,2024-09-28 16:38:20.782437988,1727541500.7824385,2024-09-28 16:38:20.782438400,4,0.0,-9.462549814006778,5.368510617924004,[0.39452187 0.36969271 0.07214466 0.16364076],[0.39452187 0.36969271 0.07214466 0.16364076],"[ 4.8706913e-01 -2.4834800e-01  3.8023666e-02 -6.9984973e-09
 -3.3084047e-03 -2.1341043e-10  1.0000000e+00  0.0000000e+00
  4.0000001e-01  8.7069131e-02 -3.0678043e-02]",0.08782642283700583,0,0
194,218,2024-09-28 16:38:21.553318144,TASK_BEGIN,23,1.1727282912953123,-0.2798843827452011,-2.4015651976130643,-0.1926724580104838,-0.645710626891431,-0.2712140107044465,-11.943229033414568,2.8328107580386197,0,2024-09-28 16:38:20.782437988,1727541500.7824385,2024-09-28 16:38:20.782438400,4,0.0,-9.462549814006778,5.368510617924004,[0.39452187 0.36969271 0.07214466 0.16364076],[0.39452187 0.36969271 0.07214466 0.16364076],"[ 4.8706913e-01 -2.4834800e-01  3.8023666e-02 -6.9984973e-09
 -3.3084047e-03 -2.1341043e-10  1.0000000e+00  0.0000000e+00
  4.0000001e-01  8.7069131e-02 -3.0678043e-02]",0.08782642283700583,0,0
195,219,2024-09-28 16:38:21.621775872,TASK_BEGIN,23,1.160706401469256,-0.2715906724868928,-2.3834360567505795,-0.2827643891680359,-0.7495963909805381,-0.2411958993657837,-12.10763369586838,2.870962378064058,0,2024-09-28 16:38:20.782437988,1727541500.7824385,2024-09-28 16:38:20.782438400,4,0.0,-9.462549814006778,5.368510617924004,[0.39452187 0.36969271 0.07214466 0.16364076],[0.39452187 0.36969271 0.07214466 0.16364076],"[ 4.8706913e-01 -2.4834800e-01  3.8023666e-02 -6.9984973e-09
 -3.3084047e-03 -2.1341043e-10  1.0000000e+00  0.0000000e+00
  4.0000001e-01  8.7069131e-02 -3.0678043e-02]",0.08782642283700583,0,0
196,220,2024-09-28 16:38:21.689129216,TASK_BEGIN,23,1.1443303611267186,-0.2624724074011155,-2.386749766027426,-0.3594371918900515,-0.8340937714415877,-0.2162768819268361,-12.203447489929053,2.896307647535369,0,2024-09-28 16:38:20.989440918,1727541500.9894416,2024-09-28 16:38:20.989441536,4,3.0,-1.1391034835856024,2.969455495663672,[0.30003638 0.1839944  0.21291678 0.30305244],[0.30003638 0.1839944  0.21291678 0.30305244],"[ 4.9065319e-01 -2.4834800e-01  5.6784913e-02 -1.0391494e-08
 -3.3085125e-03 -6.4928303e-09  1.0000000e+00  0.0000000e+00
  4.0000001e-01  9.0653196e-02 -3.0678043e-02]",0.04385973476584402,0,0
197,221,2024-09-28 16:38:21.756824064,TASK_BEGIN,23,1.1238832954236269,-0.2525595253829627,-2.413306446780516,-0.4176999598950816,-0.8955282072879014,-0.1972502121626432,-12.23340618917319,2.909454864526997,0,2024-09-28 16:38:21.236249023,1727541501.23625,2024-09-28 16:38:21.236249856,4,3.0,-0.691139064719531,3.4218902587372266,[0.29874906 0.18138165 0.21477903 0.30509026],[0.29874906 0.18138165 0.21477903 0.30509026],"[ 4.9465704e-01 -2.4834800e-01  4.6739083e-02  9.8196082e-09
 -3.3086315e-03  4.3465320e-09  1.0000000e+00  0.0000000e+00
  4.0000001e-01  9.4657041e-02 -3.0678043e-02]",0.044117517115098155,0,0
198,222,2024-09-28 16:38:21.824592128,TASK_BEGIN,23,1.1000742837548856,-0.242000523111636,-2.463761589935109,-0.4536809756743287,-0.9311571120856598,-0.1846530429076046,-12.20504916796354,2.9118858882033987,0,2024-09-28 16:38:21.236249023,1727541501.23625,2024-09-28 16:38:21.236249856,4,3.0,-0.691139064719531,3.4218902587372266,[0.29874906 0.18138165 0.21477903 0.30509026],[0.29874906 0.18138165 0.21477903 0.30509026],"[ 4.9465704e-01 -2.4834800e-01  4.6739083e-02  9.8196082e-09
 -3.3086315e-03  4.3465320e-09  1.0000000e+00  0.0000000e+00
  4.0000001e-01  9.4657041e-02 -3.0678043e-02]",0.044117517115098155,0,0
199,223,2024-09-28 16:38:21.893166080,TASK_BEGIN,23,1.0740188880179835,-0.2310623776115809,-2.537547762474134,-0.4649475376198583,-0.9393546391840912,-0.1787525018463693,-12.12952114263777,2.905583811403436,0,2024-09-28 16:38:21.363251952,1727541501.3632524,2024-09-28 16:38:21.363252480,4,3.0,-1.0802679640173045,2.6252698714415343,[0.29892529 0.18221566 0.21662927 0.30222979],[0.29892529 0.18221566 0.21662927 0.30222979],"[ 4.9652782e-01 -2.4834800e-01  5.1826145e-02  9.9109103e-09
 -3.3086890e-03  1.0662191e-08  1.0000000e+00  0.0000000e+00
  4.0000001e-01  9.6527830e-02 -3.0678043e-02]",0.044420773979929704,0,0
