,Unnamed: 0,time,MARKER,pid,L_O_DSI,L_D_DSI,L_O_DSphi,L_D_DSphi,R_O_DSI,R_D_DSI,R_O_DSphi,R_D_DSphi,trial_id,dateTimestamps,floatTimestamps,timestamps,episode,actions,rewards,discounted_rewards,chosen_actions,optimal_actions,desired_goal,states,continuous_optimal,binary_optimal,discrete_optimal
1,1,2024-10-02 20:35:01.024701184,TASK_BEGIN,24,0.477666451758963,0.0434550487530217,-1.3905663857128483,0.5690807173054251,-0.2322514766061185,0.07837833647662,-0.1440674776393246,0.2682071132393795,1,2024-10-02 20:35:00.894103027,1727901300.8941038,2024-10-02 20:35:00.894103808,0,[-0.38985813  0.34998748 -0.9336721  -0.05209773],-1.0,-3.9403989999999998,[-0.38985813  0.34998748 -0.9336721  -0.05209773],[-0.38985813  0.34998748 -0.9336721  -0.05209773],[1.4377495  0.68685826 0.42469975],"[ 1.27367006e+00  8.56755357e-01  4.50751270e-01  1.27687994e+00
  8.72175786e-01  4.24775622e-01  3.20987868e-03  1.54204288e-02
 -2.59756481e-02  4.00598467e-02  3.94066864e-02 -9.52496622e-09
  1.46537942e-08 -2.12170905e-15  8.74361052e-03 -6.51902961e-03
  2.26327784e-02  5.34650725e-09 -8.22539576e-09  2.76360191e-18
 -8.74361072e-03  6.51902948e-03 -2.26277803e-02 -1.73089194e-02
 -1.82468342e-02]",1.6475920677185059,0,0
2,2,2024-10-02 20:35:01.092605952,TASK_BEGIN,24,0.5301160691930805,0.0295148162723766,-1.7070145981397,0.5748865023752766,-0.2180719483015726,0.082726122575029,-0.6313477490919773,0.2546655785728455,1,2024-10-02 20:35:00.894103027,1727901300.8941038,2024-10-02 20:35:00.894103808,0,[-0.38985813  0.34998748 -0.9336721  -0.05209773],-1.0,-3.9403989999999998,[-0.38985813  0.34998748 -0.9336721  -0.05209773],[-0.38985813  0.34998748 -0.9336721  -0.05209773],[1.4377495  0.68685826 0.42469975],"[ 1.27367006e+00  8.56755357e-01  4.50751270e-01  1.27687994e+00
  8.72175786e-01  4.24775622e-01  3.20987868e-03  1.54204288e-02
 -2.59756481e-02  4.00598467e-02  3.94066864e-02 -9.52496622e-09
  1.46537942e-08 -2.12170905e-15  8.74361052e-03 -6.51902961e-03
  2.26327784e-02  5.34650725e-09 -8.22539576e-09  2.76360191e-18
 -8.74361072e-03  6.51902948e-03 -2.26277803e-02 -1.73089194e-02
 -1.82468342e-02]",1.6475920677185059,0,0
3,3,2024-10-02 20:35:02.035056128,TASK_BEGIN,24,0.5805999207095551,0.0160611918739558,-2.014320785080192,0.5784746477555632,-0.2068539301493119,0.0874836692979824,-1.1049965660034176,0.2450263821539581,1,2024-10-02 20:35:01.317614990,1727901301.3176155,2024-10-02 20:35:01.317615616,0,[ 0.99863034 -0.9631927   0.06431519 -0.11473933],-1.0,-7.72553055720799,[ 0.99863034 -0.9631927   0.06431519 -0.11473933],[ 0.99863034 -0.9631927   0.06431519 -0.11473933],[1.4377495  0.68685826 0.42469975],"[ 1.37795469e+00  7.32348161e-01  4.46726608e-01  1.38163237e+00
  7.35192198e-01  4.27930491e-01  3.67767920e-03  2.84403711e-03
 -1.87961170e-02  2.62577640e-02  2.17644521e-02 -6.35230568e-04
 -3.97712750e-03  1.34764557e-02  6.09537065e-04 -2.83291106e-03
 -1.31944378e-04 -2.79040684e-04  4.73623235e-04  4.20649403e-04
  2.31229655e-02 -2.29620666e-02  1.65654064e-03 -2.59838977e-03
  2.91187071e-03]",1.2299954891204834,0,0
4,4,2024-10-02 20:35:02.102926080,TASK_BEGIN,24,0.6277818140770893,0.0034770048557228,-2.3078523148955465,0.578674553127955,-0.1994185895449747,0.0928543175233137,-1.5614064069140507,0.2408115869201605,1,2024-10-02 20:35:01.317614990,1727901301.3176155,2024-10-02 20:35:01.317615616,0,[ 0.99863034 -0.9631927   0.06431519 -0.11473933],-1.0,-7.72553055720799,[ 0.99863034 -0.9631927   0.06431519 -0.11473933],[ 0.99863034 -0.9631927   0.06431519 -0.11473933],[1.4377495  0.68685826 0.42469975],"[ 1.37795469e+00  7.32348161e-01  4.46726608e-01  1.38163237e+00
  7.35192198e-01  4.27930491e-01  3.67767920e-03  2.84403711e-03
 -1.87961170e-02  2.62577640e-02  2.17644521e-02 -6.35230568e-04
 -3.97712750e-03  1.34764557e-02  6.09537065e-04 -2.83291106e-03
 -1.31944378e-04 -2.79040684e-04  4.73623235e-04  4.20649403e-04
  2.31229655e-02 -2.29620666e-02  1.65654064e-03 -2.59838977e-03
  2.91187071e-03]",1.2299954891204834,0,0
5,5,2024-10-02 20:35:02.170705152,TASK_BEGIN,24,0.6703455586760102,-0.0078414061695293,-2.5842534840037947,0.5748620074530911,-0.1962914453098947,0.0990497070740091,-1.9994034631211095,0.2430712229369228,1,2024-10-02 20:35:01.317614990,1727901301.3176155,2024-10-02 20:35:01.317615616,0,[ 0.99863034 -0.9631927   0.06431519 -0.11473933],-1.0,-7.72553055720799,[ 0.99863034 -0.9631927   0.06431519 -0.11473933],[ 0.99863034 -0.9631927   0.06431519 -0.11473933],[1.4377495  0.68685826 0.42469975],"[ 1.37795469e+00  7.32348161e-01  4.46726608e-01  1.38163237e+00
  7.35192198e-01  4.27930491e-01  3.67767920e-03  2.84403711e-03
 -1.87961170e-02  2.62577640e-02  2.17644521e-02 -6.35230568e-04
 -3.97712750e-03  1.34764557e-02  6.09537065e-04 -2.83291106e-03
 -1.31944378e-04 -2.79040684e-04  4.73623235e-04  4.20649403e-04
  2.31229655e-02 -2.29620666e-02  1.65654064e-03 -2.59838977e-03
  2.91187071e-03]",1.2299954891204834,0,0
6,6,2024-10-02 20:35:02.229783040,TASK_BEGIN,24,0.7070776460882136,-0.0175050540328921,-2.841752472481711,0.5670637856271642,-0.1977281831005165,0.1062842764171487,-2.4196637661177043,0.2522608945143971,1,2024-10-02 20:35:01.423618164,1727901301.4236183,2024-10-02 20:35:01.423618304,0,[ 0.6081372  -0.60840124 -0.02981711  0.14402968],-0.0,-7.64827525163591,[ 0.6081372  -0.60840124 -0.02981711  0.14402968],[ 0.6081372  -0.60840124 -0.02981711  0.14402968],[1.4377495  0.68685826 0.42469975],"[ 1.39830909e+00  7.11058818e-01  4.45938006e-01  1.40350334e+00
  7.11556219e-01  4.25230461e-01  5.19425719e-03  4.97400534e-04
 -2.07075450e-02  5.24724257e-02  5.22665177e-02  2.24186296e-03
 -8.06742673e-04  1.33555730e-02  1.39754870e-03 -1.72190571e-03
  6.77012972e-03  9.23028767e-03  1.33576049e-02 -1.89290772e-03
  1.31757938e-02 -1.33525702e-02 -1.07043295e-03  2.80466392e-02
  3.05386831e-02]",0.8615140914916992,0,0
7,7,2024-10-02 20:35:02.306292992,TASK_BEGIN,24,0.736981672032425,-0.0251626204555103,-3.0800305754279305,0.555923166043943,-0.2037428445649326,0.1147598126310419,-2.8237302785883918,0.268156892906208,1,2024-10-02 20:35:01.423618164,1727901301.4236183,2024-10-02 20:35:01.423618304,0,[ 0.6081372  -0.60840124 -0.02981711  0.14402968],-0.0,-7.64827525163591,[ 0.6081372  -0.60840124 -0.02981711  0.14402968],[ 0.6081372  -0.60840124 -0.02981711  0.14402968],[1.4377495  0.68685826 0.42469975],"[ 1.39830909e+00  7.11058818e-01  4.45938006e-01  1.40350334e+00
  7.11556219e-01  4.25230461e-01  5.19425719e-03  4.97400534e-04
 -2.07075450e-02  5.24724257e-02  5.22665177e-02  2.24186296e-03
 -8.06742673e-04  1.33555730e-02  1.39754870e-03 -1.72190571e-03
  6.77012972e-03  9.23028767e-03  1.33576049e-02 -1.89290772e-03
  1.31757938e-02 -1.33525702e-02 -1.07043295e-03  2.80466392e-02
  3.05386831e-02]",0.8615140914916992,0,0
8,8,2024-10-02 20:35:02.369908224,TASK_BEGIN,24,0.759380866504687,-0.0305297185268427,-3.2997048011688728,0.5425571809581978,-0.214102138813516,0.1246402948770956,-3.213184884217737,0.2898666933737381,1,2024-10-02 20:35:01.635559082,1727901301.6355598,2024-10-02 20:35:01.635559680,0,[ 0.0433731  -0.09526104 -0.01557282  0.00795369],-0.0,-7.496074574128356,[ 0.0433731  -0.09526104 -0.01557282  0.00795369],[ 0.0433731  -0.09526104 -0.01557282  0.00795369],[1.4377495  0.68685826 0.42469975],"[ 1.40310698e+00  7.05253370e-01  4.44866552e-01  1.42210292e+00
  6.95998035e-01  4.25248044e-01  1.89959374e-02 -9.25533494e-03
 -1.96185075e-02  3.22720728e-02  3.30903676e-02 -7.75846179e-03
 -4.75879060e-03 -1.58702228e-02  7.00542106e-04  7.65382628e-03
  5.28304078e-04 -1.19121474e-02 -9.71769852e-03 -3.33244323e-02
  1.11434009e-03 -2.52615511e-03 -4.49222030e-04 -6.52343058e-03
 -5.74583500e-03]",0.11279630661010742,0,0
9,9,2024-10-02 20:35:02.432392960,TASK_BEGIN,24,0.7739608747488663,-0.0334054133559847,-3.501651220723391,0.5283780495239965,-0.2283127878959304,0.1360257167740261,-3.5892719397295134,0.315960521497944,1,2024-10-02 20:35:01.635559082,1727901301.6355598,2024-10-02 20:35:01.635559680,0,[ 0.0433731  -0.09526104 -0.01557282  0.00795369],-0.0,-7.496074574128356,[ 0.0433731  -0.09526104 -0.01557282  0.00795369],[ 0.0433731  -0.09526104 -0.01557282  0.00795369],[1.4377495  0.68685826 0.42469975],"[ 1.40310698e+00  7.05253370e-01  4.44866552e-01  1.42210292e+00
  6.95998035e-01  4.25248044e-01  1.89959374e-02 -9.25533494e-03
 -1.96185075e-02  3.22720728e-02  3.30903676e-02 -7.75846179e-03
 -4.75879060e-03 -1.58702228e-02  7.00542106e-04  7.65382628e-03
  5.28304078e-04 -1.19121474e-02 -9.71769852e-03 -3.33244323e-02
  1.11434009e-03 -2.52615511e-03 -4.49222030e-04 -6.52343058e-03
 -5.74583500e-03]",0.11279630661010742,0,0
10,17,2024-10-02 20:35:04.704418048,TASK_BEGIN,24,0.6510653662350244,0.0346216014969376,-4.467158219141926,0.5359596364328801,-0.391822359575176,0.2684767510243664,-6.107046441533311,0.4936068353806829,1,2024-10-02 20:35:04.435077881,1727901304.4350786,2024-10-02 20:35:04.435078656,1,[ 0.1787738  -0.28876743 -0.99704874 -0.14404877],-1.0,-3.9403989999999998,[ 0.1787738  -0.28876743 -0.99704874 -0.14404877],[ 0.1787738  -0.28876743 -0.99704874 -0.14404877],[1.29705126 0.69918498 0.42469975],"[ 1.37340719e+00  6.41378170e-01  4.50017511e-01  1.37280792e+00
  6.25991267e-01  4.25046251e-01 -5.99270304e-04 -1.53869023e-02
 -2.49712599e-02  3.93491100e-02  4.13111554e-02 -3.65507803e-02
  1.26887228e-03  7.26875482e-03 -3.46906202e-03  8.70519329e-03
  2.63500588e-02 -5.91017979e-02 -7.71008765e-04  6.07140248e-03
  4.12360189e-03 -4.96037588e-03 -2.44820954e-02 -1.82899987e-02
 -1.53954340e-02]",1.4961446523666382,0,0
11,18,2024-10-02 20:35:04.766413056,TASK_BEGIN,24,0.6165342134688945,0.0521453342907946,-4.503742440454212,0.5574360693874691,-0.4105348842845537,0.2863712620005816,-6.326215010109056,0.497833435729709,1,2024-10-02 20:35:04.435077881,1727901304.4350786,2024-10-02 20:35:04.435078656,1,[ 0.1787738  -0.28876743 -0.99704874 -0.14404877],-1.0,-3.9403989999999998,[ 0.1787738  -0.28876743 -0.99704874 -0.14404877],[ 0.1787738  -0.28876743 -0.99704874 -0.14404877],[1.29705126 0.69918498 0.42469975],"[ 1.37340719e+00  6.41378170e-01  4.50017511e-01  1.37280792e+00
  6.25991267e-01  4.25046251e-01 -5.99270304e-04 -1.53869023e-02
 -2.49712599e-02  3.93491100e-02  4.13111554e-02 -3.65507803e-02
  1.26887228e-03  7.26875482e-03 -3.46906202e-03  8.70519329e-03
  2.63500588e-02 -5.91017979e-02 -7.71008765e-04  6.07140248e-03
  4.12360189e-03 -4.96037588e-03 -2.44820954e-02 -1.82899987e-02
 -1.53954340e-02]",1.4961446523666382,0,0
12,19,2024-10-02 20:35:04.845808128,TASK_BEGIN,24,0.5807582114991723,0.0706424784617941,-4.526791820872683,0.5811109132538474,-0.428664177659213,0.3036430326053931,-6.5082746554305135,0.4977173314836469,1,2024-10-02 20:35:04.435077881,1727901304.4350786,2024-10-02 20:35:04.435078656,1,[ 0.1787738  -0.28876743 -0.99704874 -0.14404877],-1.0,-3.9403989999999998,[ 0.1787738  -0.28876743 -0.99704874 -0.14404877],[ 0.1787738  -0.28876743 -0.99704874 -0.14404877],[1.29705126 0.69918498 0.42469975],"[ 1.37340719e+00  6.41378170e-01  4.50017511e-01  1.37280792e+00
  6.25991267e-01  4.25046251e-01 -5.99270304e-04 -1.53869023e-02
 -2.49712599e-02  3.93491100e-02  4.13111554e-02 -3.65507803e-02
  1.26887228e-03  7.26875482e-03 -3.46906202e-03  8.70519329e-03
  2.63500588e-02 -5.91017979e-02 -7.71008765e-04  6.07140248e-03
  4.12360189e-03 -4.96037588e-03 -2.44820954e-02 -1.82899987e-02
 -1.53954340e-02]",1.4961446523666382,0,0
13,20,2024-10-02 20:35:04.910216960,TASK_BEGIN,24,0.5446839575141224,0.0897337295360871,-4.541310071496786,0.6058473536306717,-0.446591595398089,0.320162114954672,-6.648070734088299,0.4938400908247564,1,2024-10-02 20:35:04.435077881,1727901304.4350786,2024-10-02 20:35:04.435078656,1,[ 0.1787738  -0.28876743 -0.99704874 -0.14404877],-1.0,-3.9403989999999998,[ 0.1787738  -0.28876743 -0.99704874 -0.14404877],[ 0.1787738  -0.28876743 -0.99704874 -0.14404877],[1.29705126 0.69918498 0.42469975],"[ 1.37340719e+00  6.41378170e-01  4.50017511e-01  1.37280792e+00
  6.25991267e-01  4.25046251e-01 -5.99270304e-04 -1.53869023e-02
 -2.49712599e-02  3.93491100e-02  4.13111554e-02 -3.65507803e-02
  1.26887228e-03  7.26875482e-03 -3.46906202e-03  8.70519329e-03
  2.63500588e-02 -5.91017979e-02 -7.71008765e-04  6.07140248e-03
  4.12360189e-03 -4.96037588e-03 -2.44820954e-02 -1.82899987e-02
 -1.53954340e-02]",1.4961446523666382,0,0
14,21,2024-10-02 20:35:04.981353984,TASK_BEGIN,24,0.5092390124249181,0.109062334650322,-4.553293829038941,0.6307435435042084,-0.4646527041737379,0.3358840286635697,-6.741622770302917,0.486962959290567,1,2024-10-02 20:35:04.435077881,1727901304.4350786,2024-10-02 20:35:04.435078656,1,[ 0.1787738  -0.28876743 -0.99704874 -0.14404877],-1.0,-3.9403989999999998,[ 0.1787738  -0.28876743 -0.99704874 -0.14404877],[ 0.1787738  -0.28876743 -0.99704874 -0.14404877],[1.29705126 0.69918498 0.42469975],"[ 1.37340719e+00  6.41378170e-01  4.50017511e-01  1.37280792e+00
  6.25991267e-01  4.25046251e-01 -5.99270304e-04 -1.53869023e-02
 -2.49712599e-02  3.93491100e-02  4.13111554e-02 -3.65507803e-02
  1.26887228e-03  7.26875482e-03 -3.46906202e-03  8.70519329e-03
  2.63500588e-02 -5.91017979e-02 -7.71008765e-04  6.07140248e-03
  4.12360189e-03 -4.96037588e-03 -2.44820954e-02 -1.82899987e-02
 -1.53954340e-02]",1.4961446523666382,0,0
15,22,2024-10-02 20:35:05.044449024,TASK_BEGIN,24,0.4753009091696084,0.1283074282621618,-4.569085837842503,0.6552152385674918,-0.4830452778236468,0.3508341228109403,-6.78632735750406,0.4779604851665958,1,2024-10-02 20:35:04.435077881,1727901304.4350786,2024-10-02 20:35:04.435078656,1,[ 0.1787738  -0.28876743 -0.99704874 -0.14404877],-1.0,-3.9403989999999998,[ 0.1787738  -0.28876743 -0.99704874 -0.14404877],[ 0.1787738  -0.28876743 -0.99704874 -0.14404877],[1.29705126 0.69918498 0.42469975],"[ 1.37340719e+00  6.41378170e-01  4.50017511e-01  1.37280792e+00
  6.25991267e-01  4.25046251e-01 -5.99270304e-04 -1.53869023e-02
 -2.49712599e-02  3.93491100e-02  4.13111554e-02 -3.65507803e-02
  1.26887228e-03  7.26875482e-03 -3.46906202e-03  8.70519329e-03
  2.63500588e-02 -5.91017979e-02 -7.71008765e-04  6.07140248e-03
  4.12360189e-03 -4.96037588e-03 -2.44820954e-02 -1.82899987e-02
 -1.53954340e-02]",1.4961446523666382,0,0
16,23,2024-10-02 20:35:05.106443776,TASK_BEGIN,24,0.443641675352293,0.1471912768949796,-4.59465691259657,0.6789969526570396,-0.5017995883910142,0.365081481990425,-6.781002993728178,0.4677060289123805,1,2024-10-02 20:35:04.435077881,1727901304.4350786,2024-10-02 20:35:04.435078656,1,[ 0.1787738  -0.28876743 -0.99704874 -0.14404877],-1.0,-3.9403989999999998,[ 0.1787738  -0.28876743 -0.99704874 -0.14404877],[ 0.1787738  -0.28876743 -0.99704874 -0.14404877],[1.29705126 0.69918498 0.42469975],"[ 1.37340719e+00  6.41378170e-01  4.50017511e-01  1.37280792e+00
  6.25991267e-01  4.25046251e-01 -5.99270304e-04 -1.53869023e-02
 -2.49712599e-02  3.93491100e-02  4.13111554e-02 -3.65507803e-02
  1.26887228e-03  7.26875482e-03 -3.46906202e-03  8.70519329e-03
  2.63500588e-02 -5.91017979e-02 -7.71008765e-04  6.07140248e-03
  4.12360189e-03 -4.96037588e-03 -2.44820954e-02 -1.82899987e-02
 -1.53954340e-02]",1.4961446523666382,0,0
17,24,2024-10-02 20:35:06.046360064,TASK_BEGIN,24,0.4148521212277173,0.1654835396457326,-4.634918123593979,0.7020775374880304,-0.520794988298395,0.378710537088459,-6.725732363211501,0.4569205278755255,1,2024-10-02 20:35:05.182634033,1727901305.1826346,2024-10-02 20:35:05.182634496,1,[-0.03756156  0.03802164 -0.00756142  0.00342459],-0.0,-4.6141895142283555,[-0.03756156  0.03802164 -0.00756142  0.00342459],[-0.03756156  0.03802164 -0.00756142  0.00342459],[1.29705126 0.69918498 0.42469975],"[ 1.31456051e+00  6.91859537e-01  4.49572873e-01  1.31836746e+00
  6.87438707e-01  4.24618273e-01  3.80695117e-03 -4.42083028e-03
 -2.49545997e-02  3.03659623e-02  3.05646573e-02  2.14235463e-03
 -2.20470162e-04 -2.61336308e-02  6.98845371e-04 -8.34100160e-04
  4.01252010e-04 -2.46841637e-04 -6.12548188e-05 -4.24599669e-05
 -7.18875834e-04  8.66962743e-04 -3.44282960e-04  1.92043911e-03
  1.66768688e-03]",0.12536506354808807,0,0
18,25,2024-10-02 20:35:06.123987712,TASK_BEGIN,24,0.3892707743657482,0.1830034738089255,-4.69314590935102,0.7245998804231708,-0.5398090337579216,0.3918013382820274,-6.621498377445493,0.44602671860061,1,2024-10-02 20:35:05.291825928,1727901305.291827,2024-10-02 20:35:05.291826944,1,[-1.4754284e-02  4.3135382e-02 -2.8791444e-02  7.9782913e-05],-0.0,-4.568047619086072,[-1.4754284e-02  4.3135382e-02 -2.8791444e-02  7.9782913e-05],[-1.4754284e-02  4.3135382e-02 -2.8791444e-02  7.9782913e-05],[1.29705126 0.69918498 0.42469975],"[ 1.31403958e+00  6.93271762e-01  4.48583010e-01  1.31836536e+00
  6.87463393e-01  4.24684488e-01  4.32578067e-03 -5.80836896e-03
 -2.38985223e-02  3.18313363e-02  3.18681363e-02  1.35710022e-03
 -1.56678769e-04 -2.61419657e-02  2.97090694e-04 -1.00662234e-03
  8.40363052e-04 -7.58453079e-04  8.42037417e-05 -4.51464295e-07
 -2.95215657e-04  1.02580379e-03 -7.84016033e-04  1.03234289e-03
  8.92382422e-04]",0.12340441346168518,0,0
19,26,2024-10-02 20:35:06.196081920,TASK_BEGIN,24,0.3669523670554728,0.1996201791617403,-4.770568313768763,0.7467481691917727,-0.5585905133273042,0.4044271760588804,-6.469892786362052,0.4350750841407916,1,2024-10-02 20:35:05.398239014,1727901305.3982391,2024-10-02 20:35:05.398239232,1,[-0.01127652  0.04202759 -0.0294157  -0.00079647],-0.0,-4.522367142895211,[-0.01127652  0.04202759 -0.0294157  -0.00079647],[-0.01127652  0.04202759 -0.0294157  -0.00079647],[1.29705126 0.69918498 0.42469975],"[ 1.31367243e+00  6.94664467e-01  4.47526761e-01  1.31836519e+00
  6.87522871e-01  4.24724090e-01  4.69275562e-03 -7.14159633e-03
 -2.28026703e-02  3.24465607e-02  3.24061559e-02  4.06426862e-04
 -4.64732311e-05 -2.60149988e-02  2.36698596e-04 -5.45671215e-04
  7.37661761e-04 -3.77013877e-03  4.55445141e-04  1.14963819e-03
 -2.50884945e-04  9.61138496e-04 -7.35022359e-04  2.66813052e-04
  2.67777148e-04]",0.12329234182834625,0,0
20,27,2024-10-02 20:35:06.263212032,TASK_BEGIN,24,0.347696617833102,0.215251086771679,-4.866159565341731,0.7686351363104116,-0.5769332304638346,0.4166679111082456,-6.27319840647561,0.4237723686272615,1,2024-10-02 20:35:05.398239014,1727901305.3982391,2024-10-02 20:35:05.398239232,1,[-0.01127652  0.04202759 -0.0294157  -0.00079647],-0.0,-4.522367142895211,[-0.01127652  0.04202759 -0.0294157  -0.00079647],[-0.01127652  0.04202759 -0.0294157  -0.00079647],[1.29705126 0.69918498 0.42469975],"[ 1.31367243e+00  6.94664467e-01  4.47526761e-01  1.31836519e+00
  6.87522871e-01  4.24724090e-01  4.69275562e-03 -7.14159633e-03
 -2.28026703e-02  3.24465607e-02  3.24061559e-02  4.06426862e-04
 -4.64732311e-05 -2.60149988e-02  2.36698596e-04 -5.45671215e-04
  7.37661761e-04 -3.77013877e-03  4.55445141e-04  1.14963819e-03
 -2.50884945e-04  9.61138496e-04 -7.35022359e-04  2.66813052e-04
  2.67777148e-04]",0.12329234182834625,0,0
21,28,2024-10-02 20:35:06.331556096,TASK_BEGIN,24,0.3311309338368954,0.229857570632872,-4.976643721657714,0.7901916151639545,-0.5947218459826819,0.4286280413364868,-6.034784921095967,0.4115971547517855,1,2024-10-02 20:35:05.506397949,1727901305.5063987,2024-10-02 20:35:05.506398720,1,[-0.01025087  0.03757999 -0.02550961 -0.00059828],-0.0,-4.477143471466259,[-0.01025087  0.03757999 -0.02550961 -0.00059828],[-0.01025087  0.03757999 -0.02550961 -0.00059828],[1.29705126 0.69918498 0.42469975],"[ 1.31334290e+00  6.95897010e-01  4.46608310e-01  1.31835175e+00
  6.88395959e-01  4.24827861e-01  5.00884302e-03 -7.50105147e-03
 -2.17804489e-02  3.25210271e-02  3.27838611e-02 -5.95548715e-03
  6.46843833e-04 -2.37217667e-02  1.90978225e-04 -4.47319707e-04
  7.14282626e-04 -1.45546614e-03 -9.62105121e-05  6.22223916e-04
 -2.31916187e-04  8.71164258e-04 -6.57291945e-04 -6.28915042e-05
  2.75050584e-04]",0.11874531209468842,0,0
22,29,2024-10-02 20:35:06.387293184,TASK_BEGIN,24,0.3168160932653834,0.2434371939307668,-5.0966566265078574,0.8110693666203292,-0.6119305383127851,0.4404468791006369,-5.759500211058787,0.3979749051132488,1,2024-10-02 20:35:05.506397949,1727901305.5063987,2024-10-02 20:35:05.506398720,1,[-0.01025087  0.03757999 -0.02550961 -0.00059828],-0.0,-4.477143471466259,[-0.01025087  0.03757999 -0.02550961 -0.00059828],[-0.01025087  0.03757999 -0.02550961 -0.00059828],[1.29705126 0.69918498 0.42469975],"[ 1.31334290e+00  6.95897010e-01  4.46608310e-01  1.31835175e+00
  6.88395959e-01  4.24827861e-01  5.00884302e-03 -7.50105147e-03
 -2.17804489e-02  3.25210271e-02  3.27838611e-02 -5.95548715e-03
  6.46843833e-04 -2.37217667e-02  1.90978225e-04 -4.47319707e-04
  7.14282626e-04 -1.45546614e-03 -9.62105121e-05  6.22223916e-04
 -2.31916187e-04  8.71164258e-04 -6.57291945e-04 -6.28915042e-05
  2.75050584e-04]",0.11874531209468842,0,0
23,30,2024-10-02 20:35:06.467127808,TASK_BEGIN,24,0.3043332780107531,0.2560163946771467,-5.219119923900792,0.8306019840305144,-0.6285660096430543,0.452292709368068,-5.453875946083237,0.3824712311657559,1,2024-10-02 20:35:05.612399170,1727901305.612399,2024-10-02 20:35:05.612399104,1,[-0.00728651  0.03406465 -0.02570321 -0.00093953],-0.0,-4.432372036751596,[-0.00728651  0.03406465 -0.02570321 -0.00093953],[-0.00728651  0.03406465 -0.02570321 -0.00093953],[1.29705126 0.69918498 0.42469975],"[ 1.31310348e+00  6.97012910e-01  4.45689346e-01  1.31823194e+00
  6.89226554e-01  4.24893086e-01  5.12846496e-03 -7.78635583e-03
 -2.07962603e-02  3.22753375e-02  3.30654014e-02 -2.46132056e-03
 -6.68747142e-05 -2.20719097e-02  1.15295808e-04 -3.52130578e-04
  6.47817498e-04  3.70350213e-04 -1.56001130e-04  8.21351671e-04
 -1.55687539e-04  7.87572657e-04 -6.71532046e-04 -3.55462922e-04
  1.52628535e-04]",0.11532353609800339,0,0
24,32,2024-10-02 20:35:07.463918848,TASK_BEGIN,24,0.2835473182377587,0.2784113736778379,-5.439100914849399,0.8618715825981085,-0.6597036291129252,0.4767435490192419,-4.786204627051567,0.3456143170666171,1,2024-10-02 20:35:07.333272949,1727901307.3332734,2024-10-02 20:35:07.333273344,2,[0.9999691  0.08731065 0.04267377 0.03143707],-1.0,-1.0,[0.9999691  0.08731065 0.04267377 0.03143707],[0.9999691  0.08731065 0.04267377 0.03143707],[1.32976207 0.72953996 0.86211477],"[ 1.37145886e+00  7.51802680e-01  5.35748127e-01  1.48760213e+00
  7.62053938e-01  4.24737381e-01  1.16143270e-01  1.02512578e-02
 -1.11010746e-01  6.32140299e-03  6.47846546e-03 -5.03884423e-08
  7.75206804e-08 -2.37485229e-16 -2.57584459e-02 -2.30012546e-03
 -9.00320704e-04  2.85323085e-08 -4.38958592e-08  5.31043397e-18
  2.57584448e-02  2.30012475e-03  9.26986263e-04  1.10266857e-02
  1.11040304e-02]",0.9520407915115356,0,0
25,33,2024-10-02 20:35:07.540635136,TASK_BEGIN,24,0.2748509213755693,0.2884073465083884,-5.5215018897931545,0.8717094948390453,-0.6735515995056235,0.4896014179617899,-4.444846432345632,0.3250194793327216,1,2024-10-02 20:35:07.439305176,1727901307.4393058,2024-10-02 20:35:07.439305728,2,[ 0.99940854 -0.02105847 -0.16626191  0.29694107],-1.0,-1.99,[ 0.99940854 -0.02105847 -0.16626191  0.29694107],[ 0.99940854 -0.02105847 -0.16626191  0.29694107],[1.32976207 0.72953996 0.86211477],"[ 1.40358061e+00  7.51374696e-01  5.30404064e-01  1.48760213e+00
  7.62053938e-01  4.24757513e-01  8.40215200e-02  1.06792418e-02
 -1.05646551e-01  5.27113282e-02  5.27311664e-02 -2.88713263e-08
  4.44174251e-08 -1.54906143e-15 -2.29217804e-02  8.21071902e-04
  4.69487730e-03  1.62724006e-08 -2.50344625e-08  1.50174773e-18
  2.29217798e-02 -8.21072309e-04 -4.67964132e-03  4.35845053e-02
  4.34661031e-02]",1.0241929292678833,0,0
26,34,2024-10-02 20:35:07.613835264,TASK_BEGIN,24,0.2672775533570375,0.2977447676060842,-5.577896173262531,0.8767718272715733,-0.6855439294299719,0.5029432838720092,-4.113123510976942,0.303901660667694,1,2024-10-02 20:35:07.439305176,1727901307.4393058,2024-10-02 20:35:07.439305728,2,[ 0.99940854 -0.02105847 -0.16626191  0.29694107],-1.0,-1.99,[ 0.99940854 -0.02105847 -0.16626191  0.29694107],[ 0.99940854 -0.02105847 -0.16626191  0.29694107],[1.32976207 0.72953996 0.86211477],"[ 1.40358061e+00  7.51374696e-01  5.30404064e-01  1.48760213e+00
  7.62053938e-01  4.24757513e-01  8.40215200e-02  1.06792418e-02
 -1.05646551e-01  5.27113282e-02  5.27311664e-02 -2.88713263e-08
  4.44174251e-08 -1.54906143e-15 -2.29217804e-02  8.21071902e-04
  4.69487730e-03  1.62724006e-08 -2.50344625e-08  1.50174773e-18
  2.29217798e-02 -8.21072309e-04 -4.67964132e-03  4.35845053e-02
  4.34661031e-02]",1.0241929292678833,0,0
27,35,2024-10-02 20:35:07.681607936,TASK_BEGIN,24,0.2610578053926547,0.3065185684845314,-5.605194232109985,0.8768192534074294,-0.6950658814690523,0.5167145063741949,-3.801203582169296,0.2830337782586758,1,2024-10-02 20:35:07.548158936,1727901307.5481596,2024-10-02 20:35:07.548159488,2,[ 0.9961699   0.03603749 -0.5942341   0.31603312],-1.0,-2.9701,[ 0.9961699   0.03603749 -0.5942341   0.31603312],[ 0.9961699   0.03603749 -0.5942341   0.31603312],[1.32976207 0.72953996 0.86211477],"[ 1.43487444e+00  7.52388410e-01  5.11185897e-01  1.48760213e+00
  7.62053937e-01  4.24769027e-01  5.27276883e-02  9.66552767e-03
 -8.64168701e-02  5.07774694e-02  5.07780145e-02 -1.65741696e-08
  2.54987225e-08 -1.98007106e-15 -2.29788724e-02 -1.03610016e-03
  1.53673986e-02  9.31711993e-09 -1.43340307e-08 -3.62052531e-18
  2.29788721e-02  1.03609993e-03 -1.53586768e-02 -2.13791214e-03
 -2.13950318e-03]",1.0716099739074707,1,1
28,36,2024-10-02 20:35:07.740077824,TASK_BEGIN,24,0.2566156159397189,0.3147829119617418,-5.60251991703102,0.8719998652381038,-0.7015169947673042,0.5307731832323197,-3.5174804856227464,0.2630431486572384,1,2024-10-02 20:35:07.548158936,1727901307.5481596,2024-10-02 20:35:07.548159488,2,[ 0.9961699   0.03603749 -0.5942341   0.31603312],-1.0,-2.9701,[ 0.9961699   0.03603749 -0.5942341   0.31603312],[ 0.9961699   0.03603749 -0.5942341   0.31603312],[1.32976207 0.72953996 0.86211477],"[ 1.43487444e+00  7.52388410e-01  5.11185897e-01  1.48760213e+00
  7.62053937e-01  4.24769027e-01  5.27276883e-02  9.66552767e-03
 -8.64168701e-02  5.07774694e-02  5.07780145e-02 -1.65741696e-08
  2.54987225e-08 -1.98007106e-15 -2.29788724e-02 -1.03610016e-03
  1.53673986e-02  9.31711993e-09 -1.43340307e-08 -3.62052531e-18
  2.29788721e-02  1.03609993e-03 -1.53586768e-02 -2.13791214e-03
 -2.13950318e-03]",1.0716099739074707,1,1
29,37,2024-10-02 20:35:07.802135040,TASK_BEGIN,24,0.2545443553971032,0.3225259547361865,-5.571021769435255,0.8628055603284738,-0.7043423110332111,0.5448934773726912,-3.2678743844740628,0.2442609582865661,1,2024-10-02 20:35:07.548158936,1727901307.5481596,2024-10-02 20:35:07.548159488,2,[ 0.9961699   0.03603749 -0.5942341   0.31603312],-1.0,-2.9701,[ 0.9961699   0.03603749 -0.5942341   0.31603312],[ 0.9961699   0.03603749 -0.5942341   0.31603312],[1.32976207 0.72953996 0.86211477],"[ 1.43487444e+00  7.52388410e-01  5.11185897e-01  1.48760213e+00
  7.62053937e-01  4.24769027e-01  5.27276883e-02  9.66552767e-03
 -8.64168701e-02  5.07774694e-02  5.07780145e-02 -1.65741696e-08
  2.54987225e-08 -1.98007106e-15 -2.29788724e-02 -1.03610016e-03
  1.53673986e-02  9.31711993e-09 -1.43340307e-08 -3.62052531e-18
  2.29788721e-02  1.03609993e-03 -1.53586768e-02 -2.13791214e-03
 -2.13950318e-03]",1.0716099739074707,1,1
30,38,2024-10-02 20:35:08.761049088,TASK_BEGIN,24,0.2555559782246136,0.329657262058202,-5.513612870718244,0.8500065639084715,-0.7030796755063381,0.5587756464012772,-3.055415015198132,0.2266496252791085,1,2024-10-02 20:35:08.402094971,1727901308.4020953,2024-10-02 20:35:08.402095360,2,[-0.11775796 -0.102648    0.99999976 -0.19564551],-1.0,-10.466174574128356,[-0.11775796 -0.102648    0.99999976 -0.19564551],[-0.11775796 -0.102648    0.99999976 -0.19564551],[1.32976207 0.72953996 0.86211477],"[ 1.48832089e+00  7.50015615e-01  5.74842658e-01  1.48448890e+00
  7.49886566e-01  5.56114346e-01 -3.83199384e-03 -1.29048360e-04
 -1.87283128e-02  2.39822077e-02  2.41418000e-02 -4.47191376e-05
  3.34530528e-04  1.43286668e-02  3.17599449e-04  2.00838439e-05
 -4.05866818e-06  3.57019210e-04  2.85399903e-04  6.68845087e-04
 -3.49600657e-03 -2.39970092e-03  2.34134498e-02  2.37853191e-05
 -1.30926770e-05]",0.9199843406677246,1,1
31,39,2024-10-02 20:35:08.817163008,TASK_BEGIN,24,0.2604046601322561,0.3360157209841778,-5.434696289069371,0.8345861025225675,-0.6974481499224866,0.5720621901284928,-2.880259641004358,0.2098596502917896,1,2024-10-02 20:35:08.402094971,1727901308.4020953,2024-10-02 20:35:08.402095360,2,[-0.11775796 -0.102648    0.99999976 -0.19564551],-1.0,-10.466174574128356,[-0.11775796 -0.102648    0.99999976 -0.19564551],[-0.11775796 -0.102648    0.99999976 -0.19564551],[1.32976207 0.72953996 0.86211477],"[ 1.48832089e+00  7.50015615e-01  5.74842658e-01  1.48448890e+00
  7.49886566e-01  5.56114346e-01 -3.83199384e-03 -1.29048360e-04
 -1.87283128e-02  2.39822077e-02  2.41418000e-02 -4.47191376e-05
  3.34530528e-04  1.43286668e-02  3.17599449e-04  2.00838439e-05
 -4.05866818e-06  3.57019210e-04  2.85399903e-04  6.68845087e-04
 -3.49600657e-03 -2.39970092e-03  2.34134498e-02  2.37853191e-05
 -1.30926770e-05]",0.9199843406677246,1,1
32,40,2024-10-02 20:35:08.893836032,TASK_BEGIN,24,0.2698008868775183,0.3413954417231823,-5.339810881919298,0.8176738665661362,-0.6874569275576035,0.5843609843124533,-2.740261596791495,0.1934028954999929,1,2024-10-02 20:35:08.402094971,1727901308.4020953,2024-10-02 20:35:08.402095360,2,[-0.11775796 -0.102648    0.99999976 -0.19564551],-1.0,-10.466174574128356,[-0.11775796 -0.102648    0.99999976 -0.19564551],[-0.11775796 -0.102648    0.99999976 -0.19564551],[1.32976207 0.72953996 0.86211477],"[ 1.48832089e+00  7.50015615e-01  5.74842658e-01  1.48448890e+00
  7.49886566e-01  5.56114346e-01 -3.83199384e-03 -1.29048360e-04
 -1.87283128e-02  2.39822077e-02  2.41418000e-02 -4.47191376e-05
  3.34530528e-04  1.43286668e-02  3.17599449e-04  2.00838439e-05
 -4.05866818e-06  3.57019210e-04  2.85399903e-04  6.68845087e-04
 -3.49600657e-03 -2.39970092e-03  2.34134498e-02  2.37853191e-05
 -1.30926770e-05]",0.9199843406677246,1,1
33,41,2024-10-02 20:35:08.956321024,TASK_BEGIN,24,0.2843291388203094,0.3455803075366183,-5.2351438299140085,0.800468723649774,-0.6734944582249834,0.5952784882926055,-2.631986082392295,0.1768546138381657,1,2024-10-02 20:35:08.830185791,1727901308.8301868,2024-10-02 20:35:08.830186752,2,[-0.5646345 -0.0023609  0.9976993 -0.2198962],-1.0,-13.994164535871148,[-0.5646345 -0.0023609  0.9976993 -0.2198962],[-0.5646345 -0.0023609  0.9976993 -0.2198962],[1.32976207 0.72953996 0.86211477],"[ 1.43166288e+00  7.54892784e-01  7.06986388e-01  1.42916501e+00
  7.54828513e-01  6.88822951e-01 -2.49786267e-03 -6.42710127e-05
 -1.81634363e-02  2.40197613e-02  2.41004210e-02  1.83971198e-04
  1.76120731e-03  1.52786421e-02  4.20911982e-04  3.44532913e-04
  2.15996161e-04  4.15454479e-03 -4.70776754e-04  1.98550262e-04
 -1.38316368e-02 -3.10615945e-04  2.32245727e-02  1.90652668e-04
 -1.91370245e-04]",0.9428154826164246,1,1
34,42,2024-10-02 20:35:09.018547200,TASK_BEGIN,24,0.3043677690473962,0.3483792676669828,-5.126987181337712,0.7841551464405482,-0.6563615404365502,0.6044643963372849,-2.5518263648332917,0.159998129881751,1,2024-10-02 20:35:08.830185791,1727901308.8301868,2024-10-02 20:35:08.830186752,2,[-0.5646345 -0.0023609  0.9976993 -0.2198962],-1.0,-13.994164535871148,[-0.5646345 -0.0023609  0.9976993 -0.2198962],[-0.5646345 -0.0023609  0.9976993 -0.2198962],[1.32976207 0.72953996 0.86211477],"[ 1.43166288e+00  7.54892784e-01  7.06986388e-01  1.42916501e+00
  7.54828513e-01  6.88822951e-01 -2.49786267e-03 -6.42710127e-05
 -1.81634363e-02  2.40197613e-02  2.41004210e-02  1.83971198e-04
  1.76120731e-03  1.52786421e-02  4.20911982e-04  3.44532913e-04
  2.15996161e-04  4.15454479e-03 -4.70776754e-04  1.98550262e-04
 -1.38316368e-02 -3.10615945e-04  2.32245727e-02  1.90652668e-04
 -1.91370245e-04]",0.9428154826164246,1,1
35,43,2024-10-02 20:35:09.096223232,TASK_BEGIN,24,0.3300104497446279,0.3496570477397872,-5.021272954824408,0.769833137808452,-0.6372330584558221,0.6116629057771716,-2.496770213500233,0.1428734675606156,1,2024-10-02 20:35:08.936188965,1727901308.9361894,2024-10-02 20:35:08.936189440,2,[-0.6167324  -0.10841868  0.9274442  -0.19191824],-1.0,-14.854222890512437,[-0.6167324  -0.10841868  0.9274442  -0.19191824],[-0.6167324  -0.10841868  0.9274442  -0.19191824],[1.32976207 0.72953996 0.86211477],"[ 1.41147740e+00  7.51561099e-01  7.37757482e-01  1.40933751e+00
  7.51738243e-01  7.19831064e-01 -2.13988599e-03  1.77144276e-04
 -1.79264174e-02  2.42863258e-02  2.38332762e-02  6.95095437e-05
  1.52642569e-03  1.53664031e-02  3.87682573e-04  1.54235329e-04
  2.33047075e-04 -2.05458780e-04 -4.62868199e-04  1.01524735e-04
 -1.49838370e-02 -2.77980472e-03  2.13771325e-02  1.63555305e-04
 -1.65224538e-04]",1.0245155096054077,1,1
36,44,2024-10-02 20:35:09.158226944,TASK_BEGIN,24,0.3610062000816458,0.3493546581979942,-4.923262701908112,0.7584744924823441,-0.6175555372073775,0.6167590061050972,-2.464549178955404,0.1257241283229032,1,2024-10-02 20:35:08.936188965,1727901308.9361894,2024-10-02 20:35:08.936189440,2,[-0.6167324  -0.10841868  0.9274442  -0.19191824],-1.0,-14.854222890512437,[-0.6167324  -0.10841868  0.9274442  -0.19191824],[-0.6167324  -0.10841868  0.9274442  -0.19191824],[1.32976207 0.72953996 0.86211477],"[ 1.41147740e+00  7.51561099e-01  7.37757482e-01  1.40933751e+00
  7.51738243e-01  7.19831064e-01 -2.13988599e-03  1.77144276e-04
 -1.79264174e-02  2.42863258e-02  2.38332762e-02  6.95095437e-05
  1.52642569e-03  1.53664031e-02  3.87682573e-04  1.54235329e-04
  2.33047075e-04 -2.05458780e-04 -4.62868199e-04  1.01524735e-04
 -1.49838370e-02 -2.77980472e-03  2.13771325e-02  1.63555305e-04
 -1.65224538e-04]",1.0245155096054077,1,1
37,45,2024-10-02 20:35:10.068571136,TASK_BEGIN,24,0.396745220224163,0.3474956552757576,-4.8374087321009895,0.7508971778896827,-0.5988960606285498,0.6198049645657141,-2.4533238912652564,0.108879952981181,1,2024-10-02 20:35:09.257242920,1727901309.2572439,2024-10-02 20:35:09.257243904,2,[-0.47765    -0.05993346  0.3693387  -0.14609133],-1.0,-17.383137616441328,[-0.47765    -0.05993346  0.3693387  -0.14609133],[-0.47765    -0.05993346  0.3693387  -0.14609133],[1.32976207 0.72953996 0.86211477],"[ 1.35453144e+00  7.38454036e-01  7.94257099e-01  1.35307297e+00
  7.38486295e-01  7.76902240e-01 -1.45846699e-03  3.22590147e-05
 -1.73548590e-02  2.41451185e-02  2.39728143e-02 -9.97955225e-05
  8.67514287e-04  1.54623492e-02  1.44675908e-04 -2.78328195e-04
  1.23078168e-04  3.45675942e-04 -4.32498545e-04  2.34365686e-05
 -1.10541262e-02 -1.17007699e-03  8.01003999e-03 -3.14506846e-04
  3.14366910e-04]",0.7794649600982666,1,1
38,46,2024-10-02 20:35:10.137456128,TASK_BEGIN,24,0.4363069791612731,0.3441775873329175,-4.7673581090300345,0.7477417143985224,-0.5827694682354543,0.6210182597530952,-2.4613294839402853,0.0926692080890303,1,2024-10-02 20:35:09.257242920,1727901309.2572439,2024-10-02 20:35:09.257243904,2,[-0.47765    -0.05993346  0.3693387  -0.14609133],-1.0,-17.383137616441328,[-0.47765    -0.05993346  0.3693387  -0.14609133],[-0.47765    -0.05993346  0.3693387  -0.14609133],[1.32976207 0.72953996 0.86211477],"[ 1.35453144e+00  7.38454036e-01  7.94257099e-01  1.35307297e+00
  7.38486295e-01  7.76902240e-01 -1.45846699e-03  3.22590147e-05
 -1.73548590e-02  2.41451185e-02  2.39728143e-02 -9.97955225e-05
  8.67514287e-04  1.54623492e-02  1.44675908e-04 -2.78328195e-04
  1.23078168e-04  3.45675942e-04 -4.32498545e-04  2.34365686e-05
 -1.10541262e-02 -1.17007699e-03  8.01003999e-03 -3.14506846e-04
  3.14366910e-04]",0.7794649600982666,1,1
39,47,2024-10-02 20:35:10.208948992,TASK_BEGIN,24,0.4785617718019359,0.3395500510466452,-4.716030722849889,0.7494430557470217,-0.5704827025965028,0.6207550685419895,-2.4867766259213737,0.0774302520817941,1,2024-10-02 20:35:09.363389893,1727901309.3633907,2024-10-02 20:35:09.363390720,2,[-0.24804442  0.04777982  0.11293051 -0.21330982],-1.0,-18.209306240276913,[-0.24804442  0.04777982  0.11293051 -0.21330982],[-0.24804442  0.04777982  0.11293051 -0.21330982],[1.32976207 0.72953996 0.86211477],"[ 1.34587598e+00  7.39789558e-01  7.98549124e-01  1.34450037e+00
  7.39505954e-01  7.81236851e-01 -1.37561481e-03 -2.83604640e-04
 -1.73122735e-02  2.37931494e-02  2.43243877e-02  2.18665278e-04
  5.71240041e-04  1.54984679e-02  5.84797151e-05 -9.74759005e-05
  3.21082456e-05  4.04980483e-03 -3.60915475e-04  1.28998883e-05
 -5.26216425e-03  1.37399561e-03  1.94484060e-03 -2.61958480e-04
  2.60843061e-04]",0.5461384654045105,1,1
40,48,2024-10-02 20:35:10.270474752,TASK_BEGIN,24,0.5222946687501344,0.3337838280764426,-4.6856958909757305,0.7561980531840173,-0.563018170997083,0.6194690807427945,-2.5280035153816582,0.0635844384402581,1,2024-10-02 20:35:09.469385986,1727901309.4693863,2024-10-02 20:35:09.469386240,2,[-0.12797202  0.06741035  0.06125604 -0.22031261],-1.0,-19.027213177874142,[-0.12797202  0.06741035  0.06125604 -0.22031261],[-0.12797202  0.06741035  0.06125604 -0.22031261],[1.32976207 0.72953996 0.86211477],"[ 1.34145955e+00  7.41995590e-01  8.00576182e-01  1.34011756e+00
  7.41540015e-01  7.83267961e-01 -1.34199106e-03 -4.55575022e-04
 -1.73082216e-02  2.36187951e-02  2.44985482e-02  1.18342475e-04
  2.34043399e-04  1.55130740e-02  3.09775932e-05 -1.16158310e-04
 -3.61446093e-06 -2.07817123e-03 -2.56839751e-04 -3.79727984e-05
 -2.76016717e-03  1.60471519e-03  1.30338639e-03 -3.42001187e-05
  3.42957411e-05]",0.4859856367111206,1,1
41,49,2024-10-02 20:35:10.347692800,TASK_BEGIN,24,0.566322091455169,0.3270393604182768,-4.677983539210848,0.7679281594476947,-0.5609512889083201,0.6176605171284936,-2.5837134737734475,0.0516779753087686,1,2024-10-02 20:35:09.469385986,1727901309.4693863,2024-10-02 20:35:09.469386240,2,[-0.12797202  0.06741035  0.06125604 -0.22031261],-1.0,-19.027213177874142,[-0.12797202  0.06741035  0.06125604 -0.22031261],[-0.12797202  0.06741035  0.06125604 -0.22031261],[1.32976207 0.72953996 0.86211477],"[ 1.34145955e+00  7.41995590e-01  8.00576182e-01  1.34011756e+00
  7.41540015e-01  7.83267961e-01 -1.34199106e-03 -4.55575022e-04
 -1.73082216e-02  2.36187951e-02  2.44985482e-02  1.18342475e-04
  2.34043399e-04  1.55130740e-02  3.09775932e-05 -1.16158310e-04
 -3.61446093e-06 -2.07817123e-03 -2.56839751e-04 -3.79727984e-05
 -2.76016717e-03  1.60471519e-03  1.30338639e-03 -3.42001187e-05
  3.42957411e-05]",0.4859856367111206,1,1
42,50,2024-10-02 20:35:10.417191936,TASK_BEGIN,24,0.6095903676997197,0.319441644800171,-4.693791532621364,0.7842429257192185,-0.5643993381137583,0.6158176182546599,-2.653181310696068,0.0423705957031884,1,2024-10-02 20:35:10.113256836,1727901310.1132572,2024-10-02 20:35:10.113257216,2,[-0.01152059  0.00419653  0.00301424 -0.22220938],-1.0,-23.76572856528962,[-0.01152059  0.00419653  0.00301424 -0.22220938],[-0.01152059  0.00419653  0.00301424 -0.22220938],[1.32976207 0.72953996 0.86211477],"[ 1.33455528e+00  7.45464122e-01  8.02899361e-01  1.33328419e+00
  7.45609142e-01  7.85426351e-01 -1.27109092e-03  1.45019786e-04
 -1.74730099e-02  2.42206310e-02  2.38970627e-02  1.17357343e-04
 -7.13115546e-04  1.54766610e-02  9.31241712e-06 -1.63376474e-04
 -3.00453651e-05 -2.12098131e-03 -1.16316347e-04 -9.66975353e-06
 -2.34233414e-04  9.73172051e-05 -5.60731988e-05 -8.07611215e-05
  8.08064815e-05]",0.4774889051914215,1,1
43,51,2024-10-02 20:35:10.474451200,TASK_BEGIN,24,0.651250765321234,0.3110638934277277,-4.73308845560508,0.8044199580825651,-0.5730167862248319,0.6143588207952193,-2.7364042926341683,0.0364157710034855,1,2024-10-02 20:35:10.113256836,1727901310.1132572,2024-10-02 20:35:10.113257216,2,[-0.01152059  0.00419653  0.00301424 -0.22220938],-1.0,-23.76572856528962,[-0.01152059  0.00419653  0.00301424 -0.22220938],[-0.01152059  0.00419653  0.00301424 -0.22220938],[1.32976207 0.72953996 0.86211477],"[ 1.33455528e+00  7.45464122e-01  8.02899361e-01  1.33328419e+00
  7.45609142e-01  7.85426351e-01 -1.27109092e-03  1.45019786e-04
 -1.74730099e-02  2.42206310e-02  2.38970627e-02  1.17357343e-04
 -7.13115546e-04  1.54766610e-02  9.31241712e-06 -1.63376474e-04
 -3.00453651e-05 -2.12098131e-03 -1.16316347e-04 -9.66975353e-06
 -2.34233414e-04  9.73172051e-05 -5.60731988e-05 -8.07611215e-05
  8.08064815e-05]",0.4774889051914215,1,1
44,52,2024-10-02 20:35:11.435760896,TASK_BEGIN,24,0.6906928021932938,0.3019217081609489,-4.7946784709244765,0.8274241262098047,-0.5860506620579962,0.6135879902292734,-2.8341215334122443,0.0346381722057109,1,2024-10-02 20:35:11.072209961,1727901311.0722108,2024-10-02 20:35:11.072210688,2,[-0.00253976  0.00119432  0.00155032 -0.22353867],-1.0,-30.358678195042614,[-0.00253976  0.00119432  0.00155032 -0.22353867],[-0.00253976  0.00119432  0.00155032 -0.22353867],[1.32976207 0.72953996 0.86211477],"[ 1.33379238e+00  7.45528781e-01  8.01834308e-01  1.33258948e+00
  7.45544104e-01  7.84079130e-01 -1.20289495e-03  1.53228689e-05
 -1.77551775e-02  2.40902199e-02  2.40280457e-02  1.21159736e-04
 -1.67478766e-03  1.54561087e-02  8.35241744e-06 -8.93066181e-05
 -3.08064665e-05 -2.11008251e-03 -1.24353495e-04 -7.54182663e-06
 -3.32218619e-05  3.32152162e-05 -8.65538228e-05 -6.59580108e-06
  6.62593924e-06]",0.47804874181747437,1,1
45,53,2024-10-02 20:35:11.489070848,TASK_BEGIN,24,0.7275215667517994,0.291981631919869,-4.876074050246175,0.8519821746989235,-0.6024406179551628,0.6136685322383181,-2.947561444592488,0.0378677701121086,1,2024-10-02 20:35:11.072209961,1727901311.0722108,2024-10-02 20:35:11.072210688,2,[-0.00253976  0.00119432  0.00155032 -0.22353867],-1.0,-30.358678195042614,[-0.00253976  0.00119432  0.00155032 -0.22353867],[-0.00253976  0.00119432  0.00155032 -0.22353867],[1.32976207 0.72953996 0.86211477],"[ 1.33379238e+00  7.45528781e-01  8.01834308e-01  1.33258948e+00
  7.45544104e-01  7.84079130e-01 -1.20289495e-03  1.53228689e-05
 -1.77551775e-02  2.40902199e-02  2.40280457e-02  1.21159736e-04
 -1.67478766e-03  1.54561087e-02  8.35241744e-06 -8.93066181e-05
 -3.08064665e-05 -2.11008251e-03 -1.24353495e-04 -7.54182663e-06
 -3.32218619e-05  3.32152162e-05 -8.65538228e-05 -6.59580108e-06
  6.62593924e-06]",0.47804874181747437,1,1
46,54,2024-10-02 20:35:11.571350016,TASK_BEGIN,24,0.7614974342027931,0.2811832993465352,-4.973585221318829,0.8767019923145148,-0.620927045785166,0.6146129506227439,-3.077908238775564,0.0468347256826196,1,2024-10-02 20:35:11.072209961,1727901311.0722108,2024-10-02 20:35:11.072210688,2,[-0.00253976  0.00119432  0.00155032 -0.22353867],-1.0,-30.358678195042614,[-0.00253976  0.00119432  0.00155032 -0.22353867],[-0.00253976  0.00119432  0.00155032 -0.22353867],[1.32976207 0.72953996 0.86211477],"[ 1.33379238e+00  7.45528781e-01  8.01834308e-01  1.33258948e+00
  7.45544104e-01  7.84079130e-01 -1.20289495e-03  1.53228689e-05
 -1.77551775e-02  2.40902199e-02  2.40280457e-02  1.21159736e-04
 -1.67478766e-03  1.54561087e-02  8.35241744e-06 -8.93066181e-05
 -3.08064665e-05 -2.11008251e-03 -1.24353495e-04 -7.54182663e-06
 -3.32218619e-05  3.32152162e-05 -8.65538228e-05 -6.59580108e-06
  6.62593924e-06]",0.47804874181747437,1,1
47,55,2024-10-02 20:35:11.639104000,TASK_BEGIN,24,0.792477023046116,0.2694657799437455,-5.082581221847553,0.9002093215891187,-0.6401455075477099,0.616283346846476,-3.2256774590379766,0.0620853926484273,1,2024-10-02 20:35:11.072209961,1727901311.0722108,2024-10-02 20:35:11.072210688,2,[-0.00253976  0.00119432  0.00155032 -0.22353867],-1.0,-30.358678195042614,[-0.00253976  0.00119432  0.00155032 -0.22353867],[-0.00253976  0.00119432  0.00155032 -0.22353867],[1.32976207 0.72953996 0.86211477],"[ 1.33379238e+00  7.45528781e-01  8.01834308e-01  1.33258948e+00
  7.45544104e-01  7.84079130e-01 -1.20289495e-03  1.53228689e-05
 -1.77551775e-02  2.40902199e-02  2.40280457e-02  1.21159736e-04
 -1.67478766e-03  1.54561087e-02  8.35241744e-06 -8.93066181e-05
 -3.08064665e-05 -2.11008251e-03 -1.24353495e-04 -7.54182663e-06
 -3.32218619e-05  3.32152162e-05 -8.65538228e-05 -6.59580108e-06
  6.62593924e-06]",0.47804874181747437,1,1
48,56,2024-10-02 20:35:11.706836992,TASK_BEGIN,24,0.8203774043479569,0.2567882233867234,-5.197799855998275,0.9212838153644204,-0.6587034761688307,0.6184015305386261,-3.390267783575699,0.0839647879913422,1,2024-10-02 20:35:11.072209961,1727901311.0722108,2024-10-02 20:35:11.072210688,2,[-0.00253976  0.00119432  0.00155032 -0.22353867],-1.0,-30.358678195042614,[-0.00253976  0.00119432  0.00155032 -0.22353867],[-0.00253976  0.00119432  0.00155032 -0.22353867],[1.32976207 0.72953996 0.86211477],"[ 1.33379238e+00  7.45528781e-01  8.01834308e-01  1.33258948e+00
  7.45544104e-01  7.84079130e-01 -1.20289495e-03  1.53228689e-05
 -1.77551775e-02  2.40902199e-02  2.40280457e-02  1.21159736e-04
 -1.67478766e-03  1.54561087e-02  8.35241744e-06 -8.93066181e-05
 -3.08064665e-05 -2.11008251e-03 -1.24353495e-04 -7.54182663e-06
 -3.32218619e-05  3.32152162e-05 -8.65538228e-05 -6.59580108e-06
  6.62593924e-06]",0.47804874181747437,1,1
49,57,2024-10-02 20:35:11.774565888,TASK_BEGIN,24,0.8451665060353,0.2431411912878758,-5.313648651051152,0.93898028195905,-0.6752323732793858,0.6205670075064036,-3.5698837230616776,0.1126717808761475,1,2024-10-02 20:35:11.072209961,1727901311.0722108,2024-10-02 20:35:11.072210688,2,[-0.00253976  0.00119432  0.00155032 -0.22353867],-1.0,-30.358678195042614,[-0.00253976  0.00119432  0.00155032 -0.22353867],[-0.00253976  0.00119432  0.00155032 -0.22353867],[1.32976207 0.72953996 0.86211477],"[ 1.33379238e+00  7.45528781e-01  8.01834308e-01  1.33258948e+00
  7.45544104e-01  7.84079130e-01 -1.20289495e-03  1.53228689e-05
 -1.77551775e-02  2.40902199e-02  2.40280457e-02  1.21159736e-04
 -1.67478766e-03  1.54561087e-02  8.35241744e-06 -8.93066181e-05
 -3.08064665e-05 -2.11008251e-03 -1.24353495e-04 -7.54182663e-06
 -3.32218619e-05  3.32152162e-05 -8.65538228e-05 -6.59580108e-06
  6.62593924e-06]",0.47804874181747437,1,1
50,58,2024-10-02 20:35:11.827988992,TASK_BEGIN,24,0.8668790807752974,0.2285489479643761,-5.424544644961268,0.9527110374078408,-0.6884181396870663,0.6222805244907724,-3.761832209358488,0.1483575265694873,1,2024-10-02 20:35:11.072209961,1727901311.0722108,2024-10-02 20:35:11.072210688,2,[-0.00253976  0.00119432  0.00155032 -0.22353867],-1.0,-30.358678195042614,[-0.00253976  0.00119432  0.00155032 -0.22353867],[-0.00253976  0.00119432  0.00155032 -0.22353867],[1.32976207 0.72953996 0.86211477],"[ 1.33379238e+00  7.45528781e-01  8.01834308e-01  1.33258948e+00
  7.45544104e-01  7.84079130e-01 -1.20289495e-03  1.53228689e-05
 -1.77551775e-02  2.40902199e-02  2.40280457e-02  1.21159736e-04
 -1.67478766e-03  1.54561087e-02  8.35241744e-06 -8.93066181e-05
 -3.08064665e-05 -2.11008251e-03 -1.24353495e-04 -7.54182663e-06
 -3.32218619e-05  3.32152162e-05 -8.65538228e-05 -6.59580108e-06
  6.62593924e-06]",0.47804874181747437,1,1
51,59,2024-10-02 20:35:12.774696960,TASK_BEGIN,24,0.885647422446528,0.2130643014451435,-5.525323239440984,0.9622618853302124,-0.6970382305354759,0.6229742764929345,-3.963003968263733,0.1911823384314839,1,2024-10-02 20:35:12.689662842,1727901312.6896634,2024-10-02 20:35:12.689663488,2,[-0.00148013  0.00119719  0.00477535 -0.22430362],-1.0,-40.10439935338387,[-0.00148013  0.00119719  0.00477535 -0.22430362],[-0.00148013  0.00119719  0.00477535 -0.22430362],[1.32976207 0.72953996 0.86211477],"[ 1.33365468e+00  7.45558610e-01  8.01355275e-01  1.33256151e+00
  7.45541934e-01  7.83134797e-01 -1.09316921e-03 -1.66756492e-05
 -1.82204787e-02  2.40565854e-02  2.40625962e-02  1.67122691e-04
 -3.26196340e-03  1.54250014e-02  8.06706524e-06 -8.27488391e-05
 -3.07335138e-05 -2.10198327e-03 -1.09789852e-04 -8.81622039e-06
 -1.08840624e-05  3.25612284e-05 -1.09360464e-05  2.83730966e-07
 -2.45036113e-07]",0.477444052696228,1,1
52,60,2024-10-02 20:35:12.851364096,TASK_BEGIN,24,0.9017278106506832,0.1967583628597487,-5.6116072486126525,0.9677316429034084,-0.700028450146869,0.6220512233639471,-4.170282486419375,0.2412424457606702,1,2024-10-02 20:35:12.689662842,1727901312.6896634,2024-10-02 20:35:12.689663488,2,[-0.00148013  0.00119719  0.00477535 -0.22430362],-1.0,-40.10439935338387,[-0.00148013  0.00119719  0.00477535 -0.22430362],[-0.00148013  0.00119719  0.00477535 -0.22430362],[1.32976207 0.72953996 0.86211477],"[ 1.33365468e+00  7.45558610e-01  8.01355275e-01  1.33256151e+00
  7.45541934e-01  7.83134797e-01 -1.09316921e-03 -1.66756492e-05
 -1.82204787e-02  2.40565854e-02  2.40625962e-02  1.67122691e-04
 -3.26196340e-03  1.54250014e-02  8.06706524e-06 -8.27488391e-05
 -3.07335138e-05 -2.10198327e-03 -1.09789852e-04 -8.81622039e-06
 -1.08840624e-05  3.25612284e-05 -1.09360464e-05  2.83730966e-07
 -2.45036113e-07]",0.477444052696228,1,1
53,61,2024-10-02 20:35:12.921346048,TASK_BEGIN,24,0.9155097323041442,0.1797084010375011,-5.679957592538954,0.9694202726642164,-0.6965652143049667,0.6189320073568998,-4.3806853914756285,0.2983816459578136,1,2024-10-02 20:35:12.689662842,1727901312.6896634,2024-10-02 20:35:12.689663488,2,[-0.00148013  0.00119719  0.00477535 -0.22430362],-1.0,-40.10439935338387,[-0.00148013  0.00119719  0.00477535 -0.22430362],[-0.00148013  0.00119719  0.00477535 -0.22430362],[1.32976207 0.72953996 0.86211477],"[ 1.33365468e+00  7.45558610e-01  8.01355275e-01  1.33256151e+00
  7.45541934e-01  7.83134797e-01 -1.09316921e-03 -1.66756492e-05
 -1.82204787e-02  2.40565854e-02  2.40625962e-02  1.67122691e-04
 -3.26196340e-03  1.54250014e-02  8.06706524e-06 -8.27488391e-05
 -3.07335138e-05 -2.10198327e-03 -1.09789852e-04 -8.81622039e-06
 -1.08840624e-05  3.25612284e-05 -1.09360464e-05  2.83730966e-07
 -2.45036113e-07]",0.477444052696228,1,1
54,62,2024-10-02 20:35:12.974487040,TASK_BEGIN,24,0.9274964954816234,0.1619893456985993,-5.727746084023766,0.9677135430329832,-0.6861238609622252,0.6131050997483767,-4.591225294252115,0.3620029154167451,1,2024-10-02 20:35:12.689662842,1727901312.6896634,2024-10-02 20:35:12.689663488,2,[-0.00148013  0.00119719  0.00477535 -0.22430362],-1.0,-40.10439935338387,[-0.00148013  0.00119719  0.00477535 -0.22430362],[-0.00148013  0.00119719  0.00477535 -0.22430362],[1.32976207 0.72953996 0.86211477],"[ 1.33365468e+00  7.45558610e-01  8.01355275e-01  1.33256151e+00
  7.45541934e-01  7.83134797e-01 -1.09316921e-03 -1.66756492e-05
 -1.82204787e-02  2.40565854e-02  2.40625962e-02  1.67122691e-04
 -3.26196340e-03  1.54250014e-02  8.06706524e-06 -8.27488391e-05
 -3.07335138e-05 -2.10198327e-03 -1.09789852e-04 -8.81622039e-06
 -1.08840624e-05  3.25612284e-05 -1.09360464e-05  2.83730966e-07
 -2.45036113e-07]",0.477444052696228,1,1
55,63,2024-10-02 20:35:13.056912128,TASK_BEGIN,24,0.9382502188572596,0.1436737671393343,-5.752859611242835,0.9629977422079592,-0.668496218565591,0.6041753758813622,-4.798708461720106,0.4309948184069297,1,2024-10-02 20:35:12.689662842,1727901312.6896634,2024-10-02 20:35:12.689663488,2,[-0.00148013  0.00119719  0.00477535 -0.22430362],-1.0,-40.10439935338387,[-0.00148013  0.00119719  0.00477535 -0.22430362],[-0.00148013  0.00119719  0.00477535 -0.22430362],[1.32976207 0.72953996 0.86211477],"[ 1.33365468e+00  7.45558610e-01  8.01355275e-01  1.33256151e+00
  7.45541934e-01  7.83134797e-01 -1.09316921e-03 -1.66756492e-05
 -1.82204787e-02  2.40565854e-02  2.40625962e-02  1.67122691e-04
 -3.26196340e-03  1.54250014e-02  8.06706524e-06 -8.27488391e-05
 -3.07335138e-05 -2.10198327e-03 -1.09789852e-04 -8.81622039e-06
 -1.08840624e-05  3.25612284e-05 -1.09360464e-05  2.83730966e-07
 -2.45036113e-07]",0.477444052696228,1,1
56,64,2024-10-02 20:35:13.113778176,TASK_BEGIN,24,0.9483150748690656,0.1248386581635622,-5.753424106283822,0.9556079029878009,-0.643788646627881,0.5919045292049565,-4.99970340211999,0.503813720091555,1,2024-10-02 20:35:13.009884033,1727901313.0098844,2024-10-02 20:35:13.009884416,2,[-0.00147208  0.00115607  0.00482716 -0.22464186],-1.0,-41.88335858818901,[-0.00147208  0.00115607  0.00482716 -0.22464186],[-0.00147208  0.00115607  0.00482716 -0.22464186],[1.32976207 0.72953996 0.86211477],"[ 1.33364612e+00  7.45548821e-01  8.01337140e-01  1.33257427e+00
  7.45535180e-01  7.83024503e-01 -1.07184995e-03 -1.36412689e-05
 -1.83126367e-02  2.40592969e-02  2.40600676e-02  1.76396509e-04
 -3.56284603e-03  1.54187394e-02  8.00286454e-06 -8.31434091e-05
 -3.06321828e-05 -2.10019665e-03 -1.08230106e-04 -9.06596640e-06
 -1.07941251e-05  3.16139035e-05 -9.87943264e-06 -4.95673653e-08
  9.08414208e-08]",0.47750124335289,1,1
57,65,2024-10-02 20:35:13.192352000,TASK_BEGIN,24,0.9581471571328114,0.1055737398962608,-5.7277210210956735,0.9458017087704568,-0.6124234298112378,0.576236632468313,-5.190597784158459,0.578655171732596,1,2024-10-02 20:35:13.009884033,1727901313.0098844,2024-10-02 20:35:13.009884416,2,[-0.00147208  0.00115607  0.00482716 -0.22464186],-1.0,-41.88335858818901,[-0.00147208  0.00115607  0.00482716 -0.22464186],[-0.00147208  0.00115607  0.00482716 -0.22464186],[1.32976207 0.72953996 0.86211477],"[ 1.33364612e+00  7.45548821e-01  8.01337140e-01  1.33257427e+00
  7.45535180e-01  7.83024503e-01 -1.07184995e-03 -1.36412689e-05
 -1.83126367e-02  2.40592969e-02  2.40600676e-02  1.76396509e-04
 -3.56284603e-03  1.54187394e-02  8.00286454e-06 -8.31434091e-05
 -3.06321828e-05 -2.10019665e-03 -1.08230106e-04 -9.06596640e-06
 -1.07941251e-05  3.16139035e-05 -9.87943264e-06 -4.95673653e-08
  9.08414208e-08]",0.47750124335289,1,1
58,66,2024-10-02 20:35:14.135500032,TASK_BEGIN,24,0.9680750076337994,0.0859886722887722,-5.67432875208673,0.933750497979412,-0.5751408803317019,0.557306802229497,-5.367455888810409,0.6535788349222703,1,2024-10-02 20:35:13.327885010,1727901313.3278852,2024-10-02 20:35:13.327885056,2,[-0.00146054  0.00114414  0.00486351 -0.22499153],-1.0,-43.60948095476121,[-0.00146054  0.00114414  0.00486351 -0.22499153],[-0.00146054  0.00114414  0.00486351 -0.22499153],[1.32976207 0.72953996 0.86211477],"[ 1.33363782e+00  7.45537028e-01  8.01322410e-01  1.33258709e+00
  7.45523348e-01  7.82917945e-01 -1.05072293e-03 -1.36797784e-05
 -1.84044644e-02  2.40589379e-02  2.40606093e-02  1.85588275e-04
 -3.85952404e-03  1.54125067e-02  7.93997978e-06 -8.40722118e-05
 -3.05296511e-05 -2.09841988e-03 -1.06802940e-04 -9.31441105e-06
 -1.05788438e-05  3.13499700e-05 -9.15462250e-06 -9.16798408e-07
  9.60545399e-07]",0.4775654673576355,1,1
59,67,2024-10-02 20:35:14.203526912,TASK_BEGIN,24,0.9782982511503564,0.0662185993238992,-5.592338966461136,0.919529382564202,-0.5329808611208945,0.5354343921496734,-5.525688619129142,0.7265180682101532,1,2024-10-02 20:35:13.327885010,1727901313.3278852,2024-10-02 20:35:13.327885056,2,[-0.00146054  0.00114414  0.00486351 -0.22499153],-1.0,-43.60948095476121,[-0.00146054  0.00114414  0.00486351 -0.22499153],[-0.00146054  0.00114414  0.00486351 -0.22499153],[1.32976207 0.72953996 0.86211477],"[ 1.33363782e+00  7.45537028e-01  8.01322410e-01  1.33258709e+00
  7.45523348e-01  7.82917945e-01 -1.05072293e-03 -1.36797784e-05
 -1.84044644e-02  2.40589379e-02  2.40606093e-02  1.85588275e-04
 -3.85952404e-03  1.54125067e-02  7.93997978e-06 -8.40722118e-05
 -3.05296511e-05 -2.09841988e-03 -1.06802940e-04 -9.31441105e-06
 -1.05788438e-05  3.13499700e-05 -9.15462250e-06 -9.16798408e-07
  9.60545399e-07]",0.4775654673576355,1,1
60,68,2024-10-02 20:35:14.271387904,TASK_BEGIN,24,0.988909134470592,0.0464269172323522,-5.481512092697974,0.9030912423929696,-0.487222133664212,0.511100576201862,-5.65994656295243,0.7952491580396103,1,2024-10-02 20:35:13.434109863,1727901313.4341102,2024-10-02 20:35:13.434110208,2,[-0.00063064 -0.00115628  0.00527811 -0.22108681],-1.0,-44.1733861452136,[-0.00063064 -0.00115628  0.00527811 -0.22108681],[-0.00063064 -0.00115628  0.00527811 -0.22108681],[1.32976207 0.72953996 0.86211477],"[ 1.33364656e+00  7.45506671e-01  8.01322646e-01  1.33260292e+00
  7.45494493e-01  7.82887872e-01 -1.04364330e-03 -1.21783105e-05
 -1.84347744e-02  2.40602371e-02  2.40596199e-02  1.84551643e-04
 -3.96050369e-03  1.54107586e-02  7.84950645e-06 -7.55394123e-05
 -3.05355491e-05 -1.95238142e-03 -1.05649204e-04 -8.24485810e-06
  1.09854026e-05 -3.26025670e-05  2.49281830e-06  1.82002625e-06
 -1.74901983e-06]",0.4760996103286743,1,1
61,69,2024-10-02 20:35:14.334935808,TASK_BEGIN,24,0.9999131869384996,0.0268044440304553,-5.34242609476175,0.8842417881081648,-0.4392795336841244,0.4849101493835776,-5.764529668973291,0.8574437848395869,1,2024-10-02 20:35:13.648946045,1727901313.648947,2024-10-02 20:35:13.648946944,2,[-1.1953193e-03 -6.4726919e-06  5.0976649e-03 -2.2269997e-01],-1.0,-45.284335760923845,[-1.1953193e-03 -6.4726919e-06  5.0976649e-03 -2.2269997e-01],[-1.1953193e-03 -6.4726919e-06  5.0976649e-03 -2.2269997e-01],[1.32976207 0.72953996 0.86211477],"[ 1.33364059e+00  7.45474927e-01  8.01319000e-01  1.33261093e+00
  7.45458226e-01  7.82823126e-01 -1.02966841e-03 -1.67008554e-05
 -1.84958740e-02  2.40599924e-02  2.40600658e-02  7.11566630e-05
 -4.15443874e-03  1.54079422e-02  7.33551313e-06 -3.38340000e-05
 -3.04328926e-05 -8.46366372e-04 -1.00433100e-04 -3.02810837e-06
 -4.27533034e-06  2.29457405e-06 -3.37128612e-06 -6.69310438e-07
  8.11004951e-07]",0.4759650230407715,1,1
62,70,2024-10-02 20:35:14.396532992,TASK_BEGIN,24,1.011237969343666,0.0075659942024185,-5.176721211124023,0.8626564602551299,-0.3905877189641237,0.4575427140928087,-5.834165323733371,0.910855479870223,1,2024-10-02 20:35:13.648946045,1727901313.648947,2024-10-02 20:35:13.648946944,2,[-1.1953193e-03 -6.4726919e-06  5.0976649e-03 -2.2269997e-01],-1.0,-45.284335760923845,[-1.1953193e-03 -6.4726919e-06  5.0976649e-03 -2.2269997e-01],[-1.1953193e-03 -6.4726919e-06  5.0976649e-03 -2.2269997e-01],[1.32976207 0.72953996 0.86211477],"[ 1.33364059e+00  7.45474927e-01  8.01319000e-01  1.33261093e+00
  7.45458226e-01  7.82823126e-01 -1.02966841e-03 -1.67008554e-05
 -1.84958740e-02  2.40599924e-02  2.40600658e-02  7.11566630e-05
 -4.15443874e-03  1.54079422e-02  7.33551313e-06 -3.38340000e-05
 -3.04328926e-05 -8.46366372e-04 -1.00433100e-04 -3.02810837e-06
 -4.27533034e-06  2.29457405e-06 -3.37128612e-06 -6.69310438e-07
  8.11004951e-07]",0.4759650230407715,1,1
63,71,2024-10-02 20:35:14.474735104,TASK_BEGIN,24,1.0227309079841365,-0.0110534172290897,-4.98735797399952,0.8379519930619883,-0.3425035245624059,0.4297015846989402,-5.864825784219312,0.9536102335823964,1,2024-10-02 20:35:13.648946045,1727901313.648947,2024-10-02 20:35:13.648946944,2,[-1.1953193e-03 -6.4726919e-06  5.0976649e-03 -2.2269997e-01],-1.0,-45.284335760923845,[-1.1953193e-03 -6.4726919e-06  5.0976649e-03 -2.2269997e-01],[-1.1953193e-03 -6.4726919e-06  5.0976649e-03 -2.2269997e-01],[1.32976207 0.72953996 0.86211477],"[ 1.33364059e+00  7.45474927e-01  8.01319000e-01  1.33261093e+00
  7.45458226e-01  7.82823126e-01 -1.02966841e-03 -1.67008554e-05
 -1.84958740e-02  2.40599924e-02  2.40600658e-02  7.11566630e-05
 -4.15443874e-03  1.54079422e-02  7.33551313e-06 -3.38340000e-05
 -3.04328926e-05 -8.46366372e-04 -1.00433100e-04 -3.02810837e-06
 -4.27533034e-06  2.29457405e-06 -3.37128612e-06 -6.69310438e-07
  8.11004951e-07]",0.4759650230407715,1,1
64,72,2024-10-02 20:35:14.536793088,TASK_BEGIN,24,1.034149339680943,-0.0288018883953855,-4.778685048913446,0.8097787443351625,-0.2962316035628345,0.4020651178094879,-5.85435519915787,0.984520170031391,1,2024-10-02 20:35:14.397313965,1727901314.3973148,2024-10-02 20:35:14.397314816,2,[-1.0941182e-03 -1.3873540e-04  5.1348498e-03 -2.2323863e-01],-1.0,-49.00142537504343,[-1.0941182e-03 -1.3873540e-04  5.1348498e-03 -2.2323863e-01],[-1.0941182e-03 -1.3873540e-04  5.1348498e-03 -2.2323863e-01],[1.32976207 0.72953996 0.86211477],"[ 1.33362473e+00  7.45433645e-01  8.01298042e-01  1.33264330e+00
  7.45422057e-01  7.82590007e-01 -9.81430430e-04 -1.15882996e-05
 -1.87080345e-02  2.40606069e-02  2.40602486e-02  1.99111216e-04
 -4.82301874e-03  1.53981498e-02  6.99433417e-06 -1.65728304e-05
 -3.01890793e-05 -4.09745859e-04 -9.58048355e-05 -4.06617940e-06
 -1.94759976e-06 -2.98367910e-06 -2.56258393e-06  2.65829769e-07
 -1.91715786e-07]",0.47586333751678467,1,1
65,73,2024-10-02 20:35:15.460812032,TASK_BEGIN,24,1.0451505936137773,-0.0454158637312251,-4.556242291257365,0.7778955267336981,-0.252750632697592,0.3752411597351322,-5.802774472598854,1.0033021169224297,1,2024-10-02 20:35:15.256405029,1727901315.2564054,2024-10-02 20:35:15.256405248,2,[-1.0990580e-03 -6.9318339e-05  5.2044215e-03 -2.2495750e-01],-1.0,-52.94133584143497,[-1.0990580e-03 -6.9318339e-05  5.2044215e-03 -2.2495750e-01],[-1.0990580e-03 -6.9318339e-05  5.2044215e-03 -2.2495750e-01],[1.32976207 0.72953996 0.86211477],"[ 1.33358815e+00  7.45411943e-01  8.01276519e-01  1.33266079e+00
  7.45392773e-01  7.82327973e-01 -9.27361386e-04 -1.91694907e-05
 -1.89485461e-02  2.40599234e-02  2.40607253e-02  1.21138656e-05
 -5.56389354e-03  1.53746873e-02  8.39972713e-06 -1.54795368e-04
 -2.98810704e-05 -3.95968561e-03 -1.06325747e-04 -1.01660391e-05
 -1.70045698e-07 -3.27744029e-06 -9.18345919e-07  1.45040227e-06
 -1.24920513e-06]",0.4777810573577881,1,1
66,74,2024-10-02 20:35:15.523920128,TASK_BEGIN,24,1.0552976121957984,-0.0606311107518783,-4.326409564748215,0.7422231752387873,-0.2127227187643269,0.349726187076831,-5.712262342260957,1.0106113819506537,1,2024-10-02 20:35:15.256405029,1727901315.2564054,2024-10-02 20:35:15.256405248,2,[-1.0990580e-03 -6.9318339e-05  5.2044215e-03 -2.2495750e-01],-1.0,-52.94133584143497,[-1.0990580e-03 -6.9318339e-05  5.2044215e-03 -2.2495750e-01],[-1.0990580e-03 -6.9318339e-05  5.2044215e-03 -2.2495750e-01],[1.32976207 0.72953996 0.86211477],"[ 1.33358815e+00  7.45411943e-01  8.01276519e-01  1.33266079e+00
  7.45392773e-01  7.82327973e-01 -9.27361386e-04 -1.91694907e-05
 -1.89485461e-02  2.40599234e-02  2.40607253e-02  1.21138656e-05
 -5.56389354e-03  1.53746873e-02  8.39972713e-06 -1.54795368e-04
 -2.98810704e-05 -3.95968561e-03 -1.06325747e-04 -1.01660391e-05
 -1.70045698e-07 -3.27744029e-06 -9.18345919e-07  1.45040227e-06
 -1.24920513e-06]",0.4777810573577881,1,1
67,75,2024-10-02 20:35:15.595532032,TASK_BEGIN,24,1.0640881348748872,-0.0741993986725474,-4.096081696927401,0.7029016583790068,-0.1764096947375098,0.3258758011643509,-5.586928731961954,1.0078928653718784,1,2024-10-02 20:35:15.256405029,1727901315.2564054,2024-10-02 20:35:15.256405248,2,[-1.0990580e-03 -6.9318339e-05  5.2044215e-03 -2.2495750e-01],-1.0,-52.94133584143497,[-1.0990580e-03 -6.9318339e-05  5.2044215e-03 -2.2495750e-01],[-1.0990580e-03 -6.9318339e-05  5.2044215e-03 -2.2495750e-01],[1.32976207 0.72953996 0.86211477],"[ 1.33358815e+00  7.45411943e-01  8.01276519e-01  1.33266079e+00
  7.45392773e-01  7.82327973e-01 -9.27361386e-04 -1.91694907e-05
 -1.89485461e-02  2.40599234e-02  2.40607253e-02  1.21138656e-05
 -5.56389354e-03  1.53746873e-02  8.39972713e-06 -1.54795368e-04
 -2.98810704e-05 -3.95968561e-03 -1.06325747e-04 -1.01660391e-05
 -1.70045698e-07 -3.27744029e-06 -9.18345919e-07  1.45040227e-06
 -1.24920513e-06]",0.4777810573577881,1,1
68,76,2024-10-02 20:35:15.658091008,TASK_BEGIN,24,1.0709930661425222,-0.0859039198350775,-3.872504651542644,0.6603674718519705,-0.1436490256600707,0.3038975989123985,-5.432425907667323,0.9971098491262248,1,2024-10-02 20:35:15.256405029,1727901315.2564054,2024-10-02 20:35:15.256405248,2,[-1.0990580e-03 -6.9318339e-05  5.2044215e-03 -2.2495750e-01],-1.0,-52.94133584143497,[-1.0990580e-03 -6.9318339e-05  5.2044215e-03 -2.2495750e-01],[-1.0990580e-03 -6.9318339e-05  5.2044215e-03 -2.2495750e-01],[1.32976207 0.72953996 0.86211477],"[ 1.33358815e+00  7.45411943e-01  8.01276519e-01  1.33266079e+00
  7.45392773e-01  7.82327973e-01 -9.27361386e-04 -1.91694907e-05
 -1.89485461e-02  2.40599234e-02  2.40607253e-02  1.21138656e-05
 -5.56389354e-03  1.53746873e-02  8.39972713e-06 -1.54795368e-04
 -2.98810704e-05 -3.95968561e-03 -1.06325747e-04 -1.01660391e-05
 -1.70045698e-07 -3.27744029e-06 -9.18345919e-07  1.45040227e-06
 -1.24920513e-06]",0.4777810573577881,1,1
69,77,2024-10-02 20:35:15.720154112,TASK_BEGIN,24,1.0754835844244903,-0.0955651350292748,-3.663244427380473,0.615431657160276,-0.1139152262606013,0.283872422774047,-5.255413641013542,0.9804239022515804,1,2024-10-02 20:35:15.256405029,1727901315.2564054,2024-10-02 20:35:15.256405248,2,[-1.0990580e-03 -6.9318339e-05  5.2044215e-03 -2.2495750e-01],-1.0,-52.94133584143497,[-1.0990580e-03 -6.9318339e-05  5.2044215e-03 -2.2495750e-01],[-1.0990580e-03 -6.9318339e-05  5.2044215e-03 -2.2495750e-01],[1.32976207 0.72953996 0.86211477],"[ 1.33358815e+00  7.45411943e-01  8.01276519e-01  1.33266079e+00
  7.45392773e-01  7.82327973e-01 -9.27361386e-04 -1.91694907e-05
 -1.89485461e-02  2.40599234e-02  2.40607253e-02  1.21138656e-05
 -5.56389354e-03  1.53746873e-02  8.39972713e-06 -1.54795368e-04
 -2.98810704e-05 -3.95968561e-03 -1.06325747e-04 -1.01660391e-05
 -1.70045698e-07 -3.27744029e-06 -9.18345919e-07  1.45040227e-06
 -1.24920513e-06]",0.4777810573577881,1,1
70,78,2024-10-02 20:35:15.799783936,TASK_BEGIN,24,1.0770476438583576,-0.1030364371590624,-3.476095812684885,0.5693226255647904,-0.0864465146941197,0.2657974497532198,-5.063027551692986,0.9599117873061578,1,2024-10-02 20:35:15.256405029,1727901315.2564054,2024-10-02 20:35:15.256405248,2,[-1.0990580e-03 -6.9318339e-05  5.2044215e-03 -2.2495750e-01],-1.0,-52.94133584143497,[-1.0990580e-03 -6.9318339e-05  5.2044215e-03 -2.2495750e-01],[-1.0990580e-03 -6.9318339e-05  5.2044215e-03 -2.2495750e-01],[1.32976207 0.72953996 0.86211477],"[ 1.33358815e+00  7.45411943e-01  8.01276519e-01  1.33266079e+00
  7.45392773e-01  7.82327973e-01 -9.27361386e-04 -1.91694907e-05
 -1.89485461e-02  2.40599234e-02  2.40607253e-02  1.21138656e-05
 -5.56389354e-03  1.53746873e-02  8.39972713e-06 -1.54795368e-04
 -2.98810704e-05 -3.95968561e-03 -1.06325747e-04 -1.01660391e-05
 -1.70045698e-07 -3.27744029e-06 -9.18345919e-07  1.45040227e-06
 -1.24920513e-06]",0.4777810573577881,1,1
71,79,2024-10-02 20:35:15.858907904,TASK_BEGIN,24,1.075209890593879,-0.108196736524315,-3.318764852158224,0.5236734640405536,-0.0604053548612092,0.2496383848987665,-4.862442864726128,0.9373717607774938,1,2024-10-02 20:35:15.256405029,1727901315.2564054,2024-10-02 20:35:15.256405248,2,[-1.0990580e-03 -6.9318339e-05  5.2044215e-03 -2.2495750e-01],-1.0,-52.94133584143497,[-1.0990580e-03 -6.9318339e-05  5.2044215e-03 -2.2495750e-01],[-1.0990580e-03 -6.9318339e-05  5.2044215e-03 -2.2495750e-01],[1.32976207 0.72953996 0.86211477],"[ 1.33358815e+00  7.45411943e-01  8.01276519e-01  1.33266079e+00
  7.45392773e-01  7.82327973e-01 -9.27361386e-04 -1.91694907e-05
 -1.89485461e-02  2.40599234e-02  2.40607253e-02  1.21138656e-05
 -5.56389354e-03  1.53746873e-02  8.39972713e-06 -1.54795368e-04
 -2.98810704e-05 -3.95968561e-03 -1.06325747e-04 -1.01660391e-05
 -1.70045698e-07 -3.27744029e-06 -9.18345919e-07  1.45040227e-06
 -1.24920513e-06]",0.4777810573577881,1,1
72,83,2024-10-02 20:35:17.010113024,TASK_BEGIN,24,1.0260957030656088,-0.1039746214550665,-3.106998908097134,0.3861553358391724,0.0393147300894277,0.2047676291951529,-4.098813525393173,0.8468002431534416,1,2024-10-02 20:35:16.873006104,1727901316.8730063,2024-10-02 20:35:16.873006336,3,[-0.31889164  0.9758661  -0.2874961   0.33037254],-1.0,-1.0,[-0.31889164  0.9758661  -0.2874961   0.33037254],[-0.31889164  0.9758661  -0.2874961   0.33037254],[1.40856839 0.61283389 0.67862283],"[ 1.33214152e+00  7.78904226e-01  5.25930232e-01  1.26385630e+00
  8.35708408e-01  4.24737381e-01 -6.82852249e-02  5.68041819e-02
 -1.01192850e-01  3.98195972e-02  4.15917891e-02 -5.03884423e-08
  7.75206804e-08 -2.37787265e-16  8.54335693e-03 -2.52857143e-02
  7.60741408e-03  2.85323085e-08 -4.38958592e-08  3.45701073e-18
 -8.54335803e-03  2.52857136e-02 -7.58074852e-03  6.99680867e-02
  7.08226319e-02]",1.103552222251892,0,0
73,84,2024-10-02 20:35:17.071162112,TASK_BEGIN,24,1.0017481669361166,-0.0964190256620784,-3.172482350358748,0.3725013858024764,0.0619569866586891,0.1991780955899883,-3.93832051367595,0.8245202200507409,1,2024-10-02 20:35:16.873006104,1727901316.8730063,2024-10-02 20:35:16.873006336,3,[-0.31889164  0.9758661  -0.2874961   0.33037254],-1.0,-1.0,[-0.31889164  0.9758661  -0.2874961   0.33037254],[-0.31889164  0.9758661  -0.2874961   0.33037254],[1.40856839 0.61283389 0.67862283],"[ 1.33214152e+00  7.78904226e-01  5.25930232e-01  1.26385630e+00
  8.35708408e-01  4.24737381e-01 -6.82852249e-02  5.68041819e-02
 -1.01192850e-01  3.98195972e-02  4.15917891e-02 -5.03884423e-08
  7.75206804e-08 -2.37787265e-16  8.54335693e-03 -2.52857143e-02
  7.60741408e-03  2.85323085e-08 -4.38958592e-08  3.45701073e-18
 -8.54335803e-03  2.52857136e-02 -7.58074852e-03  6.99680867e-02
  7.08226319e-02]",1.103552222251892,0,0
74,85,2024-10-02 20:35:17.148436992,TASK_BEGIN,24,0.9721371682970448,-0.0862481916931629,-3.28327586899388,0.3695993615154568,0.0814798144193019,0.1962406389790504,-3.794765976557565,0.8012748362391265,1,2024-10-02 20:35:16.989986816,1727901316.9899876,2024-10-02 20:35:16.989987584,3,[-0.5407822   0.84076154 -0.7967458   0.1090671 ],-1.0,-1.99,[-0.5407822   0.84076154 -0.7967458   0.1090671 ],[-0.5407822   0.84076154 -0.7967458   0.1090671 ],[1.40856839 0.61283389 0.67862283],"[ 1.31448250e+00  8.07071945e-01  5.01007106e-01  1.26385630e+00
  8.35708408e-01  4.24757513e-01 -5.06262031e-02  2.86364628e-02
 -7.62495928e-02  5.13175044e-02  5.16079169e-02 -2.88713263e-08
  4.44174251e-08 -1.54879484e-15  1.33046387e-02 -1.89183118e-02
  1.99834081e-02  1.62724006e-08 -2.50344625e-08  2.03991770e-18
 -1.33046393e-02  1.89183114e-02 -1.99681722e-02 -3.65614818e-03
 -4.51005584e-03]",1.1040432453155518,0,0
75,86,2024-10-02 20:35:17.217630976,TASK_BEGIN,24,0.937315713656573,-0.0735454631372089,-3.434818826165955,0.3777125281184491,0.0961060318312348,0.1961227945002078,-3.66956093888856,0.7763984893756791,1,2024-10-02 20:35:16.989986816,1727901316.9899876,2024-10-02 20:35:16.989987584,3,[-0.5407822   0.84076154 -0.7967458   0.1090671 ],-1.0,-1.99,[-0.5407822   0.84076154 -0.7967458   0.1090671 ],[-0.5407822   0.84076154 -0.7967458   0.1090671 ],[1.40856839 0.61283389 0.67862283],"[ 1.31448250e+00  8.07071945e-01  5.01007106e-01  1.26385630e+00
  8.35708408e-01  4.24757513e-01 -5.06262031e-02  2.86364628e-02
 -7.62495928e-02  5.13175044e-02  5.16079169e-02 -2.88713263e-08
  4.44174251e-08 -1.54879484e-15  1.33046387e-02 -1.89183118e-02
  1.99834081e-02  1.62724006e-08 -2.50344625e-08  2.03991770e-18
 -1.33046393e-02  1.89183114e-02 -1.99681722e-02 -3.65614818e-03
 -4.51005584e-03]",1.1040432453155518,0,0
76,87,2024-10-02 20:35:18.145775872,TASK_BEGIN,24,0.8975911847000901,-0.0584659315928585,-3.621297091126052,0.3966043757587351,0.1039952098346396,0.1989134712240043,-3.564153720506675,0.7495138513931189,1,2024-10-02 20:35:18.058100830,1727901318.058101,2024-10-02 20:35:18.058100992,3,[ 0.74537706 -0.89602566  0.49497557 -0.12886891],-1.0,-11.361512828387072,[ 0.74537706 -0.89602566  0.49497557 -0.12886891],[ 0.74537706 -0.89602566  0.49497557 -0.12886891],[1.40856839 0.61283389 0.67862283],"[ 1.37834927e+00  6.76479444e-01  6.55596711e-01  1.37631005e+00
  6.76279553e-01  6.38654092e-01 -2.03921825e-03 -1.99891077e-04
 -1.69426192e-02  2.36697606e-02  2.44525842e-02 -7.11356844e-04
 -5.78576016e-04  1.45918928e-02  7.10338038e-04  7.40917130e-05
 -2.48345407e-05 -3.00715825e-03  3.95805557e-04  8.96566665e-04
  1.68598168e-02 -2.19178527e-02  1.01621816e-02  1.60181723e-04
 -1.90391669e-04]",1.2756476402282715,0,0
77,88,2024-10-02 20:35:18.223396864,TASK_BEGIN,24,0.8535620578539308,-0.0412367623617976,-3.836203487177104,0.4256752539011108,0.1035523890907027,0.2045915033041617,-3.4801256785177097,0.7206659229768506,1,2024-10-02 20:35:18.058100830,1727901318.058101,2024-10-02 20:35:18.058100992,3,[ 0.74537706 -0.89602566  0.49497557 -0.12886891],-1.0,-11.361512828387072,[ 0.74537706 -0.89602566  0.49497557 -0.12886891],[ 0.74537706 -0.89602566  0.49497557 -0.12886891],[1.40856839 0.61283389 0.67862283],"[ 1.37834927e+00  6.76479444e-01  6.55596711e-01  1.37631005e+00
  6.76279553e-01  6.38654092e-01 -2.03921825e-03 -1.99891077e-04
 -1.69426192e-02  2.36697606e-02  2.44525842e-02 -7.11356844e-04
 -5.78576016e-04  1.45918928e-02  7.10338038e-04  7.40917130e-05
 -2.48345407e-05 -3.00715825e-03  3.95805557e-04  8.96566665e-04
  1.68598168e-02 -2.19178527e-02  1.01621816e-02  1.60181723e-04
 -1.90391669e-04]",1.2756476402282715,0,0
78,89,2024-10-02 20:35:18.285527808,TASK_BEGIN,24,0.8061288793992646,-0.0221503565571851,-4.072632817453505,0.4640508233479071,0.0937269937723885,0.2130030416445759,-3.418925597353688,0.690337413802533,1,2024-10-02 20:35:18.058100830,1727901318.058101,2024-10-02 20:35:18.058100992,3,[ 0.74537706 -0.89602566  0.49497557 -0.12886891],-1.0,-11.361512828387072,[ 0.74537706 -0.89602566  0.49497557 -0.12886891],[ 0.74537706 -0.89602566  0.49497557 -0.12886891],[1.40856839 0.61283389 0.67862283],"[ 1.37834927e+00  6.76479444e-01  6.55596711e-01  1.37631005e+00
  6.76279553e-01  6.38654092e-01 -2.03921825e-03 -1.99891077e-04
 -1.69426192e-02  2.36697606e-02  2.44525842e-02 -7.11356844e-04
 -5.78576016e-04  1.45918928e-02  7.10338038e-04  7.40917130e-05
 -2.48345407e-05 -3.00715825e-03  3.95805557e-04  8.96566665e-04
  1.68598168e-02 -2.19178527e-02  1.01621816e-02  1.60181723e-04
 -1.90391669e-04]",1.2756476402282715,0,0
79,90,2024-10-02 20:35:18.364384000,TASK_BEGIN,24,0.756473229989286,-0.0015540137133778,-4.323310959696652,0.5105724783276165,0.0742370626342861,0.2238529976739135,-3.3814379558396386,0.6593734419191554,1,2024-10-02 20:35:18.058100830,1727901318.058101,2024-10-02 20:35:18.058100992,3,[ 0.74537706 -0.89602566  0.49497557 -0.12886891],-1.0,-11.361512828387072,[ 0.74537706 -0.89602566  0.49497557 -0.12886891],[ 0.74537706 -0.89602566  0.49497557 -0.12886891],[1.40856839 0.61283389 0.67862283],"[ 1.37834927e+00  6.76479444e-01  6.55596711e-01  1.37631005e+00
  6.76279553e-01  6.38654092e-01 -2.03921825e-03 -1.99891077e-04
 -1.69426192e-02  2.36697606e-02  2.44525842e-02 -7.11356844e-04
 -5.78576016e-04  1.45918928e-02  7.10338038e-04  7.40917130e-05
 -2.48345407e-05 -3.00715825e-03  3.95805557e-04  8.96566665e-04
  1.68598168e-02 -2.19178527e-02  1.01621816e-02  1.60181723e-04
 -1.90391669e-04]",1.2756476402282715,0,0
80,91,2024-10-02 20:35:18.423853056,TASK_BEGIN,24,0.7060076362680621,0.0201605528200261,-4.580563332558007,0.5637299817158458,0.0456843982773371,0.2367143621910905,-3.3676393016428885,0.6288705585401225,1,2024-10-02 20:35:18.058100830,1727901318.058101,2024-10-02 20:35:18.058100992,3,[ 0.74537706 -0.89602566  0.49497557 -0.12886891],-1.0,-11.361512828387072,[ 0.74537706 -0.89602566  0.49497557 -0.12886891],[ 0.74537706 -0.89602566  0.49497557 -0.12886891],[1.40856839 0.61283389 0.67862283],"[ 1.37834927e+00  6.76479444e-01  6.55596711e-01  1.37631005e+00
  6.76279553e-01  6.38654092e-01 -2.03921825e-03 -1.99891077e-04
 -1.69426192e-02  2.36697606e-02  2.44525842e-02 -7.11356844e-04
 -5.78576016e-04  1.45918928e-02  7.10338038e-04  7.40917130e-05
 -2.48345407e-05 -3.00715825e-03  3.95805557e-04  8.96566665e-04
  1.68598168e-02 -2.19178527e-02  1.01621816e-02  1.60181723e-04
 -1.90391669e-04]",1.2756476402282715,0,0
81,92,2024-10-02 20:35:18.499971072,TASK_BEGIN,24,0.6563025826570238,0.0425669647858241,-4.836477254406668,0.6216337993210231,0.0095332583358422,0.2510575114350742,-3.3764414143130197,0.6000559614755283,1,2024-10-02 20:35:18.058100830,1727901318.058101,2024-10-02 20:35:18.058100992,3,[ 0.74537706 -0.89602566  0.49497557 -0.12886891],-1.0,-11.361512828387072,[ 0.74537706 -0.89602566  0.49497557 -0.12886891],[ 0.74537706 -0.89602566  0.49497557 -0.12886891],[1.40856839 0.61283389 0.67862283],"[ 1.37834927e+00  6.76479444e-01  6.55596711e-01  1.37631005e+00
  6.76279553e-01  6.38654092e-01 -2.03921825e-03 -1.99891077e-04
 -1.69426192e-02  2.36697606e-02  2.44525842e-02 -7.11356844e-04
 -5.78576016e-04  1.45918928e-02  7.10338038e-04  7.40917130e-05
 -2.48345407e-05 -3.00715825e-03  3.95805557e-04  8.96566665e-04
  1.68598168e-02 -2.19178527e-02  1.01621816e-02  1.60181723e-04
 -1.90391669e-04]",1.2756476402282715,0,0
82,93,2024-10-02 20:35:18.563074304,TASK_BEGIN,24,0.6089905083188017,0.0652147755249789,-5.083364424804467,0.6820991247455477,-0.0320555773861944,0.2662960448582808,-3.4057309622981484,0.5741625160626256,1,2024-10-02 20:35:18.058100830,1727901318.058101,2024-10-02 20:35:18.058100992,3,[ 0.74537706 -0.89602566  0.49497557 -0.12886891],-1.0,-11.361512828387072,[ 0.74537706 -0.89602566  0.49497557 -0.12886891],[ 0.74537706 -0.89602566  0.49497557 -0.12886891],[1.40856839 0.61283389 0.67862283],"[ 1.37834927e+00  6.76479444e-01  6.55596711e-01  1.37631005e+00
  6.76279553e-01  6.38654092e-01 -2.03921825e-03 -1.99891077e-04
 -1.69426192e-02  2.36697606e-02  2.44525842e-02 -7.11356844e-04
 -5.78576016e-04  1.45918928e-02  7.10338038e-04  7.40917130e-05
 -2.48345407e-05 -3.00715825e-03  3.95805557e-04  8.96566665e-04
  1.68598168e-02 -2.19178527e-02  1.01621816e-02  1.60181723e-04
 -1.90391669e-04]",1.2756476402282715,0,0
83,94,2024-10-02 20:35:19.510126848,TASK_BEGIN,24,0.565648086601219,0.0876427547689387,-5.314363432886389,0.7428247399023958,-0.0764764589166874,0.2818360216415922,-3.4526500975421883,0.5523182204334528,1,2024-10-02 20:35:18.694616943,1727901318.6946173,2024-10-02 20:35:18.694617344,3,[ 0.02694667 -0.13564512  0.04342137 -0.21718459],-0.0,-11.647628844991239,[ 0.02694667 -0.13564512  0.04342137 -0.21718459],[ 0.02694667 -0.13564512  0.04342137 -0.21718459],[1.40856839 0.61283389 0.67862283],"[ 1.39741514e+00  6.18486559e-01  6.73008317e-01  1.39600208e+00
  6.18355567e-01  6.55875180e-01 -1.41306039e-03 -1.30991758e-04
 -1.71331378e-02  2.39431463e-02  2.41749600e-02  8.43490730e-05
 -1.23120518e-04  1.54469982e-02  1.33884824e-05  2.12886997e-04
 -3.44421679e-05  2.75785768e-03  1.54863891e-05  5.04513589e-05
  6.58410963e-04 -3.11580864e-03  9.40329831e-04  1.06896753e-04
 -1.06447801e-04]",0.633733868598938,0,0
84,95,2024-10-02 20:35:19.565371136,TASK_BEGIN,24,0.5276680231760303,0.109396207558862,-5.523877202312759,0.8015857017667087,-0.1209191760622917,0.2971154319456157,-3.5140690974442514,0.5354665779317964,1,2024-10-02 20:35:18.694616943,1727901318.6946173,2024-10-02 20:35:18.694617344,3,[ 0.02694667 -0.13564512  0.04342137 -0.21718459],-0.0,-11.647628844991239,[ 0.02694667 -0.13564512  0.04342137 -0.21718459],[ 0.02694667 -0.13564512  0.04342137 -0.21718459],[1.40856839 0.61283389 0.67862283],"[ 1.39741514e+00  6.18486559e-01  6.73008317e-01  1.39600208e+00
  6.18355567e-01  6.55875180e-01 -1.41306039e-03 -1.30991758e-04
 -1.71331378e-02  2.39431463e-02  2.41749600e-02  8.43490730e-05
 -1.23120518e-04  1.54469982e-02  1.33884824e-05  2.12886997e-04
 -3.44421679e-05  2.75785768e-03  1.54863891e-05  5.04513589e-05
  6.58410963e-04 -3.11580864e-03  9.40329831e-04  1.06896753e-04
 -1.06447801e-04]",0.633733868598938,0,0
85,96,2024-10-02 20:35:19.643019008,TASK_BEGIN,24,0.4961360811835672,0.1300489118603299,-5.707660542543861,0.8563715450276213,-0.1625550994112151,0.3116317583904963,-3.5869938470921507,0.5243076447228135,1,2024-10-02 20:35:18.804718018,1727901318.8047185,2024-10-02 20:35:18.804718592,3,[ 0.02820445 -0.10969362  0.03665431 -0.22103482],-0.0,-11.531152556541326,[ 0.02820445 -0.10969362  0.03665431 -0.22103482],[ 0.02820445 -0.10969362  0.03665431 -0.22103482],[1.40856839 0.61283389 0.67862283],"[ 1.39828648e+00  6.14803476e-01  6.74121114e-01  1.39689032e+00
  6.14787202e-01  6.56959527e-01 -1.39616236e-03 -1.62739250e-05
 -1.71615870e-02  2.40664472e-02  2.40517313e-02 -1.07323728e-04
 -2.01473305e-04  1.54597427e-02  1.39586150e-05 -5.29646276e-05
 -3.37217391e-05 -2.86734361e-03 -1.83866063e-05  5.34231663e-05
  6.72319876e-04 -2.51543330e-03  7.88171876e-04  5.49072301e-05
 -5.56610357e-05]",0.6285006403923035,0,0
86,97,2024-10-02 20:35:19.713529088,TASK_BEGIN,24,0.4717316172949794,0.1492272162382558,-5.862647955596806,0.9054554747374594,-0.1986991739028141,0.3249608792681437,-3.668686274379958,0.5192455234548778,1,2024-10-02 20:35:18.913731201,1727901318.9137316,2024-10-02 20:35:18.913731584,3,[ 0.02757712 -0.08887145  0.03083478 -0.2235359 ],-0.0,-11.415841030975912,[ 0.02757712 -0.08887145  0.03083478 -0.2235359 ],[ 0.02757712 -0.08887145  0.03083478 -0.2235359 ],[1.40856839 0.61283389 0.67862283],"[ 1.39914860e+00  6.11821467e-01  6.75042063e-01  1.39776734e+00
  6.11857997e-01  6.57852151e-01 -1.38125377e-03  3.65304611e-05
 -1.71899118e-02  2.41207384e-02  2.39971308e-02 -1.35860699e-04
 -2.81574629e-04  1.54775148e-02  1.25451450e-05 -1.14735598e-04
 -3.31636153e-05 -2.85075853e-03 -2.87580866e-05  3.77563270e-05
  6.56257302e-04 -2.03941632e-03  6.52666080e-04 -7.45736725e-06
  7.22331345e-06]",0.6254213452339172,0,0
87,98,2024-10-02 20:35:19.781294080,TASK_BEGIN,24,0.4546727691542712,0.1666313008837982,-5.986790444682046,0.9474260334736996,-0.2269823550216741,0.3367680899273002,-3.756573378217554,0.5203565085731375,1,2024-10-02 20:35:18.913731201,1727901318.9137316,2024-10-02 20:35:18.913731584,3,[ 0.02757712 -0.08887145  0.03083478 -0.2235359 ],-0.0,-11.415841030975912,[ 0.02757712 -0.08887145  0.03083478 -0.2235359 ],[ 0.02757712 -0.08887145  0.03083478 -0.2235359 ],[1.40856839 0.61283389 0.67862283],"[ 1.39914860e+00  6.11821467e-01  6.75042063e-01  1.39776734e+00
  6.11857997e-01  6.57852151e-01 -1.38125377e-03  3.65304611e-05
 -1.71899118e-02  2.41207384e-02  2.39971308e-02 -1.35860699e-04
 -2.81574629e-04  1.54775148e-02  1.25451450e-05 -1.14735598e-04
 -3.31636153e-05 -2.85075853e-03 -2.87580866e-05  3.77563270e-05
  6.56257302e-04 -2.03941632e-03  6.52666080e-04 -7.45736725e-06
  7.22331345e-06]",0.6254213452339172,0,0
88,99,2024-10-02 20:35:19.849092096,TASK_BEGIN,24,0.4447182006954788,0.182050743235966,-6.0790672426556505,0.981224042131454,-0.2455240758008953,0.3468117802044552,-3.848159385496587,0.5274031868093131,1,2024-10-02 20:35:19.019739014,1727901319.0197394,2024-10-02 20:35:19.019739392,3,[ 0.02494574 -0.07205361  0.02658943 -0.22655624],-0.0,-11.301682620666153,[ 0.02494574 -0.07205361  0.02658943 -0.22655624],[ 0.02494574 -0.07205361  0.02658943 -0.22655624],[1.40856839 0.61283389 0.67862283],"[ 1.39993839e+00  6.09404096e-01  6.75821909e-01  1.39857022e+00
  6.09442101e-01  6.58603495e-01 -1.36816875e-03  3.80047879e-05
 -1.72184142e-02  2.41134770e-02  2.40043807e-02  9.88409276e-05
 -3.60981239e-04  1.54860119e-02  9.39822640e-06  2.65709584e-05
 -3.28222889e-05  2.10651815e-03 -1.88632966e-05  1.74388110e-05
  5.90579274e-04 -1.65485824e-03  5.56478516e-04 -5.41310659e-05
  5.46801243e-05]",0.6235874891281128,0,0
89,100,2024-10-02 20:35:19.905150976,TASK_BEGIN,24,0.4412197995869238,0.1953746459908543,-6.139585319300198,1.006195431846381,-0.2530662342983814,0.3549421888552665,-3.941005166240729,0.539885524914609,1,2024-10-02 20:35:19.231196045,1727901319.231196,2024-10-02 20:35:19.231195904,3,[ 0.02145023 -0.04931161  0.02178936 -0.23110238],-0.0,-11.076779136514896,[ 0.02145023 -0.04931161  0.02178936 -0.23110238],[ 0.02145023 -0.04931161  0.02178936 -0.23110238],[1.40856839 0.61283389 0.67862283],"[ 1.40133094e+00  6.05774078e-01  6.77134702e-01  1.39998657e+00
  6.05714527e-01  6.59859651e-01 -1.34436831e-03 -5.95511274e-05
 -1.72750503e-02  2.40255324e-02  2.40926942e-02 -1.20394809e-04
 -5.33262997e-04  1.54831787e-02  1.08928780e-05 -1.79810967e-04
 -3.16345274e-05 -3.22424653e-03 -5.24877238e-05  2.13540647e-05
  5.14752451e-04 -1.13700987e-03  4.47624044e-04 -5.73969373e-05
  5.72852519e-05]",0.6230789422988892,0,0
90,104,2024-10-02 20:35:21.037030912,TASK_BEGIN,24,0.4697588561617779,0.2290210309881973,-6.102636839686173,1.0201161294978391,-0.172663297989429,0.3683855791190187,-4.277164604159531,0.6257253689070734,1,2024-10-02 20:35:20.951483887,1727901320.9514842,2024-10-02 20:35:20.951484160,4,[ 0.2641875   0.9990007  -0.39864054  0.32030767],-1.0,-1.0,[ 0.2641875   0.9990007  -0.39864054  0.32030767],[ 0.2641875   0.9990007  -0.39864054  0.32030767],[1.25980319 0.71330043 0.49749431],"[ 1.34955011e+00  7.79854380e-01  5.22377331e-01  1.35439197e+00
  8.73092735e-01  4.24737381e-01  4.84185773e-03  9.32383553e-02
 -9.76399498e-02  3.97923949e-02  4.16189915e-02 -5.03884423e-08
  7.75206804e-08 -2.37545301e-16 -6.76161360e-03 -2.61203470e-02
  1.06608209e-02  2.85323085e-08 -4.38958592e-08  6.76332847e-19
  6.76161250e-03  2.61203463e-02 -1.06341554e-02  6.99548662e-02
  7.08358526e-02]",1.0006194114685059,0,0
91,105,2024-10-02 20:35:21.099832064,TASK_BEGIN,24,0.4812217918645585,0.2335684160200559,-6.039446708562865,1.0059243922921408,-0.1306019944980029,0.3676733154593549,-4.339829661652147,0.6488879006829896,1,2024-10-02 20:35:20.951483887,1727901320.9514842,2024-10-02 20:35:20.951484160,4,[ 0.2641875   0.9990007  -0.39864054  0.32030767],-1.0,-1.0,[ 0.2641875   0.9990007  -0.39864054  0.32030767],[ 0.2641875   0.9990007  -0.39864054  0.32030767],[1.25980319 0.71330043 0.49749431],"[ 1.34955011e+00  7.79854380e-01  5.22377331e-01  1.35439197e+00
  8.73092735e-01  4.24737381e-01  4.84185773e-03  9.32383553e-02
 -9.76399498e-02  3.97923949e-02  4.16189915e-02 -5.03884423e-08
  7.75206804e-08 -2.37545301e-16 -6.76161360e-03 -2.61203470e-02
  1.06608209e-02  2.85323085e-08 -4.38958592e-08  6.76332847e-19
  6.76161250e-03  2.61203463e-02 -1.06341554e-02  6.99548662e-02
  7.08358526e-02]",1.0006194114685059,0,0
92,106,2024-10-02 20:35:21.161250048,TASK_BEGIN,24,0.4922045258690281,0.2371405876350106,-5.961756838161861,0.9869236169753008,-0.0838415187531785,0.3657990207808456,-4.387920015845355,0.6685996122074194,1,2024-10-02 20:35:21.066018066,1727901321.0660183,2024-10-02 20:35:21.066018304,4,[ 0.2758176   0.9999333  -0.54932576  0.14121395],-1.0,-1.99,[ 0.2758176   0.9999333  -0.54932576  0.14121395],[ 0.2758176   0.9999333  -0.54932576  0.14121395],[1.25980319 0.71330043 0.49749431],"[ 1.35816047e+00  8.13373106e-01  5.04238944e-01  1.35439197e+00
  8.73092734e-01  4.24757513e-01 -3.76849568e-03  5.97196283e-02
 -7.94814309e-02  5.13799355e-02  5.16852403e-02 -2.88713263e-08
  4.44174251e-08 -1.54968865e-15 -6.38113531e-03 -2.32000377e-02
  1.33911721e-02  1.62724006e-08 -2.50344625e-08 -1.86092336e-18
  6.38113468e-03  2.32000373e-02 -1.33759361e-02 -3.81177722e-03
 -4.71079939e-03]",1.1074318885803223,0,0
93,107,2024-10-02 20:35:21.239358976,TASK_BEGIN,24,0.5020461168830007,0.2400113072881604,-5.872439418576354,0.9642697519264868,-0.0349449115580075,0.3630262287177939,-4.4178133990767945,0.6822881726746971,1,2024-10-02 20:35:21.066018066,1727901321.0660183,2024-10-02 20:35:21.066018304,4,[ 0.2758176   0.9999333  -0.54932576  0.14121395],-1.0,-1.99,[ 0.2758176   0.9999333  -0.54932576  0.14121395],[ 0.2758176   0.9999333  -0.54932576  0.14121395],[1.25980319 0.71330043 0.49749431],"[ 1.35816047e+00  8.13373106e-01  5.04238944e-01  1.35439197e+00
  8.73092734e-01  4.24757513e-01 -3.76849568e-03  5.97196283e-02
 -7.94814309e-02  5.13799355e-02  5.16852403e-02 -2.88713263e-08
  4.44174251e-08 -1.54968865e-15 -6.38113531e-03 -2.32000377e-02
  1.33911721e-02  1.62724006e-08 -2.50344625e-08 -1.86092336e-18
  6.38113468e-03  2.32000373e-02 -1.33759361e-02 -3.81177722e-03
 -4.71079939e-03]",1.1074318885803223,0,0
94,108,2024-10-02 20:35:22.184366080,TASK_BEGIN,24,0.5104292119876612,0.2424097315154897,-5.773545458296744,0.9390052733347624,0.0134761635478405,0.3596023789262647,-4.426107435358423,0.6873231174429325,1,2024-10-02 20:35:21.596889893,1727901321.5968907,2024-10-02 20:35:21.596890624,4,[-0.6439791  -0.99717146  0.6647995  -0.243646  ],-1.0,-6.793465209301,[-0.6439791  -0.99717146  0.6647995  -0.243646  ],[-0.6439791  -0.99717146  0.6647995  -0.243646  ],[1.25980319 0.71330043 0.49749431],"[ 1.29379763e+00  7.59660839e-01  4.90787185e-01  1.28854150e+00
  7.61461413e-01  4.69861427e-01 -5.25613111e-03  1.80057408e-03
 -2.09257579e-02  2.60546729e-02  2.13393156e-02 -6.87790602e-04
 -1.61590205e-02  2.07223622e-02  5.72949987e-04 -1.41466701e-03
  1.51971801e-04  2.97004975e-03 -1.17094595e-04 -4.66684002e-03
 -1.46317781e-02 -2.33578580e-02  1.58801664e-02 -1.05569894e-03
  2.43348279e-03]",1.5235402584075928,0,0
95,109,2024-10-02 20:35:22.247511040,TASK_BEGIN,24,0.5173679171071671,0.2445097248286761,-5.666445044583072,0.912071363371742,0.0589347846085007,0.355743990217481,-4.4103207348743485,0.6812844739939373,1,2024-10-02 20:35:21.596889893,1727901321.5968907,2024-10-02 20:35:21.596890624,4,[-0.6439791  -0.99717146  0.6647995  -0.243646  ],-1.0,-6.793465209301,[-0.6439791  -0.99717146  0.6647995  -0.243646  ],[-0.6439791  -0.99717146  0.6647995  -0.243646  ],[1.25980319 0.71330043 0.49749431],"[ 1.29379763e+00  7.59660839e-01  4.90787185e-01  1.28854150e+00
  7.61461413e-01  4.69861427e-01 -5.25613111e-03  1.80057408e-03
 -2.09257579e-02  2.60546729e-02  2.13393156e-02 -6.87790602e-04
 -1.61590205e-02  2.07223622e-02  5.72949987e-04 -1.41466701e-03
  1.51971801e-04  2.97004975e-03 -1.17094595e-04 -4.66684002e-03
 -1.46317781e-02 -2.33578580e-02  1.58801664e-02 -1.05569894e-03
  2.43348279e-03]",1.5235402584075928,0,0
96,110,2024-10-02 20:35:22.318899968,TASK_BEGIN,24,0.5231614515919872,0.2464228104522468,-5.552212063641367,0.8843603211079794,0.0992507902929061,0.3516207174625661,-4.369374806387877,0.6622535224613273,1,2024-10-02 20:35:21.596889893,1727901321.5968907,2024-10-02 20:35:21.596890624,4,[-0.6439791  -0.99717146  0.6647995  -0.243646  ],-1.0,-6.793465209301,[-0.6439791  -0.99717146  0.6647995  -0.243646  ],[-0.6439791  -0.99717146  0.6647995  -0.243646  ],[1.25980319 0.71330043 0.49749431],"[ 1.29379763e+00  7.59660839e-01  4.90787185e-01  1.28854150e+00
  7.61461413e-01  4.69861427e-01 -5.25613111e-03  1.80057408e-03
 -2.09257579e-02  2.60546729e-02  2.13393156e-02 -6.87790602e-04
 -1.61590205e-02  2.07223622e-02  5.72949987e-04 -1.41466701e-03
  1.51971801e-04  2.97004975e-03 -1.17094595e-04 -4.66684002e-03
 -1.46317781e-02 -2.33578580e-02  1.58801664e-02 -1.05569894e-03
  2.43348279e-03]",1.5235402584075928,0,0
97,111,2024-10-02 20:35:22.388098816,TASK_BEGIN,24,0.5283281580314299,0.2481914140572301,-5.431994557394401,0.8567577338159921,0.1327187111218456,0.3473402612758772,-4.303559284365809,0.6290485621644817,1,2024-10-02 20:35:21.596889893,1727901321.5968907,2024-10-02 20:35:21.596890624,4,[-0.6439791  -0.99717146  0.6647995  -0.243646  ],-1.0,-6.793465209301,[-0.6439791  -0.99717146  0.6647995  -0.243646  ],[-0.6439791  -0.99717146  0.6647995  -0.243646  ],[1.25980319 0.71330043 0.49749431],"[ 1.29379763e+00  7.59660839e-01  4.90787185e-01  1.28854150e+00
  7.61461413e-01  4.69861427e-01 -5.25613111e-03  1.80057408e-03
 -2.09257579e-02  2.60546729e-02  2.13393156e-02 -6.87790602e-04
 -1.61590205e-02  2.07223622e-02  5.72949987e-04 -1.41466701e-03
  1.51971801e-04  2.97004975e-03 -1.17094595e-04 -4.66684002e-03
 -1.46317781e-02 -2.33578580e-02  1.58801664e-02 -1.05569894e-03
  2.43348279e-03]",1.5235402584075928,0,0
98,112,2024-10-02 20:35:22.449304320,TASK_BEGIN,24,0.5335253987444034,0.2497838978499294,-5.307199633155406,0.8301412180398018,0.1582254001086487,0.3429423898022343,-4.214082581639887,0.581364819957159,1,2024-10-02 20:35:21.596889893,1727901321.5968907,2024-10-02 20:35:21.596890624,4,[-0.6439791  -0.99717146  0.6647995  -0.243646  ],-1.0,-6.793465209301,[-0.6439791  -0.99717146  0.6647995  -0.243646  ],[-0.6439791  -0.99717146  0.6647995  -0.243646  ],[1.25980319 0.71330043 0.49749431],"[ 1.29379763e+00  7.59660839e-01  4.90787185e-01  1.28854150e+00
  7.61461413e-01  4.69861427e-01 -5.25613111e-03  1.80057408e-03
 -2.09257579e-02  2.60546729e-02  2.13393156e-02 -6.87790602e-04
 -1.61590205e-02  2.07223622e-02  5.72949987e-04 -1.41466701e-03
  1.51971801e-04  2.97004975e-03 -1.17094595e-04 -4.66684002e-03
 -1.46317781e-02 -2.33578580e-02  1.58801664e-02 -1.05569894e-03
  2.43348279e-03]",1.5235402584075928,0,0
99,113,2024-10-02 20:35:22.523657984,TASK_BEGIN,24,0.5394603311490968,0.2510955088790984,-5.179501632654821,0.8053366573814401,0.1752980216267797,0.3384052951991319,-4.102587619967251,0.5198244446871741,1,2024-10-02 20:35:21.704890869,1727901321.7048914,2024-10-02 20:35:21.704891392,4,[-0.30729592 -0.6537622   0.3076059  -0.16877052],-0.0,-6.72553055720799,[-0.30729592 -0.6537622   0.3076059  -0.16877052],[-0.30729592 -0.6537622   0.3076059  -0.16877052],[1.25980319 0.71330043 0.49749431],"[ 1.28266906e+00  7.37288819e-01  5.01766153e-01  1.27774508e+00
  7.37465952e-01  4.80883391e-01 -4.92397201e-03  1.77133528e-04
 -2.08827613e-02  2.44973903e-02  2.35273427e-02 -2.90661798e-04
 -1.63294395e-02  1.77940997e-02  1.91371237e-04 -1.82741557e-03
 -2.37925141e-05  3.12639668e-03 -1.27962140e-04 -1.54386100e-03
 -6.47976109e-03 -1.44249990e-02  6.22033967e-03 -2.06343377e-03
  2.24219771e-03]",1.1049529314041138,0,0
100,114,2024-10-02 20:35:22.589177856,TASK_BEGIN,24,0.5468072528424673,0.2519561288134316,-5.050795848407851,0.7830637295082218,0.1841018437113579,0.3336580318532843,-3.9709741241821153,0.4459655997568952,1,2024-10-02 20:35:22.030234131,1727901322.0302348,2024-10-02 20:35:22.030234880,4,[-0.10260102 -0.07380698  0.10189427 -0.13722733],-0.0,-6.525775574128356,[-0.10260102 -0.07380698  0.10189427 -0.13722733],[-0.10260102 -0.07380698  0.10189427 -0.13722733],[1.25980319 0.71330043 0.49749431],"[ 1.26747894e+00  7.27506588e-01  5.15399043e-01  1.26269025e+00
  7.25135744e-01  4.94446234e-01 -4.78868430e-03 -2.37084383e-03
 -2.09528097e-02  2.17861399e-02  2.63367395e-02 -3.21271552e-05
 -1.68351590e-02  1.57379932e-02  3.49373439e-05  6.94467520e-04
 -4.52069065e-05 -4.55309552e-04 -1.40904249e-04 -2.31725626e-04
 -2.32233143e-03 -1.69962046e-03  2.25277775e-03  7.02275191e-04
 -7.00877267e-04]",0.9280775785446167,0,0
101,115,2024-10-02 20:35:23.519675904,TASK_BEGIN,24,0.5561494065222492,0.2521413719522906,-4.923211396414205,0.7639100479653494,0.1854185079837279,0.3285905794494573,-3.821619519610463,0.3621904272044982,1,2024-10-02 20:35:22.788728027,1727901322.7887287,2024-10-02 20:35:22.788728832,4,[-0.00880492 -0.02302055  0.01669162 -0.14048049],-0.0,-6.082449280862882,[-0.00880492 -0.02302055  0.01669162 -0.14048049],[-0.00880492 -0.02302055  0.01669162 -0.14048049],[1.25980319 0.71330043 0.49749431],"[ 1.26012266e+00  7.17295588e-01  5.23956761e-01  1.25546546e+00
  7.17175481e-01  5.02726048e-01 -4.65720436e-03 -1.20106818e-04
 -2.12307132e-02  2.40189123e-02  2.41069184e-02  2.19618903e-04
 -1.78623949e-02  1.52319371e-02  1.89462638e-05 -5.01693589e-04
 -4.21796935e-05 -2.59213629e-03 -1.40203292e-04 -1.22137456e-05
 -1.99341344e-04 -5.30618765e-04  2.97941322e-04 -3.95323264e-04
  3.95844323e-04]",0.8778288960456848,0,0
102,116,2024-10-02 20:35:23.597360128,TASK_BEGIN,24,0.5679548156060547,0.2513837201396104,-4.799184981008481,0.7483483387043951,0.1806020446010001,0.3230595132823731,-3.657759826559824,0.2716603139395395,1,2024-10-02 20:35:22.788728027,1727901322.7887287,2024-10-02 20:35:22.788728832,4,[-0.00880492 -0.02302055  0.01669162 -0.14048049],-0.0,-6.082449280862882,[-0.00880492 -0.02302055  0.01669162 -0.14048049],[-0.00880492 -0.02302055  0.01669162 -0.14048049],[1.25980319 0.71330043 0.49749431],"[ 1.26012266e+00  7.17295588e-01  5.23956761e-01  1.25546546e+00
  7.17175481e-01  5.02726048e-01 -4.65720436e-03 -1.20106818e-04
 -2.12307132e-02  2.40189123e-02  2.41069184e-02  2.19618903e-04
 -1.78623949e-02  1.52319371e-02  1.89462638e-05 -5.01693589e-04
 -4.21796935e-05 -2.59213629e-03 -1.40203292e-04 -1.22137456e-05
 -1.99341344e-04 -5.30618765e-04  2.97941322e-04 -3.95323264e-04
  3.95844323e-04]",0.8778288960456848,0,0
103,117,2024-10-02 20:35:23.659845120,TASK_BEGIN,24,0.5825804153453685,0.2493847175310969,-4.6814914009756485,0.7367720072216248,0.1714760775970113,0.3168964966877809,-3.4836794494393613,0.1781149519826684,1,2024-10-02 20:35:22.788728027,1727901322.7887287,2024-10-02 20:35:22.788728832,4,[-0.00880492 -0.02302055  0.01669162 -0.14048049],-0.0,-6.082449280862882,[-0.00880492 -0.02302055  0.01669162 -0.14048049],[-0.00880492 -0.02302055  0.01669162 -0.14048049],[1.25980319 0.71330043 0.49749431],"[ 1.26012266e+00  7.17295588e-01  5.23956761e-01  1.25546546e+00
  7.17175481e-01  5.02726048e-01 -4.65720436e-03 -1.20106818e-04
 -2.12307132e-02  2.40189123e-02  2.41069184e-02  2.19618903e-04
 -1.78623949e-02  1.52319371e-02  1.89462638e-05 -5.01693589e-04
 -4.21796935e-05 -2.59213629e-03 -1.40203292e-04 -1.22137456e-05
 -1.99341344e-04 -5.30618765e-04  2.97941322e-04 -3.95323264e-04
  3.95844323e-04]",0.8778288960456848,0,0
104,122,2024-10-02 20:35:24.885376000,TASK_BEGIN,24,0.7037496773935615,0.211222829686727,-4.283450582658233,0.7444438533170045,0.1303633278100311,0.2726036598326,-2.6669022425920037,-0.1981235024854753,1,2024-10-02 20:35:24.400327881,1727901324.4003282,2024-10-02 20:35:24.400328192,5,[-0.595284    0.8849845  -0.30237707  0.19012633],-1.0,-1.0,[-0.595284    0.8849845  -0.30237707  0.19012633],[-0.595284    0.8849845  -0.30237707  0.19012633],[1.46467038 0.66887326 0.48621787],"[ 1.32383091e+00  7.76018793e-01  5.25538337e-01  1.21976304e+00
  8.87478344e-01  4.24737381e-01 -1.04067874e-01  1.11459552e-01
 -1.00800956e-01  3.78962248e-02  3.94968029e-02 -5.03884423e-08
  7.75206804e-08 -2.37389917e-16  1.58450887e-02 -2.28162724e-02
  7.95032843e-03  2.85323085e-08 -4.38958592e-08  2.26708204e-18
 -1.58450898e-02  2.28162717e-02 -7.92366287e-03  6.65353410e-02
  6.73058384e-02]",1.0794546604156494,0,0
105,123,2024-10-02 20:35:24.950520064,TASK_BEGIN,24,0.737461285670054,0.1969861505640772,-4.252999488086004,0.7570141533429209,0.1320410743181657,0.261460477014258,-2.5620826478547065,-0.2335300159691944,1,2024-10-02 20:35:24.400327881,1727901324.4003282,2024-10-02 20:35:24.400328192,5,[-0.595284    0.8849845  -0.30237707  0.19012633],-1.0,-1.0,[-0.595284    0.8849845  -0.30237707  0.19012633],[-0.595284    0.8849845  -0.30237707  0.19012633],[1.46467038 0.66887326 0.48621787],"[ 1.32383091e+00  7.76018793e-01  5.25538337e-01  1.21976304e+00
  8.87478344e-01  4.24737381e-01 -1.04067874e-01  1.11459552e-01
 -1.00800956e-01  3.78962248e-02  3.94968029e-02 -5.03884423e-08
  7.75206804e-08 -2.37389917e-16  1.58450887e-02 -2.28162724e-02
  7.95032843e-03  2.85323085e-08 -4.38958592e-08  2.26708204e-18
 -1.58450898e-02  2.28162717e-02 -7.92366287e-03  6.65353410e-02
  6.73058384e-02]",1.0794546604156494,0,0
106,124,2024-10-02 20:35:25.012525056,TASK_BEGIN,24,0.7738013131450319,0.180698490179282,-4.238367972009668,0.771167360688238,0.1373577503635219,0.250171980308207,-2.492836809239242,-0.2518717484289785,1,2024-10-02 20:35:24.400327881,1727901324.4003282,2024-10-02 20:35:24.400328192,5,[-0.595284    0.8849845  -0.30237707  0.19012633],-1.0,-1.0,[-0.595284    0.8849845  -0.30237707  0.19012633],[-0.595284    0.8849845  -0.30237707  0.19012633],[1.46467038 0.66887326 0.48621787],"[ 1.32383091e+00  7.76018793e-01  5.25538337e-01  1.21976304e+00
  8.87478344e-01  4.24737381e-01 -1.04067874e-01  1.11459552e-01
 -1.00800956e-01  3.78962248e-02  3.94968029e-02 -5.03884423e-08
  7.75206804e-08 -2.37389917e-16  1.58450887e-02 -2.28162724e-02
  7.95032843e-03  2.85323085e-08 -4.38958592e-08  2.26708204e-18
 -1.58450898e-02  2.28162717e-02 -7.92366287e-03  6.65353410e-02
  6.73058384e-02]",1.0794546604156494,0,0
107,125,2024-10-02 20:35:25.074084864,TASK_BEGIN,24,0.8122813382391143,0.1626237890752601,-4.237642112271167,0.7855801030098073,0.1454505460124996,0.239114601601134,-2.464750168404908,-0.2530519786463034,1,2024-10-02 20:35:24.400327881,1727901324.4003282,2024-10-02 20:35:24.400328192,5,[-0.595284    0.8849845  -0.30237707  0.19012633],-1.0,-1.0,[-0.595284    0.8849845  -0.30237707  0.19012633],[-0.595284    0.8849845  -0.30237707  0.19012633],[1.46467038 0.66887326 0.48621787],"[ 1.32383091e+00  7.76018793e-01  5.25538337e-01  1.21976304e+00
  8.87478344e-01  4.24737381e-01 -1.04067874e-01  1.11459552e-01
 -1.00800956e-01  3.78962248e-02  3.94968029e-02 -5.03884423e-08
  7.75206804e-08 -2.37389917e-16  1.58450887e-02 -2.28162724e-02
  7.95032843e-03  2.85323085e-08 -4.38958592e-08  2.26708204e-18
 -1.58450898e-02  2.28162717e-02 -7.92366287e-03  6.65353410e-02
  6.73058384e-02]",1.0794546604156494,0,0
108,126,2024-10-02 20:35:25.156584960,TASK_BEGIN,24,0.8523255883343698,0.1430820592816381,-4.2486018705291215,0.7989584319055756,0.15520712610335,0.2286337071570842,-2.481571491557617,-0.2376283930424492,1,2024-10-02 20:35:25.051471924,1727901325.0514727,2024-10-02 20:35:25.051472640,5,[ 0.21952468 -0.43423778 -0.02147174 -0.42636174],-1.0,-6.793465209301,[ 0.21952468 -0.43423778 -0.02147174 -0.42636174],[ 0.21952468 -0.43423778 -0.02147174 -0.42636174],[1.46467038 0.66887326 0.48621787],"[ 1.23054954e+00  8.60177451e-01  4.41081967e-01  1.22546609e+00
  8.60186918e-01  4.25747816e-01 -5.08344532e-03  9.46653288e-06
 -1.53341512e-02  2.33626213e-02  1.94339923e-02  2.05982988e-02
  3.80307497e-03 -2.10933168e-02 -8.02896930e-05 -5.05823510e-03
 -9.89721652e-04 -2.29923165e-02  4.37968079e-03  4.38620605e-02
  6.77912986e-03 -1.13621550e-02  7.72375508e-04 -7.45617941e-03
 -9.65869314e-03]",1.269637942314148,0,0
109,127,2024-10-02 20:35:25.212896000,TASK_BEGIN,24,0.8933539843649035,0.1224052393502882,-4.269054925528404,0.8101679494319007,0.1654421594890994,0.2189927817696777,-2.5443107263036544,-0.2068218705012911,1,2024-10-02 20:35:25.051471924,1727901325.0514727,2024-10-02 20:35:25.051472640,5,[ 0.21952468 -0.43423778 -0.02147174 -0.42636174],-1.0,-6.793465209301,[ 0.21952468 -0.43423778 -0.02147174 -0.42636174],[ 0.21952468 -0.43423778 -0.02147174 -0.42636174],[1.46467038 0.66887326 0.48621787],"[ 1.23054954e+00  8.60177451e-01  4.41081967e-01  1.22546609e+00
  8.60186918e-01  4.25747816e-01 -5.08344532e-03  9.46653288e-06
 -1.53341512e-02  2.33626213e-02  1.94339923e-02  2.05982988e-02
  3.80307497e-03 -2.10933168e-02 -8.02896930e-05 -5.05823510e-03
 -9.89721652e-04 -2.29923165e-02  4.37968079e-03  4.38620605e-02
  6.77912986e-03 -1.13621550e-02  7.72375508e-04 -7.45617941e-03
 -9.65869314e-03]",1.269637942314148,0,0
110,128,2024-10-02 20:35:25.291004928,TASK_BEGIN,24,0.9348600946539096,0.1008941368806752,-4.296907584820699,0.81829618782744,0.1750623386210134,0.2103357467003136,-2.650491665531215,-0.1625695342538714,1,2024-10-02 20:35:25.051471924,1727901325.0514727,2024-10-02 20:35:25.051472640,5,[ 0.21952468 -0.43423778 -0.02147174 -0.42636174],-1.0,-6.793465209301,[ 0.21952468 -0.43423778 -0.02147174 -0.42636174],[ 0.21952468 -0.43423778 -0.02147174 -0.42636174],[1.46467038 0.66887326 0.48621787],"[ 1.23054954e+00  8.60177451e-01  4.41081967e-01  1.22546609e+00
  8.60186918e-01  4.25747816e-01 -5.08344532e-03  9.46653288e-06
 -1.53341512e-02  2.33626213e-02  1.94339923e-02  2.05982988e-02
  3.80307497e-03 -2.10933168e-02 -8.02896930e-05 -5.05823510e-03
 -9.89721652e-04 -2.29923165e-02  4.37968079e-03  4.38620605e-02
  6.77912986e-03 -1.13621550e-02  7.72375508e-04 -7.45617941e-03
 -9.65869314e-03]",1.269637942314148,0,0
111,129,2024-10-02 20:35:26.231767808,TASK_BEGIN,24,0.9764592392095248,0.0787875795568747,-4.329986924648141,0.8226560496273698,0.1831904819799144,0.2026691072819108,-2.793896563665372,-0.1075321357383152,1,2024-10-02 20:35:25.691312012,1727901325.691312,2024-10-02 20:35:25.691312128,5,[ 0.99896276 -0.7575368   0.10325944 -0.10253257],-1.0,-12.247897700103202,[ 0.99896276 -0.7575368   0.10325944 -0.10253257],[ 0.99896276 -0.7575368   0.10325944 -0.10253257],[1.46467038 0.66887326 0.48621787],"[ 1.42093824e+00  7.12041950e-01  5.05051969e-01  1.41949539e+00
  7.11310581e-01  4.87962801e-01 -1.44285406e-03 -7.31369345e-04
 -1.70891678e-02  2.29474147e-02  2.51853892e-02 -3.76210320e-04
  2.81645773e-03  1.40072704e-02  7.64547453e-04 -4.15723590e-04
 -4.60824294e-05 -2.66306572e-05  4.48128333e-04  9.35396240e-04
  2.29050275e-02 -1.79296696e-02  2.13578767e-03 -3.01021998e-04
  3.17988359e-04]",1.3316221237182617,0,0
112,130,2024-10-02 20:35:26.293986048,TASK_BEGIN,24,1.0179026991475677,0.0562487745572308,-4.365777883531636,0.8227650176707424,0.1892400616946769,0.1958633777297269,-2.965014287694629,-0.0449857310181111,1,2024-10-02 20:35:25.691312012,1727901325.691312,2024-10-02 20:35:25.691312128,5,[ 0.99896276 -0.7575368   0.10325944 -0.10253257],-1.0,-12.247897700103202,[ 0.99896276 -0.7575368   0.10325944 -0.10253257],[ 0.99896276 -0.7575368   0.10325944 -0.10253257],[1.46467038 0.66887326 0.48621787],"[ 1.42093824e+00  7.12041950e-01  5.05051969e-01  1.41949539e+00
  7.11310581e-01  4.87962801e-01 -1.44285406e-03 -7.31369345e-04
 -1.70891678e-02  2.29474147e-02  2.51853892e-02 -3.76210320e-04
  2.81645773e-03  1.40072704e-02  7.64547453e-04 -4.15723590e-04
 -4.60824294e-05 -2.66306572e-05  4.48128333e-04  9.35396240e-04
  2.29050275e-02 -1.79296696e-02  2.13578767e-03 -3.01021998e-04
  3.17988359e-04]",1.3316221237182617,0,0
113,131,2024-10-02 20:35:26.371893760,TASK_BEGIN,24,1.0590615892645858,0.0333688832360921,-4.401214116024576,0.8183243002179045,0.1929476236693439,0.189670712223513,-3.1521147121412394,0.0213963976628586,1,2024-10-02 20:35:25.691312012,1727901325.691312,2024-10-02 20:35:25.691312128,5,[ 0.99896276 -0.7575368   0.10325944 -0.10253257],-1.0,-12.247897700103202,[ 0.99896276 -0.7575368   0.10325944 -0.10253257],[ 0.99896276 -0.7575368   0.10325944 -0.10253257],[1.46467038 0.66887326 0.48621787],"[ 1.42093824e+00  7.12041950e-01  5.05051969e-01  1.41949539e+00
  7.11310581e-01  4.87962801e-01 -1.44285406e-03 -7.31369345e-04
 -1.70891678e-02  2.29474147e-02  2.51853892e-02 -3.76210320e-04
  2.81645773e-03  1.40072704e-02  7.64547453e-04 -4.15723590e-04
 -4.60824294e-05 -2.66306572e-05  4.48128333e-04  9.35396240e-04
  2.29050275e-02 -1.79296696e-02  2.13578767e-03 -3.01021998e-04
  3.17988359e-04]",1.3316221237182617,0,0
114,132,2024-10-02 20:35:26.439641088,TASK_BEGIN,24,1.0998857316291044,0.0101853579725324,-4.432602983241061,0.8092095602265782,0.1943671548559236,0.1837564432160324,-3.3426720112455173,0.0878266263216485,1,2024-10-02 20:35:25.691312012,1727901325.691312,2024-10-02 20:35:25.691312128,5,[ 0.99896276 -0.7575368   0.10325944 -0.10253257],-1.0,-12.247897700103202,[ 0.99896276 -0.7575368   0.10325944 -0.10253257],[ 0.99896276 -0.7575368   0.10325944 -0.10253257],[1.46467038 0.66887326 0.48621787],"[ 1.42093824e+00  7.12041950e-01  5.05051969e-01  1.41949539e+00
  7.11310581e-01  4.87962801e-01 -1.44285406e-03 -7.31369345e-04
 -1.70891678e-02  2.29474147e-02  2.51853892e-02 -3.76210320e-04
  2.81645773e-03  1.40072704e-02  7.64547453e-04 -4.15723590e-04
 -4.60824294e-05 -2.66306572e-05  4.48128333e-04  9.35396240e-04
  2.29050275e-02 -1.79296696e-02  2.13578767e-03 -3.01021998e-04
  3.17988359e-04]",1.3316221237182617,0,0
115,133,2024-10-02 20:35:26.494919936,TASK_BEGIN,24,1.140349223570202,-0.0132897755632185,-4.455725766671785,0.795482213155065,0.1938295208887625,0.1777408142344051,-3.5247671193378998,0.1507088207526981,1,2024-10-02 20:35:25.691312012,1727901325.691312,2024-10-02 20:35:25.691312128,5,[ 0.99896276 -0.7575368   0.10325944 -0.10253257],-1.0,-12.247897700103202,[ 0.99896276 -0.7575368   0.10325944 -0.10253257],[ 0.99896276 -0.7575368   0.10325944 -0.10253257],[1.46467038 0.66887326 0.48621787],"[ 1.42093824e+00  7.12041950e-01  5.05051969e-01  1.41949539e+00
  7.11310581e-01  4.87962801e-01 -1.44285406e-03 -7.31369345e-04
 -1.70891678e-02  2.29474147e-02  2.51853892e-02 -3.76210320e-04
  2.81645773e-03  1.40072704e-02  7.64547453e-04 -4.15723590e-04
 -4.60824294e-05 -2.66306572e-05  4.48128333e-04  9.35396240e-04
  2.29050275e-02 -1.79296696e-02  2.13578767e-03 -3.01021998e-04
  3.17988359e-04]",1.3316221237182617,0,0
116,134,2024-10-02 20:35:26.575217152,TASK_BEGIN,24,1.1803986937559965,-0.0370387974605835,-4.466135448431408,0.7774214523046353,0.1918771098111908,0.1712449592188743,-3.688116605902497,0.2069279874224537,1,2024-10-02 20:35:25.797337891,1727901325.7973385,2024-10-02 20:35:25.797338368,5,[ 0.6272956  -0.5431933   0.06587245 -0.08744889],-0.0,-12.12541872310217,[ 0.6272956  -0.5431933   0.06587245 -0.08744889],[ 0.6272956  -0.5431933   0.06587245 -0.08744889],[1.46467038 0.66887326 0.48621787],"[ 1.44148023e+00  6.93361926e-01  5.07149233e-01  1.44062511e+00
  6.92474098e-01  4.90021928e-01 -8.55122407e-04 -8.87827741e-04
 -1.71273047e-02  2.29425750e-02  2.51843238e-02 -5.24994556e-04
  2.80904751e-03  1.45828943e-02  3.79813550e-04 -1.46190983e-04
 -3.64328410e-05  1.91566300e-03  4.42988263e-04  5.06669086e-04
  1.35352916e-02 -1.22050180e-02  1.38007074e-03 -5.91096429e-05
  7.65847243e-05]",1.1927868127822876,0,0
117,135,2024-10-02 20:35:26.634322944,TASK_BEGIN,24,1.2199124401982389,-0.0610120305302837,-4.459638585058852,0.7555527584088864,0.1891856492175547,0.1639352846198317,-3.824606168824803,0.2540919623425008,1,2024-10-02 20:35:25.797337891,1727901325.7973385,2024-10-02 20:35:25.797338368,5,[ 0.6272956  -0.5431933   0.06587245 -0.08744889],-0.0,-12.12541872310217,[ 0.6272956  -0.5431933   0.06587245 -0.08744889],[ 0.6272956  -0.5431933   0.06587245 -0.08744889],[1.46467038 0.66887326 0.48621787],"[ 1.44148023e+00  6.93361926e-01  5.07149233e-01  1.44062511e+00
  6.92474098e-01  4.90021928e-01 -8.55122407e-04 -8.87827741e-04
 -1.71273047e-02  2.29425750e-02  2.51843238e-02 -5.24994556e-04
  2.80904751e-03  1.45828943e-02  3.79813550e-04 -1.46190983e-04
 -3.64328410e-05  1.91566300e-03  4.42988263e-04  5.06669086e-04
  1.35352916e-02 -1.22050180e-02  1.38007074e-03 -5.91096429e-05
  7.65847243e-05]",1.1927868127822876,0,0
118,136,2024-10-02 20:35:27.550395136,TASK_BEGIN,24,1.258668322659941,-0.0851120181125063,-4.432844337654275,0.7306305663563145,0.1864851444954937,0.1555619720939121,-3.928502333641891,0.290706042365758,1,2024-10-02 20:35:26.766465820,1727901326.7664664,2024-10-02 20:35:26.766466304,5,[ 0.01087586 -0.01364264  0.00961104 -0.14065586],-0.0,-11.076779136514896,[ 0.01087586 -0.01364264  0.00961104 -0.14065586],[ 0.01087586 -0.01364264  0.00961104 -0.14065586],[1.46467038 0.66887326 0.48621787],"[ 1.45673628e+00  6.74368465e-01  5.08638179e-01  1.45610933e+00
  6.74271157e-01  4.91253984e-01 -6.26950694e-04 -9.73080519e-05
 -1.73841949e-02  2.39716482e-02  2.41466663e-02 -5.18131067e-05
  3.95405930e-03  1.54768159e-02  1.15337016e-05 -3.76522967e-05
 -2.76423913e-05  2.54303586e-03 -5.62380043e-06 -1.03886025e-06
  2.70332213e-04 -3.08686573e-04  8.42388541e-05 -1.36147396e-04
  1.36021843e-04]",0.5680447816848755,0,0
119,137,2024-10-02 20:35:27.627149056,TASK_BEGIN,24,1.2963213171864651,-0.1091893317432152,-4.383605515744481,0.7035521605534497,0.1844872538079614,0.1459887917677299,-3.99658390398217,0.3162632110793789,1,2024-10-02 20:35:26.766465820,1727901326.7664664,2024-10-02 20:35:26.766466304,5,[ 0.01087586 -0.01364264  0.00961104 -0.14065586],-0.0,-11.076779136514896,[ 0.01087586 -0.01364264  0.00961104 -0.14065586],[ 0.01087586 -0.01364264  0.00961104 -0.14065586],[1.46467038 0.66887326 0.48621787],"[ 1.45673628e+00  6.74368465e-01  5.08638179e-01  1.45610933e+00
  6.74271157e-01  4.91253984e-01 -6.26950694e-04 -9.73080519e-05
 -1.73841949e-02  2.39716482e-02  2.41466663e-02 -5.18131067e-05
  3.95405930e-03  1.54768159e-02  1.15337016e-05 -3.76522967e-05
 -2.76423913e-05  2.54303586e-03 -5.62380043e-06 -1.03886025e-06
  2.70332213e-04 -3.08686573e-04  8.42388541e-05 -1.36147396e-04
  1.36021843e-04]",0.5680447816848755,0,0
120,138,2024-10-02 20:35:27.688785920,TASK_BEGIN,24,1.3323979352356374,-0.1330464452593871,-4.311256288617026,0.6752227239084053,0.1838147856552071,0.135210918482317,-4.028202207053119,0.3312250310973338,1,2024-10-02 20:35:26.872462891,1727901326.872463,2024-10-02 20:35:26.872463104,5,[ 0.01079527 -0.00973822  0.01058749 -0.14160873],-0.0,-10.966011345149747,[ 0.01079527 -0.00973822  0.01058749 -0.14160873],[ 0.01079527 -0.00973822  0.01058749 -0.14160873],[1.46467038 0.66887326 0.48621787],"[ 1.45709463e+00  6.74039012e-01  5.08845852e-01  1.45648075e+00
  6.73858369e-01  4.91434407e-01 -6.13882066e-04 -1.80642916e-04
 -1.74114448e-02  2.38862652e-02  2.42317964e-02  8.44345061e-06
  3.90531812e-03  1.54764501e-02  1.20700939e-05  2.32035790e-05
 -2.75481010e-05  1.79011689e-03 -1.48824671e-05  5.57326895e-07
  2.75387777e-04 -2.20083292e-04  1.12069101e-04 -4.57394794e-05
  4.57632844e-05]",0.5634680986404419,0,0
121,139,2024-10-02 20:35:27.754985984,TASK_BEGIN,24,1.3663079288099411,-0.1564437337495347,-4.216660997855899,0.6464201638258861,0.184932468219817,0.123355058603026,-4.025053087075963,0.3368770229725246,1,2024-10-02 20:35:26.872462891,1727901326.872463,2024-10-02 20:35:26.872463104,5,[ 0.01079527 -0.00973822  0.01058749 -0.14160873],-0.0,-10.966011345149747,[ 0.01079527 -0.00973822  0.01058749 -0.14160873],[ 0.01079527 -0.00973822  0.01058749 -0.14160873],[1.46467038 0.66887326 0.48621787],"[ 1.45709463e+00  6.74039012e-01  5.08845852e-01  1.45648075e+00
  6.73858369e-01  4.91434407e-01 -6.13882066e-04 -1.80642916e-04
 -1.74114448e-02  2.38862652e-02  2.42317964e-02  8.44345061e-06
  3.90531812e-03  1.54764501e-02  1.20700939e-05  2.32035790e-05
 -2.75481010e-05  1.79011689e-03 -1.48824671e-05  5.57326895e-07
  2.75387777e-04 -2.20083292e-04  1.12069101e-04 -4.57394794e-05
  4.57632844e-05]",0.5634680986404419,0,0
122,143,2024-10-02 20:35:28.910526976,TASK_BEGIN,24,1.4660854164873165,-0.2395657806083476,-3.677595910509592,0.5345319429656208,0.208536088002011,0.0709486515120287,-3.749994747665741,0.3078321622506159,1,2024-10-02 20:35:28.823239990,1727901328.8232408,2024-10-02 20:35:28.823240704,6,[-0.09612824  0.7822252  -0.83427995  0.10924727],-1.0,-3.9403989999999998,[-0.09612824  0.7822252  -0.83427995  0.10924727],[-0.09612824  0.7822252  -0.83427995  0.10924727],[1.24593896 0.82307476 0.582224  ],"[ 1.35104816e+00  8.72828102e-01  4.57446543e-01  1.34743028e+00
  8.94027609e-01  4.23173952e-01 -3.61788229e-03  2.11995068e-02
 -3.42725913e-02  5.00386486e-02  5.00395003e-02 -6.19217090e-02
  1.46087201e-03  6.79684685e-04  2.34737008e-03 -1.72595961e-02
  1.89014293e-02 -3.82660405e-02  1.03024923e-03  4.23699085e-04
 -2.73770948e-03  1.77544764e-02 -2.01101462e-02 -1.68943865e-05
 -2.07182508e-05]",1.1673489809036255,0,0
123,144,2024-10-02 20:35:28.972739072,TASK_BEGIN,24,1.4787476757765232,-0.2562212737731891,-3.5264229534507776,0.5082288905471664,0.217226111820094,0.0585398552259454,-3.64486943169978,0.2991555304910196,1,2024-10-02 20:35:28.823239990,1727901328.8232408,2024-10-02 20:35:28.823240704,6,[-0.09612824  0.7822252  -0.83427995  0.10924727],-1.0,-3.9403989999999998,[-0.09612824  0.7822252  -0.83427995  0.10924727],[-0.09612824  0.7822252  -0.83427995  0.10924727],[1.24593896 0.82307476 0.582224  ],"[ 1.35104816e+00  8.72828102e-01  4.57446543e-01  1.34743028e+00
  8.94027609e-01  4.23173952e-01 -3.61788229e-03  2.11995068e-02
 -3.42725913e-02  5.00386486e-02  5.00395003e-02 -6.19217090e-02
  1.46087201e-03  6.79684685e-04  2.34737008e-03 -1.72595961e-02
  1.89014293e-02 -3.82660405e-02  1.03024923e-03  4.23699085e-04
 -2.73770948e-03  1.77544764e-02 -2.01101462e-02 -1.68943865e-05
 -2.07182508e-05]",1.1673489809036255,0,0
124,145,2024-10-02 20:35:29.046142208,TASK_BEGIN,24,1.4856806681007866,-0.2707444611608945,-3.3808761489572223,0.4830137867454145,0.2253578249726564,0.0473406825606614,-3.53884695090804,0.2940207384318294,1,2024-10-02 20:35:28.823239990,1727901328.8232408,2024-10-02 20:35:28.823240704,6,[-0.09612824  0.7822252  -0.83427995  0.10924727],-1.0,-3.9403989999999998,[-0.09612824  0.7822252  -0.83427995  0.10924727],[-0.09612824  0.7822252  -0.83427995  0.10924727],[1.24593896 0.82307476 0.582224  ],"[ 1.35104816e+00  8.72828102e-01  4.57446543e-01  1.34743028e+00
  8.94027609e-01  4.23173952e-01 -3.61788229e-03  2.11995068e-02
 -3.42725913e-02  5.00386486e-02  5.00395003e-02 -6.19217090e-02
  1.46087201e-03  6.79684685e-04  2.34737008e-03 -1.72595961e-02
  1.89014293e-02 -3.82660405e-02  1.03024923e-03  4.23699085e-04
 -2.73770948e-03  1.77544764e-02 -2.01101462e-02 -1.68943865e-05
 -2.07182508e-05]",1.1673489809036255,0,0
125,146,2024-10-02 20:35:29.113892096,TASK_BEGIN,24,1.4868479608590432,-0.2830117751200202,-3.247660272129973,0.4592222771402244,0.2318158504984282,0.0378822701286614,-3.438432125559764,0.2936583868457975,1,2024-10-02 20:35:28.823239990,1727901328.8232408,2024-10-02 20:35:28.823240704,6,[-0.09612824  0.7822252  -0.83427995  0.10924727],-1.0,-3.9403989999999998,[-0.09612824  0.7822252  -0.83427995  0.10924727],[-0.09612824  0.7822252  -0.83427995  0.10924727],[1.24593896 0.82307476 0.582224  ],"[ 1.35104816e+00  8.72828102e-01  4.57446543e-01  1.34743028e+00
  8.94027609e-01  4.23173952e-01 -3.61788229e-03  2.11995068e-02
 -3.42725913e-02  5.00386486e-02  5.00395003e-02 -6.19217090e-02
  1.46087201e-03  6.79684685e-04  2.34737008e-03 -1.72595961e-02
  1.89014293e-02 -3.82660405e-02  1.03024923e-03  4.23699085e-04
 -2.73770948e-03  1.77544764e-02 -2.01101462e-02 -1.68943865e-05
 -2.07182508e-05]",1.1673489809036255,0,0
126,147,2024-10-02 20:35:29.181687040,TASK_BEGIN,24,1.4824139291950835,-0.2929761818270124,-3.132909344373004,0.4371493442674452,0.2355080052435296,0.0306831523278567,-3.3489989240943263,0.29845853889059,1,2024-10-02 20:35:28.823239990,1727901328.8232408,2024-10-02 20:35:28.823240704,6,[-0.09612824  0.7822252  -0.83427995  0.10924727],-1.0,-3.9403989999999998,[-0.09612824  0.7822252  -0.83427995  0.10924727],[-0.09612824  0.7822252  -0.83427995  0.10924727],[1.24593896 0.82307476 0.582224  ],"[ 1.35104816e+00  8.72828102e-01  4.57446543e-01  1.34743028e+00
  8.94027609e-01  4.23173952e-01 -3.61788229e-03  2.11995068e-02
 -3.42725913e-02  5.00386486e-02  5.00395003e-02 -6.19217090e-02
  1.46087201e-03  6.79684685e-04  2.34737008e-03 -1.72595961e-02
  1.89014293e-02 -3.82660405e-02  1.03024923e-03  4.23699085e-04
 -2.73770948e-03  1.77544764e-02 -2.01101462e-02 -1.68943865e-05
 -2.07182508e-05]",1.1673489809036255,0,0
127,148,2024-10-02 20:35:29.235104000,TASK_BEGIN,24,1.4727154984962774,-0.3006561193019327,-3.0414675806468674,0.4169590838724928,0.2355110173261007,0.0261871733249739,-3.2743345964811734,0.3078267952003302,1,2024-10-02 20:35:28.823239990,1727901328.8232408,2024-10-02 20:35:28.823240704,6,[-0.09612824  0.7822252  -0.83427995  0.10924727],-1.0,-3.9403989999999998,[-0.09612824  0.7822252  -0.83427995  0.10924727],[-0.09612824  0.7822252  -0.83427995  0.10924727],[1.24593896 0.82307476 0.582224  ],"[ 1.35104816e+00  8.72828102e-01  4.57446543e-01  1.34743028e+00
  8.94027609e-01  4.23173952e-01 -3.61788229e-03  2.11995068e-02
 -3.42725913e-02  5.00386486e-02  5.00395003e-02 -6.19217090e-02
  1.46087201e-03  6.79684685e-04  2.34737008e-03 -1.72595961e-02
  1.89014293e-02 -3.82660405e-02  1.03024923e-03  4.23699085e-04
 -2.73770948e-03  1.77544764e-02 -2.01101462e-02 -1.68943865e-05
 -2.07182508e-05]",1.1673489809036255,0,0
128,149,2024-10-02 20:35:29.317275136,TASK_BEGIN,24,1.4582317999705194,-0.3061180827354984,-2.976288271453189,0.3986328118759556,0.2311823056870636,0.0247056709887041,-3.2163996719659496,0.3202056637737912,1,2024-10-02 20:35:28.823239990,1727901328.8232408,2024-10-02 20:35:28.823240704,6,[-0.09612824  0.7822252  -0.83427995  0.10924727],-1.0,-3.9403989999999998,[-0.09612824  0.7822252  -0.83427995  0.10924727],[-0.09612824  0.7822252  -0.83427995  0.10924727],[1.24593896 0.82307476 0.582224  ],"[ 1.35104816e+00  8.72828102e-01  4.57446543e-01  1.34743028e+00
  8.94027609e-01  4.23173952e-01 -3.61788229e-03  2.11995068e-02
 -3.42725913e-02  5.00386486e-02  5.00395003e-02 -6.19217090e-02
  1.46087201e-03  6.79684685e-04  2.34737008e-03 -1.72595961e-02
  1.89014293e-02 -3.82660405e-02  1.03024923e-03  4.23699085e-04
 -2.73770948e-03  1.77544764e-02 -2.01101462e-02 -1.68943865e-05
 -2.07182508e-05]",1.1673489809036255,0,0
129,150,2024-10-02 20:35:30.252017152,TASK_BEGIN,24,1.4395498326564993,-0.3094596305392124,-2.9381391267993235,0.3819814659916568,0.2222134369414105,0.0263810872442696,-3.175433962899009,0.3333148997137839,1,2024-10-02 20:35:29.462984131,1727901329.4629848,2024-10-02 20:35:29.462984704,6,[-0.42654315 -0.13091822  0.5308466  -0.12217008],-0.0,-8.561792499119552,[-0.42654315 -0.13091822  0.5308466  -0.12217008],[-0.42654315 -0.13091822  0.5308466  -0.12217008],[1.24593896 0.82307476 0.582224  ],"[ 1.26597124e+00  8.34299644e-01  5.65348161e-01  1.26193141e+00
  8.33875842e-01  5.47953381e-01 -4.03982782e-03 -4.23801936e-04
 -1.73947798e-02  2.36893839e-02  2.44375968e-02 -4.68347945e-05
  2.24369648e-03  1.29481900e-02  1.86239033e-04 -6.98048849e-04
